 LCModel (Version 6.3-1L) Copyright: S.W. Provencher.          Ref.: Magn. Reson. Med. 30:672-679 (1993).                
 Slice#1 Row#5 Col#14  K_02_press_1_raw_act
 36 lines in following concentration table = NCONC+1
    Conc.  %SD /Cr+PCr  Metabolite                                         
  282.935  26%   0.000 Ala                                                 
    0.000 999%   0.000 Asp                                                 
    0.000 999%   0.000 Cr                                                  
    0.000 999%   0.000 PCr                                                 
    0.000 999%   0.000 GABA                                                
 2.79E-02 999%   0.000 Glc                                                 
    9.017 999%   0.000 Gln                                                 
   36.547 390%   0.000 Glu                                                 
    0.000 999%   0.000 GPC                                                 
    0.000 999%   0.000 PCh                                                 
    0.000 999%   0.000 GSH                                                 
   30.784 491%   0.000 Ins                                                 
  231.960  37%   0.000 Lac                                                 
    0.000 999%   0.000 NAA                                                 
    0.000 999%   0.000 NAAG                                                
    0.123 880%   0.000 Scyllo                                              
 2.38E-02 999%   0.000 Tau                                                 
    0.000 999%   0.000 -CrCH2                                              
    0.000 999%   0.000 GPC+PCh                                             
    0.000 999%   0.000 NAA+NAAG                                            
    0.000 999%   0.000 Cr+PCr                                              
   45.565 443%   0.000 Glu+Gln                                             
    0.000 999%   0.000 Lip13a                                              
 3.09E+04  22%   0.000 Lip13b                                              
 1.76E+04  14%   0.000 Lip09                                               
    0.000 999%   0.000 MM09                                                
    0.000 999%   0.000 Lip20                                               
    0.000 999%   0.000 MM20                                                
 2.05E+04  20%   0.000 MM12                                                
 1.51E+04  30%   0.000 MM14                                                
 1.18E+04  24%   0.000 MM17                                                
 3.09E+04  22%   0.000 Lip13a+Lip13b                                       
 6.64E+04   9%   0.000 MM14+Lip13a+Lip13b+MM12                             
 1.76E+04  14%   0.000 MM09+Lip09                                          
    0.000 999%   0.000 MM20+Lip20                                          
   6 lines in following misc. output table
  FWHM = 0.061 ppm    S/N =  40                                            
  Data shift =-0.061 ppm                                                   
  Ph: 109 deg      35.8 deg/ppm                                            
  alphaB,S = 3.8E-01,   4.7E+01                                            
   14 spline knots.   Ns = 5(1)                                            
  ( 9) 2 infls.   ( 9) 1 extrs.                                            
  498 points on ppm-axis = NY
      4.000000     3.992357     3.984714     3.977070     3.969427     3.961784     3.954141     3.946497     3.938854     3.931211
      3.923568     3.915925     3.908281     3.900638     3.892995     3.885352     3.877708     3.870065     3.862422     3.854779
      3.847136     3.839492     3.831849     3.824206     3.816563     3.808919     3.801276     3.793633     3.785990     3.778347
      3.770703     3.763060     3.755417     3.747774     3.740130     3.732487     3.724844     3.717201     3.709558     3.701914
      3.694271     3.686628     3.678985     3.671341     3.663698     3.656055     3.648412     3.640769     3.633125     3.625482
      3.617839     3.610196     3.602552     3.594909     3.587266     3.579623     3.571980     3.564336     3.556693     3.549050
      3.541407     3.533763     3.526120     3.518477     3.510834     3.503191     3.495547     3.487904     3.480261     3.472618
      3.464974     3.457331     3.449688     3.442045     3.434402     3.426758     3.419115     3.411472     3.403829     3.396185
      3.388542     3.380899     3.373256     3.365613     3.357969     3.350326     3.342683     3.335040     3.327396     3.319753
      3.312110     3.304467     3.296824     3.289180     3.281537     3.273894     3.266251     3.258607     3.250964     3.243321
      3.235678     3.228034     3.220391     3.212748     3.205105     3.197462     3.189818     3.182175     3.174532     3.166889
      3.159245     3.151602     3.143959     3.136316     3.128673     3.121029     3.113386     3.105743     3.098100     3.090456
      3.082813     3.075170     3.067527     3.059884     3.052240     3.044597     3.036954     3.029311     3.021667     3.014024
      3.006381     2.998738     2.991095     2.983451     2.975808     2.968165     2.960522     2.952878     2.945235     2.937592
      2.929949     2.922306     2.914662     2.907019     2.899376     2.891733     2.884089     2.876446     2.868803     2.861160
      2.853517     2.845873     2.838230     2.830587     2.822944     2.815300     2.807657     2.800014     2.792371     2.784728
      2.777084     2.769441     2.761798     2.754155     2.746511     2.738868     2.731225     2.723582     2.715939     2.708295
      2.700652     2.693009     2.685366     2.677722     2.670079     2.662436     2.654793     2.647150     2.639506     2.631863
      2.624220     2.616577     2.608933     2.601290     2.593647     2.586004     2.578361     2.570717     2.563074     2.555431
      2.547788     2.540144     2.532501     2.524858     2.517215     2.509572     2.501928     2.494285     2.486642     2.478999
      2.471355     2.463712     2.456069     2.448426     2.440783     2.433139     2.425496     2.417853     2.410210     2.402566
      2.394923     2.387280     2.379637     2.371994     2.364350     2.356707     2.349064     2.341421     2.333777     2.326134
      2.318491     2.310848     2.303205     2.295561     2.287918     2.280275     2.272632     2.264988     2.257345     2.249702
      2.242059     2.234416     2.226772     2.219129     2.211486     2.203843     2.196199     2.188556     2.180913     2.173270
      2.165627     2.157983     2.150340     2.142697     2.135054     2.127410     2.119767     2.112124     2.104481     2.096838
      2.089194     2.081551     2.073908     2.066265     2.058621     2.050978     2.043335     2.035692     2.028049     2.020405
      2.012762     2.005119     1.997476     1.989833     1.982190     1.974546     1.966903     1.959260     1.951617     1.943974
      1.936331     1.928688     1.921045     1.913402     1.905759     1.898115     1.890472     1.882829     1.875186     1.867543
      1.859900     1.852257     1.844614     1.836971     1.829327     1.821684     1.814041     1.806398     1.798755     1.791112
      1.783469     1.775826     1.768183     1.760540     1.752896     1.745253     1.737610     1.729967     1.722324     1.714681
      1.707038     1.699395     1.691752     1.684108     1.676465     1.668822     1.661179     1.653536     1.645893     1.638250
      1.630607     1.622964     1.615321     1.607677     1.600034     1.592391     1.584748     1.577105     1.569462     1.561819
      1.554176     1.546533     1.538890     1.531246     1.523603     1.515960     1.508317     1.500674     1.493031     1.485388
      1.477745     1.470102     1.462458     1.454815     1.447172     1.439529     1.431886     1.424243     1.416600     1.408957
      1.401314     1.393671     1.386027     1.378384     1.370741     1.363098     1.355455     1.347812     1.340169     1.332526
      1.324883     1.317240     1.309596     1.301953     1.294310     1.286667     1.279024     1.271381     1.263738     1.256095
      1.248452     1.240808     1.233165     1.225522     1.217879     1.210236     1.202593     1.194950     1.187307     1.179664
      1.172021     1.164377     1.156734     1.149091     1.141448     1.133805     1.126162     1.118519     1.110876     1.103233
      1.095590     1.087946     1.080303     1.072660     1.065017     1.057374     1.049731     1.042088     1.034445     1.026802
      1.019158     1.011515     1.003872     0.996229     0.988586     0.980943     0.973300     0.965657     0.958014     0.950371
      0.942727     0.935084     0.927441     0.919798     0.912155     0.904512     0.896869     0.889226     0.881583     0.873940
      0.866296     0.858653     0.851010     0.843367     0.835724     0.828081     0.820438     0.812795     0.805152     0.797508
      0.789865     0.782222     0.774579     0.766936     0.759293     0.751650     0.744007     0.736364     0.728721     0.721077
      0.713434     0.705791     0.698148     0.690505     0.682862     0.675219     0.667576     0.659933     0.652290     0.644646
      0.637003     0.629360     0.621717     0.614074     0.606431     0.598788     0.591145     0.583502     0.575858     0.568215
      0.560572     0.552929     0.545286     0.537643     0.530000     0.522357     0.514714     0.507071     0.499427     0.491784
      0.484141     0.476498     0.468855     0.461212     0.453569     0.445925     0.438282     0.430639     0.422996     0.415353
      0.407710     0.400067     0.392424     0.384780     0.377137     0.369494     0.361851     0.354208     0.346565     0.338922
      0.331278     0.323635     0.315992     0.308349     0.300706     0.293063     0.285420     0.277777     0.270133     0.262490
      0.254847     0.247204     0.239561     0.231918     0.224275     0.216631     0.208988     0.201345
 NY phased data points follow
  -8.64558E+00 -1.25417E+01 -7.36146E+00 -1.01108E+01 -6.95375E+00 -8.83367E+00 -9.70419E+00 -8.83361E+00 -8.54113E+00 -5.23786E+00
  -7.50224E+00 -9.64520E+00 -7.90637E+00 -8.88836E+00 -8.28771E+00 -1.09051E+01 -8.32633E+00 -1.06311E+01 -8.59219E+00 -6.20830E+00
  -6.22230E+00 -1.04365E+01 -6.52971E+00 -9.05191E+00 -5.90732E+00 -1.10602E+01 -8.70333E+00 -9.39906E+00 -1.06519E+01 -8.95977E+00
  -7.94955E+00 -9.37982E+00 -9.26928E+00 -7.89201E+00 -8.48550E+00 -7.71209E+00 -8.89048E+00 -7.05752E+00 -6.80633E+00 -7.55152E+00
  -9.16523E+00 -8.82485E+00 -9.37711E+00 -1.01556E+01 -9.00740E+00 -9.87603E+00 -7.18423E+00 -5.30204E+00 -8.29959E+00 -6.86527E+00
  -8.41107E+00 -7.79545E+00 -7.20948E+00 -6.01462E+00 -5.74914E+00 -7.33137E+00 -1.00010E+01 -8.23578E+00 -6.11173E+00 -7.13880E+00
  -7.30580E+00 -6.01497E+00 -2.94129E+00 -7.59712E+00 -9.94060E+00 -8.27952E+00 -7.71153E+00 -7.69630E+00 -9.93903E+00 -6.21252E+00
  -8.32809E+00 -9.40098E+00 -5.22227E+00 -4.62553E+00 -4.76660E+00 -5.02996E+00 -9.12452E+00 -6.76448E+00 -5.79407E+00 -5.53617E+00
  -4.01147E+00 -6.05008E+00 -7.76250E+00 -5.88644E+00 -4.07528E+00 -5.68838E+00 -5.84948E+00 -1.81151E+00 -5.45889E+00 -6.09565E+00
  -5.28436E+00 -2.15106E+00 -5.15518E+00 -7.93784E+00 -5.67613E+00 -8.13583E+00 -6.22072E+00 -6.45829E+00 -7.53874E+00 -4.41471E+00
  -5.45473E+00 -7.74384E+00 -3.65786E+00 -5.78408E+00 -7.31518E+00 -4.24365E+00 -5.28223E+00 -3.58056E+00 -5.35907E+00 -4.87527E+00
  -4.72786E+00 -2.20900E+00 -1.99169E+00 -3.39873E+00 -5.19840E+00 -5.45553E+00 -2.04526E+00 -8.41417E+00 -2.99224E+00 -3.90059E+00
  -2.17443E+00 -4.26089E+00 -4.88320E+00 -3.74952E+00 -5.08264E+00 -4.30567E+00 -2.43506E+00 -3.18069E+00 -2.12983E+00 -2.03996E+00
  -7.14667E+00 -1.98852E+00 -2.64685E+00 -3.88045E+00  2.65595E-01 -1.60361E+00 -3.62566E-01 -1.58640E+00  9.04032E-02 -4.59821E+00
  -2.18015E-01 -7.22859E-02  3.68386E-01 -2.39271E+00 -1.81680E+00 -2.62080E+00 -3.17802E+00 -5.40805E-01 -6.16354E-01 -1.53231E+00
   1.51838E-01 -2.13690E+00 -4.44267E+00 -1.48111E+00  2.49270E+00  1.00195E+00 -2.28192E+00 -9.77197E-01  1.23273E+00  9.32672E-01
   2.95729E-01  1.22315E+00  1.74852E+00 -7.17332E-01 -3.51046E-01  1.37468E+00  1.57136E+00 -7.31798E-01  1.34893E+00  3.23061E+00
   1.72669E-01 -3.80704E-01  3.97347E-02  8.26268E-01  3.83318E+00  2.32392E+00  1.32876E-01  4.47228E+00  1.54045E-01  4.66983E+00
   2.85796E+00  2.07555E-01  3.74275E+00  1.76037E+00  1.46385E+00  1.70112E+00  4.37488E+00  4.11201E+00  4.96433E+00  4.73421E+00
   2.63570E+00  3.64328E+00  4.81416E+00  7.18024E+00  8.23592E+00  4.51383E+00  5.30995E+00  4.08780E+00  5.49161E+00  7.40690E+00
   3.12595E+00  4.57140E+00  4.74644E+00  5.84605E+00  4.78316E+00  4.94282E+00  4.95738E+00  5.08841E+00  4.73797E+00  5.39775E+00
   7.31621E+00  5.94382E+00  7.48474E+00  1.18476E+01  6.27440E+00  5.56359E+00  7.14118E+00  8.42172E+00  6.78514E+00  8.42842E+00
   9.38364E+00  9.49492E+00  7.10974E+00  6.61499E+00  9.57346E+00  1.03129E+01  1.00726E+01  6.90363E+00  1.19775E+01  8.09645E+00
   9.58288E+00  1.06627E+01  1.29022E+01  1.02757E+01  1.11160E+01  9.75042E+00  1.02598E+01  1.02772E+01  1.43407E+01  1.00139E+01
   1.37984E+01  1.08704E+01  1.19094E+01  1.21435E+01  1.29266E+01  1.10555E+01  1.23448E+01  1.19167E+01  1.12214E+01  1.25176E+01
   1.32668E+01  1.23017E+01  1.55011E+01  1.45508E+01  1.43362E+01  1.66523E+01  1.34467E+01  1.63227E+01  1.60027E+01  1.34742E+01
   1.38738E+01  1.61672E+01  1.87627E+01  1.68300E+01  1.96336E+01  1.51435E+01  1.88709E+01  2.24821E+01  2.16174E+01  2.11840E+01
   2.12959E+01  1.98155E+01  1.83859E+01  1.97467E+01  2.26308E+01  2.20202E+01  2.19740E+01  2.27766E+01  2.56669E+01  2.49656E+01
   3.01955E+01  2.85255E+01  2.88431E+01  2.94691E+01  2.66139E+01  3.10053E+01  3.38859E+01  3.40234E+01  3.58502E+01  3.65930E+01
   3.76743E+01  3.90408E+01  3.82257E+01  4.07626E+01  4.04552E+01  4.73502E+01  4.42340E+01  4.65649E+01  4.73556E+01  4.89263E+01
   4.82252E+01  4.91827E+01  5.15006E+01  5.56913E+01  5.57564E+01  5.41185E+01  5.66944E+01  6.15348E+01  6.38915E+01  6.43612E+01
   6.69224E+01  6.70234E+01  7.14928E+01  7.13747E+01  7.30943E+01  7.47926E+01  8.01683E+01  7.89904E+01  8.07265E+01  8.27611E+01
   8.73190E+01  8.81878E+01  8.95262E+01  8.97177E+01  9.60334E+01  9.65764E+01  9.63644E+01  1.04474E+02  1.04456E+02  1.06740E+02
   1.07916E+02  1.10582E+02  1.15087E+02  1.13542E+02  1.22622E+02  1.23473E+02  1.27721E+02  1.31273E+02  1.35048E+02  1.39879E+02
   1.43594E+02  1.44538E+02  1.48006E+02  1.48857E+02  1.51244E+02  1.50486E+02  1.52846E+02  1.51339E+02  1.49511E+02  1.50890E+02
   1.50219E+02  1.50167E+02  1.49297E+02  1.48632E+02  1.45134E+02  1.43721E+02  1.44763E+02  1.45105E+02  1.42374E+02  1.46899E+02
   1.42052E+02  1.36608E+02  1.40394E+02  1.38856E+02  1.38571E+02  1.35836E+02  1.32626E+02  1.31907E+02  1.34061E+02  1.35832E+02
   1.31896E+02  1.32703E+02  1.31154E+02  1.29513E+02  1.25342E+02  1.24387E+02  1.24478E+02  1.19415E+02  1.19052E+02  1.17185E+02
   1.11741E+02  1.09770E+02  1.09368E+02  1.05434E+02  1.05328E+02  1.02580E+02  9.89311E+01  9.80181E+01  9.33223E+01  8.78414E+01
   8.57758E+01  8.36261E+01  8.21992E+01  7.29770E+01  7.31774E+01  6.97136E+01  6.67958E+01  6.27388E+01  5.87027E+01  5.68028E+01
   5.14534E+01  4.92990E+01  4.66125E+01  4.14808E+01  3.75761E+01  3.55472E+01  2.91483E+01  2.57641E+01  2.39272E+01  2.14089E+01
   1.59197E+01  1.43034E+01  1.02254E+01  8.24114E+00  5.02435E+00  1.13681E-01 -2.60251E+00 -4.72565E+00 -7.02300E+00 -9.94996E+00
  -1.42064E+01 -1.34919E+01 -1.80710E+01 -1.89788E+01 -2.10841E+01 -2.26349E+01 -2.53297E+01 -2.78471E+01 -3.11158E+01 -3.17797E+01
  -3.49595E+01 -3.45957E+01 -3.74282E+01 -3.57041E+01 -4.05675E+01 -3.77713E+01 -4.51057E+01 -4.55215E+01 -4.85449E+01 -4.80914E+01
  -4.68198E+01 -5.06380E+01 -5.09391E+01 -5.16552E+01 -5.24180E+01 -5.24174E+01 -5.29798E+01 -5.60675E+01 -5.91412E+01 -5.66922E+01
  -5.55193E+01 -5.66942E+01 -5.85152E+01 -5.83637E+01 -5.92393E+01 -6.04467E+01 -5.92931E+01 -5.91597E+01 -6.16094E+01 -6.29147E+01
  -6.17755E+01 -6.14446E+01 -6.34636E+01 -6.18760E+01 -6.17234E+01 -6.20228E+01 -6.42780E+01 -6.10081E+01 -5.94304E+01 -6.20428E+01
  -6.06224E+01 -6.26967E+01 -6.20192E+01 -6.05590E+01 -6.36976E+01 -6.16658E+01 -6.48370E+01 -6.55516E+01 -6.06363E+01 -6.11378E+01
  -6.23731E+01 -6.06094E+01 -6.38056E+01 -6.31536E+01 -6.05765E+01 -5.91068E+01 -6.16119E+01 -5.96660E+01 -5.99464E+01 -5.78861E+01
  -6.01329E+01 -5.71609E+01 -5.77030E+01 -5.84096E+01 -5.95286E+01 -5.69861E+01 -5.43830E+01 -5.66871E+01
 NY points of the fit to the data follow
  -9.02338E+00 -9.04524E+00 -9.01557E+00 -8.93813E+00 -8.85309E+00 -8.80626E+00 -8.78441E+00 -8.76834E+00 -8.75396E+00 -8.74054E+00
  -8.72850E+00 -8.71980E+00 -8.72283E+00 -8.75841E+00 -8.80956E+00 -8.83960E+00 -8.83580E+00 -8.80139E+00 -8.73782E+00 -8.62879E+00
  -8.44013E+00 -8.22665E+00 -8.08265E+00 -8.02995E+00 -8.06721E+00 -8.20130E+00 -8.41103E+00 -8.68348E+00 -8.96439E+00 -9.15039E+00
  -9.20818E+00 -9.10557E+00 -8.82639E+00 -8.47429E+00 -8.14501E+00 -7.85979E+00 -7.66400E+00 -7.59026E+00 -7.66832E+00 -7.87911E+00
  -8.09765E+00 -8.21697E+00 -8.25904E+00 -8.23726E+00 -8.15913E+00 -8.03881E+00 -7.89880E+00 -7.77907E+00 -7.70912E+00 -7.66577E+00
  -7.64070E+00 -7.63671E+00 -7.65302E+00 -7.67575E+00 -7.67523E+00 -7.63450E+00 -7.56758E+00 -7.49414E+00 -7.42492E+00 -7.36286E+00
  -7.30807E+00 -7.25965E+00 -7.21567E+00 -7.17532E+00 -7.14001E+00 -7.10948E+00 -7.07629E+00 -7.03113E+00 -6.97363E+00 -6.90771E+00
  -6.84039E+00 -6.77573E+00 -6.71553E+00 -6.66015E+00 -6.60797E+00 -6.55812E+00 -6.51044E+00 -6.46456E+00 -6.41805E+00 -6.36670E+00
  -6.31180E+00 -6.25601E+00 -6.20367E+00 -6.15684E+00 -6.11440E+00 -6.07263E+00 -6.02847E+00 -5.98095E+00 -5.92988E+00 -5.87427E+00
  -5.81306E+00 -5.74378E+00 -5.66557E+00 -5.58345E+00 -5.50553E+00 -5.43550E+00 -5.37313E+00 -5.31599E+00 -5.26284E+00 -5.21250E+00
  -5.16227E+00 -5.10832E+00 -5.04876E+00 -4.98202E+00 -4.90970E+00 -4.83572E+00 -4.76135E+00 -4.68642E+00 -4.61093E+00 -4.53566E+00
  -4.46154E+00 -4.38864E+00 -4.31596E+00 -4.24256E+00 -4.16888E+00 -4.09496E+00 -4.02081E+00 -3.94625E+00 -3.87109E+00 -3.79512E+00
  -3.71814E+00 -3.64001E+00 -3.56069E+00 -3.48019E+00 -3.39854E+00 -3.31593E+00 -3.23249E+00 -3.14822E+00 -3.06308E+00 -2.97701E+00
  -2.88999E+00 -2.80200E+00 -2.71302E+00 -2.62300E+00 -2.53189E+00 -2.43968E+00 -2.34635E+00 -2.25193E+00 -2.15643E+00 -2.05984E+00
  -1.96219E+00 -1.86349E+00 -1.76378E+00 -1.66308E+00 -1.56139E+00 -1.45874E+00 -1.35514E+00 -1.25062E+00 -1.14520E+00 -1.03889E+00
  -9.31722E-01 -8.23693E-01 -7.14830E-01 -6.05157E-01 -4.94687E-01 -3.83434E-01 -2.71410E-01 -1.58630E-01 -4.51101E-02  6.91298E-02
   1.84075E-01  2.99711E-01  4.16025E-01  5.32996E-01  6.50612E-01  7.68863E-01  8.87725E-01  1.00718E+00  1.12722E+00  1.24784E+00
   1.36905E+00  1.49081E+00  1.61311E+00  1.73590E+00  1.85917E+00  1.98290E+00  2.10711E+00  2.23182E+00  2.35704E+00  2.48275E+00
   2.60895E+00  2.73560E+00  2.86274E+00  2.99046E+00  3.11875E+00  3.24753E+00  3.37675E+00  3.50640E+00  3.63636E+00  3.76615E+00
   3.89580E+00  4.02507E+00  4.15394E+00  4.28321E+00  4.41364E+00  4.54569E+00  4.68054E+00  4.81961E+00  4.96295E+00  5.10942E+00
   5.25921E+00  5.41149E+00  5.56174E+00  5.70604E+00  5.84228E+00  5.96485E+00  6.07751E+00  6.18970E+00  6.30828E+00  6.43835E+00
   6.58380E+00  6.75493E+00  6.94589E+00  7.14254E+00  7.33592E+00  7.52250E+00  7.69151E+00  7.82264E+00  7.91758E+00  7.99556E+00
   8.07326E+00  8.16200E+00  8.27779E+00  8.43586E+00  8.62542E+00  8.83764E+00  9.06911E+00  9.31003E+00  9.54171E+00  9.74382E+00
   9.91644E+00  1.00765E+01  1.02371E+01  1.04012E+01  1.05730E+01  1.07525E+01  1.09385E+01  1.11292E+01  1.13171E+01  1.15048E+01
   1.16980E+01  1.18963E+01  1.20948E+01  1.22922E+01  1.24918E+01  1.26950E+01  1.29025E+01  1.31161E+01  1.33385E+01  1.35669E+01
   1.37948E+01  1.40259E+01  1.42626E+01  1.45018E+01  1.47455E+01  1.50006E+01  1.52672E+01  1.55390E+01  1.58129E+01  1.60922E+01
   1.63815E+01  1.66827E+01  1.69987E+01  1.73293E+01  1.76709E+01  1.80182E+01  1.83726E+01  1.87396E+01  1.91244E+01  1.95307E+01
   1.99617E+01  2.04191E+01  2.09014E+01  2.14092E+01  2.19469E+01  2.25162E+01  2.31184E+01  2.37551E+01  2.44275E+01  2.51378E+01
   2.58899E+01  2.66881E+01  2.75349E+01  2.84322E+01  2.93818E+01  3.03853E+01  3.14436E+01  3.25564E+01  3.37234E+01  3.49442E+01
   3.62177E+01  3.75416E+01  3.89130E+01  4.03282E+01  4.17828E+01  4.32713E+01  4.47881E+01  4.63269E+01  4.78811E+01  4.94442E+01
   5.10099E+01  5.25724E+01  5.41266E+01  5.56684E+01  5.71952E+01  5.87061E+01  6.02017E+01  6.16847E+01  6.31599E+01  6.46341E+01
   6.61161E+01  6.76166E+01  6.91476E+01  7.07227E+01  7.23563E+01  7.40636E+01  7.58601E+01  7.77620E+01  7.97867E+01  8.19551E+01
   8.42984E+01  8.68838E+01  8.98316E+01  9.29131E+01  9.57097E+01  9.81881E+01  1.00494E+02  1.02724E+02  1.04841E+02  1.06724E+02
   1.08532E+02  1.10686E+02  1.13313E+02  1.16538E+02  1.20437E+02  1.24614E+02  1.28668E+02  1.32608E+02  1.36351E+02  1.39668E+02
   1.42293E+02  1.44221E+02  1.46017E+02  1.48009E+02  1.49670E+02  1.50803E+02  1.51466E+02  1.51728E+02  1.51562E+02  1.50891E+02
   1.49911E+02  1.48886E+02  1.47875E+02  1.47040E+02  1.46589E+02  1.46347E+02  1.45969E+02  1.45468E+02  1.44813E+02  1.43857E+02
   1.42449E+02  1.40674E+02  1.39006E+02  1.37709E+02  1.36648E+02  1.35742E+02  1.34939E+02  1.34197E+02  1.33473E+02  1.32724E+02
   1.31910E+02  1.30991E+02  1.29933E+02  1.28707E+02  1.27292E+02  1.25675E+02  1.23851E+02  1.21821E+02  1.19595E+02  1.17189E+02
   1.14623E+02  1.11921E+02  1.09108E+02  1.06209E+02  1.03248E+02  1.00247E+02  9.72221E+01  9.41874E+01  9.11515E+01  8.81184E+01
   8.50881E+01  8.20569E+01  7.90180E+01  7.59627E+01  7.28811E+01  6.97632E+01  6.65996E+01  6.33824E+01  6.01058E+01  5.67664E+01
   5.33635E+01  4.98993E+01  4.63789E+01  4.28099E+01  3.92018E+01  3.55662E+01  3.19160E+01  2.82649E+01  2.46270E+01  2.10168E+01
   1.74481E+01  1.39338E+01  1.04858E+01  7.11472E+00  3.82957E+00  6.37952E-01 -2.45416E+00 -5.44226E+00 -8.32328E+00 -1.10954E+01
  -1.37579E+01 -1.63113E+01 -1.87568E+01 -2.10965E+01 -2.33329E+01 -2.54690E+01 -2.75081E+01 -2.94540E+01 -3.13102E+01 -3.30805E+01
  -3.47688E+01 -3.63786E+01 -3.79135E+01 -3.93771E+01 -4.07727E+01 -4.21033E+01 -4.33719E+01 -4.45813E+01 -4.57341E+01 -4.68327E+01
  -4.78793E+01 -4.88760E+01 -4.98247E+01 -5.07272E+01 -5.15850E+01 -5.23996E+01 -5.31724E+01 -5.39045E+01 -5.45972E+01 -5.52513E+01
  -5.58678E+01 -5.64475E+01 -5.69912E+01 -5.74996E+01 -5.79741E+01 -5.84160E+01 -5.88264E+01 -5.92065E+01 -5.95574E+01 -5.98802E+01
  -6.01757E+01 -6.04451E+01 -6.06892E+01 -6.09089E+01 -6.11051E+01 -6.12786E+01 -6.14301E+01 -6.15605E+01 -6.16705E+01 -6.17609E+01
  -6.18322E+01 -6.18852E+01 -6.19206E+01 -6.19390E+01 -6.19410E+01 -6.19272E+01 -6.18983E+01 -6.18547E+01 -6.17972E+01 -6.17262E+01
  -6.16423E+01 -6.15460E+01 -6.14378E+01 -6.13184E+01 -6.11881E+01 -6.10475E+01 -6.08971E+01 -6.07374E+01 -6.05688E+01 -6.03919E+01
  -6.02070E+01 -6.00147E+01 -5.98155E+01 -5.96096E+01 -5.93977E+01 -5.91802E+01 -5.89575E+01 -5.87300E+01
 NY background values follow
    -9.708E+00   -9.699E+00   -9.689E+00   -9.680E+00   -9.671E+00   -9.661E+00   -9.652E+00   -9.643E+00   -9.633E+00   -9.623E+00
    -9.613E+00   -9.603E+00   -9.593E+00   -9.583E+00   -9.572E+00   -9.561E+00   -9.550E+00   -9.539E+00   -9.527E+00   -9.515E+00
    -9.503E+00   -9.490E+00   -9.477E+00   -9.463E+00   -9.449E+00   -9.435E+00   -9.420E+00   -9.405E+00   -9.389E+00   -9.372E+00
    -9.355E+00   -9.338E+00   -9.320E+00   -9.301E+00   -9.282E+00   -9.262E+00   -9.241E+00   -9.220E+00   -9.198E+00   -9.175E+00
    -9.152E+00   -9.127E+00   -9.102E+00   -9.076E+00   -9.050E+00   -9.022E+00   -8.994E+00   -8.964E+00   -8.934E+00   -8.903E+00
    -8.871E+00   -8.839E+00   -8.805E+00   -8.771E+00   -8.736E+00   -8.701E+00   -8.664E+00   -8.627E+00   -8.590E+00   -8.551E+00
    -8.512E+00   -8.472E+00   -8.432E+00   -8.391E+00   -8.349E+00   -8.307E+00   -8.264E+00   -8.221E+00   -8.177E+00   -8.133E+00
    -8.088E+00   -8.042E+00   -7.997E+00   -7.950E+00   -7.904E+00   -7.856E+00   -7.809E+00   -7.761E+00   -7.712E+00   -7.663E+00
    -7.614E+00   -7.565E+00   -7.515E+00   -7.465E+00   -7.415E+00   -7.364E+00   -7.313E+00   -7.262E+00   -7.210E+00   -7.159E+00
    -7.107E+00   -7.055E+00   -7.003E+00   -6.950E+00   -6.897E+00   -6.845E+00   -6.791E+00   -6.738E+00   -6.684E+00   -6.630E+00
    -6.576E+00   -6.521E+00   -6.466E+00   -6.411E+00   -6.355E+00   -6.299E+00   -6.243E+00   -6.186E+00   -6.128E+00   -6.071E+00
    -6.012E+00   -5.954E+00   -5.894E+00   -5.834E+00   -5.774E+00   -5.713E+00   -5.652E+00   -5.590E+00   -5.527E+00   -5.464E+00
    -5.400E+00   -5.336E+00   -5.271E+00   -5.205E+00   -5.138E+00   -5.071E+00   -5.003E+00   -4.935E+00   -4.865E+00   -4.795E+00
    -4.724E+00   -4.652E+00   -4.580E+00   -4.507E+00   -4.432E+00   -4.357E+00   -4.281E+00   -4.205E+00   -4.127E+00   -4.049E+00
    -3.969E+00   -3.889E+00   -3.809E+00   -3.727E+00   -3.645E+00   -3.562E+00   -3.479E+00   -3.395E+00   -3.310E+00   -3.225E+00
    -3.139E+00   -3.053E+00   -2.966E+00   -2.878E+00   -2.791E+00   -2.703E+00   -2.614E+00   -2.525E+00   -2.436E+00   -2.346E+00
    -2.256E+00   -2.166E+00   -2.076E+00   -1.985E+00   -1.894E+00   -1.803E+00   -1.712E+00   -1.621E+00   -1.530E+00   -1.438E+00
    -1.347E+00   -1.255E+00   -1.164E+00   -1.072E+00   -9.808E-01   -8.895E-01   -7.982E-01   -7.071E-01   -6.161E-01   -5.253E-01
    -4.347E-01   -3.443E-01   -2.542E-01   -1.643E-01   -7.472E-02    1.460E-02    1.036E-01    1.923E-01    2.807E-01    3.688E-01
     4.565E-01    5.439E-01    6.309E-01    7.175E-01    8.037E-01    8.895E-01    9.749E-01    1.060E+00    1.144E+00    1.228E+00
     1.312E+00    1.395E+00    1.478E+00    1.560E+00    1.642E+00    1.723E+00    1.803E+00    1.883E+00    1.963E+00    2.041E+00
     2.120E+00    2.197E+00    2.274E+00    2.351E+00    2.426E+00    2.502E+00    2.576E+00    2.650E+00    2.723E+00    2.795E+00
     2.867E+00    2.938E+00    3.008E+00    3.078E+00    3.146E+00    3.214E+00    3.281E+00    3.348E+00    3.413E+00    3.477E+00
     3.540E+00    3.602E+00    3.662E+00    3.720E+00    3.777E+00    3.831E+00    3.884E+00    3.934E+00    3.982E+00    4.027E+00
     4.069E+00    4.109E+00    4.146E+00    4.179E+00    4.209E+00    4.236E+00    4.259E+00    4.279E+00    4.294E+00    4.306E+00
     4.313E+00    4.316E+00    4.315E+00    4.309E+00    4.298E+00    4.282E+00    4.262E+00    4.236E+00    4.204E+00    4.168E+00
     4.125E+00    4.077E+00    4.023E+00    3.963E+00    3.897E+00    3.824E+00    3.745E+00    3.659E+00    3.566E+00    3.467E+00
     3.360E+00    3.246E+00    3.125E+00    2.996E+00    2.861E+00    2.717E+00    2.567E+00    2.410E+00    2.245E+00    2.074E+00
     1.895E+00    1.710E+00    1.517E+00    1.318E+00    1.113E+00    9.001E-01    6.809E-01    4.551E-01    2.228E-01   -1.596E-02
    -2.612E-01   -5.128E-01   -7.707E-01   -1.035E+00   -1.305E+00   -1.582E+00   -1.864E+00   -2.153E+00   -2.448E+00   -2.749E+00
    -3.055E+00   -3.367E+00   -3.686E+00   -4.009E+00   -4.339E+00   -4.674E+00   -5.015E+00   -5.361E+00   -5.713E+00   -6.070E+00
    -6.433E+00   -6.800E+00   -7.173E+00   -7.552E+00   -7.935E+00   -8.324E+00   -8.717E+00   -9.115E+00   -9.519E+00   -9.927E+00
    -1.034E+01   -1.076E+01   -1.118E+01   -1.161E+01   -1.204E+01   -1.247E+01   -1.291E+01   -1.335E+01   -1.380E+01   -1.425E+01
    -1.470E+01   -1.516E+01   -1.562E+01   -1.608E+01   -1.655E+01   -1.702E+01   -1.749E+01   -1.797E+01   -1.845E+01   -1.893E+01
    -1.941E+01   -1.990E+01   -2.039E+01   -2.088E+01   -2.137E+01   -2.187E+01   -2.237E+01   -2.287E+01   -2.337E+01   -2.387E+01
    -2.437E+01   -2.488E+01   -2.538E+01   -2.589E+01   -2.640E+01   -2.691E+01   -2.742E+01   -2.793E+01   -2.844E+01   -2.896E+01
    -2.947E+01   -2.998E+01   -3.050E+01   -3.101E+01   -3.153E+01   -3.204E+01   -3.255E+01   -3.307E+01   -3.358E+01   -3.410E+01
    -3.461E+01   -3.513E+01   -3.565E+01   -3.616E+01   -3.668E+01   -3.719E+01   -3.771E+01   -3.823E+01   -3.874E+01   -3.926E+01
    -3.978E+01   -4.029E+01   -4.081E+01   -4.133E+01   -4.185E+01   -4.237E+01   -4.288E+01   -4.340E+01   -4.392E+01   -4.444E+01
    -4.496E+01   -4.548E+01   -4.600E+01   -4.652E+01   -4.704E+01   -4.756E+01   -4.808E+01   -4.860E+01   -4.912E+01   -4.964E+01
    -5.016E+01   -5.069E+01   -5.121E+01   -5.173E+01   -5.225E+01   -5.277E+01   -5.330E+01   -5.382E+01   -5.434E+01   -5.486E+01
    -5.539E+01   -5.591E+01   -5.643E+01   -5.694E+01   -5.746E+01   -5.797E+01   -5.848E+01   -5.899E+01   -5.949E+01   -5.998E+01
    -6.048E+01   -6.097E+01   -6.145E+01   -6.192E+01   -6.239E+01   -6.286E+01   -6.331E+01   -6.376E+01   -6.420E+01   -6.463E+01
    -6.506E+01   -6.547E+01   -6.588E+01   -6.627E+01   -6.666E+01   -6.703E+01   -6.740E+01   -6.775E+01   -6.809E+01   -6.842E+01
    -6.873E+01   -6.903E+01   -6.932E+01   -6.960E+01   -6.986E+01   -7.010E+01   -7.033E+01   -7.055E+01   -7.075E+01   -7.093E+01
    -7.110E+01   -7.124E+01   -7.138E+01   -7.149E+01   -7.159E+01   -7.167E+01   -7.173E+01   -7.178E+01   -7.181E+01   -7.182E+01
    -7.182E+01   -7.181E+01   -7.178E+01   -7.174E+01   -7.168E+01   -7.161E+01   -7.152E+01   -7.143E+01   -7.132E+01   -7.120E+01
    -7.106E+01   -7.092E+01   -7.076E+01   -7.059E+01   -7.042E+01   -7.023E+01   -7.003E+01   -6.983E+01   -6.961E+01   -6.939E+01
    -6.916E+01   -6.892E+01   -6.867E+01   -6.841E+01   -6.815E+01   -6.788E+01   -6.761E+01   -6.733E+01   -6.704E+01   -6.675E+01
    -6.646E+01   -6.616E+01   -6.585E+01   -6.555E+01   -6.523E+01   -6.492E+01   -6.460E+01   -6.428E+01
 Ala      Conc. = 2.83E+02
