 LCModel (Version 6.3-1L) Copyright: S.W. Provencher.          Ref.: Magn. Reson. Med. 30:672-679 (1993).                
 Slice#3 Row#13 Col#2  K_02_press_1_raw_act
 36 lines in following concentration table = NCONC+1
    Conc.  %SD /Cr+PCr  Metabolite                                         
    0.000 999%   0.000 Ala                                                 
   31.173  11%   0.289 Asp                                                 
  107.815  34%   1.000 Cr                                                  
    0.000 999%   0.000 PCr                                                 
   18.728  11%   0.174 GABA                                                
   18.726  11%   0.174 Glc                                                 
    0.000 999%   0.000 Gln                                                 
    0.000 999%   0.000 Glu                                                 
    0.000 999%   0.000 GPC                                                 
    0.000 999%   0.000 PCh                                                 
    0.000 999%   0.000 GSH                                                 
 1.02E+03  15%   9.466 Ins                                                 
    0.000 999%   0.000 Lac                                                 
    0.000 999%   0.000 NAA                                                 
  516.243   9%   4.788 NAAG                                                
    6.245  11% 5.8E-02 Scyllo                                              
   31.216  11%   0.290 Tau                                                 
   10.463  48% 9.7E-02 -CrCH2                                              
    0.000 999%   0.000 GPC+PCh                                             
  516.243   9%   4.788 NAA+NAAG                                            
  107.815  34%   1.000 Cr+PCr                                              
    0.000 999%   0.000 Glu+Gln                                             
    0.000 999%   0.000 Lip13a                                              
   54.701  76%   0.507 Lip13b                                              
   14.587  77%   0.135 Lip09                                               
    0.401 999% 3.7E-03 MM09                                                
    8.221  77% 7.6E-02 Lip20                                               
    0.954 999% 8.9E-03 MM20                                                
    0.137 999% 1.3E-03 MM12                                                
    0.000 999%   0.000 MM14                                                
    0.000 999%   0.000 MM17                                                
   54.701  76%   0.507 Lip13a+Lip13b                                       
   54.839  76%   0.509 MM14+Lip13a+Lip13b+MM12                             
   14.988  86%   0.139 MM09+Lip09                                          
    9.175 137% 8.5E-02 MM20+Lip20                                          
   6 lines in following misc. output table
  FWHM = 0.138 ppm    S/N =   3                                            
  Data shift =-0.122 ppm                                                   
  Ph:  60 deg       2.7 deg/ppm                                            
  alphaB,S = 3.2E-01,   2.6E+01                                            
   14 spline knots.   Ns = 7(2)                                            
  (12)11 infls.   (13) 5 extrs.                                            
  498 points on ppm-axis = NY
      4.000000     3.992357     3.984714     3.977070     3.969427     3.961784     3.954141     3.946497     3.938854     3.931211
      3.923568     3.915925     3.908281     3.900638     3.892995     3.885352     3.877708     3.870065     3.862422     3.854779
      3.847136     3.839492     3.831849     3.824206     3.816563     3.808919     3.801276     3.793633     3.785990     3.778347
      3.770703     3.763060     3.755417     3.747774     3.740130     3.732487     3.724844     3.717201     3.709558     3.701914
      3.694271     3.686628     3.678985     3.671341     3.663698     3.656055     3.648412     3.640769     3.633125     3.625482
      3.617839     3.610196     3.602552     3.594909     3.587266     3.579623     3.571980     3.564336     3.556693     3.549050
      3.541407     3.533763     3.526120     3.518477     3.510834     3.503191     3.495547     3.487904     3.480261     3.472618
      3.464974     3.457331     3.449688     3.442045     3.434402     3.426758     3.419115     3.411472     3.403829     3.396185
      3.388542     3.380899     3.373256     3.365613     3.357969     3.350326     3.342683     3.335040     3.327396     3.319753
      3.312110     3.304467     3.296824     3.289180     3.281537     3.273894     3.266251     3.258607     3.250964     3.243321
      3.235678     3.228034     3.220391     3.212748     3.205105     3.197462     3.189818     3.182175     3.174532     3.166889
      3.159245     3.151602     3.143959     3.136316     3.128673     3.121029     3.113386     3.105743     3.098100     3.090456
      3.082813     3.075170     3.067527     3.059884     3.052240     3.044597     3.036954     3.029311     3.021667     3.014024
      3.006381     2.998738     2.991095     2.983451     2.975808     2.968165     2.960522     2.952878     2.945235     2.937592
      2.929949     2.922306     2.914662     2.907019     2.899376     2.891733     2.884089     2.876446     2.868803     2.861160
      2.853517     2.845873     2.838230     2.830587     2.822944     2.815300     2.807657     2.800014     2.792371     2.784728
      2.777084     2.769441     2.761798     2.754155     2.746511     2.738868     2.731225     2.723582     2.715939     2.708295
      2.700652     2.693009     2.685366     2.677722     2.670079     2.662436     2.654793     2.647150     2.639506     2.631863
      2.624220     2.616577     2.608933     2.601290     2.593647     2.586004     2.578361     2.570717     2.563074     2.555431
      2.547788     2.540144     2.532501     2.524858     2.517215     2.509572     2.501928     2.494285     2.486642     2.478999
      2.471355     2.463712     2.456069     2.448426     2.440783     2.433139     2.425496     2.417853     2.410210     2.402566
      2.394923     2.387280     2.379637     2.371994     2.364350     2.356707     2.349064     2.341421     2.333777     2.326134
      2.318491     2.310848     2.303205     2.295561     2.287918     2.280275     2.272632     2.264988     2.257345     2.249702
      2.242059     2.234416     2.226772     2.219129     2.211486     2.203843     2.196199     2.188556     2.180913     2.173270
      2.165627     2.157983     2.150340     2.142697     2.135054     2.127410     2.119767     2.112124     2.104481     2.096838
      2.089194     2.081551     2.073908     2.066265     2.058621     2.050978     2.043335     2.035692     2.028049     2.020405
      2.012762     2.005119     1.997476     1.989833     1.982190     1.974546     1.966903     1.959260     1.951617     1.943974
      1.936331     1.928688     1.921045     1.913402     1.905759     1.898115     1.890472     1.882829     1.875186     1.867543
      1.859900     1.852257     1.844614     1.836971     1.829327     1.821684     1.814041     1.806398     1.798755     1.791112
      1.783469     1.775826     1.768183     1.760540     1.752896     1.745253     1.737610     1.729967     1.722324     1.714681
      1.707038     1.699395     1.691752     1.684108     1.676465     1.668822     1.661179     1.653536     1.645893     1.638250
      1.630607     1.622964     1.615321     1.607677     1.600034     1.592391     1.584748     1.577105     1.569462     1.561819
      1.554176     1.546533     1.538890     1.531246     1.523603     1.515960     1.508317     1.500674     1.493031     1.485388
      1.477745     1.470102     1.462458     1.454815     1.447172     1.439529     1.431886     1.424243     1.416600     1.408957
      1.401314     1.393671     1.386027     1.378384     1.370741     1.363098     1.355455     1.347812     1.340169     1.332526
      1.324883     1.317240     1.309596     1.301953     1.294310     1.286667     1.279024     1.271381     1.263738     1.256095
      1.248452     1.240808     1.233165     1.225522     1.217879     1.210236     1.202593     1.194950     1.187307     1.179664
      1.172021     1.164377     1.156734     1.149091     1.141448     1.133805     1.126162     1.118519     1.110876     1.103233
      1.095590     1.087946     1.080303     1.072660     1.065017     1.057374     1.049731     1.042088     1.034445     1.026802
      1.019158     1.011515     1.003872     0.996229     0.988586     0.980943     0.973300     0.965657     0.958014     0.950371
      0.942727     0.935084     0.927441     0.919798     0.912155     0.904512     0.896869     0.889226     0.881583     0.873940
      0.866296     0.858653     0.851010     0.843367     0.835724     0.828081     0.820438     0.812795     0.805152     0.797508
      0.789865     0.782222     0.774579     0.766936     0.759293     0.751650     0.744007     0.736364     0.728721     0.721077
      0.713434     0.705791     0.698148     0.690505     0.682862     0.675219     0.667576     0.659933     0.652290     0.644646
      0.637003     0.629360     0.621717     0.614074     0.606431     0.598788     0.591145     0.583502     0.575858     0.568215
      0.560572     0.552929     0.545286     0.537643     0.530000     0.522357     0.514714     0.507071     0.499427     0.491784
      0.484141     0.476498     0.468855     0.461212     0.453569     0.445925     0.438282     0.430639     0.422996     0.415353
      0.407710     0.400067     0.392424     0.384780     0.377137     0.369494     0.361851     0.354208     0.346565     0.338922
      0.331278     0.323635     0.315992     0.308349     0.300706     0.293063     0.285420     0.277777     0.270133     0.262490
      0.254847     0.247204     0.239561     0.231918     0.224275     0.216631     0.208988     0.201345
 NY phased data points follow
   6.94901E+01  6.67389E+01  6.57241E+01  6.35438E+01  5.98217E+01  5.96439E+01  5.84482E+01  5.61889E+01  5.34381E+01  5.40652E+01
   5.37427E+01  5.48951E+01  4.96413E+01  5.27185E+01  5.02231E+01  4.86711E+01  4.72083E+01  4.46295E+01  4.64237E+01  4.49286E+01
   4.58301E+01  4.04693E+01  4.28359E+01  4.04224E+01  3.91668E+01  3.89579E+01  3.75056E+01  3.46969E+01  3.69662E+01  3.47745E+01
   3.14164E+01  3.09299E+01  3.26265E+01  2.97205E+01  2.86307E+01  2.65534E+01  2.69843E+01  2.71478E+01  2.50291E+01  2.50736E+01
   2.17941E+01  2.24978E+01  2.20500E+01  2.16557E+01  2.12011E+01  2.26295E+01  2.04525E+01  2.00513E+01  1.98580E+01  1.87157E+01
   1.89077E+01  1.89609E+01  1.90274E+01  1.54167E+01  1.68122E+01  1.69365E+01  1.87636E+01  1.68234E+01  1.46173E+01  1.64778E+01
   1.71359E+01  1.62767E+01  1.30170E+01  1.38691E+01  1.50769E+01  1.32199E+01  1.29567E+01  1.20417E+01  1.22788E+01  1.21627E+01
   1.23019E+01  1.08448E+01  1.20466E+01  1.10133E+01  1.36616E+01  1.04221E+01  1.03310E+01  9.17731E+00  9.59721E+00  1.08466E+01
   9.22867E+00  7.60866E+00  8.52895E+00  8.46537E+00  8.78387E+00  7.32515E+00  7.17673E+00  7.05642E+00  7.20032E+00  3.41149E+00
   5.80473E+00  5.69898E+00  8.09647E+00  5.23279E+00  5.48736E+00  3.89728E+00  4.45331E+00  3.55154E+00  4.01801E+00  5.54874E+00
   5.77640E+00  4.91141E+00  4.29407E+00  5.43319E+00  4.31422E+00  2.43298E+00  4.58170E+00  3.12067E+00  3.84292E+00  5.32295E+00
   5.57702E+00  2.61436E+00  5.26747E+00  4.35807E+00  3.89130E+00  3.87269E+00  6.40059E+00  5.44226E+00  5.50754E+00  6.78459E+00
   5.25899E+00  6.29511E+00  9.14637E+00  8.91860E+00  7.75776E+00  7.51098E+00  7.15179E+00  6.73038E+00  7.63650E+00  7.52098E+00
   7.92244E+00  1.08222E+01  7.48609E+00  8.99012E+00  1.02264E+01  9.29159E+00  9.35827E+00  9.91905E+00  7.37956E+00  1.00119E+01
   1.00529E+01  1.05858E+01  1.04630E+01  1.13323E+01  1.17218E+01  1.04513E+01  1.13133E+01  1.13990E+01  1.29563E+01  1.06538E+01
   1.03899E+01  1.16715E+01  1.17581E+01  1.30288E+01  1.06709E+01  1.27072E+01  1.34869E+01  1.40822E+01  1.27218E+01  1.19060E+01
   1.35493E+01  1.49354E+01  1.42378E+01  1.26636E+01  1.25128E+01  1.25375E+01  1.48068E+01  1.46229E+01  1.28381E+01  1.51519E+01
   1.61939E+01  1.46359E+01  1.38950E+01  1.44209E+01  1.43679E+01  1.49830E+01  1.37085E+01  1.48976E+01  1.54279E+01  1.54897E+01
   1.72537E+01  1.69680E+01  1.54844E+01  1.77601E+01  1.93789E+01  1.70036E+01  1.82791E+01  1.86462E+01  2.14384E+01  1.92304E+01
   1.83622E+01  1.83938E+01  1.92012E+01  1.93256E+01  1.98261E+01  2.03400E+01  2.03453E+01  2.21689E+01  2.08717E+01  1.89248E+01
   2.00533E+01  2.19473E+01  2.30922E+01  2.15516E+01  1.99979E+01  2.02506E+01  2.18183E+01  2.19348E+01  2.06013E+01  2.13599E+01
   2.20371E+01  2.38842E+01  2.06350E+01  2.28385E+01  2.32455E+01  2.28278E+01  2.12839E+01  2.20122E+01  2.10761E+01  2.53845E+01
   2.50004E+01  2.70824E+01  2.56172E+01  2.66009E+01  2.47575E+01  2.64614E+01  2.67217E+01  2.75627E+01  2.86863E+01  2.87747E+01
   2.85081E+01  2.81961E+01  2.95302E+01  3.01648E+01  3.17877E+01  3.21947E+01  3.03522E+01  3.04872E+01  3.40530E+01  3.07946E+01
   3.18052E+01  3.23527E+01  3.63337E+01  3.69618E+01  3.49079E+01  3.67454E+01  3.73258E+01  3.80250E+01  3.77200E+01  3.76485E+01
   3.96656E+01  4.22034E+01  4.02108E+01  4.03200E+01  4.23992E+01  4.64818E+01  4.36624E+01  4.30313E+01  4.31834E+01  4.64605E+01
   4.52283E+01  4.43432E+01  4.45086E+01  4.42020E+01  4.54593E+01  4.35248E+01  4.13906E+01  4.09601E+01  4.19403E+01  4.09106E+01
   3.92570E+01  3.82848E+01  3.88635E+01  3.86108E+01  3.84598E+01  3.83099E+01  3.87137E+01  3.88581E+01  4.02691E+01  3.75570E+01
   3.44472E+01  3.72201E+01  3.48466E+01  3.45807E+01  3.31777E+01  3.39023E+01  3.44594E+01  3.33920E+01  3.17998E+01  3.06649E+01
   3.11681E+01  3.06908E+01  2.98014E+01  2.89217E+01  2.75856E+01  2.89158E+01  2.83056E+01  2.58651E+01  2.56825E+01  2.67138E+01
   2.62931E+01  2.40214E+01  2.12561E+01  1.82320E+01  2.20744E+01  2.06745E+01  1.82687E+01  1.59069E+01  1.86883E+01  1.84743E+01
   1.48194E+01  1.45569E+01  1.60053E+01  1.61176E+01  1.34179E+01  1.36508E+01  1.16469E+01  1.22759E+01  1.04302E+01  1.05055E+01
   8.71912E+00  7.96002E+00  9.89767E+00  8.80709E+00  9.73159E+00  8.88680E+00  8.54099E+00  7.72568E+00  6.65269E+00  6.22718E+00
   4.98508E+00  4.70155E+00  5.22925E+00  4.65567E+00  2.86637E+00  2.93969E+00  2.24641E+00  2.90918E+00  2.02555E+00  1.58792E+00
   8.15100E-01  7.07390E-02  1.55688E+00 -1.15105E+00 -3.21596E-01  2.62814E+00 -5.28884E-01 -4.04141E-01 -2.46449E+00 -1.81524E+00
   6.23072E-01 -1.89952E+00 -1.16985E+00  7.97776E-02 -2.73388E+00 -2.22239E+00 -2.30067E+00 -1.00043E+00 -7.20453E-02 -1.69443E+00
  -2.29045E+00 -3.88389E+00 -1.99142E+00 -3.40142E+00 -3.66965E+00 -3.11261E+00 -4.57183E+00 -4.05502E+00 -3.27376E+00 -3.61143E+00
  -5.21405E+00 -2.61436E+00 -3.30082E+00 -3.41517E+00 -4.46165E+00 -2.90502E+00 -3.66140E+00 -4.39071E+00 -3.70779E+00 -4.43921E+00
  -3.27298E+00 -4.73053E+00 -5.31804E+00 -4.00133E+00 -5.12545E+00 -4.97362E+00 -3.39044E+00 -4.55223E+00 -6.78455E+00 -3.87749E+00
  -3.79265E+00 -6.43531E+00 -3.24953E+00 -4.36918E+00 -3.52654E+00 -4.13375E+00 -5.84135E+00 -4.51315E+00 -4.39096E+00 -6.76755E+00
  -5.17208E+00 -5.89464E+00 -3.42011E+00 -3.35602E+00 -5.72741E+00 -5.36353E+00 -5.89568E+00 -4.88865E+00 -2.74878E+00 -6.48702E+00
  -4.66851E+00 -4.35505E+00 -5.10464E+00 -3.88925E+00 -4.69739E+00 -7.39839E+00 -4.76211E+00 -4.79819E+00 -3.80220E+00 -5.61403E+00
  -4.32219E+00 -4.66713E+00 -3.69155E+00 -2.15369E+00 -3.31856E+00 -5.17543E+00 -5.24919E+00 -4.45641E+00 -4.06589E+00 -6.41373E+00
  -6.09369E+00 -3.31872E+00 -1.80038E+00 -3.56826E+00 -2.47466E+00 -4.74474E+00 -4.74466E+00 -3.78626E+00 -4.26261E+00 -5.42946E+00
  -5.73041E+00 -4.47941E+00 -5.23385E+00 -5.32265E+00 -4.77298E+00 -4.50396E+00 -3.41364E+00 -4.85065E+00 -5.87028E+00 -3.74406E+00
  -6.55857E+00 -4.38721E+00 -7.11755E+00 -4.62138E+00 -3.79121E+00 -4.84087E+00 -5.89559E+00 -4.73089E+00 -4.25617E+00 -3.77454E+00
  -3.67308E+00 -5.72209E+00 -4.62904E+00 -6.28829E+00 -4.52862E+00 -4.24812E+00 -6.47079E+00 -5.21476E+00 -5.55392E+00 -4.56441E+00
  -5.53943E+00 -5.72013E+00 -4.34271E+00 -5.27254E+00 -3.37089E+00 -2.08949E+00 -3.46765E+00 -5.69996E+00 -3.86508E+00 -3.01091E+00
  -5.19630E+00 -3.88214E+00 -5.41237E+00 -4.09253E+00 -4.25595E+00 -4.34086E+00 -2.22743E+00 -2.71474E+00 -5.08918E+00 -3.21587E+00
  -3.72099E+00 -4.34733E+00 -3.07188E+00 -1.58432E+00 -5.74454E+00 -5.05104E+00 -2.95526E+00 -2.19324E+00
 NY points of the fit to the data follow
   6.62975E+01  6.50624E+01  6.39406E+01  6.24775E+01  6.11962E+01  5.99915E+01  5.86995E+01  5.72919E+01  5.61225E+01  5.48542E+01
   5.36835E+01  5.24331E+01  5.13068E+01  5.01338E+01  4.91294E+01  4.79807E+01  4.69995E+01  4.58895E+01  4.49347E+01  4.38104E+01
   4.28245E+01  4.16172E+01  4.06186E+01  3.95908E+01  3.86822E+01  3.76139E+01  3.65823E+01  3.55256E+01  3.45035E+01  3.35895E+01
   3.26425E+01  3.18007E+01  3.09926E+01  3.03574E+01  2.97986E+01  2.92474E+01  2.85585E+01  2.78168E+01  2.69137E+01  2.60738E+01
   2.51853E+01  2.45614E+01  2.41085E+01  2.36937E+01  2.31583E+01  2.27243E+01  2.23987E+01  2.18874E+01  2.12928E+01  2.06226E+01
   2.02369E+01  1.96140E+01  1.90337E+01  1.83938E+01  1.80835E+01  1.75505E+01  1.72678E+01  1.65167E+01  1.60368E+01  1.53085E+01
   1.50161E+01  1.43740E+01  1.39000E+01  1.31972E+01  1.27942E+01  1.22821E+01  1.22797E+01  1.19600E+01  1.19614E+01  1.15713E+01
   1.14424E+01  1.10455E+01  1.09067E+01  1.04668E+01  1.02842E+01  9.82609E+00  9.56973E+00  9.17895E+00  9.00671E+00  8.75605E+00
   8.68977E+00  8.44088E+00  8.20731E+00  7.86691E+00  7.58056E+00  7.22116E+00  6.82296E+00  6.49315E+00  6.20757E+00  5.94175E+00
   5.73786E+00  5.58086E+00  5.40255E+00  5.28804E+00  5.08551E+00  5.02895E+00  4.80599E+00  4.83035E+00  4.69827E+00  4.79968E+00
   4.66111E+00  4.76684E+00  4.65916E+00  4.82957E+00  4.77127E+00  4.88245E+00  4.79530E+00  4.83675E+00  4.81075E+00  4.87862E+00
   4.90226E+00  4.96087E+00  5.10197E+00  5.37719E+00  5.61145E+00  5.84009E+00  6.02381E+00  6.18648E+00  6.33215E+00  6.45184E+00
   6.62178E+00  6.96902E+00  7.16334E+00  7.44426E+00  7.64581E+00  8.01054E+00  8.19211E+00  8.37485E+00  8.52164E+00  8.76837E+00
   8.92363E+00  9.09961E+00  9.24363E+00  9.42853E+00  9.55799E+00  9.64885E+00  9.70815E+00  9.62249E+00  9.68002E+00  9.75610E+00
   9.81777E+00  9.75548E+00  9.81765E+00  9.79157E+00  9.92818E+00  1.00941E+01  1.02683E+01  1.04433E+01  1.06019E+01  1.07471E+01
   1.09186E+01  1.10674E+01  1.12587E+01  1.14239E+01  1.16146E+01  1.17693E+01  1.19311E+01  1.20941E+01  1.22829E+01  1.24331E+01
   1.26358E+01  1.27804E+01  1.29531E+01  1.31004E+01  1.32561E+01  1.34465E+01  1.36150E+01  1.37840E+01  1.39458E+01  1.40832E+01
   1.43116E+01  1.45122E+01  1.47081E+01  1.48882E+01  1.50946E+01  1.53052E+01  1.55172E+01  1.57135E+01  1.59849E+01  1.62183E+01
   1.64812E+01  1.66843E+01  1.69163E+01  1.71549E+01  1.73974E+01  1.76516E+01  1.79725E+01  1.82032E+01  1.84443E+01  1.86743E+01
   1.89498E+01  1.91794E+01  1.94187E+01  1.96447E+01  1.98577E+01  2.00212E+01  2.02355E+01  2.04287E+01  2.06485E+01  2.08238E+01
   2.09890E+01  2.11398E+01  2.13105E+01  2.14343E+01  2.16481E+01  2.17883E+01  2.20048E+01  2.21349E+01  2.23811E+01  2.25486E+01
   2.28017E+01  2.29823E+01  2.32585E+01  2.34648E+01  2.37170E+01  2.39325E+01  2.41929E+01  2.44319E+01  2.47394E+01  2.50340E+01
   2.53589E+01  2.56916E+01  2.60375E+01  2.64032E+01  2.67373E+01  2.70935E+01  2.74165E+01  2.77512E+01  2.80587E+01  2.84207E+01
   2.87852E+01  2.91748E+01  2.95266E+01  2.99393E+01  3.02922E+01  3.06706E+01  3.09426E+01  3.13135E+01  3.16375E+01  3.20382E+01
   3.23471E+01  3.29842E+01  3.41665E+01  3.48852E+01  3.56689E+01  3.61628E+01  3.66443E+01  3.70072E+01  3.72939E+01  3.78062E+01
   3.91696E+01  3.98424E+01  4.09170E+01  4.15401E+01  4.28983E+01  4.33052E+01  4.37867E+01  4.39879E+01  4.46883E+01  4.48173E+01
   4.51057E+01  4.50726E+01  4.52829E+01  4.50487E+01  4.47493E+01  4.41636E+01  4.29811E+01  4.23283E+01  4.18239E+01  4.12192E+01
   4.01448E+01  3.93820E+01  3.83486E+01  3.77793E+01  3.74458E+01  3.70350E+01  3.67052E+01  3.62915E+01  3.59696E+01  3.55205E+01
   3.51656E+01  3.46811E+01  3.42842E+01  3.37477E+01  3.33084E+01  3.27271E+01  3.22587E+01  3.16709E+01  3.11723E+01  3.05512E+01
   3.00361E+01  2.94164E+01  2.88744E+01  2.82283E+01  2.76519E+01  2.69950E+01  2.63901E+01  2.57131E+01  2.50873E+01  2.44139E+01
   2.37690E+01  2.31007E+01  2.24378E+01  2.17630E+01  2.11019E+01  2.04334E+01  1.97658E+01  1.91015E+01  1.84327E+01  1.77776E+01
   1.71215E+01  1.64742E+01  1.58314E+01  1.52027E+01  1.45775E+01  1.39669E+01  1.33607E+01  1.27653E+01  1.21795E+01  1.16053E+01
   1.10411E+01  1.04887E+01  9.94633E+00  9.41550E+00  8.89502E+00  8.38589E+00  7.88693E+00  7.39906E+00  6.92142E+00  6.45467E+00
   5.99822E+00  5.55251E+00  5.11689E+00  4.69185E+00  4.27677E+00  3.87215E+00  3.47741E+00  3.09310E+00  2.71867E+00  2.35480E+00
   2.00121E+00  1.65898E+00  1.32837E+00  1.01117E+00  7.08532E-01  4.23180E-01  1.57021E-01 -8.69592E-02 -3.07450E-01 -5.03236E-01
  -6.76050E-01 -8.28815E-01 -9.67984E-01 -1.10091E+00 -1.23712E+00 -1.38475E+00 -1.55128E+00 -1.73998E+00 -1.95153E+00 -2.18175E+00
  -2.42459E+00 -2.67119E+00 -2.91351E+00 -3.14355E+00 -3.35641E+00 -3.54839E+00 -3.71911E+00 -3.86879E+00 -3.99985E+00 -4.11416E+00
  -4.21472E+00 -4.30322E+00 -4.38205E+00 -4.45205E+00 -4.51482E+00 -4.57057E+00 -4.62040E+00 -4.66419E+00 -4.70281E+00 -4.73599E+00
  -4.76453E+00 -4.78811E+00 -4.80751E+00 -4.82241E+00 -4.83356E+00 -4.84064E+00 -4.84439E+00 -4.84449E+00 -4.84171E+00 -4.83572E+00
  -4.82731E+00 -4.81615E+00 -4.80303E+00 -4.78766E+00 -4.77085E+00 -4.75234E+00 -4.73295E+00 -4.71244E+00 -4.69166E+00 -4.67038E+00
  -4.64949E+00 -4.62876E+00 -4.60905E+00 -4.59015E+00 -4.57290E+00 -4.55708E+00 -4.54351E+00 -4.53191E+00 -4.52294E+00 -4.51600E+00
  -4.51154E+00 -4.50892E+00 -4.50854E+00 -4.50972E+00 -4.51285E+00 -4.51722E+00 -4.52323E+00 -4.53017E+00 -4.53844E+00 -4.54733E+00
  -4.55725E+00 -4.56755E+00 -4.57864E+00 -4.58988E+00 -4.60172E+00 -4.61354E+00 -4.62579E+00 -4.63787E+00 -4.65027E+00 -4.66239E+00
  -4.67471E+00 -4.68664E+00 -4.69866E+00 -4.71020E+00 -4.72174E+00 -4.73269E+00 -4.74354E+00 -4.75369E+00 -4.76363E+00 -4.77277E+00
  -4.78160E+00 -4.78950E+00 -4.79697E+00 -4.80339E+00 -4.80927E+00 -4.81398E+00 -4.81802E+00 -4.82078E+00 -4.82272E+00 -4.82326E+00
  -4.82286E+00 -4.82093E+00 -4.81794E+00 -4.81330E+00 -4.80756E+00 -4.80020E+00 -4.79177E+00 -4.78175E+00 -4.77069E+00 -4.75805E+00
  -4.74440E+00 -4.72921E+00 -4.71304E+00 -4.69536E+00 -4.67671E+00 -4.65658E+00 -4.63551E+00 -4.61299E+00 -4.58957E+00 -4.56471E+00
  -4.53896E+00 -4.51181E+00 -4.48381E+00 -4.45443E+00 -4.42422E+00 -4.39266E+00 -4.36029E+00 -4.32660E+00 -4.29213E+00 -4.25637E+00
  -4.21985E+00 -4.18206E+00 -4.14354E+00 -4.10377E+00 -4.06331E+00 -4.02162E+00 -3.97926E+00 -3.93570E+00 -3.89149E+00 -3.84611E+00
  -3.80012E+00 -3.75297E+00 -3.70523E+00 -3.65636E+00 -3.60693E+00 -3.55640E+00 -3.50532E+00 -3.45316E+00
 NY background values follow
     6.249E+01    6.142E+01    6.035E+01    5.928E+01    5.821E+01    5.715E+01    5.608E+01    5.501E+01    5.395E+01    5.289E+01
     5.183E+01    5.077E+01    4.972E+01    4.867E+01    4.763E+01    4.659E+01    4.556E+01    4.453E+01    4.351E+01    4.250E+01
     4.149E+01    4.049E+01    3.950E+01    3.852E+01    3.755E+01    3.659E+01    3.564E+01    3.469E+01    3.376E+01    3.284E+01
     3.193E+01    3.104E+01    3.015E+01    2.928E+01    2.843E+01    2.758E+01    2.676E+01    2.594E+01    2.514E+01    2.436E+01
     2.360E+01    2.285E+01    2.212E+01    2.140E+01    2.070E+01    2.003E+01    1.937E+01    1.873E+01    1.811E+01    1.750E+01
     1.692E+01    1.635E+01    1.580E+01    1.527E+01    1.475E+01    1.425E+01    1.377E+01    1.330E+01    1.285E+01    1.242E+01
     1.200E+01    1.160E+01    1.121E+01    1.083E+01    1.048E+01    1.013E+01    9.799E+00    9.482E+00    9.178E+00    8.887E+00
     8.609E+00    8.344E+00    8.092E+00    7.851E+00    7.623E+00    7.406E+00    7.201E+00    7.007E+00    6.823E+00    6.651E+00
     6.489E+00    6.337E+00    6.194E+00    6.062E+00    5.939E+00    5.825E+00    5.720E+00    5.623E+00    5.535E+00    5.455E+00
     5.383E+00    5.318E+00    5.261E+00    5.211E+00    5.169E+00    5.133E+00    5.105E+00    5.083E+00    5.068E+00    5.060E+00
     5.059E+00    5.064E+00    5.075E+00    5.093E+00    5.116E+00    5.146E+00    5.182E+00    5.223E+00    5.270E+00    5.323E+00
     5.382E+00    5.445E+00    5.515E+00    5.589E+00    5.668E+00    5.753E+00    5.842E+00    5.936E+00    6.034E+00    6.138E+00
     6.245E+00    6.357E+00    6.473E+00    6.594E+00    6.718E+00    6.846E+00    6.978E+00    7.114E+00    7.254E+00    7.396E+00
     7.543E+00    7.692E+00    7.845E+00    8.000E+00    8.159E+00    8.321E+00    8.485E+00    8.652E+00    8.821E+00    8.993E+00
     9.167E+00    9.343E+00    9.522E+00    9.703E+00    9.885E+00    1.007E+01    1.026E+01    1.044E+01    1.063E+01    1.083E+01
     1.102E+01    1.121E+01    1.141E+01    1.160E+01    1.180E+01    1.200E+01    1.220E+01    1.240E+01    1.260E+01    1.280E+01
     1.300E+01    1.321E+01    1.341E+01    1.361E+01    1.382E+01    1.402E+01    1.422E+01    1.443E+01    1.463E+01    1.483E+01
     1.503E+01    1.524E+01    1.544E+01    1.564E+01    1.584E+01    1.604E+01    1.623E+01    1.643E+01    1.663E+01    1.682E+01
     1.701E+01    1.721E+01    1.740E+01    1.758E+01    1.777E+01    1.796E+01    1.815E+01    1.833E+01    1.852E+01    1.870E+01
     1.889E+01    1.908E+01    1.926E+01    1.945E+01    1.964E+01    1.983E+01    2.002E+01    2.022E+01    2.041E+01    2.061E+01
     2.081E+01    2.101E+01    2.121E+01    2.142E+01    2.163E+01    2.184E+01    2.206E+01    2.228E+01    2.250E+01    2.273E+01
     2.296E+01    2.319E+01    2.344E+01    2.368E+01    2.393E+01    2.419E+01    2.445E+01    2.471E+01    2.499E+01    2.527E+01
     2.555E+01    2.584E+01    2.614E+01    2.644E+01    2.675E+01    2.707E+01    2.740E+01    2.773E+01    2.807E+01    2.842E+01
     2.877E+01    2.912E+01    2.948E+01    2.984E+01    3.021E+01    3.057E+01    3.093E+01    3.130E+01    3.166E+01    3.202E+01
     3.237E+01    3.273E+01    3.307E+01    3.341E+01    3.375E+01    3.408E+01    3.440E+01    3.471E+01    3.501E+01    3.530E+01
     3.557E+01    3.584E+01    3.609E+01    3.633E+01    3.656E+01    3.676E+01    3.696E+01    3.713E+01    3.729E+01    3.742E+01
     3.754E+01    3.764E+01    3.771E+01    3.777E+01    3.780E+01    3.780E+01    3.778E+01    3.774E+01    3.767E+01    3.757E+01
     3.745E+01    3.729E+01    3.711E+01    3.689E+01    3.665E+01    3.639E+01    3.609E+01    3.577E+01    3.543E+01    3.506E+01
     3.467E+01    3.425E+01    3.382E+01    3.337E+01    3.290E+01    3.241E+01    3.190E+01    3.137E+01    3.083E+01    3.028E+01
     2.971E+01    2.913E+01    2.854E+01    2.794E+01    2.732E+01    2.670E+01    2.607E+01    2.544E+01    2.479E+01    2.414E+01
     2.349E+01    2.283E+01    2.217E+01    2.151E+01    2.084E+01    2.018E+01    1.952E+01    1.886E+01    1.820E+01    1.755E+01
     1.690E+01    1.625E+01    1.562E+01    1.499E+01    1.436E+01    1.375E+01    1.315E+01    1.255E+01    1.197E+01    1.140E+01
     1.084E+01    1.029E+01    9.754E+00    9.227E+00    8.710E+00    8.205E+00    7.710E+00    7.225E+00    6.751E+00    6.288E+00
     5.835E+00    5.392E+00    4.960E+00    4.538E+00    4.126E+00    3.724E+00    3.332E+00    2.951E+00    2.579E+00    2.218E+00
     1.866E+00    1.524E+00    1.192E+00    8.699E-01    5.573E-01    2.543E-01   -3.915E-02   -3.230E-01   -5.974E-01   -8.624E-01
    -1.118E+00   -1.364E+00   -1.601E+00   -1.829E+00   -2.048E+00   -2.258E+00   -2.458E+00   -2.650E+00   -2.832E+00   -3.006E+00
    -3.171E+00   -3.327E+00   -3.474E+00   -3.613E+00   -3.744E+00   -3.866E+00   -3.981E+00   -4.087E+00   -4.187E+00   -4.279E+00
    -4.364E+00   -4.443E+00   -4.514E+00   -4.580E+00   -4.640E+00   -4.693E+00   -4.742E+00   -4.784E+00   -4.822E+00   -4.855E+00
    -4.883E+00   -4.907E+00   -4.926E+00   -4.941E+00   -4.953E+00   -4.961E+00   -4.966E+00   -4.968E+00   -4.967E+00   -4.963E+00
    -4.957E+00   -4.948E+00   -4.938E+00   -4.926E+00   -4.913E+00   -4.898E+00   -4.883E+00   -4.866E+00   -4.849E+00   -4.832E+00
    -4.815E+00   -4.798E+00   -4.781E+00   -4.765E+00   -4.749E+00   -4.735E+00   -4.722E+00   -4.710E+00   -4.700E+00   -4.692E+00
    -4.685E+00   -4.680E+00   -4.676E+00   -4.673E+00   -4.672E+00   -4.671E+00   -4.672E+00   -4.674E+00   -4.677E+00   -4.681E+00
    -4.685E+00   -4.691E+00   -4.697E+00   -4.704E+00   -4.711E+00   -4.719E+00   -4.727E+00   -4.735E+00   -4.744E+00   -4.753E+00
    -4.763E+00   -4.772E+00   -4.782E+00   -4.791E+00   -4.800E+00   -4.810E+00   -4.818E+00   -4.827E+00   -4.835E+00   -4.843E+00
    -4.850E+00   -4.857E+00   -4.863E+00   -4.869E+00   -4.873E+00   -4.877E+00   -4.880E+00   -4.882E+00   -4.883E+00   -4.883E+00
    -4.881E+00   -4.879E+00   -4.875E+00   -4.869E+00   -4.863E+00   -4.855E+00   -4.846E+00   -4.835E+00   -4.823E+00   -4.810E+00
    -4.796E+00   -4.780E+00   -4.763E+00   -4.745E+00   -4.726E+00   -4.705E+00   -4.683E+00   -4.660E+00   -4.636E+00   -4.611E+00
    -4.584E+00   -4.557E+00   -4.528E+00   -4.498E+00   -4.468E+00   -4.436E+00   -4.403E+00   -4.369E+00   -4.334E+00   -4.297E+00
    -4.260E+00   -4.222E+00   -4.183E+00   -4.143E+00   -4.102E+00   -4.060E+00   -4.017E+00   -3.973E+00   -3.928E+00   -3.883E+00
    -3.836E+00   -3.789E+00   -3.740E+00   -3.691E+00   -3.641E+00   -3.590E+00   -3.539E+00   -3.486E+00
 Asp      Conc. = 3.12E+01
