 LCModel (Version 6.3-1L) Copyright: S.W. Provencher.          Ref.: Magn. Reson. Med. 30:672-679 (1993).                
 Slice#2 Row#13 Col#13  K_02_press_1_raw_act
 36 lines in following concentration table = NCONC+1
    Conc.  %SD /Cr+PCr  Metabolite                                         
    0.000 999%   0.000 Ala                                                 
    1.098  89%   0.249 Asp                                                 
    0.000 999%   0.000 Cr                                                  
    4.403 824%   1.000 PCr                                                 
    0.662  89%   0.150 GABA                                                
    0.661  89%   0.150 Glc                                                 
    0.000 999%   0.000 Gln                                                 
    0.000 999%   0.000 Glu                                                 
    0.000 999%   0.000 GPC                                                 
    5.165  69%   1.173 PCh                                                 
   16.082  90%   3.652 GSH                                                 
    6.595 660%   1.498 Ins                                                 
 1.46E+03  43% 330.738 Lac                                                 
    0.000 999%   0.000 NAA                                                 
    2.129 387%   0.483 NAAG                                                
    0.220  89% 5.0E-02 Scyllo                                              
    1.099  89%   0.250 Tau                                                 
    0.444 210%   0.101 -CrCH2                                              
    5.165  69%   1.173 GPC+PCh                                             
    2.129 387%   0.483 NAA+NAAG                                            
    4.403 193%   1.000 Cr+PCr                                              
    0.000 999%   0.000 Glu+Gln                                             
   26.325 999%   5.978 Lip13a                                              
 2.28E+03   8% 517.991 Lip13b                                              
    0.000 999%   0.000 Lip09                                               
    0.000 999%   0.000 MM09                                                
   44.561 293%  10.120 Lip20                                               
    0.000 999%   0.000 MM20                                                
 1.38E-02 999% 3.1E-03 MM12                                                
    0.374 999% 8.5E-02 MM14                                                
    0.823 478%   0.187 MM17                                                
 2.31E+03  20% 523.970 Lip13a+Lip13b                                       
 2.31E+03  20% 524.058 MM14+Lip13a+Lip13b+MM12                             
    0.000 999%   0.000 MM09+Lip09                                          
   44.561 293%  10.120 MM20+Lip20                                          
   6 lines in following misc. output table
  FWHM = 0.092 ppm    S/N =   9                                            
  Data shift = 0.000 ppm                                                   
  Ph: -27 deg       5.0 deg/ppm                                            
  alphaB,S = 4.7E-01,   1.3E+01                                            
    9 spline knots.   Ns = 9(2)                                            
  (14)10 infls.   ( 6) 2 extrs.                                            
  498 points on ppm-axis = NY
      4.000000     3.992357     3.984714     3.977070     3.969427     3.961784     3.954141     3.946497     3.938854     3.931211
      3.923568     3.915925     3.908281     3.900638     3.892995     3.885352     3.877708     3.870065     3.862422     3.854779
      3.847136     3.839492     3.831849     3.824206     3.816563     3.808919     3.801276     3.793633     3.785990     3.778347
      3.770703     3.763060     3.755417     3.747774     3.740130     3.732487     3.724844     3.717201     3.709558     3.701914
      3.694271     3.686628     3.678985     3.671341     3.663698     3.656055     3.648412     3.640769     3.633125     3.625482
      3.617839     3.610196     3.602552     3.594909     3.587266     3.579623     3.571980     3.564336     3.556693     3.549050
      3.541407     3.533763     3.526120     3.518477     3.510834     3.503191     3.495547     3.487904     3.480261     3.472618
      3.464974     3.457331     3.449688     3.442045     3.434402     3.426758     3.419115     3.411472     3.403829     3.396185
      3.388542     3.380899     3.373256     3.365613     3.357969     3.350326     3.342683     3.335040     3.327396     3.319753
      3.312110     3.304467     3.296824     3.289180     3.281537     3.273894     3.266251     3.258607     3.250964     3.243321
      3.235678     3.228034     3.220391     3.212748     3.205105     3.197462     3.189818     3.182175     3.174532     3.166889
      3.159245     3.151602     3.143959     3.136316     3.128673     3.121029     3.113386     3.105743     3.098100     3.090456
      3.082813     3.075170     3.067527     3.059884     3.052240     3.044597     3.036954     3.029311     3.021667     3.014024
      3.006381     2.998738     2.991095     2.983451     2.975808     2.968165     2.960522     2.952878     2.945235     2.937592
      2.929949     2.922306     2.914662     2.907019     2.899376     2.891733     2.884089     2.876446     2.868803     2.861160
      2.853517     2.845873     2.838230     2.830587     2.822944     2.815300     2.807657     2.800014     2.792371     2.784728
      2.777084     2.769441     2.761798     2.754155     2.746511     2.738868     2.731225     2.723582     2.715939     2.708295
      2.700652     2.693009     2.685366     2.677722     2.670079     2.662436     2.654793     2.647150     2.639506     2.631863
      2.624220     2.616577     2.608933     2.601290     2.593647     2.586004     2.578361     2.570717     2.563074     2.555431
      2.547788     2.540144     2.532501     2.524858     2.517215     2.509572     2.501928     2.494285     2.486642     2.478999
      2.471355     2.463712     2.456069     2.448426     2.440783     2.433139     2.425496     2.417853     2.410210     2.402566
      2.394923     2.387280     2.379637     2.371994     2.364350     2.356707     2.349064     2.341421     2.333777     2.326134
      2.318491     2.310848     2.303205     2.295561     2.287918     2.280275     2.272632     2.264988     2.257345     2.249702
      2.242059     2.234416     2.226772     2.219129     2.211486     2.203843     2.196199     2.188556     2.180913     2.173270
      2.165627     2.157983     2.150340     2.142697     2.135054     2.127410     2.119767     2.112124     2.104481     2.096838
      2.089194     2.081551     2.073908     2.066265     2.058621     2.050978     2.043335     2.035692     2.028049     2.020405
      2.012762     2.005119     1.997476     1.989833     1.982190     1.974546     1.966903     1.959260     1.951617     1.943974
      1.936331     1.928688     1.921045     1.913402     1.905759     1.898115     1.890472     1.882829     1.875186     1.867543
      1.859900     1.852257     1.844614     1.836971     1.829327     1.821684     1.814041     1.806398     1.798755     1.791112
      1.783469     1.775826     1.768183     1.760540     1.752896     1.745253     1.737610     1.729967     1.722324     1.714681
      1.707038     1.699395     1.691752     1.684108     1.676465     1.668822     1.661179     1.653536     1.645893     1.638250
      1.630607     1.622964     1.615321     1.607677     1.600034     1.592391     1.584748     1.577105     1.569462     1.561819
      1.554176     1.546533     1.538890     1.531246     1.523603     1.515960     1.508317     1.500674     1.493031     1.485388
      1.477745     1.470102     1.462458     1.454815     1.447172     1.439529     1.431886     1.424243     1.416600     1.408957
      1.401314     1.393671     1.386027     1.378384     1.370741     1.363098     1.355455     1.347812     1.340169     1.332526
      1.324883     1.317240     1.309596     1.301953     1.294310     1.286667     1.279024     1.271381     1.263738     1.256095
      1.248452     1.240808     1.233165     1.225522     1.217879     1.210236     1.202593     1.194950     1.187307     1.179664
      1.172021     1.164377     1.156734     1.149091     1.141448     1.133805     1.126162     1.118519     1.110876     1.103233
      1.095590     1.087946     1.080303     1.072660     1.065017     1.057374     1.049731     1.042088     1.034445     1.026802
      1.019158     1.011515     1.003872     0.996229     0.988586     0.980943     0.973300     0.965657     0.958014     0.950371
      0.942727     0.935084     0.927441     0.919798     0.912155     0.904512     0.896869     0.889226     0.881583     0.873940
      0.866296     0.858653     0.851010     0.843367     0.835724     0.828081     0.820438     0.812795     0.805152     0.797508
      0.789865     0.782222     0.774579     0.766936     0.759293     0.751650     0.744007     0.736364     0.728721     0.721077
      0.713434     0.705791     0.698148     0.690505     0.682862     0.675219     0.667576     0.659933     0.652290     0.644646
      0.637003     0.629360     0.621717     0.614074     0.606431     0.598788     0.591145     0.583502     0.575858     0.568215
      0.560572     0.552929     0.545286     0.537643     0.530000     0.522357     0.514714     0.507071     0.499427     0.491784
      0.484141     0.476498     0.468855     0.461212     0.453569     0.445925     0.438282     0.430639     0.422996     0.415353
      0.407710     0.400067     0.392424     0.384780     0.377137     0.369494     0.361851     0.354208     0.346565     0.338922
      0.331278     0.323635     0.315992     0.308349     0.300706     0.293063     0.285420     0.277777     0.270133     0.262490
      0.254847     0.247204     0.239561     0.231918     0.224275     0.216631     0.208988     0.201345
 NY phased data points follow
   2.79606E+00  1.73944E+00  4.65998E+00  3.36626E+00  3.07920E+00  4.82692E+00  1.85615E+00  2.80097E+00  4.60642E+00  2.47627E+00
   4.21828E+00  5.10151E+00  2.31778E+00  2.31974E+00  2.19630E+00  1.73931E+00  1.43300E-01  2.26791E+00  5.02396E+00  3.28929E+00
   3.06809E+00  1.37786E+00  3.71032E+00  3.95950E+00  2.74045E+00  2.48008E+00  3.08714E+00  2.44402E+00  5.11072E+00  3.86275E+00
   2.30462E+00  1.20285E+00  4.48207E+00  2.17091E+00  2.99517E+00  2.49568E+00  4.96672E+00  1.44379E+00  3.36862E+00  3.65302E+00
   3.46309E+00  4.42764E+00  3.83829E+00  4.82411E+00  4.20342E+00  5.02554E+00  4.02530E+00  2.90583E+00  3.68727E+00  3.16495E+00
   2.11458E+00  3.33555E+00  4.34528E+00  2.58054E+00  3.75195E+00  3.84228E+00  3.46956E+00  2.59428E+00  4.19619E+00  1.54470E+00
   3.28972E+00  4.34976E+00  3.12888E+00  4.01486E+00  3.37249E+00  2.79244E+00  3.12835E+00  3.10116E+00  3.36051E+00  2.71704E+00
   4.42423E+00  2.34668E+00  4.70520E+00  2.07656E+00  1.17299E+00  2.91316E+00  4.52141E+00  8.32133E-01  4.01959E+00  2.07985E+00
   2.16333E+00  2.91132E+00  2.95398E+00  3.37254E+00  3.66399E+00  3.70656E+00  2.13840E+00  3.31807E+00  3.84750E+00  2.86888E+00
   2.98155E+00  2.83533E+00  4.56045E+00  2.83427E+00  3.59382E+00  3.23366E+00  1.72248E+00  2.29088E+00  3.48805E+00  2.92073E+00
   1.91404E+00  2.94209E+00  9.92854E-01  3.81295E+00  2.73734E+00  1.31376E+00  3.05134E+00  3.30987E+00  2.91834E+00  2.30292E+00
   3.33612E+00  3.40799E+00  3.34199E+00  3.80682E+00  4.45872E+00  4.09037E+00  4.53373E+00  5.25439E+00  4.42962E+00  4.97130E+00
   4.27027E+00  2.63255E+00  3.72445E+00  2.57494E+00  4.57323E+00  3.31046E+00  3.63431E+00  4.78555E+00  4.20977E+00  3.52242E+00
   2.28883E+00  4.49699E+00  3.42565E+00  3.61168E+00  5.07606E+00  4.17069E+00  1.71869E+00  5.56932E+00  3.18557E+00  4.10598E+00
   4.13341E+00  5.19056E+00  4.04982E+00  5.79108E+00  3.90496E+00  2.58894E+00  3.66803E+00  3.84988E+00  5.14246E+00  4.30749E+00
   2.44484E+00  4.80571E+00  2.93737E+00  5.37976E+00  5.93841E+00  2.97941E+00  1.77747E+00  4.45243E+00  3.84869E+00  3.09661E+00
   4.26559E+00  4.03137E+00  4.58467E+00  4.04982E+00  3.91466E+00  6.15319E+00  5.22324E+00  4.30961E+00  5.61975E+00  4.66038E+00
   5.23429E+00  4.45227E+00  4.35223E+00  4.35398E+00  5.50910E+00  4.53373E+00  4.11646E+00  3.13933E+00  3.97182E+00  2.91573E+00
   2.87833E+00  3.74165E+00  4.79961E+00  4.39883E+00  3.18595E+00  3.62441E+00  5.34514E+00  3.93410E+00  3.63489E+00  5.99912E+00
   3.42080E+00  5.05323E+00  4.11161E+00  3.54788E+00  4.87869E+00  6.07074E+00  5.45309E+00  4.77740E+00  4.96933E+00  5.11777E+00
   4.86655E+00  3.40701E+00  5.07549E+00  5.19339E+00  3.86593E+00  5.48105E+00  1.92869E+00  4.88538E+00  6.07209E+00  3.34674E+00
   4.49292E+00  5.29697E+00  6.68808E+00  3.98132E+00  6.30325E+00  3.61798E+00  4.73638E+00  3.66492E+00  3.55214E+00  4.37895E+00
   5.12249E+00  5.17135E+00  4.78657E+00  5.62894E+00  4.80372E+00  7.13260E+00  5.54868E+00  6.18606E+00  4.51094E+00  4.96683E+00
   5.83513E+00  4.95664E+00  6.84610E+00  4.27571E+00  5.86153E+00  4.97964E+00  5.96803E+00  6.47135E+00  6.24926E+00  6.53182E+00
   4.74339E+00  4.70621E+00  6.46738E+00  7.91514E+00  6.05298E+00  7.60648E+00  5.86256E+00  7.02680E+00  7.49458E+00  7.51999E+00
   6.47347E+00  7.16762E+00  6.81945E+00  6.85155E+00  8.13749E+00  8.69568E+00  9.71740E+00  1.03651E+01  8.83699E+00  9.20309E+00
   1.07071E+01  9.89348E+00  8.31883E+00  5.34976E+00  6.38205E+00  7.73084E+00  7.65720E+00  9.78755E+00  8.96319E+00  9.99973E+00
   7.98043E+00  9.08610E+00  7.64241E+00  1.01692E+01  8.11840E+00  9.22856E+00  7.62879E+00  9.64220E+00  9.22500E+00  9.68441E+00
   1.02552E+01  9.01665E+00  8.58595E+00  1.02377E+01  9.78968E+00  8.97009E+00  8.48047E+00  1.06217E+01  9.64207E+00  1.03671E+01
   8.62389E+00  9.70765E+00  1.00737E+01  8.84235E+00  1.22328E+01  8.43058E+00  1.00379E+01  8.33353E+00  9.04896E+00  9.95369E+00
   1.14192E+01  9.82336E+00  9.59056E+00  1.23041E+01  9.11683E+00  9.42045E+00  1.06785E+01  9.87074E+00  1.01975E+01  1.10439E+01
   1.12646E+01  1.02188E+01  1.11983E+01  1.19492E+01  1.23698E+01  1.29409E+01  1.31650E+01  1.15317E+01  1.02808E+01  1.08620E+01
   1.11579E+01  1.14992E+01  1.25877E+01  9.31684E+00  1.08727E+01  1.00699E+01  8.41986E+00  5.89057E+00  3.83551E+00  4.87550E+00
   2.67826E+00  4.38180E-01  5.42786E-01  3.35467E-01  6.72213E-01  1.52346E+00  2.88869E+00  5.04740E+00  5.18350E+00  5.41091E+00
   7.67326E+00  1.03996E+01  1.08046E+01  1.22086E+01  1.34310E+01  1.68851E+01  1.80904E+01  1.88767E+01  2.05052E+01  2.09970E+01
   2.19765E+01  2.30552E+01  2.28647E+01  2.66485E+01  2.56416E+01  2.67486E+01  2.57393E+01  2.49922E+01  2.61268E+01  2.69164E+01
   2.48909E+01  2.34832E+01  2.42797E+01  2.50152E+01  2.24110E+01  2.06483E+01  1.81693E+01  1.79894E+01  1.74817E+01  1.48579E+01
   1.45590E+01  1.14016E+01  1.03949E+01  9.63052E+00  1.01593E+01  7.32051E+00  6.80619E+00  6.17853E+00  2.81315E+00  4.10658E+00
   2.09293E+00  1.07505E-02 -7.78136E-01 -3.61859E-01 -2.80296E+00 -3.80601E+00 -3.76980E+00 -5.10767E+00 -3.49369E+00 -5.12959E+00
  -5.72076E+00 -5.18036E+00 -7.82805E+00 -5.22162E+00 -7.24292E+00 -5.64182E+00 -8.64481E+00 -8.74672E+00 -9.75889E+00 -1.12533E+01
  -9.61907E+00 -8.59966E+00 -9.90144E+00 -9.19355E+00 -1.02460E+01 -1.11430E+01 -9.22160E+00 -1.05458E+01 -1.04640E+01 -9.97064E+00
  -9.71704E+00 -9.14116E+00 -1.00292E+01 -1.07591E+01 -1.03339E+01 -9.76245E+00 -1.10075E+01 -1.14237E+01 -1.06528E+01 -1.15531E+01
  -9.38149E+00 -9.87104E+00 -9.95868E+00 -1.12097E+01 -1.02804E+01 -1.02499E+01 -1.15746E+01 -1.11237E+01 -9.57811E+00 -1.00858E+01
  -1.18831E+01 -8.50219E+00 -9.85642E+00 -9.90073E+00 -9.61666E+00 -1.17227E+01 -9.63259E+00 -9.47373E+00 -1.04356E+01 -1.13229E+01
  -1.01785E+01 -1.02637E+01 -8.39530E+00 -8.72929E+00 -1.12706E+01 -1.06240E+01 -9.32119E+00 -9.18059E+00 -9.34505E+00 -1.05520E+01
  -8.56804E+00 -1.02313E+01 -9.35432E+00 -8.24690E+00 -9.40890E+00 -8.51060E+00 -8.57671E+00 -7.55639E+00 -9.01966E+00 -7.90974E+00
  -8.88735E+00 -8.77269E+00 -8.01978E+00 -9.06216E+00 -8.65645E+00 -8.52594E+00 -6.65123E+00 -8.01638E+00 -9.00914E+00 -6.16164E+00
  -7.27411E+00 -8.52067E+00 -8.40745E+00 -7.83688E+00 -7.98775E+00 -7.31357E+00 -6.92403E+00 -6.21315E+00 -7.65187E+00 -7.12992E+00
  -6.31172E+00 -7.26765E+00 -6.04390E+00 -6.55171E+00 -6.00651E+00 -6.06944E+00 -6.32554E+00 -8.24271E+00 -7.06430E+00 -5.06085E+00
  -6.49494E+00 -8.13043E+00 -6.54055E+00 -4.93773E+00 -6.27592E+00 -6.59814E+00 -5.76974E+00 -6.20856E+00
 NY points of the fit to the data follow
   2.68935E+00  3.76556E+00  2.70676E+00  3.68348E+00  3.21190E+00  3.85882E+00  2.95463E+00  3.57312E+00  2.96013E+00  3.72674E+00
   3.06104E+00  2.79969E+00  2.38457E+00  2.56981E+00  2.35716E+00  2.55159E+00  2.40877E+00  2.79060E+00  3.05631E+00  3.15445E+00
   3.12268E+00  3.13701E+00  3.05224E+00  3.05180E+00  3.01458E+00  3.02863E+00  2.99860E+00  3.03778E+00  3.06548E+00  3.09646E+00
   3.15305E+00  3.19632E+00  3.28049E+00  3.32152E+00  3.43321E+00  3.47163E+00  3.60475E+00  3.60366E+00  3.67299E+00  3.63523E+00
   3.64781E+00  3.60368E+00  3.61925E+00  3.54613E+00  3.46278E+00  3.40493E+00  3.36936E+00  3.33494E+00  3.31812E+00  3.27278E+00
   3.18727E+00  3.16595E+00  3.16796E+00  3.17270E+00  3.18127E+00  3.18281E+00  3.18664E+00  3.17857E+00  3.17192E+00  3.17328E+00
   3.17072E+00  3.16376E+00  3.15524E+00  3.15614E+00  3.15381E+00  3.16108E+00  3.16152E+00  3.15740E+00  3.15248E+00  3.15456E+00
   3.15609E+00  3.16286E+00  3.16673E+00  3.17054E+00  3.17267E+00  3.17757E+00  3.17998E+00  3.18691E+00  3.19176E+00  3.19752E+00
   3.20075E+00  3.20568E+00  3.20820E+00  3.21184E+00  3.21614E+00  3.21298E+00  3.20358E+00  3.16556E+00  3.10433E+00  3.08943E+00
   3.02193E+00  3.02471E+00  2.94310E+00  2.97078E+00  2.88852E+00  2.92068E+00  2.82168E+00  2.90833E+00  2.85311E+00  2.94317E+00
   2.89977E+00  3.03009E+00  3.06036E+00  3.18436E+00  3.26702E+00  3.36534E+00  3.49491E+00  3.56270E+00  3.74762E+00  3.77345E+00
   3.99697E+00  3.89191E+00  4.07017E+00  3.89661E+00  4.03057E+00  3.85554E+00  3.97960E+00  3.72425E+00  3.72438E+00  3.55625E+00
   3.59371E+00  3.49368E+00  3.53251E+00  3.40904E+00  3.37023E+00  3.37859E+00  3.39713E+00  3.44967E+00  3.46884E+00  3.54178E+00
   3.55202E+00  3.65047E+00  3.65131E+00  3.76068E+00  3.73434E+00  3.82251E+00  3.78206E+00  3.84984E+00  3.81622E+00  3.87494E+00
   3.83664E+00  3.83191E+00  3.81199E+00  3.80614E+00  3.81206E+00  3.81059E+00  3.83475E+00  3.79151E+00  3.84371E+00  3.83252E+00
   3.89768E+00  3.88871E+00  3.94912E+00  3.92196E+00  3.95727E+00  3.94853E+00  3.97979E+00  3.97662E+00  4.00238E+00  3.99486E+00
   4.00307E+00  3.99712E+00  3.99772E+00  4.00441E+00  4.01399E+00  4.02649E+00  4.03767E+00  4.05382E+00  4.06669E+00  4.08674E+00
   4.09982E+00  4.12172E+00  4.13467E+00  4.15604E+00  4.16603E+00  4.18330E+00  4.18673E+00  4.20313E+00  4.21063E+00  4.22751E+00
   4.23970E+00  4.25965E+00  4.27756E+00  4.28716E+00  4.30712E+00  4.31623E+00  4.34291E+00  4.34743E+00  4.38078E+00  4.39311E+00
   4.43990E+00  4.44634E+00  4.48932E+00  4.50379E+00  4.55034E+00  4.56887E+00  4.61332E+00  4.63832E+00  4.67240E+00  4.70195E+00
   4.72151E+00  4.75071E+00  4.76344E+00  4.79883E+00  4.80128E+00  4.85305E+00  4.86710E+00  4.92817E+00  4.95491E+00  5.01389E+00
   5.03854E+00  5.10488E+00  5.14550E+00  5.20070E+00  5.24364E+00  5.30162E+00  5.35287E+00  5.41482E+00  5.47255E+00  5.50835E+00
   5.54927E+00  5.58147E+00  5.62488E+00  5.67010E+00  5.72329E+00  5.77183E+00  5.82499E+00  5.88170E+00  5.93879E+00  5.99063E+00
   6.03600E+00  6.09656E+00  6.14443E+00  6.20551E+00  6.25128E+00  6.32181E+00  6.37167E+00  6.43549E+00  6.47957E+00  6.54634E+00
   6.59551E+00  6.66501E+00  6.71923E+00  6.78323E+00  6.84092E+00  6.90095E+00  6.96339E+00  7.01308E+00  7.07355E+00  7.13428E+00
   7.21054E+00  7.27811E+00  7.36574E+00  7.44801E+00  7.54842E+00  7.63235E+00  7.73054E+00  7.80625E+00  7.90434E+00  7.99094E+00
   8.09317E+00  8.17348E+00  8.27712E+00  8.34534E+00  8.43740E+00  8.48930E+00  8.56178E+00  8.61579E+00  8.69445E+00  8.74192E+00
   8.80185E+00  8.85555E+00  8.92224E+00  8.98061E+00  9.04688E+00  9.09848E+00  9.14858E+00  9.20833E+00  9.26897E+00  9.32901E+00
   9.38769E+00  9.44502E+00  9.50058E+00  9.55483E+00  9.60711E+00  9.65717E+00  9.70527E+00  9.75110E+00  9.79494E+00  9.83630E+00
   9.87559E+00  9.91157E+00  9.94542E+00  9.97581E+00  1.00039E+01  1.00283E+01  1.00499E+01  1.00675E+01  1.00825E+01  1.00930E+01
   1.01003E+01  1.01029E+01  1.01017E+01  1.00954E+01  1.00852E+01  1.00698E+01  1.00496E+01  1.00238E+01  9.99264E+00  9.95541E+00
   9.91252E+00  9.86281E+00  9.80609E+00  9.74155E+00  9.66882E+00  9.58714E+00  9.49572E+00  9.39308E+00  9.27777E+00  9.14789E+00
   9.00113E+00  8.83452E+00  8.64363E+00  8.42231E+00  8.16183E+00  7.84947E+00  7.46473E+00  6.97121E+00  6.29453E+00  5.30283E+00
   3.90428E+00  1.69568E+00  1.26746E+00  9.18585E-01  1.20245E+00  1.79572E+00  2.95218E+00  4.88463E+00  6.32298E+00  6.37653E+00
   7.88054E+00  9.83065E+00  1.11050E+01  1.23194E+01  1.41186E+01  1.71051E+01  1.84471E+01  1.94369E+01  1.96558E+01  2.13650E+01
   2.20642E+01  2.31360E+01  2.36333E+01  2.60806E+01  2.60041E+01  2.59347E+01  2.59787E+01  2.56716E+01  2.61152E+01  2.66615E+01
   2.49736E+01  2.34844E+01  2.38488E+01  2.40713E+01  2.32533E+01  2.14151E+01  1.86236E+01  1.63364E+01  1.70629E+01  1.55624E+01
   1.40541E+01  1.26347E+01  1.16756E+01  1.15241E+01  1.09527E+01  6.67344E+00  3.95871E+00  2.30728E+00  1.14242E+00  2.44825E-01
  -4.87859E-01 -1.11114E+00 -1.65779E+00 -2.14776E+00 -2.59396E+00 -3.00535E+00 -3.38890E+00 -3.74986E+00 -4.09202E+00 -4.41775E+00
  -4.72882E+00 -5.02679E+00 -5.31335E+00 -5.58978E+00 -5.85688E+00 -6.11493E+00 -6.36424E+00 -6.60529E+00 -6.83873E+00 -7.06492E+00
  -7.28392E+00 -7.49554E+00 -7.69982E+00 -7.89700E+00 -8.08737E+00 -8.27092E+00 -8.44744E+00 -8.61669E+00 -8.77868E+00 -8.93354E+00
  -9.08136E+00 -9.22196E+00 -9.35505E+00 -9.48041E+00 -9.59809E+00 -9.70817E+00 -9.81082E+00 -9.90602E+00 -9.99382E+00 -1.00743E+01
  -1.01479E+01 -1.02148E+01 -1.02752E+01 -1.03290E+01 -1.03763E+01 -1.04173E+01 -1.04523E+01 -1.04816E+01 -1.05051E+01 -1.05228E+01
  -1.05349E+01 -1.05417E+01 -1.05433E+01 -1.05400E+01 -1.05316E+01 -1.05184E+01 -1.05003E+01 -1.04778E+01 -1.04510E+01 -1.04200E+01
  -1.03847E+01 -1.03453E+01 -1.03020E+01 -1.02550E+01 -1.02045E+01 -1.01506E+01 -1.00931E+01 -1.00324E+01 -9.96857E+00 -9.90189E+00
  -9.83245E+00 -9.76023E+00 -9.68535E+00 -9.60798E+00 -9.52838E+00 -9.44666E+00 -9.36291E+00 -9.27713E+00 -9.18949E+00 -9.10018E+00
  -9.00943E+00 -8.91730E+00 -8.82387E+00 -8.72918E+00 -8.63344E+00 -8.53684E+00 -8.43956E+00 -8.34164E+00 -8.24315E+00 -8.14420E+00
  -8.04499E+00 -7.94572E+00 -7.84652E+00 -7.74741E+00 -7.64848E+00 -7.54989E+00 -7.45185E+00 -7.35452E+00 -7.25798E+00 -7.16228E+00
  -7.06754E+00 -6.97393E+00 -6.88168E+00 -6.79088E+00 -6.70161E+00 -6.61393E+00 -6.52800E+00 -6.44402E+00 -6.36216E+00 -6.28251E+00
  -6.20513E+00 -6.13012E+00 -6.05769E+00 -5.98800E+00 -5.92122E+00 -5.85742E+00 -5.79669E+00 -5.73918E+00
 NY background values follow
     3.010E+00    3.011E+00    3.013E+00    3.014E+00    3.015E+00    3.016E+00    3.017E+00    3.018E+00    3.019E+00    3.020E+00
     3.021E+00    3.022E+00    3.023E+00    3.023E+00    3.024E+00    3.025E+00    3.025E+00    3.026E+00    3.027E+00    3.027E+00
     3.028E+00    3.028E+00    3.029E+00    3.029E+00    3.030E+00    3.030E+00    3.031E+00    3.031E+00    3.032E+00    3.032E+00
     3.033E+00    3.033E+00    3.034E+00    3.034E+00    3.035E+00    3.035E+00    3.036E+00    3.036E+00    3.037E+00    3.037E+00
     3.038E+00    3.039E+00    3.039E+00    3.040E+00    3.041E+00    3.041E+00    3.042E+00    3.043E+00    3.044E+00    3.045E+00
     3.046E+00    3.047E+00    3.048E+00    3.049E+00    3.050E+00    3.051E+00    3.053E+00    3.054E+00    3.055E+00    3.057E+00
     3.058E+00    3.060E+00    3.062E+00    3.063E+00    3.065E+00    3.067E+00    3.069E+00    3.071E+00    3.073E+00    3.075E+00
     3.078E+00    3.080E+00    3.083E+00    3.085E+00    3.088E+00    3.091E+00    3.094E+00    3.097E+00    3.100E+00    3.103E+00
     3.106E+00    3.110E+00    3.113E+00    3.117E+00    3.121E+00    3.125E+00    3.129E+00    3.133E+00    3.137E+00    3.141E+00
     3.146E+00    3.151E+00    3.155E+00    3.160E+00    3.165E+00    3.170E+00    3.176E+00    3.181E+00    3.187E+00    3.192E+00
     3.198E+00    3.204E+00    3.210E+00    3.216E+00    3.223E+00    3.229E+00    3.236E+00    3.243E+00    3.249E+00    3.256E+00
     3.264E+00    3.271E+00    3.278E+00    3.286E+00    3.294E+00    3.302E+00    3.310E+00    3.318E+00    3.326E+00    3.335E+00
     3.343E+00    3.352E+00    3.361E+00    3.370E+00    3.379E+00    3.389E+00    3.398E+00    3.408E+00    3.418E+00    3.428E+00
     3.438E+00    3.448E+00    3.459E+00    3.469E+00    3.480E+00    3.491E+00    3.502E+00    3.513E+00    3.525E+00    3.537E+00
     3.548E+00    3.560E+00    3.572E+00    3.585E+00    3.597E+00    3.610E+00    3.622E+00    3.635E+00    3.649E+00    3.662E+00
     3.675E+00    3.689E+00    3.703E+00    3.717E+00    3.731E+00    3.745E+00    3.760E+00    3.775E+00    3.789E+00    3.805E+00
     3.820E+00    3.835E+00    3.851E+00    3.867E+00    3.883E+00    3.899E+00    3.915E+00    3.932E+00    3.949E+00    3.965E+00
     3.983E+00    4.000E+00    4.018E+00    4.036E+00    4.054E+00    4.072E+00    4.091E+00    4.110E+00    4.130E+00    4.149E+00
     4.169E+00    4.190E+00    4.211E+00    4.232E+00    4.253E+00    4.275E+00    4.298E+00    4.320E+00    4.343E+00    4.367E+00
     4.391E+00    4.416E+00    4.441E+00    4.466E+00    4.492E+00    4.518E+00    4.545E+00    4.573E+00    4.601E+00    4.630E+00
     4.659E+00    4.688E+00    4.719E+00    4.750E+00    4.781E+00    4.813E+00    4.846E+00    4.879E+00    4.914E+00    4.948E+00
     4.984E+00    5.020E+00    5.057E+00    5.094E+00    5.132E+00    5.171E+00    5.211E+00    5.251E+00    5.292E+00    5.334E+00
     5.377E+00    5.421E+00    5.465E+00    5.510E+00    5.556E+00    5.603E+00    5.651E+00    5.699E+00    5.749E+00    5.799E+00
     5.850E+00    5.903E+00    5.956E+00    6.010E+00    6.065E+00    6.120E+00    6.177E+00    6.235E+00    6.294E+00    6.354E+00
     6.415E+00    6.477E+00    6.539E+00    6.603E+00    6.668E+00    6.734E+00    6.802E+00    6.870E+00    6.939E+00    7.010E+00
     7.081E+00    7.154E+00    7.227E+00    7.301E+00    7.376E+00    7.452E+00    7.528E+00    7.604E+00    7.681E+00    7.758E+00
     7.836E+00    7.913E+00    7.991E+00    8.068E+00    8.145E+00    8.222E+00    8.299E+00    8.375E+00    8.450E+00    8.525E+00
     8.599E+00    8.673E+00    8.745E+00    8.817E+00    8.888E+00    8.957E+00    9.025E+00    9.092E+00    9.157E+00    9.221E+00
     9.283E+00    9.344E+00    9.402E+00    9.459E+00    9.514E+00    9.567E+00    9.618E+00    9.666E+00    9.712E+00    9.756E+00
     9.797E+00    9.836E+00    9.872E+00    9.905E+00    9.936E+00    9.963E+00    9.988E+00    1.001E+01    1.003E+01    1.004E+01
     1.005E+01    1.006E+01    1.007E+01    1.007E+01    1.006E+01    1.006E+01    1.005E+01    1.003E+01    1.001E+01    9.988E+00
     9.961E+00    9.929E+00    9.893E+00    9.852E+00    9.807E+00    9.756E+00    9.701E+00    9.641E+00    9.577E+00    9.507E+00
     9.431E+00    9.351E+00    9.265E+00    9.174E+00    9.077E+00    8.975E+00    8.867E+00    8.753E+00    8.633E+00    8.507E+00
     8.376E+00    8.238E+00    8.094E+00    7.943E+00    7.787E+00    7.625E+00    7.457E+00    7.283E+00    7.105E+00    6.921E+00
     6.732E+00    6.538E+00    6.339E+00    6.136E+00    5.929E+00    5.717E+00    5.501E+00    5.282E+00    5.058E+00    4.831E+00
     4.601E+00    4.368E+00    4.131E+00    3.891E+00    3.649E+00    3.404E+00    3.157E+00    2.908E+00    2.656E+00    2.402E+00
     2.147E+00    1.890E+00    1.632E+00    1.372E+00    1.111E+00    8.494E-01    5.868E-01    3.236E-01    5.996E-02   -2.040E-01
    -4.681E-01   -7.322E-01   -9.961E-01   -1.260E+00   -1.523E+00   -1.785E+00   -2.047E+00   -2.307E+00   -2.567E+00   -2.825E+00
    -3.081E+00   -3.336E+00   -3.589E+00   -3.841E+00   -4.090E+00   -4.336E+00   -4.581E+00   -4.822E+00   -5.061E+00   -5.297E+00
    -5.530E+00   -5.759E+00   -5.986E+00   -6.208E+00   -6.427E+00   -6.642E+00   -6.852E+00   -7.059E+00   -7.261E+00   -7.458E+00
    -7.651E+00   -7.839E+00   -8.022E+00   -8.199E+00   -8.371E+00   -8.538E+00   -8.699E+00   -8.854E+00   -9.003E+00   -9.145E+00
    -9.282E+00   -9.412E+00   -9.535E+00   -9.651E+00   -9.760E+00   -9.863E+00   -9.958E+00   -1.005E+01   -1.013E+01   -1.020E+01
    -1.027E+01   -1.033E+01   -1.039E+01   -1.043E+01   -1.048E+01   -1.051E+01   -1.055E+01   -1.057E+01   -1.059E+01   -1.060E+01
    -1.061E+01   -1.062E+01   -1.062E+01   -1.061E+01   -1.060E+01   -1.058E+01   -1.056E+01   -1.054E+01   -1.051E+01   -1.048E+01
    -1.044E+01   -1.040E+01   -1.035E+01   -1.030E+01   -1.025E+01   -1.020E+01   -1.014E+01   -1.007E+01   -1.001E+01   -9.941E+00
    -9.870E+00   -9.797E+00   -9.721E+00   -9.642E+00   -9.562E+00   -9.479E+00   -9.394E+00   -9.307E+00   -9.219E+00   -9.129E+00
    -9.037E+00   -8.944E+00   -8.850E+00   -8.754E+00   -8.658E+00   -8.561E+00   -8.463E+00   -8.364E+00   -8.265E+00   -8.165E+00
    -8.065E+00   -7.966E+00   -7.866E+00   -7.766E+00   -7.667E+00   -7.568E+00   -7.469E+00   -7.371E+00   -7.274E+00   -7.178E+00
    -7.083E+00   -6.989E+00   -6.896E+00   -6.805E+00   -6.715E+00   -6.627E+00   -6.541E+00   -6.456E+00   -6.374E+00   -6.294E+00
    -6.216E+00   -6.141E+00   -6.068E+00   -5.998E+00   -5.930E+00   -5.866E+00   -5.805E+00   -5.746E+00
 Asp      Conc. = 1.10E+00
