 LCModel (Version 6.3-1L) Copyright: S.W. Provencher.          Ref.: Magn. Reson. Med. 30:672-679 (1993).                
 Slice#2 Row#3 Col#9  K_02_press_1_raw_act
 36 lines in following concentration table = NCONC+1
    Conc.  %SD /Cr+PCr  Metabolite                                         
  105.028 111% 4.9E-02 Ala                                                 
    0.000 999%   0.000 Asp                                                 
 1.39E+03  15%   0.655 Cr                                                  
  731.928  29%   0.345 PCr                                                 
    0.000 999%   0.000 GABA                                                
    0.000 999%   0.000 Glc                                                 
  262.149  89%   0.124 Gln                                                 
 1.65E+03  16%   0.778 Glu                                                 
  711.798   4%   0.335 GPC                                                 
    0.000 999%   0.000 PCh                                                 
  583.510  14%   0.275 GSH                                                 
 1.47E+03  18%   0.695 Ins                                                 
   55.447 227% 2.6E-02 Lac                                                 
 2.73E+03   5%   1.288 NAA                                                 
  569.681  23%   0.268 NAAG                                                
    0.000 999%   0.000 Scyllo                                              
    0.000 999%   0.000 Tau                                                 
  106.869 116% 5.0E-02 -CrCH2                                              
  711.798   4%   0.335 GPC+PCh                                             
 3.30E+03   4%   1.556 NAA+NAAG                                            
 2.12E+03   4%   1.000 Cr+PCr                                              
 1.91E+03  19%   0.901 Glu+Gln                                             
 5.99E+03  23%   2.820 Lip13a                                              
    0.000 999%   0.000 Lip13b                                              
 1.63E+03  33%   0.768 Lip09                                               
 2.82E+03  21%   1.328 MM09                                                
  567.175  75%   0.267 Lip20                                               
 4.72E+03  12%   2.225 MM20                                                
 1.58E+03  34%   0.743 MM12                                                
 1.31E+03  55%   0.617 MM14                                                
 2.43E+03  21%   1.145 MM17                                                
 5.99E+03  23%   2.820 Lip13a+Lip13b                                       
 8.87E+03  10%   4.180 MM14+Lip13a+Lip13b+MM12                             
 4.45E+03   9%   2.096 MM09+Lip09                                          
 5.29E+03  10%   2.492 MM20+Lip20                                          
   6 lines in following misc. output table
  FWHM = 0.046 ppm    S/N =  15                                            
  Data shift = 0.031 ppm                                                   
  Ph:  23 deg       6.3 deg/ppm                                            
  alphaB,S = 1.4E+00,   5.3E+01                                            
   14 spline knots.   Ns = 6(1)                                            
  (10) 4 infls.   ( 9) 1 extrs.                                            
  498 points on ppm-axis = NY
      4.000000     3.992357     3.984714     3.977070     3.969427     3.961784     3.954141     3.946497     3.938854     3.931211
      3.923568     3.915925     3.908281     3.900638     3.892995     3.885352     3.877708     3.870065     3.862422     3.854779
      3.847136     3.839492     3.831849     3.824206     3.816563     3.808919     3.801276     3.793633     3.785990     3.778347
      3.770703     3.763060     3.755417     3.747774     3.740130     3.732487     3.724844     3.717201     3.709558     3.701914
      3.694271     3.686628     3.678985     3.671341     3.663698     3.656055     3.648412     3.640769     3.633125     3.625482
      3.617839     3.610196     3.602552     3.594909     3.587266     3.579623     3.571980     3.564336     3.556693     3.549050
      3.541407     3.533763     3.526120     3.518477     3.510834     3.503191     3.495547     3.487904     3.480261     3.472618
      3.464974     3.457331     3.449688     3.442045     3.434402     3.426758     3.419115     3.411472     3.403829     3.396185
      3.388542     3.380899     3.373256     3.365613     3.357969     3.350326     3.342683     3.335040     3.327396     3.319753
      3.312110     3.304467     3.296824     3.289180     3.281537     3.273894     3.266251     3.258607     3.250964     3.243321
      3.235678     3.228034     3.220391     3.212748     3.205105     3.197462     3.189818     3.182175     3.174532     3.166889
      3.159245     3.151602     3.143959     3.136316     3.128673     3.121029     3.113386     3.105743     3.098100     3.090456
      3.082813     3.075170     3.067527     3.059884     3.052240     3.044597     3.036954     3.029311     3.021667     3.014024
      3.006381     2.998738     2.991095     2.983451     2.975808     2.968165     2.960522     2.952878     2.945235     2.937592
      2.929949     2.922306     2.914662     2.907019     2.899376     2.891733     2.884089     2.876446     2.868803     2.861160
      2.853517     2.845873     2.838230     2.830587     2.822944     2.815300     2.807657     2.800014     2.792371     2.784728
      2.777084     2.769441     2.761798     2.754155     2.746511     2.738868     2.731225     2.723582     2.715939     2.708295
      2.700652     2.693009     2.685366     2.677722     2.670079     2.662436     2.654793     2.647150     2.639506     2.631863
      2.624220     2.616577     2.608933     2.601290     2.593647     2.586004     2.578361     2.570717     2.563074     2.555431
      2.547788     2.540144     2.532501     2.524858     2.517215     2.509572     2.501928     2.494285     2.486642     2.478999
      2.471355     2.463712     2.456069     2.448426     2.440783     2.433139     2.425496     2.417853     2.410210     2.402566
      2.394923     2.387280     2.379637     2.371994     2.364350     2.356707     2.349064     2.341421     2.333777     2.326134
      2.318491     2.310848     2.303205     2.295561     2.287918     2.280275     2.272632     2.264988     2.257345     2.249702
      2.242059     2.234416     2.226772     2.219129     2.211486     2.203843     2.196199     2.188556     2.180913     2.173270
      2.165627     2.157983     2.150340     2.142697     2.135054     2.127410     2.119767     2.112124     2.104481     2.096838
      2.089194     2.081551     2.073908     2.066265     2.058621     2.050978     2.043335     2.035692     2.028049     2.020405
      2.012762     2.005119     1.997476     1.989833     1.982190     1.974546     1.966903     1.959260     1.951617     1.943974
      1.936331     1.928688     1.921045     1.913402     1.905759     1.898115     1.890472     1.882829     1.875186     1.867543
      1.859900     1.852257     1.844614     1.836971     1.829327     1.821684     1.814041     1.806398     1.798755     1.791112
      1.783469     1.775826     1.768183     1.760540     1.752896     1.745253     1.737610     1.729967     1.722324     1.714681
      1.707038     1.699395     1.691752     1.684108     1.676465     1.668822     1.661179     1.653536     1.645893     1.638250
      1.630607     1.622964     1.615321     1.607677     1.600034     1.592391     1.584748     1.577105     1.569462     1.561819
      1.554176     1.546533     1.538890     1.531246     1.523603     1.515960     1.508317     1.500674     1.493031     1.485388
      1.477745     1.470102     1.462458     1.454815     1.447172     1.439529     1.431886     1.424243     1.416600     1.408957
      1.401314     1.393671     1.386027     1.378384     1.370741     1.363098     1.355455     1.347812     1.340169     1.332526
      1.324883     1.317240     1.309596     1.301953     1.294310     1.286667     1.279024     1.271381     1.263738     1.256095
      1.248452     1.240808     1.233165     1.225522     1.217879     1.210236     1.202593     1.194950     1.187307     1.179664
      1.172021     1.164377     1.156734     1.149091     1.141448     1.133805     1.126162     1.118519     1.110876     1.103233
      1.095590     1.087946     1.080303     1.072660     1.065017     1.057374     1.049731     1.042088     1.034445     1.026802
      1.019158     1.011515     1.003872     0.996229     0.988586     0.980943     0.973300     0.965657     0.958014     0.950371
      0.942727     0.935084     0.927441     0.919798     0.912155     0.904512     0.896869     0.889226     0.881583     0.873940
      0.866296     0.858653     0.851010     0.843367     0.835724     0.828081     0.820438     0.812795     0.805152     0.797508
      0.789865     0.782222     0.774579     0.766936     0.759293     0.751650     0.744007     0.736364     0.728721     0.721077
      0.713434     0.705791     0.698148     0.690505     0.682862     0.675219     0.667576     0.659933     0.652290     0.644646
      0.637003     0.629360     0.621717     0.614074     0.606431     0.598788     0.591145     0.583502     0.575858     0.568215
      0.560572     0.552929     0.545286     0.537643     0.530000     0.522357     0.514714     0.507071     0.499427     0.491784
      0.484141     0.476498     0.468855     0.461212     0.453569     0.445925     0.438282     0.430639     0.422996     0.415353
      0.407710     0.400067     0.392424     0.384780     0.377137     0.369494     0.361851     0.354208     0.346565     0.338922
      0.331278     0.323635     0.315992     0.308349     0.300706     0.293063     0.285420     0.277777     0.270133     0.262490
      0.254847     0.247204     0.239561     0.231918     0.224275     0.216631     0.208988     0.201345
 NY phased data points follow
   2.80432E+01  2.12035E+01  2.77957E+01  2.98877E+01  3.24535E+01  3.55122E+01  4.44708E+01  4.81785E+01  5.99167E+01  6.43961E+01
   6.81899E+01  6.97087E+01  6.67391E+01  5.89655E+01  4.94943E+01  4.48452E+01  4.18010E+01  4.16449E+01  3.27053E+01  2.44952E+01
   2.32162E+01  2.43413E+01  2.97416E+01  2.42655E+01  2.63670E+01  2.83439E+01  2.85251E+01  3.30457E+01  2.79916E+01  3.15250E+01
   3.84389E+01  3.40669E+01  3.51394E+01  3.38759E+01  2.93920E+01  2.45281E+01  2.63200E+01  2.70358E+01  2.65290E+01  2.72575E+01
   2.64411E+01  2.74557E+01  2.53894E+01  2.36286E+01  3.22932E+01  3.22117E+01  3.71639E+01  3.67020E+01  4.08303E+01  3.73642E+01
   3.22187E+01  2.39183E+01  2.88907E+01  2.93493E+01  2.01424E+01  1.61160E+01  2.31905E+01  3.08103E+01  2.32194E+01  2.02484E+01
   2.15896E+01  1.23719E+01  1.77719E+01  1.53926E+01  6.33256E+00  3.80029E+00  7.93110E+00  7.83326E+00  1.09871E+01  1.04731E+01
   1.19940E+01  6.43474E+00  9.13831E+00  1.09216E+01  1.10876E+01  1.30361E+01  1.16212E+01  1.11546E+01  9.14425E+00  4.29794E+00
   8.32462E+00  1.10750E+01  1.19188E+01  1.09986E+01  5.05592E+00  6.50760E+00  8.77944E+00  9.52107E+00  9.72890E+00  9.63521E+00
   1.16429E+01  1.50678E+01  1.39673E+01  1.77005E+01  1.98912E+01  1.62747E+01  1.58090E+01  2.26373E+01  2.36529E+01  3.22917E+01
   4.72528E+01  6.74187E+01  7.31179E+01  8.38530E+01  8.09104E+01  6.00479E+01  5.25922E+01  3.70937E+01  3.10089E+01  2.33283E+01
   2.08014E+01  1.99923E+01  1.01446E+01  1.86192E+01  1.55982E+01  1.66342E+01  1.63201E+01  1.41859E+01  1.80566E+01  2.07593E+01
   1.93299E+01  1.98273E+01  2.44165E+01  3.20503E+01  5.17819E+01  6.77843E+01  8.20248E+01  8.65359E+01  8.28921E+01  7.49679E+01
   5.29483E+01  3.73064E+01  3.36167E+01  2.58714E+01  1.77607E+01  1.86074E+01  1.02545E+01  1.10202E+01  3.92635E+00  9.09727E+00
   1.18633E+01  1.11644E+01  4.46111E+00  1.26813E+01  1.14519E+01  1.27702E+01  1.05521E+01  1.09805E+01  7.32544E+00  7.17031E+00
   6.44206E+00  6.82099E+00  2.74414E+00  7.17515E+00  1.07491E+01  3.48095E+00  6.15249E+00  3.80030E+00  5.92915E+00  6.73448E-01
   7.48247E+00  5.93798E+00 -4.54490E-01  6.26826E+00 -4.04461E+00  5.59092E+00 -9.96691E-01  3.56224E+00 -4.89237E+00  5.43827E-01
  -8.35335E+00 -4.92306E+00 -6.36432E+00 -8.81233E+00 -1.77017E+01 -9.95693E+00 -1.74942E+01 -1.38222E+01 -7.11371E+00 -1.25003E+01
  -1.34469E+01 -1.30993E+01 -1.33542E+01 -1.01292E+01 -1.22150E+01 -8.30065E+00 -1.12245E+01 -1.02356E+01 -4.07313E+00  1.79432E+00
   7.75662E+00  5.05097E+00  8.37296E+00  4.91974E+00  1.63782E+00  7.20081E+00  2.52569E+00 -6.37787E-01 -1.35934E+00 -1.00676E+01
  -6.66639E+00 -4.14013E+00 -2.56527E+00 -1.13125E+00  7.51250E+00 -3.01984E+00 -1.63354E+00 -3.09362E+00 -6.64046E+00 -1.10919E+01
  -9.23725E+00 -1.00439E+00 -1.67672E+00  5.15708E+00  1.01527E+01  9.83950E+00  1.43963E+01  9.64686E+00  1.05888E+01 -1.70965E-03
  -2.27993E+00 -6.18515E+00 -8.27347E+00 -4.03029E+00 -1.40033E-01  5.15991E+00  5.04151E+00  1.21041E+01  5.80468E+00  1.12249E+01
   8.35371E+00  4.68152E+00  7.04847E+00  1.15696E+01  3.67489E+00  6.46295E+00  9.32220E+00  1.48566E+01  7.03600E+00  3.27118E+00
   4.73910E+00  5.87906E+00  3.74579E+00  8.03860E+00  1.27857E+01  1.92637E+01  1.86674E+01  2.26767E+01  1.96435E+01  2.71213E+01
   2.95696E+01  2.67934E+01  3.65645E+01  3.82956E+01  4.77058E+01  5.66506E+01  6.03785E+01  7.78546E+01  1.11365E+02  1.23633E+02
   1.32486E+02  1.19382E+02  9.90009E+01  6.34171E+01  4.37623E+01  3.03159E+01  1.92692E+01  1.63423E+01  1.06663E+01  7.26265E+00
   6.39340E+00  4.86074E+00 -6.15753E-01  4.27551E+00 -1.16568E+00  2.04749E+00  1.97837E+00  9.83422E-01 -1.37334E+00  2.15104E+00
   8.36768E+00  3.41249E-01  3.22911E-02 -1.08602E+00 -3.53755E+00  6.54865E+00  1.59536E+00  1.63148E+00  5.95473E+00  6.32022E+00
   1.76437E+00  3.19051E+00 -1.86130E+00  2.84061E+00  5.25098E+00 -9.99928E-01  2.27507E-01 -1.61635E-01  2.94247E+00  7.17009E+00
   2.41301E+00  7.56660E+00  7.37697E+00  3.32323E+00  1.12469E+01  2.87296E+00  1.08893E+01  5.27138E+00  2.22799E+00  1.00496E+01
   6.59274E+00  1.67286E+01  1.22626E+01  1.42356E+01  1.67305E+01  1.68951E+01  1.57936E+01  1.92150E+01  2.01868E+01  1.79918E+01
   2.21699E+01  1.42626E+01  1.64643E+01  1.06694E+01  1.06766E+01  1.31269E+01  1.65523E+01  1.75900E+01  1.27493E+01  9.05417E+00
   1.10954E+01  1.07220E+01  1.30117E+01  1.26703E+01  1.39922E+01  1.86975E+01  1.72083E+01  1.82205E+01  1.60812E+01  1.00033E+01
   1.29014E+01  1.92699E+01  1.81597E+01  1.76305E+01  1.78481E+01  2.37633E+01  2.11466E+01  1.59021E+01  1.85096E+01  2.19501E+01
   1.99228E+01  1.88847E+01  2.37378E+01  2.52527E+01  2.62318E+01  2.49714E+01  2.17136E+01  2.99126E+01  2.48923E+01  2.34884E+01
   2.29635E+01  2.53019E+01  2.86766E+01  3.06530E+01  2.80840E+01  2.61956E+01  2.41589E+01  2.82896E+01  2.61168E+01  2.68574E+01
   2.25819E+01  2.11377E+01  2.51804E+01  2.83752E+01  1.87018E+01  2.01449E+01  2.47189E+01  2.48529E+01  2.09547E+01  2.03691E+01
   2.35969E+01  2.58097E+01  2.26392E+01  2.00951E+01  1.70584E+01  1.93549E+01  1.76984E+01  2.00551E+01  2.28186E+01  2.63218E+01
   2.56050E+01  2.56969E+01  1.84044E+01  2.61687E+01  2.40527E+01  2.72728E+01  3.14448E+01  2.96855E+01  2.68815E+01  2.48574E+01
   2.84109E+01  2.76794E+01  1.92501E+01  2.42225E+01  2.30518E+01  2.25251E+01  2.47139E+01  2.05167E+01  2.43573E+01  2.47286E+01
   2.19964E+01  1.38594E+01  1.94562E+01  1.74736E+01  2.23153E+01  1.86492E+01  2.22986E+01  1.50962E+01  1.52078E+01  1.47619E+01
   1.44398E+01  1.63239E+01  8.85420E+00  1.61183E+01  1.13618E+01  1.49985E+01  8.90352E+00  9.49210E+00  4.62337E+00  1.10126E+01
   4.81818E+00  7.67418E+00  5.51747E+00  9.27938E+00  4.34877E+00  6.45118E+00  6.35718E+00  6.66765E+00  2.14212E+00  2.80200E+00
   8.83877E+00  7.99910E+00  5.89955E+00  6.48060E+00  5.84456E+00  6.90214E+00  5.32324E+00  7.04635E+00  2.59696E+00  1.38562E+00
   4.96591E+00  6.24606E+00  6.68352E+00  4.51557E+00  4.38728E+00  6.02931E+00  1.41268E+00  3.40628E+00 -1.45735E-02  4.72922E+00
   5.89181E+00  9.94356E-01  4.75713E+00  9.25015E+00  2.49382E+00  5.91635E+00  4.26498E+00  4.82214E+00  1.25453E+01  5.17113E+00
   8.87466E+00  8.16511E+00  2.61624E+00 -4.69265E-01  6.87349E+00  5.34376E+00  6.72635E+00  3.63913E+00  2.17451E+00  2.11319E+00
   5.24761E+00  4.92654E+00  3.09557E-01  3.50281E+00  4.33259E+00  5.73122E+00  5.26122E+00  4.35615E+00  7.63759E+00  4.04989E+00
   2.90847E+00 -6.04673E-01  1.59517E+00  4.44666E+00  5.65244E+00  1.96067E+00  2.66368E+00  3.33906E+00
 NY points of the fit to the data follow
   2.71098E+01  2.69733E+01  2.76512E+01  2.93365E+01  3.17322E+01  3.59456E+01  4.28471E+01  5.00369E+01  5.71357E+01  6.43830E+01
   6.94514E+01  7.03795E+01  6.70373E+01  6.02199E+01  5.15265E+01  4.32480E+01  3.71975E+01  3.36008E+01  3.08036E+01  2.80760E+01
   2.64883E+01  2.57139E+01  2.49417E+01  2.42700E+01  2.41890E+01  2.43832E+01  2.50731E+01  2.75261E+01  3.13698E+01  3.52404E+01
   3.79638E+01  3.88087E+01  3.73764E+01  3.42080E+01  3.07914E+01  2.78662E+01  2.52592E+01  2.31130E+01  2.19225E+01  2.16033E+01
   2.18167E+01  2.26430E+01  2.38489E+01  2.54140E+01  2.76314E+01  3.03331E+01  3.25529E+01  3.32729E+01  3.21039E+01  2.92565E+01
   2.56350E+01  2.24797E+01  2.04307E+01  1.92898E+01  1.86136E+01  1.83416E+01  1.87306E+01  1.95486E+01  2.04172E+01  2.10266E+01
   2.10252E+01  2.02614E+01  1.88646E+01  1.72776E+01  1.60382E+01  1.54154E+01  1.53977E+01  1.57062E+01  1.61925E+01  1.67467E+01
   1.72347E+01  1.74794E+01  1.74093E+01  1.70371E+01  1.64382E+01  1.57915E+01  1.52662E+01  1.48887E+01  1.45866E+01  1.42663E+01
   1.39535E+01  1.35594E+01  1.30613E+01  1.23644E+01  1.13882E+01  1.01584E+01  8.88128E+00  7.90625E+00  7.54019E+00  7.85798E+00
   8.74995E+00  9.91408E+00  1.10061E+01  1.19397E+01  1.27063E+01  1.32901E+01  1.42620E+01  1.77072E+01  2.38744E+01  3.24274E+01
   4.67736E+01  6.48185E+01  7.94121E+01  8.51985E+01  8.02648E+01  6.65584E+01  4.97675E+01  3.59404E+01  2.71607E+01  2.13843E+01
   1.61819E+01  1.22807E+01  1.09384E+01  1.05500E+01  1.04238E+01  1.04148E+01  1.04859E+01  1.06213E+01  1.08798E+01  1.14780E+01
   1.32272E+01  1.75237E+01  2.48067E+01  3.50023E+01  5.00245E+01  6.80380E+01  8.26260E+01  8.84771E+01  8.38037E+01  7.05487E+01
   5.42456E+01  4.05930E+01  3.13049E+01  2.43474E+01  1.77465E+01  1.19838E+01  8.73023E+00  7.46097E+00  7.50194E+00  8.38675E+00
   9.41734E+00  1.00756E+01  1.02459E+01  9.93163E+00  9.25855E+00  8.49802E+00  7.82529E+00  7.21731E+00  6.63786E+00  6.02913E+00
   5.45289E+00  4.88687E+00  4.37517E+00  4.01844E+00  3.83452E+00  3.69031E+00  3.60917E+00  3.31953E+00  2.55983E+00  1.61615E+00
   7.45004E-01  4.22703E-01  8.30186E-01  1.42516E+00  1.57363E+00  1.02046E+00 -1.20691E-01 -1.34840E+00 -2.15945E+00 -2.61529E+00
  -2.99404E+00 -3.46079E+00 -4.09847E+00 -4.97364E+00 -5.80311E+00 -6.22955E+00 -6.01760E+00 -5.42782E+00 -5.04637E+00 -5.14711E+00
  -5.56603E+00 -5.94899E+00 -5.83153E+00 -5.40634E+00 -5.15372E+00 -4.87610E+00 -3.95141E+00 -2.17089E+00  3.24594E-01  2.83779E+00
   4.55477E+00  5.11398E+00  4.52417E+00  3.47335E+00  2.29911E+00  8.83800E-01 -3.45516E-01 -9.12976E-01 -7.33954E-01  5.32603E-02
   1.51787E+00  3.31789E+00  4.75248E+00  5.52131E+00  5.29806E+00  4.22094E+00  2.27251E+00 -3.10546E-01 -2.54642E+00 -3.99375E+00
  -4.41145E+00 -3.63196E+00 -1.50049E+00  2.01072E+00  5.88938E+00  8.60855E+00  9.01660E+00  6.94338E+00  3.08805E+00 -1.40172E+00
  -5.41093E+00 -7.87382E+00 -8.10991E+00 -6.22400E+00 -2.63143E+00  1.57715E+00  4.91616E+00  6.85751E+00  7.55510E+00  7.49162E+00
   7.12365E+00  6.85299E+00  7.12739E+00  8.14429E+00  9.68506E+00  1.12785E+01  1.23364E+01  1.24068E+01  1.16784E+01  1.04562E+01
   9.14642E+00  8.42791E+00  8.99920E+00  1.08841E+01  1.34344E+01  1.60165E+01  1.81792E+01  1.95485E+01  2.01577E+01  2.08898E+01
   2.25064E+01  2.47965E+01  2.89568E+01  3.54049E+01  4.57969E+01  5.71038E+01  6.75458E+01  8.48693E+01  1.07035E+02  1.24152E+02
   1.29278E+02  1.19165E+02  9.58667E+01  6.86231E+01  4.76858E+01  3.51764E+01  2.66936E+01  1.79861E+01  1.13727E+01  9.06051E+00
   7.82058E+00  6.94654E+00  6.34321E+00  5.87956E+00  5.36083E+00  4.75428E+00  4.08189E+00  3.40025E+00  2.76604E+00  2.24490E+00
   1.82702E+00  1.47486E+00  1.19155E+00  9.74348E-01  7.69808E-01  5.53233E-01  3.45688E-01  1.78373E-01  8.45136E-02  7.38508E-02
   1.48440E-01  3.10015E-01  5.30080E-01  7.79464E-01  1.05215E+00  1.34939E+00  1.68880E+00  2.09475E+00  2.57720E+00  3.14617E+00
   3.80996E+00  4.55697E+00  5.36668E+00  6.22175E+00  7.11127E+00  8.02581E+00  8.95013E+00  9.86485E+00  1.07580E+01  1.16141E+01
   1.24152E+01  1.31446E+01  1.37883E+01  1.43361E+01  1.47816E+01  1.51227E+01  1.53604E+01  1.55010E+01  1.55561E+01  1.55453E+01
   1.55014E+01  1.54676E+01  1.53958E+01  1.53105E+01  1.52450E+01  1.50419E+01  1.45743E+01  1.38679E+01  1.30344E+01  1.23085E+01
   1.18709E+01  1.17459E+01  1.19922E+01  1.25777E+01  1.33672E+01  1.42555E+01  1.50642E+01  1.56351E+01  1.60015E+01  1.63125E+01
   1.67008E+01  1.71975E+01  1.77128E+01  1.82522E+01  1.88893E+01  1.95140E+01  2.00228E+01  2.04043E+01  2.07065E+01  2.10496E+01
   2.15021E+01  2.21024E+01  2.28793E+01  2.37700E+01  2.46731E+01  2.55230E+01  2.62287E+01  2.67142E+01  2.70092E+01  2.71890E+01
   2.72968E+01  2.73225E+01  2.72342E+01  2.70564E+01  2.68096E+01  2.64878E+01  2.60924E+01  2.56304E+01  2.51118E+01  2.45492E+01
   2.39565E+01  2.33486E+01  2.27405E+01  2.21478E+01  2.15861E+01  2.10705E+01  2.06150E+01  2.02318E+01  1.99313E+01  1.97224E+01
   1.96116E+01  1.96035E+01  1.96993E+01  1.98973E+01  2.01933E+01  2.05803E+01  2.10489E+01  2.15870E+01  2.21799E+01  2.28109E+01
   2.34619E+01  2.41146E+01  2.47499E+01  2.53492E+01  2.58943E+01  2.63688E+01  2.67586E+01  2.70524E+01  2.72416E+01  2.73204E+01
   2.72859E+01  2.71384E+01  2.68812E+01  2.65202E+01  2.60628E+01  2.55179E+01  2.48955E+01  2.42062E+01  2.34612E+01  2.26716E+01
   2.18475E+01  2.09987E+01  2.01340E+01  1.92618E+01  1.83898E+01  1.75247E+01  1.66720E+01  1.58366E+01  1.50229E+01  1.42349E+01
   1.34758E+01  1.27481E+01  1.20536E+01  1.13936E+01  1.07692E+01  1.01812E+01  9.62976E+00  9.11440E+00  8.63421E+00  8.18828E+00
   7.77555E+00  7.39487E+00  7.04459E+00  6.72291E+00  6.42786E+00  6.15785E+00  5.91126E+00  5.68661E+00  5.48203E+00  5.29581E+00
   5.12633E+00  4.97245E+00  4.83297E+00  4.70680E+00  4.59256E+00  4.48914E+00  4.39558E+00  4.31134E+00  4.23570E+00  4.16795E+00
   4.10716E+00  4.05277E+00  4.00431E+00  3.96159E+00  3.92415E+00  3.89153E+00  3.86310E+00  3.83866E+00  3.81800E+00  3.80110E+00
   3.78755E+00  3.77703E+00  3.76915E+00  3.76392E+00  3.76127E+00  3.76119E+00  3.76332E+00  3.76740E+00  3.77323E+00  3.78095E+00
   3.79053E+00  3.80191E+00  3.81473E+00  3.82888E+00  3.84428E+00  3.86112E+00  3.87933E+00  3.89881E+00  3.91922E+00  3.94057E+00
   3.96286E+00  3.98629E+00  4.01073E+00  4.03604E+00  4.06196E+00  4.08859E+00  4.11599E+00  4.14431E+00  4.17334E+00  4.20294E+00
   4.23295E+00  4.26355E+00  4.29479E+00  4.32676E+00  4.35919E+00  4.39199E+00  4.42508E+00  4.45869E+00
 NY background values follow
     2.177E+01    2.163E+01    2.149E+01    2.135E+01    2.122E+01    2.108E+01    2.094E+01    2.080E+01    2.066E+01    2.052E+01
     2.038E+01    2.024E+01    2.010E+01    1.997E+01    1.983E+01    1.969E+01    1.955E+01    1.941E+01    1.927E+01    1.913E+01
     1.899E+01    1.885E+01    1.872E+01    1.858E+01    1.844E+01    1.830E+01    1.816E+01    1.802E+01    1.788E+01    1.774E+01
     1.761E+01    1.747E+01    1.733E+01    1.719E+01    1.705E+01    1.691E+01    1.677E+01    1.664E+01    1.650E+01    1.636E+01
     1.622E+01    1.608E+01    1.594E+01    1.581E+01    1.567E+01    1.553E+01    1.539E+01    1.525E+01    1.512E+01    1.498E+01
     1.484E+01    1.470E+01    1.457E+01    1.443E+01    1.429E+01    1.415E+01    1.402E+01    1.388E+01    1.374E+01    1.361E+01
     1.347E+01    1.333E+01    1.320E+01    1.306E+01    1.293E+01    1.279E+01    1.265E+01    1.252E+01    1.238E+01    1.225E+01
     1.211E+01    1.198E+01    1.184E+01    1.171E+01    1.157E+01    1.144E+01    1.131E+01    1.117E+01    1.104E+01    1.091E+01
     1.077E+01    1.064E+01    1.051E+01    1.037E+01    1.024E+01    1.011E+01    9.978E+00    9.846E+00    9.715E+00    9.584E+00
     9.453E+00    9.322E+00    9.192E+00    9.062E+00    8.932E+00    8.803E+00    8.673E+00    8.544E+00    8.415E+00    8.287E+00
     8.159E+00    8.031E+00    7.903E+00    7.775E+00    7.648E+00    7.521E+00    7.395E+00    7.268E+00    7.142E+00    7.016E+00
     6.891E+00    6.765E+00    6.640E+00    6.516E+00    6.391E+00    6.267E+00    6.143E+00    6.019E+00    5.896E+00    5.773E+00
     5.650E+00    5.528E+00    5.406E+00    5.284E+00    5.162E+00    5.041E+00    4.920E+00    4.799E+00    4.678E+00    4.558E+00
     4.438E+00    4.319E+00    4.199E+00    4.080E+00    3.962E+00    3.843E+00    3.725E+00    3.607E+00    3.490E+00    3.373E+00
     3.256E+00    3.139E+00    3.023E+00    2.908E+00    2.792E+00    2.678E+00    2.563E+00    2.449E+00    2.336E+00    2.223E+00
     2.110E+00    1.998E+00    1.887E+00    1.775E+00    1.665E+00    1.555E+00    1.446E+00    1.337E+00    1.229E+00    1.121E+00
     1.014E+00    9.079E-01    8.023E-01    6.973E-01    5.929E-01    4.893E-01    3.864E-01    2.842E-01    1.827E-01    8.197E-02
    -1.799E-02   -1.172E-01   -2.156E-01   -3.132E-01   -4.100E-01   -5.060E-01   -6.011E-01   -6.953E-01   -7.887E-01   -8.812E-01
    -9.729E-01   -1.064E+00   -1.153E+00   -1.242E+00   -1.330E+00   -1.417E+00   -1.503E+00   -1.588E+00   -1.673E+00   -1.756E+00
    -1.839E+00   -1.920E+00   -2.001E+00   -2.080E+00   -2.159E+00   -2.237E+00   -2.314E+00   -2.390E+00   -2.465E+00   -2.539E+00
    -2.613E+00   -2.685E+00   -2.757E+00   -2.827E+00   -2.897E+00   -2.966E+00   -3.034E+00   -3.101E+00   -3.167E+00   -3.232E+00
    -3.296E+00   -3.359E+00   -3.422E+00   -3.483E+00   -3.544E+00   -3.604E+00   -3.663E+00   -3.721E+00   -3.778E+00   -3.834E+00
    -3.889E+00   -3.944E+00   -3.997E+00   -4.050E+00   -4.101E+00   -4.152E+00   -4.202E+00   -4.251E+00   -4.299E+00   -4.347E+00
    -4.393E+00   -4.438E+00   -4.483E+00   -4.527E+00   -4.570E+00   -4.612E+00   -4.653E+00   -4.693E+00   -4.732E+00   -4.771E+00
    -4.809E+00   -4.845E+00   -4.881E+00   -4.916E+00   -4.951E+00   -4.984E+00   -5.016E+00   -5.048E+00   -5.079E+00   -5.109E+00
    -5.138E+00   -5.166E+00   -5.194E+00   -5.220E+00   -5.246E+00   -5.271E+00   -5.295E+00   -5.319E+00   -5.341E+00   -5.363E+00
    -5.383E+00   -5.403E+00   -5.423E+00   -5.441E+00   -5.458E+00   -5.475E+00   -5.491E+00   -5.506E+00   -5.521E+00   -5.534E+00
    -5.547E+00   -5.559E+00   -5.570E+00   -5.580E+00   -5.590E+00   -5.598E+00   -5.606E+00   -5.614E+00   -5.620E+00   -5.626E+00
    -5.631E+00   -5.635E+00   -5.638E+00   -5.641E+00   -5.643E+00   -5.644E+00   -5.645E+00   -5.644E+00   -5.643E+00   -5.642E+00
    -5.639E+00   -5.636E+00   -5.633E+00   -5.628E+00   -5.623E+00   -5.617E+00   -5.611E+00   -5.604E+00   -5.596E+00   -5.588E+00
    -5.578E+00   -5.569E+00   -5.558E+00   -5.547E+00   -5.536E+00   -5.523E+00   -5.511E+00   -5.497E+00   -5.483E+00   -5.468E+00
    -5.453E+00   -5.437E+00   -5.421E+00   -5.403E+00   -5.386E+00   -5.368E+00   -5.349E+00   -5.329E+00   -5.310E+00   -5.289E+00
    -5.268E+00   -5.247E+00   -5.225E+00   -5.202E+00   -5.179E+00   -5.155E+00   -5.131E+00   -5.106E+00   -5.081E+00   -5.055E+00
    -5.029E+00   -5.002E+00   -4.975E+00   -4.948E+00   -4.919E+00   -4.891E+00   -4.862E+00   -4.832E+00   -4.802E+00   -4.772E+00
    -4.741E+00   -4.709E+00   -4.678E+00   -4.645E+00   -4.613E+00   -4.580E+00   -4.546E+00   -4.512E+00   -4.478E+00   -4.443E+00
    -4.408E+00   -4.372E+00   -4.336E+00   -4.300E+00   -4.263E+00   -4.226E+00   -4.189E+00   -4.151E+00   -4.113E+00   -4.074E+00
    -4.035E+00   -3.996E+00   -3.957E+00   -3.917E+00   -3.876E+00   -3.836E+00   -3.795E+00   -3.754E+00   -3.712E+00   -3.670E+00
    -3.628E+00   -3.585E+00   -3.543E+00   -3.499E+00   -3.456E+00   -3.412E+00   -3.368E+00   -3.324E+00   -3.280E+00   -3.235E+00
    -3.190E+00   -3.144E+00   -3.099E+00   -3.053E+00   -3.007E+00   -2.960E+00   -2.914E+00   -2.867E+00   -2.820E+00   -2.772E+00
    -2.725E+00   -2.677E+00   -2.629E+00   -2.581E+00   -2.532E+00   -2.484E+00   -2.435E+00   -2.386E+00   -2.337E+00   -2.287E+00
    -2.238E+00   -2.188E+00   -2.138E+00   -2.088E+00   -2.037E+00   -1.987E+00   -1.936E+00   -1.885E+00   -1.834E+00   -1.783E+00
    -1.732E+00   -1.680E+00   -1.629E+00   -1.577E+00   -1.525E+00   -1.473E+00   -1.421E+00   -1.369E+00   -1.317E+00   -1.264E+00
    -1.212E+00   -1.159E+00   -1.106E+00   -1.053E+00   -1.000E+00   -9.473E-01   -8.941E-01   -8.409E-01   -7.876E-01   -7.342E-01
    -6.807E-01   -6.272E-01   -5.736E-01   -5.199E-01   -4.662E-01   -4.124E-01   -3.586E-01   -3.048E-01   -2.508E-01   -1.969E-01
    -1.429E-01   -8.888E-02   -3.484E-02    1.923E-02    7.332E-02    1.274E-01    1.815E-01    2.357E-01    2.898E-01    3.439E-01
     3.981E-01    4.522E-01    5.063E-01    5.604E-01    6.145E-01    6.686E-01    7.226E-01    7.767E-01    8.307E-01    8.847E-01
     9.387E-01    9.927E-01    1.047E+00    1.101E+00    1.155E+00    1.209E+00    1.263E+00    1.316E+00    1.370E+00    1.424E+00
     1.478E+00    1.532E+00    1.586E+00    1.640E+00    1.693E+00    1.747E+00    1.801E+00    1.855E+00    1.909E+00    1.962E+00
     2.016E+00    2.070E+00    2.124E+00    2.177E+00    2.231E+00    2.285E+00    2.338E+00    2.392E+00    2.446E+00    2.499E+00
     2.553E+00    2.607E+00    2.660E+00    2.714E+00    2.767E+00    2.821E+00    2.874E+00    2.928E+00
 Ala      Conc. = 1.05E+02
