 LCModel (Version 6.3-1L) Copyright: S.W. Provencher.          Ref.: Magn. Reson. Med. 30:672-679 (1993).                
 Slice#3 Row#5 Col#11  K_02_press_1_raw_act
 36 lines in following concentration table = NCONC+1
    Conc.  %SD /Cr+PCr  Metabolite                                         
    0.000 999%   0.000 Ala                                                 
    0.000 999%   0.000 Asp                                                 
    0.000 999%   0.000 Cr                                                  
 1.54E+03   6%   1.000 PCr                                                 
    0.000 999%   0.000 GABA                                                
    0.000 999%   0.000 Glc                                                 
   63.580 486% 4.1E-02 Gln                                                 
 1.22E+03  28%   0.790 Glu                                                 
  418.010   7%   0.271 GPC                                                 
    0.000 999%   0.000 PCh                                                 
  356.013  27%   0.231 GSH                                                 
 1.31E+03  26%   0.851 Ins                                                 
    0.000 999%   0.000 Lac                                                 
 1.91E+03  10%   1.239 NAA                                                 
  381.392  57%   0.247 NAAG                                                
    0.000 999%   0.000 Scyllo                                              
    0.000 999%   0.000 Tau                                                 
 1.52E+03  10%   0.983 -CrCH2                                              
  418.010   7%   0.271 GPC+PCh                                             
 2.29E+03   6%   1.486 NAA+NAAG                                            
 1.54E+03   6%   1.000 Cr+PCr                                              
 1.28E+03  38%   0.831 Glu+Gln                                             
    0.000 999%   0.000 Lip13a                                              
 1.17E+03  23%   0.759 Lip13b                                              
 2.50E+03  22%   1.621 Lip09                                               
 4.58E+03  13%   2.970 MM09                                                
  794.633  61%   0.515 Lip20                                               
 6.63E+03  12%   4.299 MM20                                                
 3.68E+03  16%   2.383 MM12                                                
    0.000 999%   0.000 MM14                                                
 1.15E+03  32%   0.747 MM17                                                
 1.17E+03  23%   0.759 Lip13a+Lip13b                                       
 4.85E+03  11%   3.142 MM14+Lip13a+Lip13b+MM12                             
 7.08E+03  10%   4.591 MM09+Lip09                                          
 7.42E+03  10%   4.814 MM20+Lip20                                          
   6 lines in following misc. output table
  FWHM = 0.054 ppm    S/N =  10                                            
  Data shift = 0.008 ppm                                                   
  Ph:  82 deg      30.0 deg/ppm                                            
  alphaB,S = 2.6E-01,   1.2E+02                                            
   14 spline knots.   Ns = 8(1)                                            
  ( 8) 2 infls.   ( 4) 1 extrs.                                            
  498 points on ppm-axis = NY
      4.000000     3.992357     3.984714     3.977070     3.969427     3.961784     3.954141     3.946497     3.938854     3.931211
      3.923568     3.915925     3.908281     3.900638     3.892995     3.885352     3.877708     3.870065     3.862422     3.854779
      3.847136     3.839492     3.831849     3.824206     3.816563     3.808919     3.801276     3.793633     3.785990     3.778347
      3.770703     3.763060     3.755417     3.747774     3.740130     3.732487     3.724844     3.717201     3.709558     3.701914
      3.694271     3.686628     3.678985     3.671341     3.663698     3.656055     3.648412     3.640769     3.633125     3.625482
      3.617839     3.610196     3.602552     3.594909     3.587266     3.579623     3.571980     3.564336     3.556693     3.549050
      3.541407     3.533763     3.526120     3.518477     3.510834     3.503191     3.495547     3.487904     3.480261     3.472618
      3.464974     3.457331     3.449688     3.442045     3.434402     3.426758     3.419115     3.411472     3.403829     3.396185
      3.388542     3.380899     3.373256     3.365613     3.357969     3.350326     3.342683     3.335040     3.327396     3.319753
      3.312110     3.304467     3.296824     3.289180     3.281537     3.273894     3.266251     3.258607     3.250964     3.243321
      3.235678     3.228034     3.220391     3.212748     3.205105     3.197462     3.189818     3.182175     3.174532     3.166889
      3.159245     3.151602     3.143959     3.136316     3.128673     3.121029     3.113386     3.105743     3.098100     3.090456
      3.082813     3.075170     3.067527     3.059884     3.052240     3.044597     3.036954     3.029311     3.021667     3.014024
      3.006381     2.998738     2.991095     2.983451     2.975808     2.968165     2.960522     2.952878     2.945235     2.937592
      2.929949     2.922306     2.914662     2.907019     2.899376     2.891733     2.884089     2.876446     2.868803     2.861160
      2.853517     2.845873     2.838230     2.830587     2.822944     2.815300     2.807657     2.800014     2.792371     2.784728
      2.777084     2.769441     2.761798     2.754155     2.746511     2.738868     2.731225     2.723582     2.715939     2.708295
      2.700652     2.693009     2.685366     2.677722     2.670079     2.662436     2.654793     2.647150     2.639506     2.631863
      2.624220     2.616577     2.608933     2.601290     2.593647     2.586004     2.578361     2.570717     2.563074     2.555431
      2.547788     2.540144     2.532501     2.524858     2.517215     2.509572     2.501928     2.494285     2.486642     2.478999
      2.471355     2.463712     2.456069     2.448426     2.440783     2.433139     2.425496     2.417853     2.410210     2.402566
      2.394923     2.387280     2.379637     2.371994     2.364350     2.356707     2.349064     2.341421     2.333777     2.326134
      2.318491     2.310848     2.303205     2.295561     2.287918     2.280275     2.272632     2.264988     2.257345     2.249702
      2.242059     2.234416     2.226772     2.219129     2.211486     2.203843     2.196199     2.188556     2.180913     2.173270
      2.165627     2.157983     2.150340     2.142697     2.135054     2.127410     2.119767     2.112124     2.104481     2.096838
      2.089194     2.081551     2.073908     2.066265     2.058621     2.050978     2.043335     2.035692     2.028049     2.020405
      2.012762     2.005119     1.997476     1.989833     1.982190     1.974546     1.966903     1.959260     1.951617     1.943974
      1.936331     1.928688     1.921045     1.913402     1.905759     1.898115     1.890472     1.882829     1.875186     1.867543
      1.859900     1.852257     1.844614     1.836971     1.829327     1.821684     1.814041     1.806398     1.798755     1.791112
      1.783469     1.775826     1.768183     1.760540     1.752896     1.745253     1.737610     1.729967     1.722324     1.714681
      1.707038     1.699395     1.691752     1.684108     1.676465     1.668822     1.661179     1.653536     1.645893     1.638250
      1.630607     1.622964     1.615321     1.607677     1.600034     1.592391     1.584748     1.577105     1.569462     1.561819
      1.554176     1.546533     1.538890     1.531246     1.523603     1.515960     1.508317     1.500674     1.493031     1.485388
      1.477745     1.470102     1.462458     1.454815     1.447172     1.439529     1.431886     1.424243     1.416600     1.408957
      1.401314     1.393671     1.386027     1.378384     1.370741     1.363098     1.355455     1.347812     1.340169     1.332526
      1.324883     1.317240     1.309596     1.301953     1.294310     1.286667     1.279024     1.271381     1.263738     1.256095
      1.248452     1.240808     1.233165     1.225522     1.217879     1.210236     1.202593     1.194950     1.187307     1.179664
      1.172021     1.164377     1.156734     1.149091     1.141448     1.133805     1.126162     1.118519     1.110876     1.103233
      1.095590     1.087946     1.080303     1.072660     1.065017     1.057374     1.049731     1.042088     1.034445     1.026802
      1.019158     1.011515     1.003872     0.996229     0.988586     0.980943     0.973300     0.965657     0.958014     0.950371
      0.942727     0.935084     0.927441     0.919798     0.912155     0.904512     0.896869     0.889226     0.881583     0.873940
      0.866296     0.858653     0.851010     0.843367     0.835724     0.828081     0.820438     0.812795     0.805152     0.797508
      0.789865     0.782222     0.774579     0.766936     0.759293     0.751650     0.744007     0.736364     0.728721     0.721077
      0.713434     0.705791     0.698148     0.690505     0.682862     0.675219     0.667576     0.659933     0.652290     0.644646
      0.637003     0.629360     0.621717     0.614074     0.606431     0.598788     0.591145     0.583502     0.575858     0.568215
      0.560572     0.552929     0.545286     0.537643     0.530000     0.522357     0.514714     0.507071     0.499427     0.491784
      0.484141     0.476498     0.468855     0.461212     0.453569     0.445925     0.438282     0.430639     0.422996     0.415353
      0.407710     0.400067     0.392424     0.384780     0.377137     0.369494     0.361851     0.354208     0.346565     0.338922
      0.331278     0.323635     0.315992     0.308349     0.300706     0.293063     0.285420     0.277777     0.270133     0.262490
      0.254847     0.247204     0.239561     0.231918     0.224275     0.216631     0.208988     0.201345
 NY phased data points follow
  -2.00011E+01 -1.85303E+01 -1.90324E+01 -2.24096E+01 -1.78542E+01 -2.07240E+01 -1.64123E+01 -1.20627E+01 -9.47697E+00 -7.72830E+00
   1.09070E+00  1.58839E+00  5.39107E+00  9.76048E+00  7.00983E+00  8.57275E+00  2.04725E+00 -1.18326E+00  2.90568E+00 -3.39744E+00
  -4.63010E+00 -1.06978E+00 -1.80946E+00  1.41644E+00 -1.74257E+00 -1.59718E+00 -2.27370E+00 -1.58493E-01 -2.19136E+00 -1.60238E+00
   2.94684E+00  8.44670E+00  2.88309E+00  5.47512E+00  7.19452E+00  2.59327E+00  6.54496E+00  1.12131E+00  1.29722E+00  2.14009E+00
   5.54401E+00  4.55773E+00  4.33650E+00  3.38092E+00  5.62220E+00  9.64318E+00  1.19620E+01  1.40557E+01  9.71731E+00  1.32815E+01
   1.42138E+01  1.34368E+01  1.14286E+01  1.23053E+01  9.37828E+00  9.15394E+00  1.41765E+01  1.07740E+01  9.75180E+00  8.38759E+00
   9.54861E+00  3.20696E+00  9.52251E+00  5.00117E+00  2.89525E+00  1.39292E+00  2.55064E+00  1.77279E+00  2.43728E+00 -4.39528E+00
  -1.09859E+00  2.50822E+00 -2.06392E+00 -9.11150E-01 -2.52765E+00  2.96151E+00 -1.26189E+00  9.48247E-01 -2.02576E+00 -3.20483E+00
  -5.35412E+00 -4.22703E+00 -2.99578E-01 -2.05635E+00 -3.04709E-01 -4.73901E+00 -1.66861E+00 -9.88687E-01  1.25930E+00 -1.35538E+00
   3.32000E-01 -1.20694E+00 -9.75154E-01  4.15903E+00  1.68545E+00  2.81682E+00  9.22403E-01  7.82458E+00  1.23084E+01  1.64181E+01
   1.91922E+01  2.83015E+01  3.71930E+01  4.24953E+01  4.37279E+01  4.15036E+01  3.79565E+01  2.88828E+01  2.93399E+01  1.89257E+01
   1.51541E+01  1.22973E+01  1.06884E+01  8.10852E+00  1.26260E+01  1.22359E+01  1.13303E+01  6.49463E+00  9.40527E+00  7.14805E+00
   1.56107E+01  1.72767E+01  2.18821E+01  3.01630E+01  4.03721E+01  4.92327E+01  5.58774E+01  6.34594E+01  6.15738E+01  5.71410E+01
   5.31456E+01  4.36549E+01  3.76368E+01  3.17899E+01  2.57504E+01  1.88479E+01  1.96964E+01  1.75151E+01  1.76578E+01  1.74255E+01
   1.19248E+01  1.51619E+01  1.81835E+01  1.72007E+01  1.48895E+01  1.85574E+01  1.36970E+01  1.14718E+01  1.42530E+01  1.39868E+01
   1.35110E+01  9.67805E+00  1.44966E+01  1.61253E+01  1.10846E+01  1.55043E+01  1.19958E+01  1.14894E+01  1.31551E+01  1.03649E+01
   1.36579E+01  1.27580E+01  1.10172E+01  6.46467E+00  7.05090E+00  8.29132E+00  8.40965E+00  5.91455E+00  1.39794E+00 -2.53692E-01
  -4.24419E-02 -6.49754E+00 -2.93768E+00 -6.59435E+00 -8.08260E+00 -7.40764E+00 -3.63964E+00 -5.53252E+00 -2.74592E+00 -1.48787E+00
   3.90537E-01 -8.36376E-01  2.20271E+00 -1.21768E-01  5.53740E-01 -1.00850E+00  1.41451E+00  2.35155E+00  2.41823E+00  5.41641E+00
   4.94474E+00  3.14148E+00  9.59101E+00  6.49764E+00  4.93268E+00 -2.00187E-01  1.03879E+00  2.89613E+00 -1.15591E+00  2.55627E+00
   5.59581E+00  6.27230E+00  5.18438E+00  7.02051E+00  6.85451E+00  7.55054E+00  6.77247E+00  1.54942E+00  2.42644E+00  5.79428E+00
   7.87537E+00  7.99694E+00  1.28041E+01  1.57206E+01  1.78737E+01  1.11295E+01  1.24685E+01  1.37043E+01  6.54836E+00  3.18939E+00
   1.70546E+00  4.97586E-03  1.76712E+00  4.08405E+00  4.62932E+00  8.98172E+00  1.04190E+01  8.59823E+00  1.15195E+01  6.72578E+00
   1.10495E+01  9.94118E+00  8.77937E+00  8.45180E+00  8.55980E+00  5.53744E+00  3.95229E+00  6.22356E+00  9.46151E+00  8.65998E+00
   3.19414E+00  5.12012E+00  6.84022E+00  1.30995E+01  1.09890E+01  1.45252E+01  1.60734E+01  1.99585E+01  1.81817E+01  1.79628E+01
   2.57719E+01  2.56843E+01  3.33393E+01  3.78277E+01  3.80984E+01  5.11546E+01  6.28023E+01  7.40415E+01  7.95590E+01  7.84302E+01
   7.33657E+01  6.13582E+01  4.20537E+01  2.56529E+01  7.67120E+00 -2.99343E+00 -9.50794E+00 -1.12860E+01 -1.52459E+01 -1.45298E+01
  -1.36119E+01 -1.35054E+01 -1.50129E+01 -1.14470E+01 -1.60568E+01 -1.31234E+01 -1.48425E+01 -1.64640E+01 -1.57648E+01 -1.19688E+01
  -1.64342E+01 -1.55273E+01 -1.45120E+01 -1.43720E+01 -1.52302E+01 -1.65810E+01 -1.78915E+01 -1.81155E+01 -1.77958E+01 -2.08806E+01
  -1.62987E+01 -1.94397E+01 -1.79111E+01 -1.57882E+01 -1.70050E+01 -1.45641E+01 -1.62951E+01 -2.09796E+01 -1.54677E+01 -1.80814E+01
  -1.92396E+01 -1.59156E+01 -1.82658E+01 -1.47320E+01 -2.14400E+01 -1.80170E+01 -2.07703E+01 -2.29594E+01 -2.21244E+01 -2.53823E+01
  -2.42277E+01 -2.00545E+01 -2.17049E+01 -2.21026E+01 -2.52680E+01 -2.46744E+01 -2.49697E+01 -2.47030E+01 -2.31134E+01 -2.38560E+01
  -2.64314E+01 -2.64512E+01 -2.95295E+01 -2.96888E+01 -3.42168E+01 -2.71690E+01 -3.00836E+01 -2.91745E+01 -3.05149E+01 -3.24882E+01
  -3.11544E+01 -2.81564E+01 -2.92315E+01 -2.96387E+01 -2.86424E+01 -3.13911E+01 -2.93539E+01 -3.11136E+01 -3.15067E+01 -3.24352E+01
  -3.46749E+01 -3.58750E+01 -3.14140E+01 -3.13397E+01 -2.97121E+01 -2.94991E+01 -2.56661E+01 -2.54798E+01 -1.96221E+01 -1.78732E+01
  -1.88761E+01 -1.50108E+01 -5.25589E+00 -2.70972E+00 -1.20822E-02  9.81787E-01  2.93010E+00  3.66154E+00  6.17115E+00  1.20180E+01
   1.00694E+01  1.55076E+01  1.16728E+01  1.66407E+01  1.91145E+01  1.63762E+01  1.60601E+01  1.98426E+01  1.45253E+01  1.55824E+01
   1.29116E+01  1.61282E+01  1.58075E+01  1.24282E+01  1.44638E+01  1.82240E+01  1.54498E+01  1.44514E+01  1.64432E+01  1.65641E+01
   1.61536E+01  1.47610E+01  1.57573E+01  1.36037E+01  1.42677E+01  1.50420E+01  1.47208E+01  1.48202E+01  1.57507E+01  1.64994E+01
   1.84287E+01  1.72425E+01  2.01901E+01  1.49822E+01  1.31628E+01  1.48943E+01  1.48929E+01  1.67462E+01  1.52030E+01  1.39742E+01
   1.05171E+01  1.16155E+01  1.34177E+01  1.07566E+01  1.34217E+01  1.06232E+01  1.31246E+01  1.19312E+01  1.09100E+01  1.20871E+01
   8.54691E+00  8.17535E+00  5.01361E+00  7.11618E+00  3.70751E+00  5.72101E+00  4.50191E+00  3.65169E+00  2.10321E+00  9.79033E+00
   2.53190E+00  6.60302E+00  5.65600E+00  5.79565E+00  4.19500E+00  3.94918E+00  4.71113E+00  5.65174E+00  3.52080E+00  5.41394E+00
   5.84391E+00  4.13350E+00  4.80365E+00  3.62662E+00  4.54047E+00  4.20292E+00  8.69617E+00  2.20800E-01  3.86707E-01  2.76562E+00
   4.55056E+00  6.29738E+00  7.49684E+00  2.81496E+00  5.51843E+00  2.84043E+00  2.87497E+00  2.07961E+00  4.54127E+00  6.09000E+00
   2.22832E+00  4.55544E+00  4.88921E+00  5.74644E+00  3.38998E+00  4.53647E+00  3.18817E+00  3.70160E+00  1.81119E+00  1.72373E+00
   5.64893E+00  4.10180E+00  3.42699E+00  1.77110E+00  4.78957E+00  2.47277E+00 -6.46444E-01  4.99879E+00  1.67821E+00  4.10927E-01
   5.04999E+00 -1.51410E-01  2.73112E+00  3.61047E+00  2.46069E+00  5.84063E+00  1.52313E+00  2.84942E+00  2.09710E+00  1.03562E+00
   3.35811E+00  3.49654E+00  2.21707E+00  1.36982E+00  1.18134E+00  3.92218E+00  2.12199E+00  3.96528E+00  1.67759E+00 -2.60028E-02
   4.79676E+00  3.24526E+00  3.28467E+00  1.85079E+00  2.96979E+00  2.69108E+00  1.43461E+00  1.16167E+00
 NY points of the fit to the data follow
  -9.34266E+00 -1.21788E+01 -1.46602E+01 -1.63036E+01 -1.77793E+01 -1.87573E+01 -1.80961E+01 -1.52348E+01 -1.05015E+01 -4.78380E+00
   9.04711E-01  5.48598E+00  8.23903E+00  8.90994E+00  7.66639E+00  4.90637E+00  1.43578E+00 -1.70680E+00 -3.23115E+00 -3.11140E+00
  -2.71702E+00 -2.80171E+00 -2.88309E+00 -2.64759E+00 -2.19832E+00 -1.42280E+00 -1.57605E-01  1.54846E+00  3.41113E+00  5.15625E+00
   6.52101E+00  7.19657E+00  7.05957E+00  6.20182E+00  4.77081E+00  3.00996E+00  1.29498E+00  8.42580E-03 -6.17083E-01 -4.20552E-01
   5.71576E-01  2.02566E+00  3.70690E+00  5.52336E+00  7.36933E+00  8.94970E+00  9.94800E+00  1.01508E+01  9.53035E+00  8.23114E+00
   6.45403E+00  4.55492E+00  2.96366E+00  1.96176E+00  1.68304E+00  2.09788E+00  3.03014E+00  4.06833E+00  4.80067E+00  5.13767E+00
   5.13903E+00  4.83126E+00  4.27054E+00  3.60602E+00  3.05222E+00  2.74490E+00  2.73183E+00  3.02560E+00  3.58667E+00  4.26046E+00
   4.85516E+00  5.25107E+00  5.39491E+00  5.32381E+00  5.11027E+00  4.83774E+00  4.57826E+00  4.36918E+00  4.21346E+00  4.05610E+00
   3.85263E+00  3.55941E+00  3.12813E+00  2.55754E+00  1.89097E+00  1.22005E+00  6.74352E-01  3.63785E-01  3.76310E-01  7.35704E-01
   1.36326E+00  2.14709E+00  2.95905E+00  3.65985E+00  4.13876E+00  4.47896E+00  5.60141E+00  8.43583E+00  1.23604E+01  1.73070E+01
   2.35455E+01  3.06188E+01  3.72606E+01  4.20797E+01  4.40881E+01  4.28735E+01  3.86660E+01  3.23299E+01  2.50828E+01  1.81297E+01
   1.25391E+01  9.03459E+00  7.77757E+00  8.22417E+00  9.10587E+00  9.48422E+00  9.68878E+00  9.91189E+00  1.02417E+01  1.09875E+01
   1.34103E+01  1.80190E+01  2.38994E+01  3.09814E+01  3.93688E+01  4.82418E+01  5.60133E+01  6.10860E+01  6.24148E+01  5.97285E+01
   5.35267E+01  4.49496E+01  3.54484E+01  2.64415E+01  1.92184E+01  1.46073E+01  1.27287E+01  1.28475E+01  1.34088E+01  1.36286E+01
   1.38464E+01  1.40903E+01  1.42542E+01  1.42240E+01  1.39396E+01  1.34571E+01  1.28801E+01  1.22888E+01  1.17593E+01  1.13317E+01
   1.09876E+01  1.07111E+01  1.04094E+01  1.00495E+01  9.69316E+00  9.35285E+00  9.03933E+00  8.73746E+00  8.40945E+00  8.10301E+00
   7.86342E+00  7.67109E+00  7.45930E+00  7.18287E+00  6.83069E+00  6.39235E+00  5.85806E+00  5.20810E+00  4.44009E+00  3.70889E+00
   3.13508E+00  2.71916E+00  2.38049E+00  2.08130E+00  1.84432E+00  1.66311E+00  1.55357E+00  1.47370E+00  1.34992E+00  1.18961E+00
   1.09967E+00  1.06511E+00  1.07398E+00  1.20440E+00  1.57363E+00  2.25340E+00  3.20208E+00  4.25993E+00  5.30784E+00  6.17161E+00
   6.67471E+00  6.79652E+00  6.54222E+00  5.91092E+00  4.98734E+00  4.05694E+00  3.37185E+00  3.04633E+00  3.10430E+00  3.51072E+00
   4.13290E+00  4.76835E+00  5.16594E+00  5.18520E+00  4.73043E+00  3.79454E+00  2.57216E+00  1.35603E+00  5.73237E-01  3.42807E-01
   6.81823E-01  1.64381E+00  3.07928E+00  4.54592E+00  5.51338E+00  5.63313E+00  4.86486E+00  3.33335E+00  1.22922E+00 -9.94570E-01
  -2.74586E+00 -3.55720E+00 -3.17193E+00 -1.68994E+00  4.65443E-01  2.80338E+00  4.81351E+00  6.25634E+00  7.06809E+00  7.32512E+00
   7.26601E+00  7.18174E+00  7.31584E+00  7.75619E+00  8.36881E+00  8.91087E+00  9.28147E+00  9.42529E+00  9.37073E+00  9.21157E+00
   9.14882E+00  9.40671E+00  1.00872E+01  1.11354E+01  1.24098E+01  1.37205E+01  1.48562E+01  1.57757E+01  1.67805E+01  1.78843E+01
   1.91895E+01  2.20422E+01  2.83464E+01  3.65146E+01  4.54722E+01  5.52511E+01  6.50929E+01  7.30270E+01  7.70190E+01  7.59448E+01
   6.96305E+01  5.88416E+01  4.52182E+01  3.08000E+01  1.74023E+01  6.45475E+00 -1.20965E+00 -5.21962E+00 -6.19415E+00 -6.06555E+00
  -6.78573E+00 -7.80690E+00 -8.79026E+00 -9.74589E+00 -1.07042E+01 -1.16602E+01 -1.26013E+01 -1.35291E+01 -1.44145E+01 -1.52255E+01
  -1.59378E+01 -1.65379E+01 -1.70263E+01 -1.74238E+01 -1.77526E+01 -1.80248E+01 -1.82394E+01 -1.83873E+01 -1.84630E+01 -1.84648E+01
  -1.83942E+01 -1.82619E+01 -1.80874E+01 -1.78948E+01 -1.77085E+01 -1.75470E+01 -1.74259E+01 -1.73561E+01 -1.73437E+01 -1.73924E+01
  -1.75052E+01 -1.76866E+01 -1.79441E+01 -1.82808E+01 -1.86946E+01 -1.91796E+01 -1.97266E+01 -2.03228E+01 -2.09520E+01 -2.15963E+01
  -2.22410E+01 -2.28731E+01 -2.34814E+01 -2.40568E+01 -2.45922E+01 -2.50823E+01 -2.55236E+01 -2.59146E+01 -2.62557E+01 -2.65487E+01
  -2.67960E+01 -2.70009E+01 -2.71668E+01 -2.72975E+01 -2.73968E+01 -2.74680E+01 -2.75142E+01 -2.75379E+01 -2.75414E+01 -2.75267E+01
  -2.74954E+01 -2.74486E+01 -2.73870E+01 -2.73110E+01 -2.72206E+01 -2.71156E+01 -2.69949E+01 -2.68568E+01 -2.66980E+01 -2.65136E+01
  -2.62957E+01 -2.60322E+01 -2.57044E+01 -2.52859E+01 -2.47393E+01 -2.40166E+01 -2.30591E+01 -2.18017E+01 -2.01801E+01 -1.81423E+01
  -1.56629E+01 -1.27569E+01 -9.48951E+00 -5.97864E+00 -2.38538E+00  1.10511E+00  4.31172E+00  7.08685E+00  9.34126E+00  1.10564E+01
   1.22824E+01  1.31202E+01  1.36961E+01  1.41321E+01  1.45232E+01  1.49228E+01  1.53410E+01  1.57523E+01  1.61100E+01  1.63616E+01
   1.64636E+01  1.63903E+01  1.61391E+01  1.57293E+01  1.51989E+01  1.45986E+01  1.39855E+01  1.34162E+01  1.29422E+01  1.26047E+01
   1.24322E+01  1.24391E+01  1.26257E+01  1.29786E+01  1.34728E+01  1.40743E+01  1.47428E+01  1.54348E+01  1.61070E+01  1.67183E+01
   1.72329E+01  1.76215E+01  1.78630E+01  1.79447E+01  1.78630E+01  1.76222E+01  1.72342E+01  1.67165E+01  1.60915E+01  1.53843E+01
   1.46216E+01  1.38294E+01  1.30323E+01  1.22521E+01  1.15072E+01  1.08119E+01  1.01760E+01  9.60517E+00  9.10091E+00  8.66115E+00
   8.28100E+00  7.95309E+00  7.66849E+00  7.41720E+00  7.18907E+00  6.97417E+00  6.76353E+00  6.54924E+00  6.32491E+00  6.08564E+00
   5.82836E+00  5.55156E+00  5.25544E+00  4.94136E+00  4.61194E+00  4.27055E+00  3.92136E+00  3.56881E+00  3.21763E+00  2.87226E+00
   2.53701E+00  2.21567E+00  1.91171E+00  1.62789E+00  1.36651E+00  1.12905E+00  9.16580E-01  7.29522E-01  5.67996E-01  4.31572E-01
   3.19584E-01  2.30930E-01  1.64455E-01  1.18755E-01  9.24965E-02  8.41378E-02  9.22320E-02  1.15201E-01  1.51675E-01  2.00242E-01
   2.59699E-01  3.28753E-01  4.06297E-01  4.91218E-01  5.82755E-01  6.80119E-01  7.82719E-01  8.89861E-01  1.00103E+00  1.11566E+00
   1.23340E+00  1.35382E+00  1.47666E+00  1.60151E+00  1.72816E+00  1.85629E+00  1.98580E+00  2.11646E+00  2.24817E+00  2.38070E+00
   2.51399E+00  2.64789E+00  2.78241E+00  2.91742E+00  3.05292E+00  3.18877E+00  3.32499E+00  3.46153E+00  3.59845E+00  3.73568E+00
   3.87326E+00  4.01110E+00  4.14931E+00  4.28786E+00  4.42686E+00  4.56626E+00  4.70612E+00  4.84642E+00  4.98728E+00  5.12872E+00
   5.27084E+00  5.41362E+00  5.55716E+00  5.70147E+00  5.84669E+00  5.99287E+00  6.14013E+00  6.28846E+00
 NY background values follow
    -9.213E+00   -9.023E+00   -8.833E+00   -8.643E+00   -8.453E+00   -8.263E+00   -8.073E+00   -7.883E+00   -7.694E+00   -7.504E+00
    -7.315E+00   -7.127E+00   -6.938E+00   -6.751E+00   -6.563E+00   -6.377E+00   -6.191E+00   -6.005E+00   -5.820E+00   -5.636E+00
    -5.453E+00   -5.271E+00   -5.089E+00   -4.909E+00   -4.729E+00   -4.551E+00   -4.373E+00   -4.197E+00   -4.022E+00   -3.848E+00
    -3.676E+00   -3.505E+00   -3.335E+00   -3.167E+00   -3.000E+00   -2.834E+00   -2.671E+00   -2.509E+00   -2.348E+00   -2.190E+00
    -2.033E+00   -1.878E+00   -1.725E+00   -1.574E+00   -1.424E+00   -1.277E+00   -1.132E+00   -9.890E-01   -8.480E-01   -7.090E-01
    -5.718E-01   -4.365E-01   -3.029E-01   -1.712E-01   -4.111E-02    8.731E-02    2.141E-01    3.394E-01    4.632E-01    5.855E-01
     7.065E-01    8.260E-01    9.443E-01    1.061E+00    1.177E+00    1.292E+00    1.406E+00    1.518E+00    1.630E+00    1.740E+00
     1.850E+00    1.959E+00    2.067E+00    2.175E+00    2.281E+00    2.387E+00    2.493E+00    2.598E+00    2.702E+00    2.806E+00
     2.910E+00    3.014E+00    3.117E+00    3.219E+00    3.322E+00    3.425E+00    3.527E+00    3.630E+00    3.732E+00    3.835E+00
     3.937E+00    4.040E+00    4.143E+00    4.246E+00    4.349E+00    4.452E+00    4.555E+00    4.657E+00    4.759E+00    4.860E+00
     4.960E+00    5.060E+00    5.159E+00    5.257E+00    5.354E+00    5.450E+00    5.545E+00    5.638E+00    5.730E+00    5.820E+00
     5.908E+00    5.995E+00    6.080E+00    6.164E+00    6.245E+00    6.324E+00    6.400E+00    6.475E+00    6.547E+00    6.616E+00
     6.683E+00    6.747E+00    6.808E+00    6.867E+00    6.922E+00    6.974E+00    7.023E+00    7.069E+00    7.111E+00    7.150E+00
     7.185E+00    7.217E+00    7.244E+00    7.268E+00    7.288E+00    7.303E+00    7.315E+00    7.322E+00    7.325E+00    7.323E+00
     7.318E+00    7.308E+00    7.295E+00    7.277E+00    7.255E+00    7.229E+00    7.199E+00    7.165E+00    7.127E+00    7.085E+00
     7.039E+00    6.989E+00    6.936E+00    6.878E+00    6.817E+00    6.752E+00    6.683E+00    6.611E+00    6.534E+00    6.455E+00
     6.371E+00    6.284E+00    6.193E+00    6.098E+00    6.000E+00    5.899E+00    5.794E+00    5.685E+00    5.573E+00    5.458E+00
     5.339E+00    5.217E+00    5.091E+00    4.962E+00    4.830E+00    4.695E+00    4.556E+00    4.414E+00    4.269E+00    4.121E+00
     3.969E+00    3.815E+00    3.657E+00    3.496E+00    3.332E+00    3.165E+00    2.995E+00    2.822E+00    2.645E+00    2.465E+00
     2.282E+00    2.096E+00    1.907E+00    1.714E+00    1.518E+00    1.319E+00    1.117E+00    9.115E-01    7.026E-01    4.904E-01
     2.749E-01    5.610E-02   -1.660E-01   -3.915E-01   -6.203E-01   -8.525E-01   -1.088E+00   -1.327E+00   -1.569E+00   -1.815E+00
    -2.064E+00   -2.317E+00   -2.573E+00   -2.832E+00   -3.095E+00   -3.362E+00   -3.632E+00   -3.905E+00   -4.182E+00   -4.462E+00
    -4.746E+00   -5.034E+00   -5.325E+00   -5.620E+00   -5.918E+00   -6.219E+00   -6.525E+00   -6.834E+00   -7.146E+00   -7.462E+00
    -7.780E+00   -8.102E+00   -8.426E+00   -8.753E+00   -9.082E+00   -9.414E+00   -9.748E+00   -1.008E+01   -1.042E+01   -1.076E+01
    -1.110E+01   -1.144E+01   -1.178E+01   -1.213E+01   -1.247E+01   -1.281E+01   -1.316E+01   -1.350E+01   -1.385E+01   -1.419E+01
    -1.454E+01   -1.488E+01   -1.523E+01   -1.557E+01   -1.591E+01   -1.625E+01   -1.659E+01   -1.693E+01   -1.726E+01   -1.759E+01
    -1.793E+01   -1.826E+01   -1.858E+01   -1.891E+01   -1.923E+01   -1.955E+01   -1.986E+01   -2.018E+01   -2.049E+01   -2.079E+01
    -2.109E+01   -2.139E+01   -2.169E+01   -2.198E+01   -2.226E+01   -2.254E+01   -2.282E+01   -2.309E+01   -2.336E+01   -2.363E+01
    -2.388E+01   -2.414E+01   -2.439E+01   -2.464E+01   -2.488E+01   -2.511E+01   -2.534E+01   -2.557E+01   -2.579E+01   -2.601E+01
    -2.622E+01   -2.642E+01   -2.663E+01   -2.682E+01   -2.701E+01   -2.720E+01   -2.738E+01   -2.755E+01   -2.772E+01   -2.789E+01
    -2.804E+01   -2.820E+01   -2.834E+01   -2.849E+01   -2.862E+01   -2.875E+01   -2.887E+01   -2.899E+01   -2.910E+01   -2.921E+01
    -2.931E+01   -2.940E+01   -2.949E+01   -2.957E+01   -2.965E+01   -2.972E+01   -2.978E+01   -2.984E+01   -2.989E+01   -2.993E+01
    -2.997E+01   -3.000E+01   -3.002E+01   -3.004E+01   -3.005E+01   -3.006E+01   -3.006E+01   -3.005E+01   -3.004E+01   -3.002E+01
    -2.999E+01   -2.996E+01   -2.993E+01   -2.989E+01   -2.984E+01   -2.978E+01   -2.972E+01   -2.966E+01   -2.959E+01   -2.951E+01
    -2.943E+01   -2.934E+01   -2.924E+01   -2.914E+01   -2.904E+01   -2.893E+01   -2.881E+01   -2.869E+01   -2.856E+01   -2.843E+01
    -2.829E+01   -2.815E+01   -2.800E+01   -2.785E+01   -2.769E+01   -2.752E+01   -2.735E+01   -2.718E+01   -2.700E+01   -2.682E+01
    -2.663E+01   -2.643E+01   -2.623E+01   -2.603E+01   -2.582E+01   -2.561E+01   -2.539E+01   -2.517E+01   -2.494E+01   -2.471E+01
    -2.447E+01   -2.424E+01   -2.399E+01   -2.375E+01   -2.350E+01   -2.324E+01   -2.299E+01   -2.272E+01   -2.246E+01   -2.219E+01
    -2.193E+01   -2.165E+01   -2.138E+01   -2.110E+01   -2.082E+01   -2.054E+01   -2.025E+01   -1.997E+01   -1.968E+01   -1.939E+01
    -1.909E+01   -1.880E+01   -1.850E+01   -1.821E+01   -1.791E+01   -1.761E+01   -1.731E+01   -1.700E+01   -1.670E+01   -1.640E+01
    -1.609E+01   -1.579E+01   -1.548E+01   -1.518E+01   -1.487E+01   -1.456E+01   -1.426E+01   -1.395E+01   -1.364E+01   -1.334E+01
    -1.303E+01   -1.273E+01   -1.242E+01   -1.212E+01   -1.182E+01   -1.151E+01   -1.121E+01   -1.091E+01   -1.061E+01   -1.031E+01
    -1.001E+01   -9.718E+00   -9.422E+00   -9.128E+00   -8.835E+00   -8.543E+00   -8.253E+00   -7.964E+00   -7.677E+00   -7.392E+00
    -7.109E+00   -6.827E+00   -6.547E+00   -6.270E+00   -5.994E+00   -5.721E+00   -5.449E+00   -5.180E+00   -4.914E+00   -4.649E+00
    -4.388E+00   -4.128E+00   -3.872E+00   -3.618E+00   -3.367E+00   -3.119E+00   -2.873E+00   -2.631E+00   -2.392E+00   -2.156E+00
    -1.923E+00   -1.693E+00   -1.467E+00   -1.244E+00   -1.024E+00   -8.078E-01   -5.945E-01   -3.842E-01   -1.769E-01    2.754E-02
     2.292E-01    4.281E-01    6.245E-01    8.183E-01    1.010E+00    1.199E+00    1.385E+00    1.570E+00    1.752E+00    1.933E+00
     2.111E+00    2.288E+00    2.463E+00    2.636E+00    2.808E+00    2.978E+00    3.147E+00    3.314E+00    3.481E+00    3.646E+00
     3.810E+00    3.972E+00    4.135E+00    4.296E+00    4.456E+00    4.616E+00    4.776E+00    4.934E+00    5.093E+00    5.251E+00
     5.409E+00    5.567E+00    5.725E+00    5.883E+00    6.040E+00    6.199E+00    6.357E+00    6.516E+00
 PCr      Conc. = 1.54E+03
