 LCModel (Version 6.3-1L) Copyright: S.W. Provencher.          Ref.: Magn. Reson. Med. 30:672-679 (1993).                
 Slice#2 Row#4 Col#9  K_02_press_1_raw_act
 36 lines in following concentration table = NCONC+1
    Conc.  %SD /Cr+PCr  Metabolite                                         
   93.136 134% 3.7E-02 Ala                                                 
    0.000 999%   0.000 Asp                                                 
 1.61E+03  15%   0.643 Cr                                                  
  894.320  27%   0.357 PCr                                                 
    0.000 999%   0.000 GABA                                                
    0.000 999%   0.000 Glc                                                 
  621.668  40%   0.248 Gln                                                 
 2.30E+03  12%   0.919 Glu                                                 
  920.595   3%   0.368 GPC                                                 
    0.000 999%   0.000 PCh                                                 
  599.018  14%   0.239 GSH                                                 
 1.73E+03  16%   0.690 Ins                                                 
  218.628  61% 8.7E-02 Lac                                                 
 3.27E+03   4%   1.306 NAA                                                 
  391.840  36%   0.156 NAAG                                                
    0.000 999%   0.000 Scyllo                                              
    0.000 999%   0.000 Tau                                                 
    0.000 999%   0.000 -CrCH2                                              
  920.595   3%   0.368 GPC+PCh                                             
 3.66E+03   3%   1.462 NAA+NAAG                                            
 2.50E+03   3%   1.000 Cr+PCr                                              
 2.92E+03  13%   1.167 Glu+Gln                                             
 6.23E+03  25%   2.489 Lip13a                                              
    0.000 999%   0.000 Lip13b                                              
 2.30E+03  24%   0.919 Lip09                                               
 3.40E+03  19%   1.358 MM09                                                
 1.13E+03  33%   0.452 Lip20                                               
 4.82E+03  14%   1.925 MM20                                                
 1.65E+03  45%   0.659 MM12                                                
 2.88E+03  23%   1.150 MM14                                                
  820.382  47%   0.328 MM17                                                
 6.23E+03  25%   2.489 Lip13a+Lip13b                                       
 1.08E+04  11%   4.297 MM14+Lip13a+Lip13b+MM12                             
 5.70E+03   9%   2.277 MM09+Lip09                                          
 5.95E+03  11%   2.378 MM20+Lip20                                          
   6 lines in following misc. output table
  FWHM = 0.038 ppm    S/N =  16                                            
  Data shift = 0.023 ppm                                                   
  Ph:   0 deg      -3.1 deg/ppm                                            
  alphaB,S = 9.0E-01,   8.5E+01                                            
   14 spline knots.   Ns = 6(1)                                            
  ( 6) 3 infls.   ( 3) 1 extrs.                                            
  498 points on ppm-axis = NY
      4.000000     3.992357     3.984714     3.977070     3.969427     3.961784     3.954141     3.946497     3.938854     3.931211
      3.923568     3.915925     3.908281     3.900638     3.892995     3.885352     3.877708     3.870065     3.862422     3.854779
      3.847136     3.839492     3.831849     3.824206     3.816563     3.808919     3.801276     3.793633     3.785990     3.778347
      3.770703     3.763060     3.755417     3.747774     3.740130     3.732487     3.724844     3.717201     3.709558     3.701914
      3.694271     3.686628     3.678985     3.671341     3.663698     3.656055     3.648412     3.640769     3.633125     3.625482
      3.617839     3.610196     3.602552     3.594909     3.587266     3.579623     3.571980     3.564336     3.556693     3.549050
      3.541407     3.533763     3.526120     3.518477     3.510834     3.503191     3.495547     3.487904     3.480261     3.472618
      3.464974     3.457331     3.449688     3.442045     3.434402     3.426758     3.419115     3.411472     3.403829     3.396185
      3.388542     3.380899     3.373256     3.365613     3.357969     3.350326     3.342683     3.335040     3.327396     3.319753
      3.312110     3.304467     3.296824     3.289180     3.281537     3.273894     3.266251     3.258607     3.250964     3.243321
      3.235678     3.228034     3.220391     3.212748     3.205105     3.197462     3.189818     3.182175     3.174532     3.166889
      3.159245     3.151602     3.143959     3.136316     3.128673     3.121029     3.113386     3.105743     3.098100     3.090456
      3.082813     3.075170     3.067527     3.059884     3.052240     3.044597     3.036954     3.029311     3.021667     3.014024
      3.006381     2.998738     2.991095     2.983451     2.975808     2.968165     2.960522     2.952878     2.945235     2.937592
      2.929949     2.922306     2.914662     2.907019     2.899376     2.891733     2.884089     2.876446     2.868803     2.861160
      2.853517     2.845873     2.838230     2.830587     2.822944     2.815300     2.807657     2.800014     2.792371     2.784728
      2.777084     2.769441     2.761798     2.754155     2.746511     2.738868     2.731225     2.723582     2.715939     2.708295
      2.700652     2.693009     2.685366     2.677722     2.670079     2.662436     2.654793     2.647150     2.639506     2.631863
      2.624220     2.616577     2.608933     2.601290     2.593647     2.586004     2.578361     2.570717     2.563074     2.555431
      2.547788     2.540144     2.532501     2.524858     2.517215     2.509572     2.501928     2.494285     2.486642     2.478999
      2.471355     2.463712     2.456069     2.448426     2.440783     2.433139     2.425496     2.417853     2.410210     2.402566
      2.394923     2.387280     2.379637     2.371994     2.364350     2.356707     2.349064     2.341421     2.333777     2.326134
      2.318491     2.310848     2.303205     2.295561     2.287918     2.280275     2.272632     2.264988     2.257345     2.249702
      2.242059     2.234416     2.226772     2.219129     2.211486     2.203843     2.196199     2.188556     2.180913     2.173270
      2.165627     2.157983     2.150340     2.142697     2.135054     2.127410     2.119767     2.112124     2.104481     2.096838
      2.089194     2.081551     2.073908     2.066265     2.058621     2.050978     2.043335     2.035692     2.028049     2.020405
      2.012762     2.005119     1.997476     1.989833     1.982190     1.974546     1.966903     1.959260     1.951617     1.943974
      1.936331     1.928688     1.921045     1.913402     1.905759     1.898115     1.890472     1.882829     1.875186     1.867543
      1.859900     1.852257     1.844614     1.836971     1.829327     1.821684     1.814041     1.806398     1.798755     1.791112
      1.783469     1.775826     1.768183     1.760540     1.752896     1.745253     1.737610     1.729967     1.722324     1.714681
      1.707038     1.699395     1.691752     1.684108     1.676465     1.668822     1.661179     1.653536     1.645893     1.638250
      1.630607     1.622964     1.615321     1.607677     1.600034     1.592391     1.584748     1.577105     1.569462     1.561819
      1.554176     1.546533     1.538890     1.531246     1.523603     1.515960     1.508317     1.500674     1.493031     1.485388
      1.477745     1.470102     1.462458     1.454815     1.447172     1.439529     1.431886     1.424243     1.416600     1.408957
      1.401314     1.393671     1.386027     1.378384     1.370741     1.363098     1.355455     1.347812     1.340169     1.332526
      1.324883     1.317240     1.309596     1.301953     1.294310     1.286667     1.279024     1.271381     1.263738     1.256095
      1.248452     1.240808     1.233165     1.225522     1.217879     1.210236     1.202593     1.194950     1.187307     1.179664
      1.172021     1.164377     1.156734     1.149091     1.141448     1.133805     1.126162     1.118519     1.110876     1.103233
      1.095590     1.087946     1.080303     1.072660     1.065017     1.057374     1.049731     1.042088     1.034445     1.026802
      1.019158     1.011515     1.003872     0.996229     0.988586     0.980943     0.973300     0.965657     0.958014     0.950371
      0.942727     0.935084     0.927441     0.919798     0.912155     0.904512     0.896869     0.889226     0.881583     0.873940
      0.866296     0.858653     0.851010     0.843367     0.835724     0.828081     0.820438     0.812795     0.805152     0.797508
      0.789865     0.782222     0.774579     0.766936     0.759293     0.751650     0.744007     0.736364     0.728721     0.721077
      0.713434     0.705791     0.698148     0.690505     0.682862     0.675219     0.667576     0.659933     0.652290     0.644646
      0.637003     0.629360     0.621717     0.614074     0.606431     0.598788     0.591145     0.583502     0.575858     0.568215
      0.560572     0.552929     0.545286     0.537643     0.530000     0.522357     0.514714     0.507071     0.499427     0.491784
      0.484141     0.476498     0.468855     0.461212     0.453569     0.445925     0.438282     0.430639     0.422996     0.415353
      0.407710     0.400067     0.392424     0.384780     0.377137     0.369494     0.361851     0.354208     0.346565     0.338922
      0.331278     0.323635     0.315992     0.308349     0.300706     0.293063     0.285420     0.277777     0.270133     0.262490
      0.254847     0.247204     0.239561     0.231918     0.224275     0.216631     0.208988     0.201345
 NY phased data points follow
   2.48847E+01  2.09257E+01  2.98077E+01  2.74338E+01  3.25651E+01  3.86049E+01  4.68439E+01  5.66840E+01  7.02368E+01  7.80135E+01
   8.66005E+01  9.12691E+01  8.24713E+01  7.46936E+01  5.73986E+01  4.92029E+01  4.48013E+01  4.20805E+01  2.85820E+01  2.77437E+01
   2.50666E+01  2.74029E+01  2.62709E+01  2.68833E+01  2.73158E+01  3.09397E+01  2.96109E+01  2.94791E+01  2.91711E+01  3.13889E+01
   3.35682E+01  4.27450E+01  4.51593E+01  3.86453E+01  3.35203E+01  3.38182E+01  3.30807E+01  2.17112E+01  2.62632E+01  3.16603E+01
   2.69102E+01  3.05806E+01  2.82630E+01  3.38809E+01  2.81620E+01  4.02100E+01  4.24869E+01  4.64712E+01  4.49978E+01  3.99042E+01
   3.92461E+01  3.18614E+01  3.22738E+01  2.96670E+01  2.30968E+01  2.60040E+01  2.47997E+01  2.85871E+01  2.79862E+01  2.46666E+01
   2.39427E+01  1.78929E+01  2.04635E+01  1.41086E+01  8.37168E+00  6.60176E+00  1.03484E+01  6.54903E+00  8.55613E+00  1.08327E+01
   8.97832E+00  1.18574E+01  1.22827E+01  9.65928E+00  1.03082E+01  1.35218E+01  9.22319E+00  1.68000E+01  9.08854E+00  2.57009E+00
   9.19639E+00  9.36446E+00  9.50692E+00  9.43766E+00  9.58438E+00  8.81644E+00  8.11059E+00  6.52840E+00  1.04872E+01  9.77655E+00
   1.23270E+01  1.21981E+01  1.62891E+01  2.15372E+01  2.17945E+01  1.94403E+01  2.32045E+01  2.77276E+01  3.10643E+01  4.32920E+01
   5.39395E+01  8.28833E+01  1.01638E+02  1.13396E+02  1.01884E+02  8.32791E+01  6.42325E+01  4.42261E+01  3.28868E+01  2.54017E+01
   1.75211E+01  1.84890E+01  1.23918E+01  1.91729E+01  1.77590E+01  1.14259E+01  1.61620E+01  1.39045E+01  1.83905E+01  1.99309E+01
   2.36522E+01  2.10549E+01  3.20260E+01  3.73082E+01  5.24717E+01  7.11026E+01  9.27090E+01  1.04700E+02  1.04888E+02  9.12286E+01
   6.72884E+01  5.16642E+01  3.53490E+01  2.82982E+01  1.98529E+01  1.56805E+01  1.59454E+01  9.17553E+00  9.39155E+00  1.17274E+01
   1.91061E+01  1.13001E+01  1.13136E+01  1.04703E+01  1.79066E+01  9.99757E+00  8.29881E+00  1.31572E+01  1.06453E+01  8.37006E+00
   1.08265E+01  9.16997E+00  7.91240E+00  7.87160E+00  7.53171E+00  6.33203E+00  7.19938E+00  8.20553E+00  9.34962E+00  2.06999E+00
   9.02648E+00  4.74373E+00  5.18868E+00  2.78587E+00 -2.11867E+00  8.32502E+00  9.39614E+00  5.96254E+00  2.31639E+00 -1.28570E+00
  -6.40416E+00 -7.27026E+00 -3.05217E+00 -1.27174E+01 -1.31651E+01 -1.81744E+01 -1.97066E+01 -1.24573E+01 -4.71540E+00 -1.10352E+01
  -6.43965E+00 -1.50571E+01 -1.26566E+01 -1.17262E+01 -1.29130E+01 -1.03732E+01 -6.33097E+00 -1.22370E+01 -2.61517E+00  2.42765E+00
   9.52107E+00  8.99531E+00  1.25969E+01  3.60067E+00  8.15056E+00  1.05591E+01  7.42934E+00  3.61297E+00 -2.86040E+00 -5.12382E+00
  -1.18622E+00 -1.93549E+00 -1.85305E+00  1.07032E+01  7.97344E+00  3.25461E+00  3.46636E+00 -3.68496E+00 -6.28380E+00 -1.38507E+01
  -9.36511E+00 -2.72434E+00 -2.57523E+00  5.02775E+00  8.31864E+00  1.58989E+01  1.94915E+01  1.97772E+01  1.42317E+01  6.18264E+00
  -1.82100E+00 -1.45541E+01 -1.20157E+01 -3.07863E+00  2.75857E+00  6.33408E-01  1.00456E+01  1.27492E+01  1.18663E+01  1.73191E+01
   1.00123E+01  8.65958E+00  1.13272E+01  1.28631E+01  6.42902E+00  1.06607E+01  6.17325E+00  4.11391E+00  3.78015E+00  9.98350E+00
   5.72894E+00  1.88122E+00 -2.36440E+00  2.54775E+00  8.94790E+00  1.20305E+01  2.01848E+01  2.12094E+01  2.76699E+01  2.43271E+01
   2.46136E+01  2.54387E+01  3.60683E+01  3.75890E+01  5.05221E+01  4.98202E+01  5.87105E+01  7.51096E+01  9.98845E+01  1.33296E+02
   1.58967E+02  1.50500E+02  1.29591E+02  9.00841E+01  6.49668E+01  3.63591E+01  2.42926E+01  2.06355E+01  1.34343E+01  1.00751E+01
   1.04517E+01  6.36506E+00  7.92154E+00  1.09980E+01  3.94387E+00  3.38494E+00  3.82014E+00 -2.60920E-01  1.91281E+00 -3.11388E-01
   5.74175E+00 -3.47531E+00  1.70094E+00 -1.13792E+00 -9.61136E-01  4.15445E+00 -5.41775E+00 -2.97153E+00  2.54072E+00  7.25518E+00
   5.35385E+00  2.38105E+00  1.51326E+00  7.74189E+00  2.90391E+00  3.98319E-04  4.18137E-01 -1.74491E-01  1.03301E+00  3.32248E+00
   7.79217E+00  1.27998E+01  7.16945E+00  8.46085E+00  1.13052E+01  1.48921E+01  1.29788E+01  3.65654E+00  7.73672E+00  3.38292E+00
  -2.02223E+00  5.59288E-01  4.41326E+00  1.71464E+00  7.56305E+00  2.90636E+00  5.73628E+00  6.42081E+00  1.22939E+01  1.29121E+01
   2.14979E+01  1.52180E+01  2.16655E+01  1.90257E+01  2.12855E+01  2.14077E+01  1.74227E+01  2.90770E+01  2.40998E+01  2.86672E+01
   2.69589E+01  2.78401E+01  2.56011E+01  2.18507E+01  3.15789E+01  2.68215E+01  2.81470E+01  3.44337E+01  2.68894E+01  2.90619E+01
   3.00754E+01  2.94722E+01  2.65737E+01  3.06465E+01  2.97936E+01  2.95986E+01  2.70298E+01  2.53340E+01  2.46680E+01  2.09264E+01
   2.19970E+01  2.59031E+01  2.29685E+01  2.97185E+01  3.15312E+01  3.17613E+01  3.30115E+01  3.42035E+01  2.91253E+01  3.40244E+01
   2.85848E+01  3.39652E+01  3.35974E+01  3.81286E+01  3.37582E+01  3.20532E+01  3.30608E+01  3.79231E+01  3.35261E+01  3.37812E+01
   2.84138E+01  2.95668E+01  3.36693E+01  3.17353E+01  2.54659E+01  3.30260E+01  3.13159E+01  2.89641E+01  2.75908E+01  3.23816E+01
   3.39693E+01  2.84776E+01  2.84984E+01  3.29546E+01  2.58133E+01  2.48677E+01  3.18756E+01  2.95138E+01  3.53843E+01  3.29543E+01
   3.22881E+01  3.87520E+01  3.48420E+01  3.86739E+01  3.82917E+01  3.96739E+01  4.23933E+01  4.16104E+01  4.20599E+01  4.19149E+01
   4.32326E+01  3.86002E+01  3.90623E+01  3.82354E+01  3.98623E+01  4.13305E+01  4.04442E+01  3.93980E+01  4.06313E+01  4.36275E+01
   4.28484E+01  3.96560E+01  3.82988E+01  3.94973E+01  3.85891E+01  3.60400E+01  3.89128E+01  3.44201E+01  3.25593E+01  3.02125E+01
   3.32639E+01  3.23556E+01  2.94198E+01  3.39575E+01  3.19621E+01  3.28086E+01  3.00239E+01  2.98516E+01  2.59730E+01  2.96498E+01
   1.90253E+01  3.05234E+01  2.77239E+01  2.42788E+01  2.54027E+01  2.74800E+01  2.93175E+01  2.39063E+01  2.23663E+01  1.86052E+01
   2.33991E+01  2.25093E+01  2.51922E+01  2.52295E+01  2.36269E+01  2.40579E+01  2.14421E+01  2.24319E+01  1.95156E+01  1.69394E+01
   1.68128E+01  2.17677E+01  1.90462E+01  2.17081E+01  2.19389E+01  2.41725E+01  2.14259E+01  1.97149E+01  2.03780E+01  2.53621E+01
   2.26652E+01  1.67709E+01  2.31989E+01  1.96365E+01  1.68369E+01  1.85010E+01  1.87539E+01  1.94149E+01  2.36135E+01  1.77859E+01
   2.53970E+01  2.00722E+01  1.87786E+01  1.74067E+01  2.10766E+01  2.04758E+01  1.96591E+01  2.11561E+01  1.82153E+01  1.45928E+01
   2.16324E+01  1.81467E+01  1.99996E+01  1.86731E+01  1.83736E+01  1.84864E+01  2.07546E+01  1.87179E+01  2.05731E+01  1.92677E+01
   1.98176E+01  1.75227E+01  1.93478E+01  1.86429E+01  1.50152E+01  1.67507E+01  1.82036E+01  1.49246E+01
 NY points of the fit to the data follow
   2.85099E+01  2.83888E+01  2.90543E+01  3.10528E+01  3.42222E+01  3.92253E+01  4.67076E+01  5.58507E+01  6.67040E+01  7.79616E+01
   8.64122E+01  8.86188E+01  8.33069E+01  7.25142E+01  6.00987E+01  4.92691E+01  4.12853E+01  3.60727E+01  3.25748E+01  3.02767E+01
   2.91447E+01  2.84259E+01  2.75945E+01  2.68424E+01  2.66322E+01  2.65193E+01  2.63019E+01  2.71655E+01  3.01980E+01  3.50722E+01
   4.00277E+01  4.33002E+01  4.38158E+01  4.15421E+01  3.74757E+01  3.27061E+01  2.82872E+01  2.50482E+01  2.33304E+01  2.30004E+01
   2.38071E+01  2.54674E+01  2.73493E+01  2.91261E+01  3.12487E+01  3.40823E+01  3.69818E+01  3.84813E+01  3.76061E+01  3.44693E+01
   3.01848E+01  2.60863E+01  2.29709E+01  2.10968E+01  2.02543E+01  2.01656E+01  2.06436E+01  2.14669E+01  2.24995E+01  2.33831E+01
   2.36283E+01  2.29478E+01  2.14074E+01  1.95013E+01  1.78169E+01  1.68197E+01  1.66362E+01  1.70162E+01  1.76827E+01  1.84324E+01
   1.91295E+01  1.95726E+01  1.95947E+01  1.91751E+01  1.84532E+01  1.76727E+01  1.70027E+01  1.65076E+01  1.61347E+01  1.58183E+01
   1.54948E+01  1.50467E+01  1.44727E+01  1.37377E+01  1.27502E+01  1.14287E+01  9.92032E+00  8.64164E+00  8.03770E+00  8.27676E+00
   9.28125E+00  1.06830E+01  1.21208E+01  1.34314E+01  1.45635E+01  1.56608E+01  1.81222E+01  2.42738E+01  3.16201E+01  4.16207E+01
   5.86109E+01  8.17666E+01  1.03062E+02  1.12405E+02  1.05532E+02  8.64827E+01  6.36565E+01  4.40483E+01  3.03343E+01  2.15111E+01
   1.57628E+01  1.31589E+01  1.23330E+01  1.20089E+01  1.18644E+01  1.18200E+01  1.18612E+01  1.19859E+01  1.22403E+01  1.28247E+01
   1.46366E+01  2.02366E+01  2.80450E+01  3.71354E+01  5.16316E+01  7.27102E+01  9.45800E+01  1.07555E+02  1.05513E+02  9.01513E+01
   6.89734E+01  4.96030E+01  3.55309E+01  2.60714E+01  1.89569E+01  1.39547E+01  1.10373E+01  9.30839E+00  8.78456E+00  9.36642E+00
   1.05585E+01  1.17214E+01  1.24042E+01  1.24208E+01  1.18687E+01  1.10506E+01  1.02290E+01  9.52094E+00  8.94149E+00  8.41606E+00
   7.94360E+00  7.48086E+00  7.01677E+00  6.60839E+00  6.28398E+00  5.95588E+00  5.77022E+00  5.58806E+00  5.07410E+00  4.16028E+00
   2.93605E+00  2.07541E+00  2.13138E+00  2.87259E+00  3.50429E+00  3.35594E+00  2.32093E+00  8.45822E-01 -5.08074E-01 -1.56376E+00
  -2.38081E+00 -2.99338E+00 -3.50787E+00 -4.26052E+00 -5.31688E+00 -6.31715E+00 -6.54168E+00 -5.91941E+00 -5.15846E+00 -4.97027E+00
  -5.42911E+00 -6.06632E+00 -6.18739E+00 -5.85145E+00 -5.62214E+00 -5.53440E+00 -4.98350E+00 -3.48010E+00 -1.03747E+00  1.75872E+00
   4.12015E+00  5.45553E+00  5.35399E+00  4.31178E+00  2.92943E+00  1.39972E+00 -5.68886E-02 -1.02624E+00 -1.06152E+00 -1.13616E-01
   1.70312E+00  3.96178E+00  6.14135E+00  7.64844E+00  7.70841E+00  6.39509E+00  3.70391E+00 -1.21905E-01 -3.92526E+00 -6.63303E+00
  -7.32279E+00 -6.20235E+00 -3.31607E+00  1.45223E+00  7.25403E+00  1.20455E+01  1.36134E+01  1.13808E+01  6.38462E+00  1.34626E-01
  -6.18533E+00 -1.10819E+01 -1.29269E+01 -1.10251E+01 -5.96478E+00  2.24554E-01  5.55263E+00  9.17210E+00  1.09541E+01  1.11315E+01
   1.01478E+01  8.89174E+00  8.24538E+00  8.50975E+00  9.47989E+00  1.09746E+01  1.25966E+01  1.36326E+01  1.38146E+01  1.30146E+01
   1.14630E+01  9.80731E+00  9.02306E+00  9.69097E+00  1.16517E+01  1.43321E+01  1.70028E+01  1.90576E+01  2.01862E+01  2.08644E+01
   2.18252E+01  2.30747E+01  2.53916E+01  3.01503E+01  4.10290E+01  5.41876E+01  6.50092E+01  8.04904E+01  1.05472E+02  1.34085E+02
   1.52357E+02  1.49827E+02  1.27468E+02  9.56504E+01  6.58476E+01  4.38451E+01  2.94149E+01  1.93517E+01  1.33046E+01  1.08147E+01
   9.25808E+00  8.13368E+00  7.42770E+00  7.02200E+00  6.66478E+00  6.20548E+00  5.60710E+00  4.92119E+00  4.21559E+00  3.55771E+00
   2.99316E+00  2.56066E+00  2.27409E+00  2.10077E+00  1.98286E+00  1.88592E+00  1.80936E+00  1.76534E+00  1.77168E+00  1.84406E+00
   1.99939E+00  2.23830E+00  2.53568E+00  2.85967E+00  3.19168E+00  3.51597E+00  3.82277E+00  4.11280E+00  4.39187E+00  4.66669E+00
   4.93970E+00  5.20277E+00  5.44425E+00  5.65564E+00  5.83461E+00  5.98555E+00  6.11685E+00  6.23928E+00  6.36987E+00  6.52663E+00
   6.72671E+00  6.98627E+00  7.32020E+00  7.74270E+00  8.26772E+00  8.90716E+00  9.66904E+00  1.05569E+01  1.15711E+01  1.27106E+01
   1.39787E+01  1.53837E+01  1.68558E+01  1.83485E+01  1.98949E+01  2.14209E+01  2.27504E+01  2.37282E+01  2.43457E+01  2.47898E+01
   2.52583E+01  2.57713E+01  2.63567E+01  2.70634E+01  2.78902E+01  2.87399E+01  2.94173E+01  2.97639E+01  2.97901E+01  2.96259E+01
   2.94529E+01  2.94014E+01  2.93301E+01  2.93275E+01  2.95278E+01  2.97177E+01  2.95033E+01  2.86491E+01  2.73768E+01  2.62764E+01
   2.56137E+01  2.55403E+01  2.62041E+01  2.76109E+01  2.95078E+01  3.14577E+01  3.29538E+01  3.37910E+01  3.41042E+01  3.41421E+01
   3.40942E+01  3.40134E+01  3.38763E+01  3.37392E+01  3.35845E+01  3.33802E+01  3.31166E+01  3.27934E+01  3.24156E+01  3.19922E+01
   3.15351E+01  3.10577E+01  3.05740E+01  3.00984E+01  2.96459E+01  2.92315E+01  2.88701E+01  2.85753E+01  2.83590E+01  2.82314E+01
   2.82015E+01  2.82769E+01  2.84630E+01  2.87624E+01  2.91748E+01  2.96976E+01  3.03260E+01  3.10527E+01  3.18674E+01  3.27570E+01
   3.37056E+01  3.46957E+01  3.57088E+01  3.67252E+01  3.77241E+01  3.86846E+01  3.95868E+01  4.04125E+01  4.11460E+01  4.17741E+01
   4.22860E+01  4.26739E+01  4.29338E+01  4.30652E+01  4.30709E+01  4.29558E+01  4.27267E+01  4.23920E+01  4.19616E+01  4.14465E+01
   4.08577E+01  4.02055E+01  3.94997E+01  3.87492E+01  3.79631E+01  3.71495E+01  3.63158E+01  3.54680E+01  3.46119E+01  3.37528E+01
   3.28964E+01  3.20477E+01  3.12114E+01  3.03914E+01  2.95915E+01  2.88156E+01  2.80676E+01  2.73505E+01  2.66665E+01  2.60173E+01
   2.54043E+01  2.48286E+01  2.42910E+01  2.37915E+01  2.33291E+01  2.29028E+01  2.25113E+01  2.21537E+01  2.18285E+01  2.15337E+01
   2.12670E+01  2.10265E+01  2.08105E+01  2.06175E+01  2.04457E+01  2.02931E+01  2.01577E+01  2.00382E+01  1.99334E+01  1.98422E+01
   1.97634E+01  1.96954E+01  1.96372E+01  1.95879E+01  1.95472E+01  1.95143E+01  1.94885E+01  1.94687E+01  1.94544E+01  1.94455E+01
   1.94418E+01  1.94427E+01  1.94477E+01  1.94561E+01  1.94679E+01  1.94831E+01  1.95016E+01  1.95230E+01  1.95467E+01  1.95725E+01
   1.96005E+01  1.96309E+01  1.96635E+01  1.96978E+01  1.97335E+01  1.97707E+01  1.98095E+01  1.98501E+01  1.98921E+01  1.99353E+01
   1.99793E+01  2.00245E+01  2.00710E+01  2.01189E+01  2.01677E+01  2.02173E+01  2.02676E+01  2.03189E+01  2.03715E+01  2.04250E+01
   2.04793E+01  2.05340E+01  2.05896E+01  2.06461E+01  2.07037E+01  2.07622E+01  2.08211E+01  2.08805E+01
 NY background values follow
     2.264E+01    2.251E+01    2.238E+01    2.225E+01    2.212E+01    2.199E+01    2.186E+01    2.172E+01    2.159E+01    2.146E+01
     2.133E+01    2.120E+01    2.107E+01    2.093E+01    2.080E+01    2.067E+01    2.054E+01    2.040E+01    2.027E+01    2.014E+01
     2.000E+01    1.987E+01    1.974E+01    1.960E+01    1.947E+01    1.934E+01    1.920E+01    1.907E+01    1.894E+01    1.880E+01
     1.867E+01    1.853E+01    1.840E+01    1.826E+01    1.813E+01    1.800E+01    1.786E+01    1.773E+01    1.759E+01    1.746E+01
     1.732E+01    1.719E+01    1.705E+01    1.692E+01    1.678E+01    1.664E+01    1.651E+01    1.637E+01    1.624E+01    1.610E+01
     1.597E+01    1.583E+01    1.569E+01    1.556E+01    1.542E+01    1.529E+01    1.515E+01    1.502E+01    1.488E+01    1.475E+01
     1.461E+01    1.447E+01    1.434E+01    1.420E+01    1.407E+01    1.394E+01    1.380E+01    1.367E+01    1.353E+01    1.340E+01
     1.326E+01    1.313E+01    1.300E+01    1.287E+01    1.273E+01    1.260E+01    1.247E+01    1.234E+01    1.221E+01    1.207E+01
     1.194E+01    1.181E+01    1.168E+01    1.155E+01    1.142E+01    1.130E+01    1.117E+01    1.104E+01    1.091E+01    1.078E+01
     1.066E+01    1.053E+01    1.041E+01    1.028E+01    1.016E+01    1.003E+01    9.909E+00    9.785E+00    9.662E+00    9.539E+00
     9.416E+00    9.294E+00    9.172E+00    9.050E+00    8.928E+00    8.807E+00    8.685E+00    8.564E+00    8.442E+00    8.321E+00
     8.200E+00    8.079E+00    7.958E+00    7.836E+00    7.715E+00    7.594E+00    7.472E+00    7.350E+00    7.229E+00    7.107E+00
     6.984E+00    6.862E+00    6.739E+00    6.616E+00    6.493E+00    6.369E+00    6.245E+00    6.121E+00    5.996E+00    5.871E+00
     5.745E+00    5.619E+00    5.492E+00    5.365E+00    5.237E+00    5.109E+00    4.980E+00    4.850E+00    4.720E+00    4.590E+00
     4.459E+00    4.327E+00    4.195E+00    4.063E+00    3.930E+00    3.797E+00    3.664E+00    3.531E+00    3.398E+00    3.264E+00
     3.131E+00    2.997E+00    2.863E+00    2.730E+00    2.597E+00    2.464E+00    2.331E+00    2.198E+00    2.065E+00    1.933E+00
     1.801E+00    1.670E+00    1.539E+00    1.409E+00    1.279E+00    1.150E+00    1.021E+00    8.930E-01    7.657E-01    6.391E-01
     5.133E-01    3.884E-01    2.643E-01    1.412E-01    1.900E-02   -1.022E-01   -2.223E-01   -3.414E-01   -4.593E-01   -5.761E-01
    -6.917E-01   -8.060E-01   -9.190E-01   -1.031E+00   -1.141E+00   -1.250E+00   -1.358E+00   -1.465E+00   -1.570E+00   -1.674E+00
    -1.777E+00   -1.879E+00   -1.979E+00   -2.078E+00   -2.176E+00   -2.273E+00   -2.368E+00   -2.462E+00   -2.555E+00   -2.646E+00
    -2.737E+00   -2.826E+00   -2.914E+00   -3.000E+00   -3.086E+00   -3.170E+00   -3.253E+00   -3.334E+00   -3.415E+00   -3.494E+00
    -3.572E+00   -3.649E+00   -3.725E+00   -3.799E+00   -3.872E+00   -3.944E+00   -4.015E+00   -4.085E+00   -4.153E+00   -4.220E+00
    -4.286E+00   -4.351E+00   -4.414E+00   -4.477E+00   -4.538E+00   -4.598E+00   -4.657E+00   -4.715E+00   -4.771E+00   -4.826E+00
    -4.880E+00   -4.933E+00   -4.984E+00   -5.035E+00   -5.083E+00   -5.131E+00   -5.177E+00   -5.222E+00   -5.265E+00   -5.307E+00
    -5.348E+00   -5.387E+00   -5.424E+00   -5.460E+00   -5.495E+00   -5.528E+00   -5.560E+00   -5.590E+00   -5.618E+00   -5.645E+00
    -5.670E+00   -5.693E+00   -5.715E+00   -5.735E+00   -5.754E+00   -5.770E+00   -5.785E+00   -5.798E+00   -5.810E+00   -5.819E+00
    -5.827E+00   -5.833E+00   -5.837E+00   -5.839E+00   -5.839E+00   -5.838E+00   -5.834E+00   -5.829E+00   -5.821E+00   -5.812E+00
    -5.800E+00   -5.787E+00   -5.771E+00   -5.753E+00   -5.734E+00   -5.712E+00   -5.688E+00   -5.663E+00   -5.635E+00   -5.605E+00
    -5.573E+00   -5.540E+00   -5.504E+00   -5.467E+00   -5.428E+00   -5.386E+00   -5.343E+00   -5.298E+00   -5.251E+00   -5.202E+00
    -5.152E+00   -5.099E+00   -5.045E+00   -4.989E+00   -4.931E+00   -4.872E+00   -4.810E+00   -4.747E+00   -4.682E+00   -4.615E+00
    -4.547E+00   -4.477E+00   -4.405E+00   -4.332E+00   -4.257E+00   -4.180E+00   -4.101E+00   -4.021E+00   -3.939E+00   -3.856E+00
    -3.771E+00   -3.685E+00   -3.596E+00   -3.507E+00   -3.416E+00   -3.323E+00   -3.228E+00   -3.133E+00   -3.035E+00   -2.936E+00
    -2.836E+00   -2.734E+00   -2.631E+00   -2.527E+00   -2.421E+00   -2.314E+00   -2.205E+00   -2.095E+00   -1.984E+00   -1.871E+00
    -1.758E+00   -1.643E+00   -1.526E+00   -1.409E+00   -1.290E+00   -1.171E+00   -1.050E+00   -9.279E-01   -8.048E-01   -6.807E-01
    -5.555E-01   -4.293E-01   -3.020E-01   -1.738E-01   -4.463E-02    8.550E-02    2.166E-01    3.485E-01    4.814E-01    6.151E-01
     7.497E-01    8.851E-01    1.021E+00    1.158E+00    1.296E+00    1.434E+00    1.574E+00    1.714E+00    1.854E+00    1.995E+00
     2.137E+00    2.280E+00    2.423E+00    2.567E+00    2.711E+00    2.856E+00    3.001E+00    3.147E+00    3.293E+00    3.440E+00
     3.587E+00    3.734E+00    3.882E+00    4.030E+00    4.178E+00    4.327E+00    4.476E+00    4.625E+00    4.775E+00    4.924E+00
     5.074E+00    5.224E+00    5.374E+00    5.524E+00    5.674E+00    5.824E+00    5.975E+00    6.125E+00    6.275E+00    6.425E+00
     6.575E+00    6.725E+00    6.875E+00    7.025E+00    7.174E+00    7.323E+00    7.472E+00    7.621E+00    7.770E+00    7.918E+00
     8.066E+00    8.213E+00    8.360E+00    8.507E+00    8.653E+00    8.799E+00    8.945E+00    9.089E+00    9.234E+00    9.378E+00
     9.521E+00    9.664E+00    9.806E+00    9.947E+00    1.009E+01    1.023E+01    1.037E+01    1.051E+01    1.065E+01    1.078E+01
     1.092E+01    1.106E+01    1.119E+01    1.133E+01    1.146E+01    1.160E+01    1.173E+01    1.186E+01    1.199E+01    1.212E+01
     1.225E+01    1.238E+01    1.251E+01    1.264E+01    1.276E+01    1.289E+01    1.301E+01    1.314E+01    1.326E+01    1.338E+01
     1.350E+01    1.362E+01    1.374E+01    1.386E+01    1.398E+01    1.409E+01    1.421E+01    1.432E+01    1.443E+01    1.455E+01
     1.466E+01    1.477E+01    1.487E+01    1.498E+01    1.509E+01    1.519E+01    1.530E+01    1.540E+01    1.550E+01    1.561E+01
     1.571E+01    1.581E+01    1.591E+01    1.600E+01    1.610E+01    1.620E+01    1.629E+01    1.639E+01    1.648E+01    1.658E+01
     1.667E+01    1.676E+01    1.685E+01    1.695E+01    1.704E+01    1.713E+01    1.722E+01    1.731E+01    1.740E+01    1.748E+01
     1.757E+01    1.766E+01    1.775E+01    1.783E+01    1.792E+01    1.801E+01    1.810E+01    1.818E+01    1.827E+01    1.835E+01
     1.844E+01    1.853E+01    1.861E+01    1.870E+01    1.878E+01    1.887E+01    1.896E+01    1.904E+01
 Ala      Conc. = 9.31E+01
