 LCModel (Version 6.3-1L) Copyright: S.W. Provencher.          Ref.: Magn. Reson. Med. 30:672-679 (1993).                
 Slice#2 Row#2 Col#13  K_02_press_1_raw_act
 36 lines in following concentration table = NCONC+1
    Conc.  %SD /Cr+PCr  Metabolite                                         
 1.07E+05   6% 115.552 Ala                                                 
  151.443  64%   0.164 Asp                                                 
  921.868  17%   1.000 Cr                                                  
    0.000 999%   0.000 PCr                                                 
   97.857  60%   0.106 GABA                                                
  112.938  52%   0.123 Glc                                                 
 1.01E+04  20%  11.002 Gln                                                 
 6.03E+03  45%   6.538 Glu                                                 
    0.000 999%   0.000 GPC                                                 
  834.038  10%   0.905 PCh                                                 
 3.74E+03  13%   4.060 GSH                                                 
 1.17E+04   9%  12.698 Ins                                                 
 3.85E+04  20%  41.745 Lac                                                 
    0.000 999%   0.000 NAA                                                 
    0.000 999%   0.000 NAAG                                                
   59.492  32% 6.5E-02 Scyllo                                              
  218.616  44%   0.237 Tau                                                 
    0.000 999%   0.000 -CrCH2                                              
  834.038  10%   0.905 GPC+PCh                                             
    0.000 999%   0.000 NAA+NAAG                                            
  921.868  17%   1.000 Cr+PCr                                              
 1.62E+04  27%  17.540 Glu+Gln                                             
    0.000 999%   0.000 Lip13a                                              
 3.64E+03  13%   3.950 Lip13b                                              
 4.13E+03  40%   4.484 Lip09                                               
 2.24E+04  11%  24.280 MM09                                                
    0.000 999%   0.000 Lip20                                               
    0.000 999%   0.000-MM20                                                
 6.25E+03  34%   6.777 MM12                                                
 1.11E+05   2% 120.862+MM14                                                
 5.66E+04   9%  61.435+MM17                                                
 3.64E+03  13%   3.950 Lip13a+Lip13b                                       
 1.21E+05   3% 131.589 MM14+Lip13a+Lip13b+MM12                             
 2.65E+04   8%  28.764 MM09+Lip09                                          
    0.000 999%   0.000 MM20+Lip20                                          
   6 lines in following misc. output table
  FWHM = 0.153 ppm    S/N =  88                                            
  Data shift = 0.153 ppm                                                   
  Ph:-121 deg      65.1 deg/ppm                                            
  alphaB,S = 4.8E+01,   4.9E+02                                            
    7 spline knots.   Ns = 9(2)                                            
  ( 8) 2 infls.   ( 1) 1 extrs.                                            
  498 points on ppm-axis = NY
      4.000000     3.992357     3.984714     3.977070     3.969427     3.961784     3.954141     3.946497     3.938854     3.931211
      3.923568     3.915925     3.908281     3.900638     3.892995     3.885352     3.877708     3.870065     3.862422     3.854779
      3.847136     3.839492     3.831849     3.824206     3.816563     3.808919     3.801276     3.793633     3.785990     3.778347
      3.770703     3.763060     3.755417     3.747774     3.740130     3.732487     3.724844     3.717201     3.709558     3.701914
      3.694271     3.686628     3.678985     3.671341     3.663698     3.656055     3.648412     3.640769     3.633125     3.625482
      3.617839     3.610196     3.602552     3.594909     3.587266     3.579623     3.571980     3.564336     3.556693     3.549050
      3.541407     3.533763     3.526120     3.518477     3.510834     3.503191     3.495547     3.487904     3.480261     3.472618
      3.464974     3.457331     3.449688     3.442045     3.434402     3.426758     3.419115     3.411472     3.403829     3.396185
      3.388542     3.380899     3.373256     3.365613     3.357969     3.350326     3.342683     3.335040     3.327396     3.319753
      3.312110     3.304467     3.296824     3.289180     3.281537     3.273894     3.266251     3.258607     3.250964     3.243321
      3.235678     3.228034     3.220391     3.212748     3.205105     3.197462     3.189818     3.182175     3.174532     3.166889
      3.159245     3.151602     3.143959     3.136316     3.128673     3.121029     3.113386     3.105743     3.098100     3.090456
      3.082813     3.075170     3.067527     3.059884     3.052240     3.044597     3.036954     3.029311     3.021667     3.014024
      3.006381     2.998738     2.991095     2.983451     2.975808     2.968165     2.960522     2.952878     2.945235     2.937592
      2.929949     2.922306     2.914662     2.907019     2.899376     2.891733     2.884089     2.876446     2.868803     2.861160
      2.853517     2.845873     2.838230     2.830587     2.822944     2.815300     2.807657     2.800014     2.792371     2.784728
      2.777084     2.769441     2.761798     2.754155     2.746511     2.738868     2.731225     2.723582     2.715939     2.708295
      2.700652     2.693009     2.685366     2.677722     2.670079     2.662436     2.654793     2.647150     2.639506     2.631863
      2.624220     2.616577     2.608933     2.601290     2.593647     2.586004     2.578361     2.570717     2.563074     2.555431
      2.547788     2.540144     2.532501     2.524858     2.517215     2.509572     2.501928     2.494285     2.486642     2.478999
      2.471355     2.463712     2.456069     2.448426     2.440783     2.433139     2.425496     2.417853     2.410210     2.402566
      2.394923     2.387280     2.379637     2.371994     2.364350     2.356707     2.349064     2.341421     2.333777     2.326134
      2.318491     2.310848     2.303205     2.295561     2.287918     2.280275     2.272632     2.264988     2.257345     2.249702
      2.242059     2.234416     2.226772     2.219129     2.211486     2.203843     2.196199     2.188556     2.180913     2.173270
      2.165627     2.157983     2.150340     2.142697     2.135054     2.127410     2.119767     2.112124     2.104481     2.096838
      2.089194     2.081551     2.073908     2.066265     2.058621     2.050978     2.043335     2.035692     2.028049     2.020405
      2.012762     2.005119     1.997476     1.989833     1.982190     1.974546     1.966903     1.959260     1.951617     1.943974
      1.936331     1.928688     1.921045     1.913402     1.905759     1.898115     1.890472     1.882829     1.875186     1.867543
      1.859900     1.852257     1.844614     1.836971     1.829327     1.821684     1.814041     1.806398     1.798755     1.791112
      1.783469     1.775826     1.768183     1.760540     1.752896     1.745253     1.737610     1.729967     1.722324     1.714681
      1.707038     1.699395     1.691752     1.684108     1.676465     1.668822     1.661179     1.653536     1.645893     1.638250
      1.630607     1.622964     1.615321     1.607677     1.600034     1.592391     1.584748     1.577105     1.569462     1.561819
      1.554176     1.546533     1.538890     1.531246     1.523603     1.515960     1.508317     1.500674     1.493031     1.485388
      1.477745     1.470102     1.462458     1.454815     1.447172     1.439529     1.431886     1.424243     1.416600     1.408957
      1.401314     1.393671     1.386027     1.378384     1.370741     1.363098     1.355455     1.347812     1.340169     1.332526
      1.324883     1.317240     1.309596     1.301953     1.294310     1.286667     1.279024     1.271381     1.263738     1.256095
      1.248452     1.240808     1.233165     1.225522     1.217879     1.210236     1.202593     1.194950     1.187307     1.179664
      1.172021     1.164377     1.156734     1.149091     1.141448     1.133805     1.126162     1.118519     1.110876     1.103233
      1.095590     1.087946     1.080303     1.072660     1.065017     1.057374     1.049731     1.042088     1.034445     1.026802
      1.019158     1.011515     1.003872     0.996229     0.988586     0.980943     0.973300     0.965657     0.958014     0.950371
      0.942727     0.935084     0.927441     0.919798     0.912155     0.904512     0.896869     0.889226     0.881583     0.873940
      0.866296     0.858653     0.851010     0.843367     0.835724     0.828081     0.820438     0.812795     0.805152     0.797508
      0.789865     0.782222     0.774579     0.766936     0.759293     0.751650     0.744007     0.736364     0.728721     0.721077
      0.713434     0.705791     0.698148     0.690505     0.682862     0.675219     0.667576     0.659933     0.652290     0.644646
      0.637003     0.629360     0.621717     0.614074     0.606431     0.598788     0.591145     0.583502     0.575858     0.568215
      0.560572     0.552929     0.545286     0.537643     0.530000     0.522357     0.514714     0.507071     0.499427     0.491784
      0.484141     0.476498     0.468855     0.461212     0.453569     0.445925     0.438282     0.430639     0.422996     0.415353
      0.407710     0.400067     0.392424     0.384780     0.377137     0.369494     0.361851     0.354208     0.346565     0.338922
      0.331278     0.323635     0.315992     0.308349     0.300706     0.293063     0.285420     0.277777     0.270133     0.262490
      0.254847     0.247204     0.239561     0.231918     0.224275     0.216631     0.208988     0.201345
 NY phased data points follow
  -1.74961E+01 -1.23368E+01 -2.01696E+01 -2.06660E+01 -1.75854E+01 -1.78786E+01 -1.91442E+01 -1.78416E+01 -2.25617E+01 -2.19083E+01
  -2.26364E+01 -2.33348E+01 -2.41174E+01 -2.30761E+01 -2.16962E+01 -2.53502E+01 -2.37566E+01 -2.56327E+01 -2.65847E+01 -2.53231E+01
  -2.67626E+01 -2.96848E+01 -2.54627E+01 -2.67150E+01 -2.96397E+01 -2.96456E+01 -2.78805E+01 -3.07951E+01 -3.13760E+01 -3.45855E+01
  -3.44348E+01 -3.20472E+01 -3.10997E+01 -3.41787E+01 -3.07786E+01 -3.59120E+01 -3.59280E+01 -3.81568E+01 -3.44353E+01 -3.66292E+01
  -3.91261E+01 -3.75219E+01 -3.80613E+01 -3.98832E+01 -3.69817E+01 -3.65769E+01 -4.04784E+01 -3.93662E+01 -4.08246E+01 -4.16005E+01
  -4.54995E+01 -4.10734E+01 -4.31473E+01 -4.31986E+01 -4.60671E+01 -4.32194E+01 -4.81304E+01 -4.46766E+01 -4.52433E+01 -4.30765E+01
  -5.21223E+01 -4.62956E+01 -4.85608E+01 -4.91560E+01 -4.86111E+01 -5.01912E+01 -4.93780E+01 -5.38398E+01 -5.11680E+01 -5.20403E+01
  -5.35487E+01 -5.20455E+01 -5.25696E+01 -5.55960E+01 -5.68640E+01 -5.24131E+01 -5.83749E+01 -5.68720E+01 -5.89225E+01 -5.83356E+01
  -5.75765E+01 -5.96780E+01 -6.17952E+01 -6.35889E+01 -6.16822E+01 -6.22950E+01 -6.40083E+01 -6.29350E+01 -6.27791E+01 -6.13752E+01
  -6.21631E+01 -6.43645E+01 -6.98440E+01 -6.70894E+01 -6.76483E+01 -6.71999E+01 -6.73449E+01 -6.91559E+01 -7.17624E+01 -6.92093E+01
  -7.43827E+01 -7.31565E+01 -7.49939E+01 -6.80797E+01 -7.31129E+01 -7.51123E+01 -7.57668E+01 -7.40051E+01 -7.73659E+01 -7.72918E+01
  -7.57241E+01 -7.92228E+01 -7.51850E+01 -8.25449E+01 -7.92374E+01 -7.99562E+01 -8.09980E+01 -8.15369E+01 -8.24678E+01 -8.39516E+01
  -8.42138E+01 -8.57106E+01 -8.60576E+01 -8.43783E+01 -8.55535E+01 -8.51741E+01 -8.50239E+01 -8.86126E+01 -8.82758E+01 -8.98586E+01
  -8.76528E+01 -8.99891E+01 -8.75271E+01 -8.83584E+01 -9.18409E+01 -9.09895E+01 -9.06714E+01 -9.15946E+01 -9.30062E+01 -9.67863E+01
  -9.30420E+01 -9.66199E+01 -9.37129E+01 -9.49842E+01 -9.61239E+01 -9.90470E+01 -9.82815E+01 -9.82969E+01 -9.86256E+01 -1.00615E+02
  -9.99738E+01 -9.96348E+01 -1.03988E+02 -1.03985E+02 -1.03392E+02 -1.02096E+02 -1.03358E+02 -1.06614E+02 -1.08772E+02 -1.03714E+02
  -1.05728E+02 -1.09363E+02 -1.11587E+02 -1.09622E+02 -1.10853E+02 -1.12330E+02 -1.15439E+02 -1.09397E+02 -1.12915E+02 -1.12608E+02
  -1.15839E+02 -1.15495E+02 -1.17134E+02 -1.19448E+02 -1.18491E+02 -1.19541E+02 -1.13242E+02 -1.18637E+02 -1.19475E+02 -1.16872E+02
  -1.17194E+02 -1.21150E+02 -1.20686E+02 -1.20873E+02 -1.20544E+02 -1.16090E+02 -1.18342E+02 -1.19897E+02 -1.17203E+02 -1.20644E+02
  -1.19123E+02 -1.17217E+02 -1.19626E+02 -1.17454E+02 -1.16865E+02 -1.18711E+02 -1.16213E+02 -1.17855E+02 -1.14728E+02 -1.15082E+02
  -1.14721E+02 -1.12653E+02 -1.12275E+02 -1.15125E+02 -1.15314E+02 -1.16009E+02 -1.15412E+02 -1.12613E+02 -1.14997E+02 -1.13705E+02
  -1.15774E+02 -1.14419E+02 -1.11610E+02 -1.14485E+02 -1.12307E+02 -1.10061E+02 -1.13030E+02 -1.11273E+02 -1.11548E+02 -1.11131E+02
  -1.13945E+02 -1.08770E+02 -1.11590E+02 -1.08839E+02 -1.06959E+02 -1.11507E+02 -1.10868E+02 -1.11103E+02 -1.07091E+02 -1.10121E+02
  -1.11268E+02 -1.09120E+02 -1.10432E+02 -1.11928E+02 -1.09762E+02 -1.11035E+02 -1.11370E+02 -1.12275E+02 -1.12980E+02 -1.14978E+02
  -1.17721E+02 -1.15818E+02 -1.14670E+02 -1.08878E+02 -1.12067E+02 -1.14210E+02 -1.13588E+02 -1.18517E+02 -1.17541E+02 -1.20080E+02
  -1.18088E+02 -1.18893E+02 -1.18617E+02 -1.20845E+02 -1.19217E+02 -1.15522E+02 -1.12715E+02 -1.12981E+02 -1.16643E+02 -1.11567E+02
  -1.12092E+02 -1.09346E+02 -1.09355E+02 -1.09587E+02 -1.04944E+02 -1.04991E+02 -1.06533E+02 -1.01839E+02 -1.03079E+02 -9.53401E+01
  -9.90815E+01 -9.32312E+01 -8.78862E+01 -9.28312E+01 -8.60319E+01 -8.45115E+01 -7.93011E+01 -7.69827E+01 -7.40002E+01 -6.65699E+01
  -6.42371E+01 -5.87646E+01 -5.80483E+01 -4.83804E+01 -4.25539E+01 -3.75617E+01 -2.74782E+01 -1.86390E+01 -1.37428E+01 -2.32337E+00
   6.26808E+00  1.38135E+01  2.89710E+01  3.98728E+01  5.40684E+01  6.62503E+01  8.59671E+01  1.03963E+02  1.20358E+02  1.42723E+02
   1.68134E+02  1.92677E+02  2.17064E+02  2.44235E+02  2.83178E+02  3.12204E+02  3.46316E+02  3.88197E+02  4.27570E+02  4.65691E+02
   5.11655E+02  5.58169E+02  6.04974E+02  6.51016E+02  6.94264E+02  7.37833E+02  7.78427E+02  8.09693E+02  8.45543E+02  8.66386E+02
   8.90518E+02  9.11179E+02  9.22754E+02  9.33084E+02  9.41028E+02  9.43012E+02  9.38239E+02  9.25948E+02  9.15802E+02  8.98400E+02
   8.74877E+02  8.43116E+02  8.10991E+02  7.76013E+02  7.30571E+02  6.81789E+02  6.33936E+02  5.88499E+02  5.38883E+02  4.98784E+02
   4.56505E+02  4.18059E+02  3.80223E+02  3.46924E+02  3.21335E+02  2.98680E+02  2.76554E+02  2.53557E+02  2.36057E+02  2.22140E+02
   2.06996E+02  1.91105E+02  1.81751E+02  1.72951E+02  1.59326E+02  1.48854E+02  1.45575E+02  1.36687E+02  1.30365E+02  1.21485E+02
   1.19165E+02  1.12591E+02  1.07570E+02  1.04947E+02  9.93491E+01  9.69515E+01  9.41664E+01  8.93283E+01  8.82886E+01  8.57638E+01
   7.92756E+01  8.24659E+01  7.58026E+01  7.00265E+01  6.99845E+01  6.99791E+01  6.82379E+01  6.38784E+01  6.51708E+01  6.17956E+01
   5.83895E+01  5.44852E+01  5.40990E+01  4.76514E+01  4.51259E+01  4.24903E+01  3.82022E+01  3.56194E+01  2.62108E+01  2.31939E+01
   2.12304E+01  1.66139E+01  6.94965E+00  3.61834E+00  1.18772E-01 -6.60687E+00 -8.80873E+00 -1.59563E+01 -1.71889E+01 -1.70504E+01
  -2.48810E+01 -2.88576E+01 -3.70490E+01 -3.87958E+01 -4.14602E+01 -4.38923E+01 -4.58910E+01 -4.85077E+01 -5.62791E+01 -5.49125E+01
  -5.91475E+01 -5.91434E+01 -6.56193E+01 -6.63398E+01 -7.06838E+01 -6.87407E+01 -7.21959E+01 -7.48306E+01 -7.39594E+01 -7.53913E+01
  -7.87383E+01 -7.96914E+01 -8.36405E+01 -8.25745E+01 -8.66401E+01 -8.63659E+01 -8.95131E+01 -8.81145E+01 -9.27436E+01 -9.14583E+01
  -9.15264E+01 -9.58914E+01 -9.70827E+01 -9.73260E+01 -9.94300E+01 -9.77193E+01 -9.71147E+01 -9.94170E+01 -1.01630E+02 -1.02352E+02
  -1.01874E+02 -1.05734E+02 -1.03018E+02 -1.01195E+02 -1.02466E+02 -1.05820E+02 -1.04996E+02 -1.08272E+02 -1.09341E+02 -1.06501E+02
  -1.11011E+02 -1.08553E+02 -1.10014E+02 -1.11702E+02 -1.07993E+02 -1.10954E+02 -1.07289E+02 -1.10740E+02 -1.07920E+02 -1.15181E+02
  -1.09641E+02 -1.08579E+02 -1.09499E+02 -1.10761E+02 -1.11348E+02 -1.09953E+02 -1.09555E+02 -1.10706E+02 -1.07931E+02 -1.09591E+02
  -1.10092E+02 -1.09806E+02 -1.07220E+02 -1.10649E+02 -1.07722E+02 -1.05915E+02 -1.07195E+02 -1.06284E+02 -1.10822E+02 -1.08497E+02
  -1.05618E+02 -1.04358E+02 -1.05789E+02 -1.06617E+02 -1.04943E+02 -1.04943E+02 -1.06109E+02 -1.03760E+02 -1.04878E+02 -1.02394E+02
  -1.03511E+02 -1.01847E+02 -1.02436E+02 -1.01715E+02 -1.02766E+02 -1.01167E+02 -1.05104E+02 -1.02940E+02
 NY points of the fit to the data follow
  -1.91360E+01 -1.38914E+01 -2.12305E+01 -1.80592E+01 -2.36496E+01 -2.03702E+01 -2.38576E+01 -2.00903E+01 -2.42189E+01 -2.18023E+01
  -2.41012E+01 -2.34919E+01 -2.61481E+01 -2.60281E+01 -2.84669E+01 -2.73010E+01 -2.81731E+01 -2.82879E+01 -2.84730E+01 -2.95406E+01
  -2.97279E+01 -3.01208E+01 -2.92894E+01 -2.98562E+01 -2.82674E+01 -2.96864E+01 -2.80605E+01 -3.00665E+01 -2.83830E+01 -3.10420E+01
  -2.93721E+01 -3.28255E+01 -3.10240E+01 -3.41738E+01 -3.20660E+01 -3.58600E+01 -3.43394E+01 -3.78126E+01 -3.55279E+01 -3.81419E+01
  -3.59056E+01 -3.75418E+01 -3.53840E+01 -3.67785E+01 -3.55300E+01 -3.68769E+01 -3.52151E+01 -3.58031E+01 -3.57748E+01 -3.69968E+01
  -3.71520E+01 -3.88194E+01 -3.97128E+01 -4.21321E+01 -4.32444E+01 -4.41866E+01 -4.41779E+01 -4.44402E+01 -4.41817E+01 -4.46432E+01
  -4.45639E+01 -4.52106E+01 -4.56917E+01 -4.70741E+01 -4.75676E+01 -4.92232E+01 -4.94906E+01 -5.10883E+01 -5.09808E+01 -5.25152E+01
  -5.22872E+01 -5.40396E+01 -5.38885E+01 -5.55073E+01 -5.51956E+01 -5.72549E+01 -5.74371E+01 -5.99832E+01 -6.05838E+01 -6.34462E+01
  -6.42124E+01 -6.72276E+01 -6.78345E+01 -7.06483E+01 -6.99790E+01 -7.21713E+01 -7.13329E+01 -7.31343E+01 -7.17518E+01 -7.31129E+01
  -7.11915E+01 -7.20495E+01 -7.00688E+01 -7.05961E+01 -6.90081E+01 -6.93444E+01 -6.81775E+01 -6.83086E+01 -6.75814E+01 -6.77047E+01
  -6.76360E+01 -6.78896E+01 -6.86171E+01 -6.90083E+01 -7.03630E+01 -7.08673E+01 -7.27830E+01 -7.34359E+01 -7.56759E+01 -7.59293E+01
  -7.82808E+01 -7.85379E+01 -8.07979E+01 -8.06908E+01 -8.27236E+01 -8.26499E+01 -8.42301E+01 -8.40477E+01 -8.50045E+01 -8.46797E+01
  -8.49717E+01 -8.47218E+01 -8.46932E+01 -8.48338E+01 -8.39944E+01 -8.43231E+01 -8.34154E+01 -8.42555E+01 -8.32855E+01 -8.46747E+01
  -8.37364E+01 -8.56487E+01 -8.47498E+01 -8.70626E+01 -8.62183E+01 -8.88253E+01 -8.80265E+01 -9.08015E+01 -9.01417E+01 -9.30641E+01
  -9.26008E+01 -9.54021E+01 -9.50737E+01 -9.76134E+01 -9.73758E+01 -9.95440E+01 -9.94361E+01 -1.01339E+02 -1.01314E+02 -1.02678E+02
  -1.02772E+02 -1.04016E+02 -1.04270E+02 -1.05118E+02 -1.05407E+02 -1.06195E+02 -1.06634E+02 -1.07370E+02 -1.07925E+02 -1.08515E+02
  -1.09041E+02 -1.09431E+02 -1.09843E+02 -1.10193E+02 -1.10581E+02 -1.11050E+02 -1.11438E+02 -1.11978E+02 -1.12330E+02 -1.12871E+02
  -1.12988E+02 -1.13458E+02 -1.13355E+02 -1.13871E+02 -1.13665E+02 -1.14215E+02 -1.14024E+02 -1.14820E+02 -1.14843E+02 -1.15639E+02
  -1.15724E+02 -1.16635E+02 -1.16974E+02 -1.17686E+02 -1.17847E+02 -1.18202E+02 -1.18327E+02 -1.18037E+02 -1.17871E+02 -1.17256E+02
  -1.17149E+02 -1.16498E+02 -1.17516E+02 -1.16622E+02 -1.17407E+02 -1.16349E+02 -1.17440E+02 -1.16311E+02 -1.17381E+02 -1.16232E+02
  -1.17314E+02 -1.16094E+02 -1.16653E+02 -1.15455E+02 -1.15896E+02 -1.15062E+02 -1.14977E+02 -1.14106E+02 -1.13935E+02 -1.13232E+02
  -1.12862E+02 -1.12485E+02 -1.12108E+02 -1.11773E+02 -1.11422E+02 -1.10968E+02 -1.10617E+02 -1.10210E+02 -1.10483E+02 -1.10040E+02
  -1.10175E+02 -1.09301E+02 -1.09254E+02 -1.07936E+02 -1.08091E+02 -1.07496E+02 -1.07782E+02 -1.07604E+02 -1.07786E+02 -1.08295E+02
  -1.07926E+02 -1.09625E+02 -1.09415E+02 -1.12038E+02 -1.10870E+02 -1.14053E+02 -1.12096E+02 -1.15715E+02 -1.12873E+02 -1.16863E+02
  -1.13731E+02 -1.17977E+02 -1.14418E+02 -1.18530E+02 -1.15019E+02 -1.19050E+02 -1.15403E+02 -1.18911E+02 -1.15252E+02 -1.17929E+02
  -1.14383E+02 -1.16398E+02 -1.13271E+02 -1.14621E+02 -1.11985E+02 -1.12492E+02 -1.10125E+02 -1.09828E+02 -1.08076E+02 -1.07389E+02
  -1.05988E+02 -1.04923E+02 -1.03698E+02 -1.02178E+02 -1.01166E+02 -9.97052E+01 -9.86970E+01 -9.71477E+01 -9.61792E+01 -9.45171E+01
  -9.33653E+01 -9.15265E+01 -9.02145E+01 -8.81103E+01 -8.64673E+01 -8.40017E+01 -8.18720E+01 -7.89606E+01 -7.62217E+01 -7.27810E+01
  -6.93281E+01 -6.52359E+01 -6.07833E+01 -5.56711E+01 -4.99736E+01 -4.35686E+01 -3.63340E+01 -2.83519E+01 -1.93686E+01 -9.47910E+00
   1.52433E+00  1.35468E+01  2.67567E+01  4.10463E+01  5.65196E+01  7.31035E+01  9.08371E+01  1.09639E+02  1.29524E+02  1.50451E+02
   1.72457E+02  1.95593E+02  2.19993E+02  2.45886E+02  2.73649E+02  3.03853E+02  3.37430E+02  3.75897E+02  4.21397E+02  4.71671E+02
   5.15945E+02  5.63389E+02  6.07050E+02  6.55515E+02  6.95639E+02  7.38763E+02  7.68682E+02  8.11940E+02  8.39029E+02  8.72719E+02
   8.89260E+02  9.13281E+02  9.20585E+02  9.36528E+02  9.37694E+02  9.43725E+02  9.36532E+02  9.28498E+02  9.14192E+02  8.99688E+02
   8.74294E+02  8.43215E+02  8.10297E+02  7.69785E+02  7.31436E+02  6.81173E+02  6.36813E+02  5.88260E+02  5.45281E+02  4.94647E+02
   4.56229E+02  4.12915E+02  3.81181E+02  3.48041E+02  3.22596E+02  2.97394E+02  2.75507E+02  2.52916E+02  2.36616E+02  2.23027E+02
   2.07371E+02  1.95702E+02  1.81927E+02  1.73712E+02  1.62131E+02  1.51902E+02  1.39624E+02  1.34254E+02  1.27588E+02  1.23198E+02
   1.18253E+02  1.13916E+02  1.09491E+02  1.05069E+02  1.01027E+02  9.67486E+01  9.34307E+01  8.77341E+01  8.71308E+01  8.58200E+01
   8.40551E+01  8.07258E+01  7.86385E+01  7.49392E+01  7.26132E+01  6.61235E+01  6.26180E+01  6.07091E+01  5.93571E+01  5.81169E+01
   5.67437E+01  5.50864E+01  5.30482E+01  5.05721E+01  4.76306E+01  4.42215E+01  4.03630E+01  3.60921E+01  3.14603E+01  2.65312E+01
   2.13753E+01  1.60672E+01  1.06815E+01  5.29058E+00 -3.81115E-02 -5.24469E+00 -1.02790E+01 -1.51017E+01 -1.96842E+01 -2.40090E+01
  -2.80687E+01 -3.18653E+01 -3.54096E+01 -3.87190E+01 -4.18160E+01 -4.47260E+01 -4.74761E+01 -5.00934E+01 -5.26044E+01 -5.50326E+01
  -5.73985E+01 -5.97183E+01 -6.20039E+01 -6.42634E+01 -6.65009E+01 -6.87165E+01 -7.09073E+01 -7.30675E+01 -7.51897E+01 -7.72658E+01
  -7.92869E+01 -8.12446E+01 -8.31304E+01 -8.49373E+01 -8.66597E+01 -8.82933E+01 -8.98355E+01 -9.12852E+01 -9.26421E+01 -9.39077E+01
  -9.50843E+01 -9.61756E+01 -9.71852E+01 -9.81177E+01 -9.89774E+01 -9.97691E+01 -1.00498E+02 -1.01168E+02 -1.01785E+02 -1.02352E+02
  -1.02874E+02 -1.03353E+02 -1.03795E+02 -1.04201E+02 -1.04575E+02 -1.04920E+02 -1.05237E+02 -1.05529E+02 -1.05798E+02 -1.06046E+02
  -1.06274E+02 -1.06483E+02 -1.06676E+02 -1.06853E+02 -1.07015E+02 -1.07164E+02 -1.07299E+02 -1.07423E+02 -1.07535E+02 -1.07637E+02
  -1.07729E+02 -1.07811E+02 -1.07884E+02 -1.07949E+02 -1.08006E+02 -1.08056E+02 -1.08098E+02 -1.08134E+02 -1.08163E+02 -1.08186E+02
  -1.08203E+02 -1.08214E+02 -1.08220E+02 -1.08221E+02 -1.08217E+02 -1.08208E+02 -1.08194E+02 -1.08176E+02 -1.08154E+02 -1.08127E+02
  -1.08097E+02 -1.08062E+02 -1.08024E+02 -1.07981E+02 -1.07935E+02 -1.07885E+02 -1.07832E+02 -1.07774E+02 -1.07713E+02 -1.07648E+02
  -1.07578E+02 -1.07504E+02 -1.07425E+02 -1.07342E+02 -1.07252E+02 -1.07156E+02 -1.07052E+02 -1.06939E+02
 NY background values follow
    -6.118E+01   -6.152E+01   -6.186E+01   -6.220E+01   -6.254E+01   -6.288E+01   -6.323E+01   -6.357E+01   -6.391E+01   -6.425E+01
    -6.460E+01   -6.494E+01   -6.528E+01   -6.562E+01   -6.597E+01   -6.631E+01   -6.665E+01   -6.699E+01   -6.734E+01   -6.768E+01
    -6.802E+01   -6.836E+01   -6.871E+01   -6.905E+01   -6.939E+01   -6.973E+01   -7.007E+01   -7.042E+01   -7.076E+01   -7.110E+01
    -7.144E+01   -7.178E+01   -7.213E+01   -7.247E+01   -7.281E+01   -7.315E+01   -7.349E+01   -7.383E+01   -7.417E+01   -7.451E+01
    -7.485E+01   -7.519E+01   -7.553E+01   -7.587E+01   -7.621E+01   -7.655E+01   -7.689E+01   -7.722E+01   -7.756E+01   -7.790E+01
    -7.824E+01   -7.857E+01   -7.891E+01   -7.925E+01   -7.958E+01   -7.992E+01   -8.025E+01   -8.059E+01   -8.092E+01   -8.126E+01
    -8.159E+01   -8.192E+01   -8.225E+01   -8.259E+01   -8.292E+01   -8.325E+01   -8.358E+01   -8.391E+01   -8.424E+01   -8.457E+01
    -8.490E+01   -8.523E+01   -8.556E+01   -8.588E+01   -8.621E+01   -8.654E+01   -8.686E+01   -8.719E+01   -8.751E+01   -8.784E+01
    -8.816E+01   -8.848E+01   -8.880E+01   -8.912E+01   -8.945E+01   -8.977E+01   -9.009E+01   -9.040E+01   -9.072E+01   -9.104E+01
    -9.136E+01   -9.167E+01   -9.199E+01   -9.230E+01   -9.262E+01   -9.293E+01   -9.324E+01   -9.355E+01   -9.386E+01   -9.417E+01
    -9.448E+01   -9.479E+01   -9.510E+01   -9.541E+01   -9.571E+01   -9.602E+01   -9.632E+01   -9.663E+01   -9.693E+01   -9.723E+01
    -9.753E+01   -9.783E+01   -9.813E+01   -9.843E+01   -9.872E+01   -9.902E+01   -9.932E+01   -9.961E+01   -9.990E+01   -1.002E+02
    -1.005E+02   -1.008E+02   -1.011E+02   -1.014E+02   -1.016E+02   -1.019E+02   -1.022E+02   -1.025E+02   -1.028E+02   -1.031E+02
    -1.033E+02   -1.036E+02   -1.039E+02   -1.042E+02   -1.045E+02   -1.047E+02   -1.050E+02   -1.053E+02   -1.056E+02   -1.058E+02
    -1.061E+02   -1.064E+02   -1.066E+02   -1.069E+02   -1.072E+02   -1.074E+02   -1.077E+02   -1.080E+02   -1.082E+02   -1.085E+02
    -1.087E+02   -1.090E+02   -1.092E+02   -1.095E+02   -1.098E+02   -1.100E+02   -1.103E+02   -1.105E+02   -1.108E+02   -1.110E+02
    -1.112E+02   -1.115E+02   -1.117E+02   -1.120E+02   -1.122E+02   -1.124E+02   -1.127E+02   -1.129E+02   -1.132E+02   -1.134E+02
    -1.136E+02   -1.139E+02   -1.141E+02   -1.143E+02   -1.145E+02   -1.148E+02   -1.150E+02   -1.152E+02   -1.154E+02   -1.156E+02
    -1.159E+02   -1.161E+02   -1.163E+02   -1.165E+02   -1.167E+02   -1.169E+02   -1.171E+02   -1.173E+02   -1.176E+02   -1.178E+02
    -1.180E+02   -1.182E+02   -1.184E+02   -1.186E+02   -1.188E+02   -1.189E+02   -1.191E+02   -1.193E+02   -1.195E+02   -1.197E+02
    -1.199E+02   -1.201E+02   -1.203E+02   -1.204E+02   -1.206E+02   -1.208E+02   -1.210E+02   -1.212E+02   -1.213E+02   -1.215E+02
    -1.217E+02   -1.218E+02   -1.220E+02   -1.222E+02   -1.223E+02   -1.225E+02   -1.227E+02   -1.228E+02   -1.230E+02   -1.231E+02
    -1.233E+02   -1.234E+02   -1.236E+02   -1.237E+02   -1.239E+02   -1.240E+02   -1.242E+02   -1.243E+02   -1.244E+02   -1.246E+02
    -1.247E+02   -1.248E+02   -1.250E+02   -1.251E+02   -1.252E+02   -1.253E+02   -1.255E+02   -1.256E+02   -1.257E+02   -1.258E+02
    -1.259E+02   -1.261E+02   -1.262E+02   -1.263E+02   -1.264E+02   -1.265E+02   -1.266E+02   -1.267E+02   -1.268E+02   -1.269E+02
    -1.270E+02   -1.271E+02   -1.272E+02   -1.273E+02   -1.274E+02   -1.274E+02   -1.275E+02   -1.276E+02   -1.277E+02   -1.278E+02
    -1.278E+02   -1.279E+02   -1.280E+02   -1.281E+02   -1.281E+02   -1.282E+02   -1.283E+02   -1.283E+02   -1.284E+02   -1.284E+02
    -1.285E+02   -1.286E+02   -1.286E+02   -1.287E+02   -1.287E+02   -1.288E+02   -1.288E+02   -1.288E+02   -1.289E+02   -1.289E+02
    -1.290E+02   -1.290E+02   -1.290E+02   -1.291E+02   -1.291E+02   -1.291E+02   -1.292E+02   -1.292E+02   -1.292E+02   -1.293E+02
    -1.293E+02   -1.293E+02   -1.293E+02   -1.293E+02   -1.294E+02   -1.294E+02   -1.294E+02   -1.294E+02   -1.294E+02   -1.294E+02
    -1.294E+02   -1.294E+02   -1.294E+02   -1.294E+02   -1.294E+02   -1.294E+02   -1.294E+02   -1.294E+02   -1.294E+02   -1.294E+02
    -1.294E+02   -1.294E+02   -1.294E+02   -1.294E+02   -1.294E+02   -1.294E+02   -1.293E+02   -1.293E+02   -1.293E+02   -1.293E+02
    -1.293E+02   -1.292E+02   -1.292E+02   -1.292E+02   -1.292E+02   -1.291E+02   -1.291E+02   -1.291E+02   -1.290E+02   -1.290E+02
    -1.290E+02   -1.289E+02   -1.289E+02   -1.289E+02   -1.288E+02   -1.288E+02   -1.287E+02   -1.287E+02   -1.287E+02   -1.286E+02
    -1.286E+02   -1.285E+02   -1.285E+02   -1.284E+02   -1.284E+02   -1.283E+02   -1.283E+02   -1.282E+02   -1.281E+02   -1.281E+02
    -1.280E+02   -1.280E+02   -1.279E+02   -1.278E+02   -1.278E+02   -1.277E+02   -1.277E+02   -1.276E+02   -1.275E+02   -1.275E+02
    -1.274E+02   -1.273E+02   -1.273E+02   -1.272E+02   -1.271E+02   -1.270E+02   -1.270E+02   -1.269E+02   -1.268E+02   -1.267E+02
    -1.267E+02   -1.266E+02   -1.265E+02   -1.264E+02   -1.263E+02   -1.263E+02   -1.262E+02   -1.261E+02   -1.260E+02   -1.259E+02
    -1.258E+02   -1.257E+02   -1.257E+02   -1.256E+02   -1.255E+02   -1.254E+02   -1.253E+02   -1.252E+02   -1.251E+02   -1.250E+02
    -1.249E+02   -1.248E+02   -1.247E+02   -1.246E+02   -1.245E+02   -1.245E+02   -1.244E+02   -1.243E+02   -1.242E+02   -1.241E+02
    -1.240E+02   -1.239E+02   -1.237E+02   -1.236E+02   -1.235E+02   -1.234E+02   -1.233E+02   -1.232E+02   -1.231E+02   -1.230E+02
    -1.229E+02   -1.228E+02   -1.227E+02   -1.226E+02   -1.225E+02   -1.224E+02   -1.222E+02   -1.221E+02   -1.220E+02   -1.219E+02
    -1.218E+02   -1.217E+02   -1.216E+02   -1.214E+02   -1.213E+02   -1.212E+02   -1.211E+02   -1.210E+02   -1.209E+02   -1.207E+02
    -1.206E+02   -1.205E+02   -1.204E+02   -1.203E+02   -1.201E+02   -1.200E+02   -1.199E+02   -1.198E+02   -1.197E+02   -1.195E+02
    -1.194E+02   -1.193E+02   -1.192E+02   -1.190E+02   -1.189E+02   -1.188E+02   -1.186E+02   -1.185E+02   -1.184E+02   -1.183E+02
    -1.181E+02   -1.180E+02   -1.179E+02   -1.177E+02   -1.176E+02   -1.175E+02   -1.174E+02   -1.172E+02   -1.171E+02   -1.170E+02
    -1.168E+02   -1.167E+02   -1.166E+02   -1.164E+02   -1.163E+02   -1.162E+02   -1.160E+02   -1.159E+02   -1.158E+02   -1.156E+02
    -1.155E+02   -1.154E+02   -1.152E+02   -1.151E+02   -1.149E+02   -1.148E+02   -1.147E+02   -1.145E+02   -1.144E+02   -1.143E+02
    -1.141E+02   -1.140E+02   -1.138E+02   -1.137E+02   -1.136E+02   -1.134E+02   -1.133E+02   -1.132E+02   -1.130E+02   -1.129E+02
    -1.127E+02   -1.126E+02   -1.125E+02   -1.123E+02   -1.122E+02   -1.120E+02   -1.119E+02   -1.118E+02
 Ala      Conc. = 1.07E+05
