 LCModel (Version 6.3-1L) Copyright: S.W. Provencher.          Ref.: Magn. Reson. Med. 30:672-679 (1993).                
 Slice#1 Row#8 Col#10  K_02_press_1_raw_act
 36 lines in following concentration table = NCONC+1
    Conc.  %SD /Cr+PCr  Metabolite                                         
   73.903 119% 9.2E-02 Ala                                                 
    0.000 999%   0.000 Asp                                                 
  188.314  85%   0.234 Cr                                                  
  614.846  28%   0.766 PCr                                                 
    0.000 999%   0.000 GABA                                                
   12.471 999% 1.6E-02 Glc                                                 
  177.403  98%   0.221 Gln                                                 
  739.815  26%   0.921 Glu                                                 
  274.951  30%   0.342 GPC                                                 
  124.553  67%   0.155 PCh                                                 
  241.058  27%   0.300 GSH                                                 
  676.867  32%   0.843 Ins                                                 
    0.000 999%   0.000 Lac                                                 
 1.93E+03   6%   2.404 NAA                                                 
  789.837  12%   0.983 NAAG                                                
   25.045  99% 3.1E-02 Scyllo                                              
    0.000 999%   0.000 Tau                                                 
  366.686  28%   0.457 -CrCH2                                              
  399.503   6%   0.497 GPC+PCh                                             
 2.72E+03   3%   3.388 NAA+NAAG                                            
  803.160   7%   1.000 Cr+PCr                                              
  917.218  27%   1.142 Glu+Gln                                             
    0.000 999%   0.000 Lip13a                                              
    0.000 999%   0.000 Lip13b                                              
    0.000 999%   0.000 Lip09                                               
 1.82E+03  13%   2.261 MM09                                                
 8.79E-03 999% 1.1E-05 Lip20                                               
 3.78E+03  11%   4.707 MM20                                                
  411.976  30%   0.513 MM12                                                
 2.06E+03  15%   2.564 MM14                                                
 1.29E+03  19%   1.604 MM17                                                
    0.000 999%   0.000 Lip13a+Lip13b                                       
 2.47E+03  15%   3.077 MM14+Lip13a+Lip13b+MM12                             
 1.82E+03  13%   2.261 MM09+Lip09                                          
 3.78E+03  11%   4.707 MM20+Lip20                                          
   6 lines in following misc. output table
  FWHM = 0.031 ppm    S/N =  12                                            
  Data shift = 0.000 ppm                                                   
  Ph: -29 deg      -1.1 deg/ppm                                            
  alphaB,S = 6.9E-01,   2.4E+01                                            
   14 spline knots.   Ns = 5(1)                                            
  ( 5) 2 infls.   ( 3) 1 extrs.                                            
  498 points on ppm-axis = NY
      4.000000     3.992357     3.984714     3.977070     3.969427     3.961784     3.954141     3.946497     3.938854     3.931211
      3.923568     3.915925     3.908281     3.900638     3.892995     3.885352     3.877708     3.870065     3.862422     3.854779
      3.847136     3.839492     3.831849     3.824206     3.816563     3.808919     3.801276     3.793633     3.785990     3.778347
      3.770703     3.763060     3.755417     3.747774     3.740130     3.732487     3.724844     3.717201     3.709558     3.701914
      3.694271     3.686628     3.678985     3.671341     3.663698     3.656055     3.648412     3.640769     3.633125     3.625482
      3.617839     3.610196     3.602552     3.594909     3.587266     3.579623     3.571980     3.564336     3.556693     3.549050
      3.541407     3.533763     3.526120     3.518477     3.510834     3.503191     3.495547     3.487904     3.480261     3.472618
      3.464974     3.457331     3.449688     3.442045     3.434402     3.426758     3.419115     3.411472     3.403829     3.396185
      3.388542     3.380899     3.373256     3.365613     3.357969     3.350326     3.342683     3.335040     3.327396     3.319753
      3.312110     3.304467     3.296824     3.289180     3.281537     3.273894     3.266251     3.258607     3.250964     3.243321
      3.235678     3.228034     3.220391     3.212748     3.205105     3.197462     3.189818     3.182175     3.174532     3.166889
      3.159245     3.151602     3.143959     3.136316     3.128673     3.121029     3.113386     3.105743     3.098100     3.090456
      3.082813     3.075170     3.067527     3.059884     3.052240     3.044597     3.036954     3.029311     3.021667     3.014024
      3.006381     2.998738     2.991095     2.983451     2.975808     2.968165     2.960522     2.952878     2.945235     2.937592
      2.929949     2.922306     2.914662     2.907019     2.899376     2.891733     2.884089     2.876446     2.868803     2.861160
      2.853517     2.845873     2.838230     2.830587     2.822944     2.815300     2.807657     2.800014     2.792371     2.784728
      2.777084     2.769441     2.761798     2.754155     2.746511     2.738868     2.731225     2.723582     2.715939     2.708295
      2.700652     2.693009     2.685366     2.677722     2.670079     2.662436     2.654793     2.647150     2.639506     2.631863
      2.624220     2.616577     2.608933     2.601290     2.593647     2.586004     2.578361     2.570717     2.563074     2.555431
      2.547788     2.540144     2.532501     2.524858     2.517215     2.509572     2.501928     2.494285     2.486642     2.478999
      2.471355     2.463712     2.456069     2.448426     2.440783     2.433139     2.425496     2.417853     2.410210     2.402566
      2.394923     2.387280     2.379637     2.371994     2.364350     2.356707     2.349064     2.341421     2.333777     2.326134
      2.318491     2.310848     2.303205     2.295561     2.287918     2.280275     2.272632     2.264988     2.257345     2.249702
      2.242059     2.234416     2.226772     2.219129     2.211486     2.203843     2.196199     2.188556     2.180913     2.173270
      2.165627     2.157983     2.150340     2.142697     2.135054     2.127410     2.119767     2.112124     2.104481     2.096838
      2.089194     2.081551     2.073908     2.066265     2.058621     2.050978     2.043335     2.035692     2.028049     2.020405
      2.012762     2.005119     1.997476     1.989833     1.982190     1.974546     1.966903     1.959260     1.951617     1.943974
      1.936331     1.928688     1.921045     1.913402     1.905759     1.898115     1.890472     1.882829     1.875186     1.867543
      1.859900     1.852257     1.844614     1.836971     1.829327     1.821684     1.814041     1.806398     1.798755     1.791112
      1.783469     1.775826     1.768183     1.760540     1.752896     1.745253     1.737610     1.729967     1.722324     1.714681
      1.707038     1.699395     1.691752     1.684108     1.676465     1.668822     1.661179     1.653536     1.645893     1.638250
      1.630607     1.622964     1.615321     1.607677     1.600034     1.592391     1.584748     1.577105     1.569462     1.561819
      1.554176     1.546533     1.538890     1.531246     1.523603     1.515960     1.508317     1.500674     1.493031     1.485388
      1.477745     1.470102     1.462458     1.454815     1.447172     1.439529     1.431886     1.424243     1.416600     1.408957
      1.401314     1.393671     1.386027     1.378384     1.370741     1.363098     1.355455     1.347812     1.340169     1.332526
      1.324883     1.317240     1.309596     1.301953     1.294310     1.286667     1.279024     1.271381     1.263738     1.256095
      1.248452     1.240808     1.233165     1.225522     1.217879     1.210236     1.202593     1.194950     1.187307     1.179664
      1.172021     1.164377     1.156734     1.149091     1.141448     1.133805     1.126162     1.118519     1.110876     1.103233
      1.095590     1.087946     1.080303     1.072660     1.065017     1.057374     1.049731     1.042088     1.034445     1.026802
      1.019158     1.011515     1.003872     0.996229     0.988586     0.980943     0.973300     0.965657     0.958014     0.950371
      0.942727     0.935084     0.927441     0.919798     0.912155     0.904512     0.896869     0.889226     0.881583     0.873940
      0.866296     0.858653     0.851010     0.843367     0.835724     0.828081     0.820438     0.812795     0.805152     0.797508
      0.789865     0.782222     0.774579     0.766936     0.759293     0.751650     0.744007     0.736364     0.728721     0.721077
      0.713434     0.705791     0.698148     0.690505     0.682862     0.675219     0.667576     0.659933     0.652290     0.644646
      0.637003     0.629360     0.621717     0.614074     0.606431     0.598788     0.591145     0.583502     0.575858     0.568215
      0.560572     0.552929     0.545286     0.537643     0.530000     0.522357     0.514714     0.507071     0.499427     0.491784
      0.484141     0.476498     0.468855     0.461212     0.453569     0.445925     0.438282     0.430639     0.422996     0.415353
      0.407710     0.400067     0.392424     0.384780     0.377137     0.369494     0.361851     0.354208     0.346565     0.338922
      0.331278     0.323635     0.315992     0.308349     0.300706     0.293063     0.285420     0.277777     0.270133     0.262490
      0.254847     0.247204     0.239561     0.231918     0.224275     0.216631     0.208988     0.201345
 NY phased data points follow
   1.16277E+01  1.58078E+01  1.45736E+01  1.27137E+01  1.07877E+01  1.91899E+01  1.27811E+01  1.09180E+01  1.33178E+01  2.51516E+01
   2.36262E+01  2.37222E+01  2.47343E+01  2.36307E+01  1.42268E+01  1.10809E+01  1.29818E+01  6.61337E+00  1.17447E+01  7.64092E+00
   1.36326E+01  1.56836E+01  9.14723E+00  1.02926E+01  1.32946E+01  9.25411E+00  1.34158E+01  1.22761E+01  1.17681E+01  8.93176E+00
   1.73293E+01  1.66260E+01  1.73708E+01  1.64403E+01  1.38694E+01  1.33914E+01  1.37471E+01  1.45043E+01  1.31682E+01  1.18010E+01
   1.40291E+01  1.18034E+01  1.21553E+01  1.34769E+01  1.39997E+01  1.50917E+01  2.12034E+01  1.67702E+01  2.56428E+01  1.51890E+01
   1.68789E+01  1.45952E+01  1.67607E+01  1.12590E+01  1.22198E+01  1.44030E+01  1.49799E+01  1.47844E+01  1.41940E+01  1.59880E+01
   1.26675E+01  6.40583E+00  1.90690E+00  6.76972E+00  1.93966E+00  5.37716E+00  2.51804E+00  1.78285E+00  4.87857E+00  7.14379E+00
   7.86734E+00  1.02014E+01  3.34089E+00  1.02133E+01  6.10595E+00  5.93217E+00  4.22852E+00  7.05204E+00  3.87372E+00  1.18455E+01
   2.19861E+00  5.24065E+00  8.50963E+00  5.94672E+00  9.41722E+00  1.00866E+01  5.73830E+00  3.59924E+00  9.42408E+00  7.51995E+00
   9.81665E+00  1.19934E+01  1.21554E+01  9.13188E+00  1.37179E+01  1.28366E+01  7.24111E+00  1.44982E+01  6.01046E+00  1.51432E+01
   2.68375E+01  3.65460E+01  5.47462E+01  5.61807E+01  5.73614E+01  4.35269E+01  3.02780E+01  1.96526E+01  1.63038E+01  1.29317E+01
   1.36948E+01  1.03576E+01  1.40070E+01  9.83429E+00  6.22095E+00  7.30308E+00  4.01820E+00  1.32553E+01  1.21525E+01  1.40167E+01
   6.02300E+00  1.36540E+01  1.13201E+01  1.10790E+01  1.77254E+01  2.40466E+01  4.21653E+01  4.44020E+01  4.64631E+01  4.07105E+01
   2.65381E+01  1.87530E+01  1.82727E+01  1.39859E+01  1.22082E+01  9.47091E+00  7.74624E+00  1.18483E+01  6.76323E+00  1.13124E+01
   1.37728E+01  6.71458E+00  1.32215E+01  5.33329E+00  8.36799E+00  5.10427E+00  6.28668E+00  5.23545E+00  2.76426E+00  7.42317E+00
   2.13522E+00  4.34499E+00  5.93301E+00  4.08040E+00  8.81259E+00  5.06526E+00  7.41713E+00  6.01902E+00  5.95584E+00  1.08783E+01
   1.00160E+01  3.40508E+00  1.57726E+00  3.14522E+00  2.97679E+00  5.72474E+00  1.04726E+00  3.60280E+00 -3.53849E+00 -7.11835E+00
   8.41746E-01 -5.40187E+00 -7.49885E+00 -3.92667E+00 -2.92376E+00 -7.23758E+00 -1.01299E+01 -1.22344E+01 -1.42318E+00 -9.49828E-01
  -6.36432E+00 -7.56736E+00 -6.24964E+00 -5.38298E+00 -3.28110E+00 -2.15990E+00  1.18716E+00  7.98798E-01  3.18732E+00  5.25358E+00
   5.12059E+00  8.23543E+00  5.32758E+00  5.78050E-01  1.69212E+00  8.67435E+00  1.67189E+00 -4.04909E+00 -4.42015E+00 -6.62753E+00
  -6.03144E+00 -6.76361E+00  4.59467E-01  5.82245E+00  1.06386E+01  1.54228E+01  8.48030E+00  6.45178E+00  8.46483E+00  5.65845E+00
   9.62227E+00  7.18974E+00  8.33551E+00  1.44114E+01  1.43818E+01  1.30824E+01  1.36529E+01  1.38008E+01  1.91654E+01  1.34261E+01
   8.47239E+00  6.08371E+00  5.04230E+00  3.43002E+00  5.47420E+00  9.31794E+00  1.23480E+01  9.85303E+00  1.71869E+01  2.17682E+01
   1.56424E+01  1.00508E+01  1.29479E+01  1.47679E+01  6.23553E+00  1.45662E+01  1.32369E+01  1.26092E+01  1.41778E+01  1.59581E+01
   1.64503E+01  1.06422E+01  8.56076E+00  1.19241E+01  5.20608E+00  1.07880E+01  1.37622E+01  1.68447E+01  2.14221E+01  1.83324E+01
   2.90700E+01  2.13336E+01  2.29034E+01  2.39117E+01  4.64154E+01  5.99586E+01  6.62001E+01  5.81511E+01  5.86429E+01  8.74606E+01
   1.17701E+02  1.14230E+02  9.46029E+01  6.07967E+01  4.52924E+01  3.16726E+01  1.48225E+01  1.38175E+01  1.24535E+01  1.67489E+01
   1.16630E+01  9.51245E+00  1.44978E+01  1.50140E+01  1.32890E+01  1.35271E+01  9.27528E+00  7.61135E+00  1.37270E+01  7.94142E+00
   1.32506E+01  9.00494E+00  1.72833E+00  8.91107E+00  2.51633E+00  5.28020E+00  8.66139E+00  9.92227E+00  5.61274E+00  1.46245E+01
   1.29460E+01  7.30130E+00  9.83203E+00  9.44253E+00  1.65547E+01  1.13052E+01  4.97640E+00  9.30633E+00  4.77790E+00  5.21822E+00
   7.10169E+00  2.90765E+00  2.70213E+00  3.24252E+00  4.96748E+00  3.84431E+00  8.12899E+00  1.02140E+01  1.19030E+01  1.22653E+01
   7.11934E+00  1.56970E+01  1.81566E+00  7.37215E+00  6.81228E+00  7.22589E+00  1.17032E+01  1.42506E+01  2.06006E+01  1.59218E+01
   1.58782E+01  1.68488E+01  1.57498E+01  1.52531E+01  1.23313E+01  1.35828E+01  8.32219E+00  1.38370E+01  1.00219E+01  6.58093E+00
   6.04816E+00  4.61204E+00  5.51474E+00  7.55008E+00  4.85337E+00  6.36934E+00  2.60904E+00  3.94039E+00 -4.33381E+00  8.70868E-01
   1.36480E+00  2.27943E+00  3.03239E+00 -7.96044E-01  8.07022E-01  7.41388E-01 -4.12571E+00 -3.34023E+00 -2.13112E+00 -8.67998E+00
  -5.39392E+00 -6.23364E+00 -1.64995E+00  2.50908E-01  3.03809E+00 -1.10254E+01 -7.26024E+00 -6.03551E+00 -6.11765E+00 -6.64292E+00
  -5.57977E+00 -5.10563E+00 -8.32387E+00 -6.33531E+00 -7.87992E+00 -2.31072E+00 -2.27632E+00  3.31881E+00 -2.88472E+00  7.49249E-01
   1.28384E+00 -2.49344E+00 -3.73646E+00 -4.69451E+00 -3.65406E+00 -7.53098E+00  6.65753E+00 -5.17928E+00 -4.57870E+00 -4.11075E+00
  -9.28955E+00 -5.25898E+00 -1.16626E+00 -3.76132E+00 -7.25098E-01 -8.13538E+00 -4.07929E+00  1.06415E+00 -4.08993E+00 -3.05760E-01
   2.26707E+00 -3.05926E+00  3.01784E+00 -1.62891E+00  3.33483E+00  4.41785E+00  5.41643E+00 -7.63144E-01  5.57494E+00  8.05005E+00
  -2.66831E-01  6.02508E+00  5.08990E+00  8.59440E+00  6.76437E+00  1.01841E+01  8.30191E+00  1.07165E+01  1.36710E+01  5.33984E+00
   1.19602E+01  1.19014E+01  7.11099E+00  2.53918E+00  4.48822E+00  3.41369E+00  2.10783E+00  4.66550E+00  2.61659E+00  4.56603E+00
  -2.79299E+00 -5.10789E+00  6.32738E+00 -1.22065E+00 -1.10584E+00 -3.66219E-01 -6.94748E+00 -2.93734E+00  2.04900E-01  6.32410E-02
   3.38117E-01 -1.19087E-01  1.54340E+00 -2.18589E+00 -1.54073E+00  1.22212E+00 -2.59919E+00 -5.33731E+00 -4.10673E+00  4.68888E+00
   1.18491E+00 -2.62380E+00 -1.82748E+00 -3.00963E+00 -1.40145E+00  4.81610E+00 -1.25943E+00  8.97061E-01 -2.89357E-01 -3.24487E+00
  -3.15498E+00  1.56988E+00  9.63458E-02 -1.03424E+00 -1.43141E-01 -2.39166E+00  2.77458E+00 -1.30735E+00  5.21237E+00 -1.44283E+00
  -5.84753E+00 -3.50824E+00  5.84590E-01 -2.04736E+00 -3.75360E-01 -1.52595E+00 -1.90090E+00  3.82546E+00  1.85910E+00 -1.58804E+00
  -2.10282E+00 -4.85098E-01  2.15241E+00  9.05172E-01 -4.27386E-01 -3.59725E+00 -3.38795E+00  1.16467E-01 -7.65488E-01 -6.78777E-01
   2.43122E+00  3.93427E+00 -2.39898E+00  1.42143E+00  2.64229E+00  5.99586E-01 -3.99065E+00 -3.32844E-01 -3.82248E+00  1.17047E+00
   4.04608E-01 -7.77239E-01 -4.37593E+00 -3.85595E+00  1.92997E+00 -1.43766E+00 -1.10897E+00 -2.36924E+00
 NY points of the fit to the data follow
   1.18582E+01  1.16241E+01  1.15981E+01  1.16427E+01  1.21717E+01  1.30838E+01  1.31861E+01  1.38828E+01  1.69719E+01  2.18843E+01
   2.56806E+01  2.61283E+01  2.34819E+01  2.00876E+01  1.74092E+01  1.54281E+01  1.39744E+01  1.29761E+01  1.23479E+01  1.20142E+01
   1.18803E+01  1.18680E+01  1.18421E+01  1.16492E+01  1.14581E+01  1.15301E+01  1.12357E+01  1.04830E+01  1.12218E+01  1.41156E+01
   1.74408E+01  1.92433E+01  1.93377E+01  1.84852E+01  1.71046E+01  1.52442E+01  1.33201E+01  1.17779E+01  1.05694E+01  9.80310E+00
   9.95198E+00  1.08263E+01  1.15918E+01  1.18292E+01  1.23178E+01  1.39867E+01  1.63918E+01  1.79261E+01  1.75469E+01  1.56128E+01
   1.32263E+01  1.12836E+01  1.00256E+01  9.40845E+00  9.33829E+00  9.44890E+00  9.60237E+00  1.00021E+01  1.07228E+01  1.15019E+01
   1.18627E+01  1.15180E+01  1.06524E+01  9.62131E+00  8.76493E+00  8.30421E+00  8.32976E+00  8.64969E+00  8.98656E+00  9.33373E+00
   9.75774E+00  1.01149E+01  1.01795E+01  9.92811E+00  9.53975E+00  9.21879E+00  8.99886E+00  8.82762E+00  8.70505E+00  8.62669E+00
   8.57068E+00  8.54113E+00  8.45385E+00  8.39826E+00  8.63205E+00  8.90360E+00  8.65956E+00  7.84318E+00  6.96604E+00  6.52661E+00
   6.59871E+00  6.97672E+00  7.41745E+00  7.90650E+00  8.39898E+00  8.74860E+00  9.09208E+00  1.04087E+01  1.15227E+01  1.38165E+01
   2.24639E+01  3.82707E+01  5.38832E+01  6.02809E+01  5.48781E+01  4.28697E+01  3.09168E+01  2.15862E+01  1.49679E+01  1.09445E+01
   8.97136E+00  8.25018E+00  8.06194E+00  8.01728E+00  8.02420E+00  8.05222E+00  8.10774E+00  8.19598E+00  8.29164E+00  8.40164E+00
   8.62356E+00  9.32804E+00  1.13068E+01  1.24742E+01  1.49770E+01  2.46682E+01  3.89100E+01  4.78375E+01  4.61419E+01  3.69517E+01
   2.70643E+01  2.04120E+01  1.61025E+01  1.29769E+01  1.10007E+01  9.48377E+00  7.95171E+00  6.87617E+00  6.49960E+00  6.75272E+00
   7.46536E+00  8.28667E+00  8.74186E+00  8.69530E+00  8.31325E+00  7.80979E+00  7.34658E+00  6.97857E+00  6.68836E+00  6.42421E+00
   6.20456E+00  5.93245E+00  5.44767E+00  4.85199E+00  4.44200E+00  4.41273E+00  4.76860E+00  5.37055E+00  5.63953E+00  4.88987E+00
   3.37954E+00  1.95817E+00  1.59964E+00  2.59338E+00  3.85388E+00  4.15072E+00  3.43910E+00  2.15042E+00  8.81899E-01  2.20230E-01
   1.91222E-01  5.32588E-01  8.60505E-01  6.81334E-01 -4.69025E-01 -1.88108E+00 -2.37870E+00 -1.45902E+00  7.04748E-02  6.73724E-01
  -1.29942E-01 -1.05902E+00 -9.15421E-01  2.06454E-01  1.24393E+00  1.24847E+00  8.96275E-01  1.50001E+00  3.21276E+00  5.42314E+00
   7.47154E+00  8.68023E+00  8.80188E+00  7.88739E+00  6.75850E+00  6.06661E+00  5.43810E+00  4.66583E+00  4.29132E+00  4.67383E+00
   5.33594E+00  6.09122E+00  7.13593E+00  8.39102E+00  9.27796E+00  9.04144E+00  7.73209E+00  5.83220E+00  3.65973E+00  1.96422E+00
   1.23655E+00  1.12607E+00  1.33811E+00  2.34547E+00  4.99773E+00  8.58906E+00  1.10285E+01  1.10312E+01  9.32796E+00  7.22091E+00
   4.96663E+00  2.30678E+00  2.90557E-01  4.62279E-01  2.81925E+00  5.88788E+00  8.34858E+00  9.94322E+00  1.09831E+01  1.13260E+01
   1.07349E+01  9.74787E+00  9.39585E+00  1.01115E+01  1.13235E+01  1.24293E+01  1.33705E+01  1.41440E+01  1.43931E+01  1.38913E+01
   1.27375E+01  1.15566E+01  1.10276E+01  1.15974E+01  1.32132E+01  1.52604E+01  1.70054E+01  1.81482E+01  1.87113E+01  1.89475E+01
   1.98771E+01  2.14465E+01  2.24533E+01  2.85674E+01  4.23870E+01  5.83069E+01  6.53561E+01  5.99528E+01  6.42177E+01  8.90267E+01
   1.13727E+02  1.14854E+02  9.34102E+01  6.54235E+01  4.44618E+01  3.06511E+01  1.97883E+01  1.32057E+01  1.08190E+01  9.81059E+00
   9.21126E+00  8.79651E+00  8.55480E+00  8.47194E+00  8.33327E+00  7.92391E+00  7.31631E+00  6.79134E+00  6.51460E+00  6.37444E+00
   6.31511E+00  6.43116E+00  6.71091E+00  6.99711E+00  7.17975E+00  7.25788E+00  7.31644E+00  7.37072E+00  7.36084E+00  7.35956E+00
   7.49136E+00  7.75007E+00  8.02274E+00  8.19474E+00  8.23564E+00  8.19812E+00  8.06439E+00  7.81328E+00  7.51539E+00  7.25928E+00
   7.07006E+00  6.92871E+00  6.80595E+00  6.70173E+00  6.63063E+00  6.59545E+00  6.60563E+00  6.68043E+00  6.83080E+00  7.06213E+00
   7.37516E+00  7.76466E+00  8.22104E+00  8.73336E+00  9.28886E+00  9.87166E+00  1.04621E+01  1.10389E+01  1.15818E+01  1.20733E+01
   1.24984E+01  1.28505E+01  1.31199E+01  1.32205E+01  1.32836E+01  1.33938E+01  1.32106E+01  1.23958E+01  1.10698E+01  9.63610E+00
   8.45045E+00  7.42233E+00  6.34869E+00  5.53556E+00  5.24523E+00  5.19617E+00  4.94672E+00  4.32261E+00  3.46232E+00  2.60164E+00
   1.80581E+00  1.06371E+00  4.25354E-01 -9.18528E-02 -5.16957E-01 -8.67516E-01 -1.15346E+00 -1.38217E+00 -1.56072E+00 -1.69636E+00
  -1.79592E+00 -1.86500E+00 -1.90803E+00 -1.92909E+00 -1.93263E+00 -1.92322E+00 -1.90475E+00 -1.87991E+00 -1.85070E+00 -1.81924E+00
  -1.78809E+00 -1.75969E+00 -1.73554E+00 -1.71614E+00 -1.70164E+00 -1.69250E+00 -1.68938E+00 -1.69243E+00 -1.70072E+00 -1.71260E+00
  -1.72643E+00 -1.74099E+00 -1.75510E+00 -1.76691E+00 -1.77376E+00 -1.77275E+00 -1.76138E+00 -1.73765E+00 -1.69939E+00 -1.64373E+00
  -1.56728E+00 -1.46677E+00 -1.33946E+00 -1.18294E+00 -9.94407E-01 -7.70514E-01 -5.07867E-01 -2.03779E-01  1.43477E-01  5.34981E-01
   9.71529E-01  1.45333E+00  1.97920E+00  2.54589E+00  3.14808E+00  3.77883E+00  4.42989E+00  5.09138E+00  5.75139E+00  6.39606E+00
   7.01045E+00  7.57953E+00  8.08893E+00  8.52500E+00  8.87510E+00  9.12827E+00  9.27636E+00  9.31479E+00  9.24265E+00  9.06214E+00
   8.77832E+00  8.39907E+00  7.93530E+00  7.40032E+00  6.80893E+00  6.17616E+00  5.51670E+00  4.84468E+00  4.17359E+00  3.51570E+00
   2.88131E+00  2.27830E+00  1.71234E+00  1.18747E+00  7.06438E-01  2.70527E-01 -1.20582E-01 -4.68710E-01 -7.76385E-01 -1.04633E+00
  -1.28116E+00 -1.48383E+00 -1.65765E+00 -1.80616E+00 -1.93246E+00 -2.03907E+00 -2.12801E+00 -2.20139E+00 -2.26142E+00 -2.31020E+00
  -2.34918E+00 -2.37935E+00 -2.40147E+00 -2.41661E+00 -2.42592E+00 -2.43040E+00 -2.43044E+00 -2.42624E+00 -2.41805E+00 -2.40656E+00
  -2.39242E+00 -2.37606E+00 -2.35738E+00 -2.33635E+00 -2.31313E+00 -2.28829E+00 -2.26218E+00 -2.23487E+00 -2.20609E+00 -2.17581E+00
  -2.14426E+00 -2.11193E+00 -2.07894E+00 -2.04518E+00 -2.01033E+00 -1.97447E+00 -1.93790E+00 -1.90101E+00 -1.86373E+00 -1.82583E+00
  -1.78707E+00 -1.74767E+00 -1.70794E+00 -1.66813E+00 -1.62799E+00 -1.58728E+00 -1.54589E+00 -1.50418E+00 -1.46238E+00 -1.42059E+00
  -1.37844E+00 -1.33578E+00 -1.29263E+00 -1.24941E+00 -1.20624E+00 -1.16304E+00 -1.11943E+00 -1.07538E+00 -1.03105E+00 -9.86818E-01
  -9.42658E-01 -8.98385E-01 -8.53660E-01 -8.08599E-01 -7.63430E-01 -7.18447E-01 -6.73460E-01 -6.28233E-01
 NY background values follow
     1.018E+01    1.014E+01    1.011E+01    1.007E+01    1.003E+01    9.989E+00    9.951E+00    9.912E+00    9.873E+00    9.835E+00
     9.796E+00    9.758E+00    9.719E+00    9.681E+00    9.642E+00    9.604E+00    9.565E+00    9.527E+00    9.488E+00    9.450E+00
     9.411E+00    9.373E+00    9.335E+00    9.296E+00    9.258E+00    9.219E+00    9.181E+00    9.143E+00    9.104E+00    9.066E+00
     9.027E+00    8.989E+00    8.951E+00    8.912E+00    8.874E+00    8.836E+00    8.797E+00    8.759E+00    8.721E+00    8.682E+00
     8.644E+00    8.606E+00    8.567E+00    8.529E+00    8.491E+00    8.452E+00    8.414E+00    8.376E+00    8.337E+00    8.299E+00
     8.260E+00    8.222E+00    8.184E+00    8.145E+00    8.107E+00    8.069E+00    8.030E+00    7.992E+00    7.954E+00    7.915E+00
     7.877E+00    7.839E+00    7.800E+00    7.762E+00    7.724E+00    7.685E+00    7.647E+00    7.609E+00    7.570E+00    7.532E+00
     7.494E+00    7.455E+00    7.417E+00    7.379E+00    7.340E+00    7.302E+00    7.264E+00    7.225E+00    7.187E+00    7.149E+00
     7.110E+00    7.072E+00    7.034E+00    6.995E+00    6.957E+00    6.919E+00    6.880E+00    6.842E+00    6.804E+00    6.766E+00
     6.727E+00    6.689E+00    6.651E+00    6.613E+00    6.574E+00    6.536E+00    6.498E+00    6.460E+00    6.421E+00    6.383E+00
     6.345E+00    6.306E+00    6.268E+00    6.230E+00    6.192E+00    6.153E+00    6.115E+00    6.077E+00    6.038E+00    6.000E+00
     5.962E+00    5.923E+00    5.885E+00    5.846E+00    5.808E+00    5.769E+00    5.731E+00    5.693E+00    5.654E+00    5.615E+00
     5.577E+00    5.538E+00    5.500E+00    5.461E+00    5.422E+00    5.384E+00    5.345E+00    5.306E+00    5.267E+00    5.229E+00
     5.190E+00    5.151E+00    5.112E+00    5.073E+00    5.034E+00    4.995E+00    4.956E+00    4.917E+00    4.878E+00    4.838E+00
     4.799E+00    4.760E+00    4.721E+00    4.682E+00    4.643E+00    4.604E+00    4.565E+00    4.526E+00    4.487E+00    4.448E+00
     4.410E+00    4.371E+00    4.333E+00    4.294E+00    4.256E+00    4.218E+00    4.180E+00    4.143E+00    4.105E+00    4.068E+00
     4.031E+00    3.994E+00    3.957E+00    3.921E+00    3.885E+00    3.849E+00    3.813E+00    3.778E+00    3.743E+00    3.708E+00
     3.673E+00    3.639E+00    3.605E+00    3.572E+00    3.538E+00    3.506E+00    3.473E+00    3.441E+00    3.409E+00    3.378E+00
     3.347E+00    3.316E+00    3.286E+00    3.257E+00    3.227E+00    3.198E+00    3.170E+00    3.142E+00    3.114E+00    3.086E+00
     3.058E+00    3.031E+00    3.004E+00    2.977E+00    2.951E+00    2.924E+00    2.898E+00    2.872E+00    2.846E+00    2.820E+00
     2.794E+00    2.768E+00    2.742E+00    2.716E+00    2.690E+00    2.664E+00    2.638E+00    2.612E+00    2.586E+00    2.559E+00
     2.533E+00    2.506E+00    2.480E+00    2.453E+00    2.425E+00    2.398E+00    2.370E+00    2.342E+00    2.314E+00    2.285E+00
     2.256E+00    2.227E+00    2.197E+00    2.167E+00    2.137E+00    2.106E+00    2.075E+00    2.043E+00    2.010E+00    1.978E+00
     1.944E+00    1.911E+00    1.876E+00    1.842E+00    1.806E+00    1.771E+00    1.735E+00    1.698E+00    1.661E+00    1.624E+00
     1.586E+00    1.547E+00    1.508E+00    1.469E+00    1.429E+00    1.389E+00    1.349E+00    1.307E+00    1.266E+00    1.224E+00
     1.181E+00    1.138E+00    1.095E+00    1.051E+00    1.007E+00    9.624E-01    9.173E-01    8.717E-01    8.257E-01    7.793E-01
     7.324E-01    6.851E-01    6.374E-01    5.892E-01    5.407E-01    4.916E-01    4.422E-01    3.923E-01    3.420E-01    2.913E-01
     2.402E-01    1.886E-01    1.367E-01    8.429E-02    3.153E-02   -2.162E-02   -7.513E-02   -1.290E-01   -1.832E-01   -2.377E-01
    -2.925E-01   -3.476E-01   -4.030E-01   -4.586E-01   -5.145E-01   -5.706E-01   -6.270E-01   -6.835E-01   -7.403E-01   -7.972E-01
    -8.542E-01   -9.115E-01   -9.688E-01   -1.026E+00   -1.084E+00   -1.141E+00   -1.199E+00   -1.257E+00   -1.315E+00   -1.373E+00
    -1.431E+00   -1.488E+00   -1.546E+00   -1.604E+00   -1.662E+00   -1.720E+00   -1.777E+00   -1.835E+00   -1.893E+00   -1.950E+00
    -2.007E+00   -2.064E+00   -2.121E+00   -2.178E+00   -2.235E+00   -2.291E+00   -2.347E+00   -2.403E+00   -2.459E+00   -2.514E+00
    -2.569E+00   -2.624E+00   -2.679E+00   -2.733E+00   -2.787E+00   -2.840E+00   -2.893E+00   -2.946E+00   -2.998E+00   -3.050E+00
    -3.101E+00   -3.151E+00   -3.202E+00   -3.251E+00   -3.300E+00   -3.349E+00   -3.396E+00   -3.444E+00   -3.490E+00   -3.536E+00
    -3.581E+00   -3.626E+00   -3.670E+00   -3.713E+00   -3.755E+00   -3.796E+00   -3.837E+00   -3.877E+00   -3.916E+00   -3.954E+00
    -3.991E+00   -4.027E+00   -4.063E+00   -4.097E+00   -4.131E+00   -4.163E+00   -4.195E+00   -4.225E+00   -4.254E+00   -4.283E+00
    -4.310E+00   -4.336E+00   -4.361E+00   -4.385E+00   -4.408E+00   -4.429E+00   -4.450E+00   -4.469E+00   -4.487E+00   -4.504E+00
    -4.520E+00   -4.535E+00   -4.549E+00   -4.562E+00   -4.574E+00   -4.584E+00   -4.594E+00   -4.602E+00   -4.609E+00   -4.616E+00
    -4.621E+00   -4.625E+00   -4.628E+00   -4.630E+00   -4.631E+00   -4.631E+00   -4.630E+00   -4.628E+00   -4.625E+00   -4.621E+00
    -4.616E+00   -4.610E+00   -4.603E+00   -4.594E+00   -4.585E+00   -4.575E+00   -4.564E+00   -4.552E+00   -4.539E+00   -4.524E+00
    -4.509E+00   -4.493E+00   -4.476E+00   -4.458E+00   -4.439E+00   -4.419E+00   -4.399E+00   -4.377E+00   -4.354E+00   -4.330E+00
    -4.306E+00   -4.281E+00   -4.254E+00   -4.227E+00   -4.199E+00   -4.170E+00   -4.141E+00   -4.111E+00   -4.080E+00   -4.048E+00
    -4.015E+00   -3.982E+00   -3.948E+00   -3.914E+00   -3.879E+00   -3.843E+00   -3.806E+00   -3.769E+00   -3.732E+00   -3.694E+00
    -3.655E+00   -3.616E+00   -3.576E+00   -3.536E+00   -3.496E+00   -3.455E+00   -3.413E+00   -3.371E+00   -3.329E+00   -3.287E+00
    -3.244E+00   -3.201E+00   -3.157E+00   -3.113E+00   -3.069E+00   -3.025E+00   -2.980E+00   -2.935E+00   -2.890E+00   -2.845E+00
    -2.800E+00   -2.754E+00   -2.708E+00   -2.663E+00   -2.617E+00   -2.571E+00   -2.525E+00   -2.479E+00   -2.432E+00   -2.386E+00
    -2.340E+00   -2.293E+00   -2.246E+00   -2.200E+00   -2.153E+00   -2.106E+00   -2.059E+00   -2.012E+00   -1.965E+00   -1.918E+00
    -1.871E+00   -1.824E+00   -1.777E+00   -1.730E+00   -1.682E+00   -1.635E+00   -1.588E+00   -1.541E+00   -1.493E+00   -1.446E+00
    -1.398E+00   -1.351E+00   -1.304E+00   -1.256E+00   -1.209E+00   -1.162E+00   -1.114E+00   -1.067E+00   -1.019E+00   -9.721E-01
    -9.248E-01   -8.775E-01   -8.303E-01   -7.831E-01   -7.359E-01   -6.888E-01   -6.417E-01   -5.947E-01
 Ala      Conc. = 7.39E+01
