 LCModel (Version 6.3-1L) Copyright: S.W. Provencher.          Ref.: Magn. Reson. Med. 30:672-679 (1993).                
 Slice#2 Row#6 Col#8  K_02_press_1_raw_act
 36 lines in following concentration table = NCONC+1
    Conc.  %SD /Cr+PCr  Metabolite                                         
    0.000 999%   0.000 Ala                                                 
    0.000 999%   0.000 Asp                                                 
 1.23E+03  18%   0.536 Cr                                                  
 1.06E+03  21%   0.464 PCr                                                 
    0.000 999%   0.000 GABA                                                
   13.964 999% 6.1E-03 Glc                                                 
  934.628  28%   0.409 Gln                                                 
 2.28E+03  13%   0.999 Glu                                                 
  828.875   4%   0.363 GPC                                                 
    0.000 999%   0.000 PCh                                                 
  668.157  13%   0.293 GSH                                                 
 2.50E+03  12%   1.093 Ins                                                 
  184.819  73% 8.1E-02 Lac                                                 
 2.85E+03   5%   1.248 NAA                                                 
  384.752  37%   0.168 NAAG                                                
   77.459  42% 3.4E-02 Scyllo                                              
    0.000 999%   0.000 Tau                                                 
    0.000 999%   0.000 -CrCH2                                              
  828.875   4%   0.363 GPC+PCh                                             
 3.24E+03   4%   1.416 NAA+NAAG                                            
 2.28E+03   3%   1.000 Cr+PCr                                              
 3.22E+03  12%   1.408 Glu+Gln                                             
 6.22E+03  20%   2.722 Lip13a                                              
    0.000 999%   0.000 Lip13b                                              
 1.28E+03  45%   0.562 Lip09                                               
 2.03E+03  30%   0.889 MM09                                                
  752.887  52%   0.330 Lip20                                               
 4.07E+03  15%   1.781 MM20                                                
  838.997  50%   0.367 MM12                                                
 3.16E+03  23%   1.385 MM14                                                
 1.75E+03  26%   0.768 MM17                                                
 6.22E+03  20%   2.722 Lip13a+Lip13b                                       
 1.02E+04   8%   4.474 MM14+Lip13a+Lip13b+MM12                             
 3.31E+03  10%   1.451 MM09+Lip09                                          
 4.82E+03  11%   2.111 MM20+Lip20                                          
   6 lines in following misc. output table
  FWHM = 0.046 ppm    S/N =  13                                            
  Data shift = 0.008 ppm                                                   
  Ph: -14 deg       0.2 deg/ppm                                            
  alphaB,S = 7.8E+00,   1.3E+01                                            
   14 spline knots.   Ns = 6(1)                                            
  ( 4) 2 infls.   ( 1) 1 extrs.                                            
  498 points on ppm-axis = NY
      4.000000     3.992357     3.984714     3.977070     3.969427     3.961784     3.954141     3.946497     3.938854     3.931211
      3.923568     3.915925     3.908281     3.900638     3.892995     3.885352     3.877708     3.870065     3.862422     3.854779
      3.847136     3.839492     3.831849     3.824206     3.816563     3.808919     3.801276     3.793633     3.785990     3.778347
      3.770703     3.763060     3.755417     3.747774     3.740130     3.732487     3.724844     3.717201     3.709558     3.701914
      3.694271     3.686628     3.678985     3.671341     3.663698     3.656055     3.648412     3.640769     3.633125     3.625482
      3.617839     3.610196     3.602552     3.594909     3.587266     3.579623     3.571980     3.564336     3.556693     3.549050
      3.541407     3.533763     3.526120     3.518477     3.510834     3.503191     3.495547     3.487904     3.480261     3.472618
      3.464974     3.457331     3.449688     3.442045     3.434402     3.426758     3.419115     3.411472     3.403829     3.396185
      3.388542     3.380899     3.373256     3.365613     3.357969     3.350326     3.342683     3.335040     3.327396     3.319753
      3.312110     3.304467     3.296824     3.289180     3.281537     3.273894     3.266251     3.258607     3.250964     3.243321
      3.235678     3.228034     3.220391     3.212748     3.205105     3.197462     3.189818     3.182175     3.174532     3.166889
      3.159245     3.151602     3.143959     3.136316     3.128673     3.121029     3.113386     3.105743     3.098100     3.090456
      3.082813     3.075170     3.067527     3.059884     3.052240     3.044597     3.036954     3.029311     3.021667     3.014024
      3.006381     2.998738     2.991095     2.983451     2.975808     2.968165     2.960522     2.952878     2.945235     2.937592
      2.929949     2.922306     2.914662     2.907019     2.899376     2.891733     2.884089     2.876446     2.868803     2.861160
      2.853517     2.845873     2.838230     2.830587     2.822944     2.815300     2.807657     2.800014     2.792371     2.784728
      2.777084     2.769441     2.761798     2.754155     2.746511     2.738868     2.731225     2.723582     2.715939     2.708295
      2.700652     2.693009     2.685366     2.677722     2.670079     2.662436     2.654793     2.647150     2.639506     2.631863
      2.624220     2.616577     2.608933     2.601290     2.593647     2.586004     2.578361     2.570717     2.563074     2.555431
      2.547788     2.540144     2.532501     2.524858     2.517215     2.509572     2.501928     2.494285     2.486642     2.478999
      2.471355     2.463712     2.456069     2.448426     2.440783     2.433139     2.425496     2.417853     2.410210     2.402566
      2.394923     2.387280     2.379637     2.371994     2.364350     2.356707     2.349064     2.341421     2.333777     2.326134
      2.318491     2.310848     2.303205     2.295561     2.287918     2.280275     2.272632     2.264988     2.257345     2.249702
      2.242059     2.234416     2.226772     2.219129     2.211486     2.203843     2.196199     2.188556     2.180913     2.173270
      2.165627     2.157983     2.150340     2.142697     2.135054     2.127410     2.119767     2.112124     2.104481     2.096838
      2.089194     2.081551     2.073908     2.066265     2.058621     2.050978     2.043335     2.035692     2.028049     2.020405
      2.012762     2.005119     1.997476     1.989833     1.982190     1.974546     1.966903     1.959260     1.951617     1.943974
      1.936331     1.928688     1.921045     1.913402     1.905759     1.898115     1.890472     1.882829     1.875186     1.867543
      1.859900     1.852257     1.844614     1.836971     1.829327     1.821684     1.814041     1.806398     1.798755     1.791112
      1.783469     1.775826     1.768183     1.760540     1.752896     1.745253     1.737610     1.729967     1.722324     1.714681
      1.707038     1.699395     1.691752     1.684108     1.676465     1.668822     1.661179     1.653536     1.645893     1.638250
      1.630607     1.622964     1.615321     1.607677     1.600034     1.592391     1.584748     1.577105     1.569462     1.561819
      1.554176     1.546533     1.538890     1.531246     1.523603     1.515960     1.508317     1.500674     1.493031     1.485388
      1.477745     1.470102     1.462458     1.454815     1.447172     1.439529     1.431886     1.424243     1.416600     1.408957
      1.401314     1.393671     1.386027     1.378384     1.370741     1.363098     1.355455     1.347812     1.340169     1.332526
      1.324883     1.317240     1.309596     1.301953     1.294310     1.286667     1.279024     1.271381     1.263738     1.256095
      1.248452     1.240808     1.233165     1.225522     1.217879     1.210236     1.202593     1.194950     1.187307     1.179664
      1.172021     1.164377     1.156734     1.149091     1.141448     1.133805     1.126162     1.118519     1.110876     1.103233
      1.095590     1.087946     1.080303     1.072660     1.065017     1.057374     1.049731     1.042088     1.034445     1.026802
      1.019158     1.011515     1.003872     0.996229     0.988586     0.980943     0.973300     0.965657     0.958014     0.950371
      0.942727     0.935084     0.927441     0.919798     0.912155     0.904512     0.896869     0.889226     0.881583     0.873940
      0.866296     0.858653     0.851010     0.843367     0.835724     0.828081     0.820438     0.812795     0.805152     0.797508
      0.789865     0.782222     0.774579     0.766936     0.759293     0.751650     0.744007     0.736364     0.728721     0.721077
      0.713434     0.705791     0.698148     0.690505     0.682862     0.675219     0.667576     0.659933     0.652290     0.644646
      0.637003     0.629360     0.621717     0.614074     0.606431     0.598788     0.591145     0.583502     0.575858     0.568215
      0.560572     0.552929     0.545286     0.537643     0.530000     0.522357     0.514714     0.507071     0.499427     0.491784
      0.484141     0.476498     0.468855     0.461212     0.453569     0.445925     0.438282     0.430639     0.422996     0.415353
      0.407710     0.400067     0.392424     0.384780     0.377137     0.369494     0.361851     0.354208     0.346565     0.338922
      0.331278     0.323635     0.315992     0.308349     0.300706     0.293063     0.285420     0.277777     0.270133     0.262490
      0.254847     0.247204     0.239561     0.231918     0.224275     0.216631     0.208988     0.201345
 NY phased data points follow
  -7.39382E+00 -8.16566E+00 -4.49410E+00  4.67451E+00  8.39418E+00  9.48208E+00  2.66915E+01  3.57593E+01  4.57367E+01  4.65617E+01
   4.57793E+01  4.69713E+01  3.65154E+01  3.80937E+01  2.24723E+01  1.83512E+01  8.35655E+00 -4.48772E+00 -1.01963E+01  2.12022E-01
   8.40297E+00 -6.20096E+00 -4.88918E+00 -1.73824E+00 -9.52415E-02  3.25849E+00  3.59493E+00  1.08192E+01  1.18154E+01  1.77900E+01
   1.23643E+01  1.45761E+01  1.13633E+01  1.13179E+01  7.89261E+00  3.25067E+00  6.93980E+00  5.35622E+00  4.63284E+00 -1.18376E+00
   7.57999E+00  1.17840E+01  9.05472E+00  7.34381E+00  1.15892E+01  1.72569E+01  2.25806E+01  2.11206E+01  2.25925E+01  1.54779E+01
   1.73013E+01  5.34303E+00  3.93012E+00  6.95549E+00  9.40897E+00  9.66461E+00  1.14333E+00  9.01554E+00  6.51448E+00  6.60759E+00
   2.07854E+00  1.45067E+00 -6.15780E+00 -6.97470E+00 -3.12868E+00 -1.24051E+01 -1.27729E+01 -5.15710E+00 -1.11584E+01 -1.10343E+01
  -6.61066E+00 -4.27321E+00 -2.36058E+00 -4.41209E+00 -3.92608E+00 -2.21784E+00 -4.94247E-01 -6.46749E+00 -5.22905E+00 -3.48416E+00
  -5.96800E+00 -3.22250E+00 -8.54858E+00 -6.93243E+00 -1.14603E+01 -3.53854E+00 -3.48603E+00 -2.29885E+00 -7.47456E+00 -7.74915E+00
   1.71486E-01  3.14472E+00  2.36980E+00 -1.65051E+00 -7.09485E-01  2.66996E+00  4.79270E+00  1.08120E+01  2.34756E+01  3.65321E+01
   5.18862E+01  6.76360E+01  7.27681E+01  7.44756E+01  6.57738E+01  4.96157E+01  3.16549E+01  2.04385E+01  8.50075E+00  6.68034E+00
   1.38432E+00 -5.90504E+00 -3.07255E+00 -2.69090E+00 -6.70550E+00  3.92086E+00 -5.98114E+00 -5.48986E-02  4.82765E+00  4.10572E+00
   6.84397E+00  1.39013E+01  1.63479E+01  3.36669E+01  5.07756E+01  6.32511E+01  7.20391E+01  7.74074E+01  7.89270E+01  6.32821E+01
   4.49558E+01  2.03593E+01  1.24658E+01  4.33884E+00  2.81290E+00  3.42296E-01 -5.33555E+00 -8.39377E-01  2.37966E-01  4.38107E+00
  -4.57386E+00  6.15713E+00 -5.63005E+00  1.81891E+00 -1.46917E+00  6.91966E-01  9.19422E-02 -4.93693E+00 -1.03442E+01  4.05626E+00
  -3.91523E+00  3.12971E+00 -1.95314E+00 -7.11420E+00 -9.34681E+00  7.08988E-01 -2.17948E-01  5.06329E-01 -2.04318E+00  4.79701E-01
  -4.84566E+00 -6.51529E+00 -1.22211E+01 -5.72051E+00 -3.02873E+00 -1.24903E+00 -2.28682E+00 -6.23609E+00 -1.04706E+01 -6.13275E+00
  -7.63430E+00 -5.87040E+00 -2.11002E+01 -2.00006E+01 -2.08969E+01 -2.55857E+01 -1.99356E+01 -2.01323E+01 -2.28523E+01 -2.10633E+01
  -1.92496E+01 -2.10885E+01 -1.62206E+01 -1.21963E+01 -1.99204E+01 -1.93963E+01 -1.13766E+01 -1.51173E+01 -2.11648E+00 -2.13064E+00
  -4.91801E+00 -6.93267E+00  1.14279E+00  8.13716E-01 -1.24199E+00  8.40387E-01 -9.06926E+00 -2.93010E+00 -5.60467E+00 -8.39800E+00
  -7.78667E+00 -3.65747E+00  1.03477E+00  5.36732E+00  3.48973E+00 -3.18772E+00 -2.86744E-01 -1.14555E+01 -9.93621E+00 -1.52734E+01
  -9.52691E+00 -4.15641E+00 -4.90584E+00  1.23401E+01  9.67259E+00  1.06314E+01  1.94768E+01  1.21985E+01  7.54557E+00 -6.31112E+00
  -7.03542E+00 -1.54589E+01 -1.00701E+01 -7.67620E+00 -3.54166E+00  1.02684E+01  1.35781E+01  1.12396E+01  9.20593E+00  4.12828E+00
   1.16298E+01  5.48772E+00  2.59918E+00  5.08511E+00  7.13562E+00  3.05033E+00  1.29379E+01  6.00049E+00  3.49951E+00  2.78443E+00
   4.77844E+00  2.30765E+00  5.69552E-01  2.01255E+00  7.44922E+00  1.41259E+01  1.23911E+01  2.39053E+01  1.34049E+01  1.10918E+01
   2.69901E+01  2.72876E+01  3.82655E+01  3.52611E+01  3.37927E+01  4.65413E+01  7.13942E+01  8.46556E+01  1.02087E+02  1.18683E+02
   1.31009E+02  1.20792E+02  9.71971E+01  6.65210E+01  4.08346E+01  2.67144E+01  1.60748E+01  8.97245E+00  5.02196E+00  6.75521E+00
   7.80267E+00  9.91881E+00  1.53637E+01  3.56259E+00  1.44413E+01  8.20414E+00  8.38126E+00  8.67616E+00  9.46209E+00  6.65518E+00
   8.75348E+00  3.87661E+00  7.08707E+00  7.91040E-01  7.35520E+00 -1.06240E-01  7.98338E+00  6.90194E-01  2.68830E+00  6.83575E+00
   6.60779E+00  2.77263E+00  5.64635E+00  8.05796E+00  3.30969E+00  1.53042E+00  9.94233E+00  7.92506E+00  5.11178E+00  3.52412E+00
   8.42842E+00  6.03605E+00  8.28579E+00  1.00260E+01  1.15042E+01  1.12526E+01  9.66335E+00  1.39108E+01  1.23032E+01  1.74185E+01
   1.56683E+01  1.18171E+01  1.48300E+01  1.42256E+01  1.38605E+01  1.03346E+01  2.15784E+01  1.40088E+01  1.61886E+01  1.88327E+01
   1.54685E+01  1.97706E+01  1.76917E+01  1.88795E+01  2.32994E+01  1.74904E+01  1.44837E+01  2.61697E+01  2.13691E+01  2.32597E+01
   2.32201E+01  2.52200E+01  2.25147E+01  1.80797E+01  2.63158E+01  1.92733E+01  2.60182E+01  2.12781E+01  2.26515E+01  2.31790E+01
   1.72675E+01  2.76950E+01  2.60386E+01  2.70953E+01  2.55789E+01  3.14998E+01  2.49106E+01  2.31164E+01  2.37637E+01  2.99929E+01
   2.09149E+01  2.33471E+01  2.35123E+01  2.39033E+01  3.07163E+01  2.83280E+01  2.85377E+01  2.87156E+01  2.85568E+01  2.69086E+01
   2.45080E+01  2.91302E+01  2.85890E+01  2.70579E+01  2.11501E+01  2.04468E+01  2.13413E+01  2.09926E+01  2.20312E+01  2.10756E+01
   2.47903E+01  2.24126E+01  1.90154E+01  2.10562E+01  2.48523E+01  1.62815E+01  1.65448E+01  1.39362E+01  1.90987E+01  1.37910E+01
   1.53677E+01  1.92404E+01  2.52531E+01  2.36657E+01  1.56541E+01  1.06235E+01  1.48733E+01  2.19629E+01  1.44909E+01  1.50934E+01
   1.81166E+01  1.44996E+01  1.64167E+01  1.69590E+01  2.01229E+01  1.82895E+01  1.87470E+01  1.89360E+01  1.92425E+01  1.79747E+01
   2.30847E+01  1.97812E+01  2.00917E+01  2.04274E+01  1.97652E+01  2.21587E+01  2.41586E+01  2.55067E+01  2.59404E+01  2.40303E+01
   2.47325E+01  2.44076E+01  2.06851E+01  1.90589E+01  1.29494E+01  2.22977E+01  1.58311E+01  1.62826E+01  1.03773E+01  1.42462E+01
   8.17563E+00  9.48631E+00  1.36313E+01  7.23795E+00  1.34023E+01  1.44799E+01  8.38661E+00  1.08372E+00  6.69913E+00  1.12537E+01
   6.35805E+00  8.26235E+00  4.31343E+00  6.46031E+00  3.29189E+00  5.53008E+00  6.07380E+00  3.59170E+00  7.83212E+00  2.86200E+00
   8.99242E+00  2.20377E+00 -8.88056E-01  6.74927E+00  7.99403E-01  5.62820E-01  2.22826E+00  3.16796E+00  3.12950E+00  6.45603E+00
   4.39261E+00  5.91431E+00  6.47878E+00  4.29588E+00  4.65455E+00 -4.81171E-01  2.01557E+00  7.34652E+00  4.78008E+00  5.29073E+00
   4.25156E+00  8.20982E+00  4.24276E+00  1.29326E+00  4.77338E+00  8.88667E+00  3.09557E+00  3.27888E+00  3.41662E+00  1.07844E+01
   6.23393E-01  7.77063E+00 -3.84517E+00  6.50685E+00  4.62287E+00  9.58157E-01  7.33393E-01  3.65963E+00  2.60786E+00  2.34599E-01
   1.61603E+00  6.33997E+00 -3.05811E-01  4.27587E+00  3.59088E+00  1.08820E+00  5.97200E+00  8.03646E+00  5.58127E+00  2.75777E+00
   2.90228E+00 -2.52484E+00 -2.17506E+00  1.62098E+00 -1.43958E+00 -1.63295E+00  2.97983E+00  1.02696E+00
 NY points of the fit to the data follow
  -2.01464E+00 -1.97168E+00 -5.67216E-01  3.04481E+00  7.94824E+00  1.45589E+01  2.33484E+01  3.25163E+01  4.11991E+01  4.68203E+01
   4.83043E+01  4.60311E+01  4.00034E+01  3.19431E+01  2.23837E+01  1.38498E+01  8.38963E+00  4.81331E+00  2.76855E+00  1.41676E+00
   5.17436E-01 -5.15166E-02 -7.96632E-01 -1.00855E+00 -1.11225E-01  1.40066E+00  4.05098E+00  7.30460E+00  1.12632E+01  1.53424E+01
   1.77125E+01  1.79029E+01  1.54845E+01  1.17809E+01  7.95948E+00  3.84990E+00  7.14518E-01 -1.29865E+00 -2.06960E+00 -1.87494E+00
  -8.73453E-01  1.39420E+00  4.77503E+00  8.54634E+00  1.23112E+01  1.55927E+01  1.80796E+01  1.88489E+01  1.67744E+01  1.19963E+01
   6.05262E+00  9.47220E-01 -2.29629E+00 -3.61783E+00 -3.40141E+00 -2.19115E+00 -4.42592E-01  1.25318E+00  2.68186E+00  3.50429E+00
   3.40209E+00  2.26338E+00  2.19382E-01 -1.91258E+00 -3.54829E+00 -4.23118E+00 -3.76766E+00 -2.66959E+00 -1.27192E+00 -7.36186E-02
   7.38794E-01  1.18452E+00  1.12214E+00  6.32508E-01 -2.07021E-01 -1.08675E+00 -1.70811E+00 -2.13511E+00 -2.37031E+00 -2.51877E+00
  -2.53929E+00 -2.44967E+00 -2.54976E+00 -2.86555E+00 -3.41104E+00 -4.16009E+00 -5.06942E+00 -6.16272E+00 -7.10603E+00 -7.48672E+00
  -6.93600E+00 -5.61643E+00 -4.20413E+00 -2.99731E+00 -2.13427E+00 -1.20142E+00  1.71405E+00  9.95759E+00  2.15896E+01  3.59276E+01
   5.14017E+01  6.58452E+01  7.69194E+01  7.86871E+01  6.88067E+01  5.01453E+01  2.97188E+01  1.52156E+01  5.71893E+00  5.86801E-01
  -2.07709E+00 -3.27515E+00 -3.59594E+00 -3.67528E+00 -3.67768E+00 -3.64010E+00 -3.54997E+00 -3.36118E+00 -2.96469E+00 -2.07055E+00
   6.71132E-01  7.90787E+00  1.96445E+01  3.38983E+01  4.94254E+01  6.41897E+01  7.62552E+01  8.15461E+01  7.61188E+01  6.08970E+01
   4.13514E+01  2.47368E+01  1.34475E+01  5.97364E+00  1.13464E+00 -2.04823E+00 -3.60281E+00 -3.70882E+00 -2.75392E+00 -1.38666E+00
  -6.14624E-02  7.12322E-01  7.47252E-01  2.56246E-01 -5.71046E-01 -1.31667E+00 -1.92115E+00 -2.37715E+00 -2.76268E+00 -3.14520E+00
  -3.50237E+00 -3.82660E+00 -4.04797E+00 -4.13777E+00 -4.14683E+00 -4.25185E+00 -4.45830E+00 -4.79696E+00 -5.27005E+00 -5.70097E+00
  -6.17950E+00 -6.47234E+00 -6.36675E+00 -5.95405E+00 -5.51993E+00 -5.65882E+00 -6.38959E+00 -7.42787E+00 -8.39587E+00 -9.01296E+00
  -9.56222E+00 -1.01113E+01 -1.05486E+01 -1.09991E+01 -1.13914E+01 -1.17818E+01 -1.19140E+01 -1.15248E+01 -1.09071E+01 -1.04832E+01
  -1.06050E+01 -1.11591E+01 -1.13741E+01 -1.10575E+01 -1.02242E+01 -9.07017E+00 -7.55108E+00 -5.53639E+00 -3.16614E+00 -9.82764E-01
   3.40361E-01  3.19326E-01 -9.44411E-01 -2.76382E+00 -4.54591E+00 -5.66770E+00 -5.84984E+00 -5.10443E+00 -3.33419E+00 -8.84308E-01
   1.74801E+00  3.96441E+00  5.17063E+00  5.23467E+00  3.58906E+00  8.05252E-01 -2.92072E+00 -6.96098E+00 -1.00904E+01 -1.15978E+01
  -1.01875E+01 -6.41487E+00 -1.33330E+00  4.04563E+00  8.28090E+00  1.09912E+01  1.05721E+01  6.51375E+00  2.78900E-01 -6.19096E+00
  -1.08814E+01 -1.32270E+01 -1.29372E+01 -9.74197E+00 -4.38845E+00  1.34089E+00  5.65359E+00  7.84806E+00  8.36719E+00  7.88928E+00
   6.81463E+00  6.14869E+00  6.22364E+00  7.14876E+00  8.54800E+00  9.78959E+00  1.06167E+01  1.06101E+01  9.83923E+00  8.50699E+00
   7.04617E+00  6.14904E+00  6.05208E+00  7.05091E+00  9.03028E+00  1.14494E+01  1.35212E+01  1.47860E+01  1.55455E+01  1.64672E+01
   1.83835E+01  2.09776E+01  2.44161E+01  2.90067E+01  3.88932E+01  5.48303E+01  7.15392E+01  8.89428E+01  1.04371E+02  1.17981E+02
   1.25627E+02  1.19105E+02  9.87004E+01  7.02209E+01  4.56364E+01  3.00668E+01  1.96509E+01  1.42964E+01  1.08732E+01  9.29093E+00
   8.34972E+00  7.75832E+00  7.37246E+00  7.16264E+00  6.96276E+00  6.64612E+00  6.15335E+00  5.56837E+00  5.00786E+00  4.53251E+00
   4.15283E+00  3.87685E+00  3.70797E+00  3.61981E+00  3.56196E+00  3.50056E+00  3.45923E+00  3.45671E+00  3.51441E+00  3.64028E+00
   3.84529E+00  4.13068E+00  4.47910E+00  4.86509E+00  5.27439E+00  5.70195E+00  6.15818E+00  6.64619E+00  7.17002E+00  7.73225E+00
   8.32954E+00  8.95070E+00  9.57837E+00  1.01929E+01  1.07858E+01  1.13466E+01  1.18712E+01  1.23573E+01  1.28051E+01  1.32158E+01
   1.35917E+01  1.39358E+01  1.42533E+01  1.45510E+01  1.48372E+01  1.51211E+01  1.54112E+01  1.57149E+01  1.60386E+01  1.63875E+01
   1.67655E+01  1.71740E+01  1.76118E+01  1.80754E+01  1.85602E+01  1.90602E+01  1.95686E+01  2.00774E+01  2.05782E+01  2.10631E+01
   2.15257E+01  2.19609E+01  2.23656E+01  2.27379E+01  2.30782E+01  2.33894E+01  2.36777E+01  2.39524E+01  2.42272E+01  2.45238E+01
   2.48885E+01  2.54025E+01  2.59425E+01  2.63798E+01  2.66827E+01  2.67562E+01  2.65701E+01  2.59894E+01  2.50366E+01  2.41689E+01
   2.37207E+01  2.39245E+01  2.46381E+01  2.56212E+01  2.68153E+01  2.79399E+01  2.87115E+01  2.89352E+01  2.86346E+01  2.81402E+01
   2.75846E+01  2.70187E+01  2.64526E+01  2.58631E+01  2.52535E+01  2.46094E+01  2.39280E+01  2.32130E+01  2.24711E+01  2.17111E+01
   2.09426E+01  2.01760E+01  1.94212E+01  1.86881E+01  1.79862E+01  1.73248E+01  1.67124E+01  1.61568E+01  1.56648E+01  1.52422E+01
   1.48945E+01  1.46266E+01  1.44423E+01  1.43444E+01  1.43349E+01  1.44149E+01  1.45845E+01  1.48427E+01  1.51870E+01  1.56131E+01
   1.61148E+01  1.66844E+01  1.73123E+01  1.79869E+01  1.86941E+01  1.94183E+01  2.01423E+01  2.08481E+01  2.15170E+01  2.21304E+01
   2.26702E+01  2.31193E+01  2.34633E+01  2.36903E+01  2.37914E+01  2.37614E+01  2.35983E+01  2.33040E+01  2.28844E+01  2.23485E+01
   2.17079E+01  2.09765E+01  2.01695E+01  1.93032E+01  1.83944E+01  1.74595E+01  1.65135E+01  1.55705E+01  1.46425E+01  1.37401E+01
   1.28720E+01  1.20449E+01  1.12633E+01  1.05303E+01  9.84733E+00  9.21475E+00  8.63198E+00  8.09742E+00  7.60872E+00  7.16313E+00
   6.75781E+00  6.38991E+00  6.05650E+00  5.75452E+00  5.48097E+00  5.23311E+00  5.00854E+00  4.80512E+00  4.62079E+00  4.45353E+00
   4.30150E+00  4.16319E+00  4.03737E+00  3.92294E+00  3.81875E+00  3.72370E+00  3.63683E+00  3.55746E+00  3.48506E+00  3.41907E+00
   3.35884E+00  3.30374E+00  3.25334E+00  3.20738E+00  3.16562E+00  3.12772E+00  3.09327E+00  3.06189E+00  3.03342E+00  3.00778E+00
   2.98484E+00  2.96434E+00  2.94599E+00  2.92961E+00  2.91517E+00  2.90268E+00  2.89202E+00  2.88294E+00  2.87525E+00  2.86890E+00
   2.86394E+00  2.86038E+00  2.85809E+00  2.85687E+00  2.85660E+00  2.85732E+00  2.85910E+00  2.86192E+00  2.86560E+00  2.86999E+00
   2.87507E+00  2.88093E+00  2.88763E+00  2.89509E+00  2.90315E+00  2.91171E+00  2.92082E+00  2.93059E+00  2.94103E+00  2.95202E+00
   2.96342E+00  2.97521E+00  2.98749E+00  3.00034E+00  3.01374E+00  3.02756E+00  3.04169E+00  3.05618E+00
 NY background values follow
    -8.474E+00   -8.463E+00   -8.451E+00   -8.440E+00   -8.428E+00   -8.417E+00   -8.406E+00   -8.394E+00   -8.383E+00   -8.372E+00
    -8.360E+00   -8.349E+00   -8.338E+00   -8.326E+00   -8.315E+00   -8.304E+00   -8.292E+00   -8.281E+00   -8.270E+00   -8.258E+00
    -8.247E+00   -8.236E+00   -8.225E+00   -8.213E+00   -8.202E+00   -8.191E+00   -8.179E+00   -8.168E+00   -8.157E+00   -8.146E+00
    -8.134E+00   -8.123E+00   -8.112E+00   -8.101E+00   -8.090E+00   -8.078E+00   -8.067E+00   -8.056E+00   -8.045E+00   -8.034E+00
    -8.022E+00   -8.011E+00   -8.000E+00   -7.989E+00   -7.978E+00   -7.967E+00   -7.956E+00   -7.945E+00   -7.934E+00   -7.923E+00
    -7.912E+00   -7.901E+00   -7.890E+00   -7.879E+00   -7.868E+00   -7.857E+00   -7.846E+00   -7.835E+00   -7.824E+00   -7.813E+00
    -7.802E+00   -7.791E+00   -7.780E+00   -7.769E+00   -7.758E+00   -7.747E+00   -7.736E+00   -7.725E+00   -7.714E+00   -7.703E+00
    -7.692E+00   -7.681E+00   -7.670E+00   -7.659E+00   -7.647E+00   -7.636E+00   -7.625E+00   -7.614E+00   -7.603E+00   -7.592E+00
    -7.581E+00   -7.570E+00   -7.559E+00   -7.548E+00   -7.536E+00   -7.525E+00   -7.514E+00   -7.503E+00   -7.492E+00   -7.480E+00
    -7.469E+00   -7.458E+00   -7.446E+00   -7.435E+00   -7.424E+00   -7.412E+00   -7.401E+00   -7.389E+00   -7.378E+00   -7.366E+00
    -7.355E+00   -7.343E+00   -7.332E+00   -7.320E+00   -7.308E+00   -7.297E+00   -7.285E+00   -7.273E+00   -7.261E+00   -7.250E+00
    -7.238E+00   -7.226E+00   -7.214E+00   -7.202E+00   -7.190E+00   -7.178E+00   -7.166E+00   -7.154E+00   -7.142E+00   -7.130E+00
    -7.117E+00   -7.105E+00   -7.093E+00   -7.081E+00   -7.068E+00   -7.056E+00   -7.043E+00   -7.031E+00   -7.018E+00   -7.006E+00
    -6.993E+00   -6.980E+00   -6.967E+00   -6.955E+00   -6.942E+00   -6.929E+00   -6.916E+00   -6.903E+00   -6.890E+00   -6.877E+00
    -6.864E+00   -6.851E+00   -6.837E+00   -6.824E+00   -6.811E+00   -6.797E+00   -6.784E+00   -6.770E+00   -6.756E+00   -6.743E+00
    -6.729E+00   -6.715E+00   -6.701E+00   -6.687E+00   -6.673E+00   -6.658E+00   -6.644E+00   -6.630E+00   -6.615E+00   -6.601E+00
    -6.586E+00   -6.571E+00   -6.557E+00   -6.542E+00   -6.527E+00   -6.511E+00   -6.496E+00   -6.481E+00   -6.465E+00   -6.450E+00
    -6.434E+00   -6.419E+00   -6.403E+00   -6.387E+00   -6.371E+00   -6.354E+00   -6.338E+00   -6.322E+00   -6.305E+00   -6.288E+00
    -6.271E+00   -6.254E+00   -6.237E+00   -6.220E+00   -6.203E+00   -6.185E+00   -6.168E+00   -6.150E+00   -6.132E+00   -6.114E+00
    -6.096E+00   -6.078E+00   -6.060E+00   -6.041E+00   -6.023E+00   -6.004E+00   -5.985E+00   -5.966E+00   -5.947E+00   -5.928E+00
    -5.909E+00   -5.889E+00   -5.870E+00   -5.850E+00   -5.831E+00   -5.811E+00   -5.791E+00   -5.771E+00   -5.751E+00   -5.731E+00
    -5.710E+00   -5.690E+00   -5.669E+00   -5.649E+00   -5.628E+00   -5.607E+00   -5.586E+00   -5.565E+00   -5.544E+00   -5.522E+00
    -5.501E+00   -5.480E+00   -5.458E+00   -5.436E+00   -5.415E+00   -5.393E+00   -5.371E+00   -5.349E+00   -5.327E+00   -5.305E+00
    -5.282E+00   -5.260E+00   -5.237E+00   -5.215E+00   -5.192E+00   -5.169E+00   -5.147E+00   -5.124E+00   -5.101E+00   -5.078E+00
    -5.055E+00   -5.031E+00   -5.008E+00   -4.985E+00   -4.961E+00   -4.938E+00   -4.914E+00   -4.890E+00   -4.866E+00   -4.843E+00
    -4.819E+00   -4.795E+00   -4.770E+00   -4.746E+00   -4.722E+00   -4.698E+00   -4.673E+00   -4.649E+00   -4.624E+00   -4.600E+00
    -4.575E+00   -4.550E+00   -4.526E+00   -4.501E+00   -4.476E+00   -4.451E+00   -4.426E+00   -4.401E+00   -4.376E+00   -4.350E+00
    -4.325E+00   -4.300E+00   -4.274E+00   -4.249E+00   -4.223E+00   -4.198E+00   -4.172E+00   -4.146E+00   -4.121E+00   -4.095E+00
    -4.069E+00   -4.043E+00   -4.017E+00   -3.991E+00   -3.965E+00   -3.939E+00   -3.913E+00   -3.886E+00   -3.860E+00   -3.834E+00
    -3.807E+00   -3.781E+00   -3.754E+00   -3.728E+00   -3.701E+00   -3.675E+00   -3.648E+00   -3.621E+00   -3.595E+00   -3.568E+00
    -3.541E+00   -3.514E+00   -3.487E+00   -3.460E+00   -3.433E+00   -3.406E+00   -3.379E+00   -3.352E+00   -3.325E+00   -3.298E+00
    -3.270E+00   -3.243E+00   -3.216E+00   -3.188E+00   -3.161E+00   -3.134E+00   -3.106E+00   -3.079E+00   -3.051E+00   -3.024E+00
    -2.996E+00   -2.968E+00   -2.941E+00   -2.913E+00   -2.885E+00   -2.858E+00   -2.830E+00   -2.802E+00   -2.774E+00   -2.746E+00
    -2.718E+00   -2.691E+00   -2.663E+00   -2.635E+00   -2.607E+00   -2.579E+00   -2.551E+00   -2.523E+00   -2.494E+00   -2.466E+00
    -2.438E+00   -2.410E+00   -2.382E+00   -2.354E+00   -2.325E+00   -2.297E+00   -2.269E+00   -2.241E+00   -2.212E+00   -2.184E+00
    -2.156E+00   -2.127E+00   -2.099E+00   -2.071E+00   -2.042E+00   -2.014E+00   -1.985E+00   -1.957E+00   -1.928E+00   -1.900E+00
    -1.871E+00   -1.843E+00   -1.814E+00   -1.786E+00   -1.757E+00   -1.729E+00   -1.700E+00   -1.672E+00   -1.643E+00   -1.614E+00
    -1.586E+00   -1.557E+00   -1.528E+00   -1.500E+00   -1.471E+00   -1.442E+00   -1.414E+00   -1.385E+00   -1.356E+00   -1.328E+00
    -1.299E+00   -1.270E+00   -1.241E+00   -1.213E+00   -1.184E+00   -1.155E+00   -1.126E+00   -1.098E+00   -1.069E+00   -1.040E+00
    -1.011E+00   -9.824E-01   -9.536E-01   -9.247E-01   -8.959E-01   -8.671E-01   -8.382E-01   -8.094E-01   -7.805E-01   -7.516E-01
    -7.228E-01   -6.939E-01   -6.650E-01   -6.361E-01   -6.073E-01   -5.784E-01   -5.495E-01   -5.206E-01   -4.917E-01   -4.628E-01
    -4.339E-01   -4.050E-01   -3.760E-01   -3.471E-01   -3.182E-01   -2.893E-01   -2.604E-01   -2.315E-01   -2.025E-01   -1.736E-01
    -1.447E-01   -1.158E-01   -8.686E-02   -5.794E-02   -2.902E-02   -1.001E-04    2.882E-02    5.773E-02    8.665E-02    1.156E-01
     1.445E-01    1.734E-01    2.023E-01    2.312E-01    2.601E-01    2.890E-01    3.179E-01    3.467E-01    3.756E-01    4.045E-01
     4.334E-01    4.622E-01    4.911E-01    5.199E-01    5.488E-01    5.776E-01    6.065E-01    6.353E-01    6.641E-01    6.929E-01
     7.217E-01    7.505E-01    7.793E-01    8.081E-01    8.369E-01    8.657E-01    8.944E-01    9.232E-01    9.519E-01    9.806E-01
     1.009E+00    1.038E+00    1.067E+00    1.096E+00    1.124E+00    1.153E+00    1.182E+00    1.210E+00    1.239E+00    1.268E+00
     1.296E+00    1.325E+00    1.354E+00    1.382E+00    1.411E+00    1.440E+00    1.468E+00    1.497E+00    1.525E+00    1.554E+00
     1.583E+00    1.611E+00    1.640E+00    1.668E+00    1.697E+00    1.726E+00    1.754E+00    1.783E+00    1.811E+00    1.840E+00
     1.869E+00    1.897E+00    1.926E+00    1.954E+00    1.983E+00    2.011E+00    2.040E+00    2.069E+00
 Cr       Conc. = 1.23E+03
