 LCModel (Version 6.3-1L) Copyright: S.W. Provencher.          Ref.: Magn. Reson. Med. 30:672-679 (1993).                
 Slice#2 Row#14 Col#11  K_02_press_1_raw_act
 36 lines in following concentration table = NCONC+1
    Conc.  %SD /Cr+PCr  Metabolite                                         
   57.592 286%   0.000 Ala                                                 
    3.482  60%   0.000 Asp                                                 
    0.000 999%   0.000 Cr                                                  
    0.000 999%   0.000 PCr                                                 
    2.086  60%   0.000 GABA                                                
    2.088  60%   0.000 Glc                                                 
    0.000 999%   0.000 Gln                                                 
  997.792  37%   0.000 Glu                                                 
   23.188  59%   0.000 GPC                                                 
    0.000 999%   0.000 PCh                                                 
   11.787 426%   0.000 GSH                                                 
  248.693  62%   0.000 Ins                                                 
  357.276  54%   0.000 Lac                                                 
    0.000 999%   0.000 NAA                                                 
    0.000 999%   0.000 NAAG                                                
    0.698  60%   0.000 Scyllo                                              
    3.483  60%   0.000 Tau                                                 
    0.000 999%   0.000 -CrCH2                                              
   23.188  59%   0.000 GPC+PCh                                             
    0.000 999%   0.000 NAA+NAAG                                            
    0.000 999%   0.000 Cr+PCr                                              
  997.792  37%   0.000 Glu+Gln                                             
  832.551  31%   0.000 Lip13a                                              
    0.000 999%   0.000 Lip13b                                              
  227.659  31%   0.000 Lip09                                               
  319.383  21%   0.000 MM09                                                
  125.405  32%   0.000 Lip20                                               
  291.001  31%   0.000 MM20                                                
  105.953  40%   0.000 MM12                                                
  268.147  37%   0.000 MM14                                                
    0.000 999%   0.000 MM17                                                
  832.551  31%   0.000 Lip13a+Lip13b                                       
 1.21E+03  21%   0.000 MM14+Lip13a+Lip13b+MM12                             
  547.042  14%   0.000 MM09+Lip09                                          
  416.406  20%   0.000 MM20+Lip20                                          
   6 lines in following misc. output table
  FWHM = 0.183 ppm    S/N =   2                                            
  Data shift = 0.214 ppm                                                   
  Ph:  20 deg     123.4 deg/ppm                                            
  alphaB,S = 9.0E-01,   2.6E+01                                            
    7 spline knots.   Ns = 9(2)                                            
  (11) 9 infls.   (14) 6 extrs.                                            
  498 points on ppm-axis = NY
      4.000000     3.992357     3.984714     3.977070     3.969427     3.961784     3.954141     3.946497     3.938854     3.931211
      3.923568     3.915925     3.908281     3.900638     3.892995     3.885352     3.877708     3.870065     3.862422     3.854779
      3.847136     3.839492     3.831849     3.824206     3.816563     3.808919     3.801276     3.793633     3.785990     3.778347
      3.770703     3.763060     3.755417     3.747774     3.740130     3.732487     3.724844     3.717201     3.709558     3.701914
      3.694271     3.686628     3.678985     3.671341     3.663698     3.656055     3.648412     3.640769     3.633125     3.625482
      3.617839     3.610196     3.602552     3.594909     3.587266     3.579623     3.571980     3.564336     3.556693     3.549050
      3.541407     3.533763     3.526120     3.518477     3.510834     3.503191     3.495547     3.487904     3.480261     3.472618
      3.464974     3.457331     3.449688     3.442045     3.434402     3.426758     3.419115     3.411472     3.403829     3.396185
      3.388542     3.380899     3.373256     3.365613     3.357969     3.350326     3.342683     3.335040     3.327396     3.319753
      3.312110     3.304467     3.296824     3.289180     3.281537     3.273894     3.266251     3.258607     3.250964     3.243321
      3.235678     3.228034     3.220391     3.212748     3.205105     3.197462     3.189818     3.182175     3.174532     3.166889
      3.159245     3.151602     3.143959     3.136316     3.128673     3.121029     3.113386     3.105743     3.098100     3.090456
      3.082813     3.075170     3.067527     3.059884     3.052240     3.044597     3.036954     3.029311     3.021667     3.014024
      3.006381     2.998738     2.991095     2.983451     2.975808     2.968165     2.960522     2.952878     2.945235     2.937592
      2.929949     2.922306     2.914662     2.907019     2.899376     2.891733     2.884089     2.876446     2.868803     2.861160
      2.853517     2.845873     2.838230     2.830587     2.822944     2.815300     2.807657     2.800014     2.792371     2.784728
      2.777084     2.769441     2.761798     2.754155     2.746511     2.738868     2.731225     2.723582     2.715939     2.708295
      2.700652     2.693009     2.685366     2.677722     2.670079     2.662436     2.654793     2.647150     2.639506     2.631863
      2.624220     2.616577     2.608933     2.601290     2.593647     2.586004     2.578361     2.570717     2.563074     2.555431
      2.547788     2.540144     2.532501     2.524858     2.517215     2.509572     2.501928     2.494285     2.486642     2.478999
      2.471355     2.463712     2.456069     2.448426     2.440783     2.433139     2.425496     2.417853     2.410210     2.402566
      2.394923     2.387280     2.379637     2.371994     2.364350     2.356707     2.349064     2.341421     2.333777     2.326134
      2.318491     2.310848     2.303205     2.295561     2.287918     2.280275     2.272632     2.264988     2.257345     2.249702
      2.242059     2.234416     2.226772     2.219129     2.211486     2.203843     2.196199     2.188556     2.180913     2.173270
      2.165627     2.157983     2.150340     2.142697     2.135054     2.127410     2.119767     2.112124     2.104481     2.096838
      2.089194     2.081551     2.073908     2.066265     2.058621     2.050978     2.043335     2.035692     2.028049     2.020405
      2.012762     2.005119     1.997476     1.989833     1.982190     1.974546     1.966903     1.959260     1.951617     1.943974
      1.936331     1.928688     1.921045     1.913402     1.905759     1.898115     1.890472     1.882829     1.875186     1.867543
      1.859900     1.852257     1.844614     1.836971     1.829327     1.821684     1.814041     1.806398     1.798755     1.791112
      1.783469     1.775826     1.768183     1.760540     1.752896     1.745253     1.737610     1.729967     1.722324     1.714681
      1.707038     1.699395     1.691752     1.684108     1.676465     1.668822     1.661179     1.653536     1.645893     1.638250
      1.630607     1.622964     1.615321     1.607677     1.600034     1.592391     1.584748     1.577105     1.569462     1.561819
      1.554176     1.546533     1.538890     1.531246     1.523603     1.515960     1.508317     1.500674     1.493031     1.485388
      1.477745     1.470102     1.462458     1.454815     1.447172     1.439529     1.431886     1.424243     1.416600     1.408957
      1.401314     1.393671     1.386027     1.378384     1.370741     1.363098     1.355455     1.347812     1.340169     1.332526
      1.324883     1.317240     1.309596     1.301953     1.294310     1.286667     1.279024     1.271381     1.263738     1.256095
      1.248452     1.240808     1.233165     1.225522     1.217879     1.210236     1.202593     1.194950     1.187307     1.179664
      1.172021     1.164377     1.156734     1.149091     1.141448     1.133805     1.126162     1.118519     1.110876     1.103233
      1.095590     1.087946     1.080303     1.072660     1.065017     1.057374     1.049731     1.042088     1.034445     1.026802
      1.019158     1.011515     1.003872     0.996229     0.988586     0.980943     0.973300     0.965657     0.958014     0.950371
      0.942727     0.935084     0.927441     0.919798     0.912155     0.904512     0.896869     0.889226     0.881583     0.873940
      0.866296     0.858653     0.851010     0.843367     0.835724     0.828081     0.820438     0.812795     0.805152     0.797508
      0.789865     0.782222     0.774579     0.766936     0.759293     0.751650     0.744007     0.736364     0.728721     0.721077
      0.713434     0.705791     0.698148     0.690505     0.682862     0.675219     0.667576     0.659933     0.652290     0.644646
      0.637003     0.629360     0.621717     0.614074     0.606431     0.598788     0.591145     0.583502     0.575858     0.568215
      0.560572     0.552929     0.545286     0.537643     0.530000     0.522357     0.514714     0.507071     0.499427     0.491784
      0.484141     0.476498     0.468855     0.461212     0.453569     0.445925     0.438282     0.430639     0.422996     0.415353
      0.407710     0.400067     0.392424     0.384780     0.377137     0.369494     0.361851     0.354208     0.346565     0.338922
      0.331278     0.323635     0.315992     0.308349     0.300706     0.293063     0.285420     0.277777     0.270133     0.262490
      0.254847     0.247204     0.239561     0.231918     0.224275     0.216631     0.208988     0.201345
 NY phased data points follow
   2.40939E+00  5.49465E-01  3.76419E-01  6.09047E-01  2.51479E+00  4.78955E-01  2.82092E+00  2.35833E+00 -4.26384E-01  2.64335E-01
   7.32065E-01  2.16770E+00  1.10212E+00  8.93107E-01  1.42642E+00  1.29413E+00  1.07606E+00  8.30244E-01  2.44971E+00  2.53239E+00
   4.85387E-01  2.45419E-01  8.08468E-01  9.68828E-01  1.35320E+00  6.80268E-01 -1.36768E-01  3.54129E-01  2.08778E+00  5.28493E-01
   2.04534E+00  1.33756E+00  6.01165E-01 -6.96002E-01 -3.88295E-02  1.22181E+00  4.87021E-01  8.18366E-01  1.42574E+00  1.12802E+00
   5.47426E-01  1.56734E+00  2.99285E-01  1.19603E+00  1.30893E+00  2.65342E+00  1.10861E+00 -4.53244E-02  1.43474E+00  1.15167E+00
   1.18244E+00 -1.69105E-01  4.17784E-01  6.27793E-01  1.48020E+00  9.12369E-01  7.97789E-01  9.56811E-01  1.12609E+00 -1.58933E-01
   2.09921E-01  1.30345E+00  1.47090E+00  8.31183E-02  5.49923E-01 -1.91710E-01  8.84128E-01  1.99975E+00  1.41509E+00  2.65999E-01
   1.52098E+00  1.89546E+00  1.38061E+00  1.10052E+00  4.96058E-01  1.06492E-01  2.72132E+00  1.32864E+00  2.29276E+00  7.15901E-01
   1.28922E+00  1.96046E+00  1.59756E+00  1.13848E+00  2.10684E+00  5.06552E-01  8.68082E-01  7.47432E-01  1.40678E+00  5.06384E-01
   2.06592E+00  1.98383E+00 -2.69771E-01  1.85840E+00  7.38032E-01 -2.34566E-01  1.29704E+00 -6.64341E-01  2.70889E-01  7.39734E-01
   3.09255E-01  4.53246E-01  3.78200E-01  1.72658E+00  6.15736E-01  8.04065E-02  1.67365E+00  1.65849E+00 -1.98805E-01 -4.49667E-02
   3.15392E-01  7.34059E-02  2.84173E+00 -9.31913E-02  9.75280E-01  8.02097E-01  4.85379E-02  8.74691E-01  1.32924E+00  1.02665E+00
   5.91822E-02 -3.05675E-02  1.03257E+00 -4.30273E-01 -4.85408E-01  1.12758E-01  2.71949E+00  3.94580E-01 -2.01882E-01  2.35352E+00
   2.29392E+00 -1.27714E+00  1.09289E+00  2.09133E+00  5.88817E-01 -1.68840E-01 -5.75016E-01  1.84762E+00  2.88466E+00  8.43427E-01
   9.05090E-01  2.16051E-01  1.78890E+00  3.45648E-01  5.43058E-01  4.30423E-01  5.69332E-01  1.72220E+00  2.37236E+00  2.25241E+00
  -5.06984E-02  3.17223E+00  1.13572E+00  2.38139E+00  8.11544E-01  1.93298E+00  2.65406E+00  9.65134E-01  7.51627E-01  1.15031E+00
   1.12253E+00  4.83481E-01  7.94884E-01  1.87158E+00  1.06029E+00  1.76122E+00  3.60390E-01  8.50506E-01  2.74998E+00  1.83710E+00
   1.63381E+00  2.10724E+00  1.67945E+00  2.83013E+00  1.66213E+00  1.29392E+00  4.17744E-01  2.57611E+00  1.64293E+00  1.85799E+00
   1.15195E+00  1.87676E+00  1.06499E+00  6.37282E-02  1.59572E+00  9.23474E-01  7.80078E-01 -1.03622E+00  6.36845E-01  1.64082E+00
   5.10049E-01  1.14792E-01  8.19013E-01  1.53624E+00  1.15805E+00  1.29531E+00  1.96621E+00  1.19658E+00  7.24160E-01  2.27434E+00
   1.89239E+00  2.18380E+00  2.29916E+00 -3.01086E-01  2.22348E+00  8.65009E-01 -2.25112E-01 -6.21333E-01  9.92485E-01  1.69937E+00
   1.12249E+00 -7.71819E-01 -7.92486E-01  1.23595E+00 -4.79339E-01  1.53803E+00 -5.59235E-01  1.09289E-01 -1.36225E+00  1.15945E+00
   1.32760E+00 -9.52129E-01  1.39382E+00  1.60542E+00 -1.20489E+00  3.52442E-01  4.49409E-01 -1.07080E+00  6.29413E-01 -1.09597E+00
  -8.98326E-02 -3.15155E-01 -1.40602E-01  1.70994E+00  5.34262E-01  4.24362E-01  1.95786E+00 -3.76091E-01 -6.23942E-01 -1.69525E+00
   6.99343E-01  1.62112E-02  1.38556E+00  4.40510E-01  8.08586E-01 -6.44290E-02 -2.45565E-01 -8.83414E-01  3.58813E-01  4.23827E-01
   3.32166E-01 -1.14829E+00 -6.18934E-01  6.47010E-01 -1.49459E-01 -1.27726E-01 -3.66016E-01  1.83844E-03 -6.36255E-01 -1.47511E+00
  -7.27749E-01  1.16906E+00  5.55923E-01  1.60467E+00 -4.67601E-01  9.35768E-01  3.02655E-01 -4.89056E-01 -8.32932E-01 -6.44093E-01
  -1.53707E+00 -8.42471E-01  1.32598E-01 -2.79989E-01 -8.85856E-01  2.06845E-01 -1.80473E+00 -7.88212E-01 -2.69697E+00 -1.32422E+00
   2.84926E-02 -2.49617E+00 -2.21911E+00 -3.10978E+00 -3.11108E+00 -3.08971E+00 -2.95876E+00 -2.29933E+00 -2.01264E+00 -2.54740E+00
  -1.81144E+00 -4.01466E+00 -5.11251E+00 -3.80115E+00 -3.73056E+00 -4.97955E+00 -4.82491E+00 -4.46677E+00 -3.37870E+00 -4.03018E+00
  -4.01900E+00 -4.76625E+00 -1.68228E+00 -3.65506E+00 -3.47809E+00 -3.84059E+00 -4.09474E+00 -3.25548E+00 -3.24415E+00 -2.26147E+00
  -1.92909E+00 -2.65842E+00 -3.23683E+00 -3.48067E+00 -1.77628E+00 -3.59019E+00 -1.69003E+00 -2.02714E+00 -3.70659E+00 -2.63595E+00
  -2.79314E+00 -2.07686E+00 -3.72409E+00 -2.83929E+00 -3.08234E+00 -2.76380E+00 -1.99612E+00 -2.28938E+00 -2.37342E+00 -2.00162E+00
  -1.74494E+00 -2.03853E-01 -1.01587E+00 -2.24150E+00 -1.02113E+00 -1.92815E+00 -1.38115E+00 -1.39503E+00 -2.59424E+00 -2.08156E+00
  -4.57653E-01 -2.21256E+00 -2.10256E+00 -2.02925E-01 -1.47717E+00  1.38720E+00 -2.93557E+00 -8.73838E-01 -3.22348E+00 -2.50443E+00
  -1.72689E+00 -5.33157E-01 -2.35000E+00 -1.63063E+00 -1.08709E+00 -2.01682E+00 -2.37432E+00 -7.60223E-01 -2.08174E+00 -1.94237E+00
  -5.72467E-01 -1.04650E+00 -7.87001E-01 -8.99568E-01 -5.73263E-01 -1.36949E+00 -8.30976E-01 -1.82401E+00 -1.56253E+00  2.62096E-01
  -2.50714E+00 -6.40549E-01 -1.10368E+00 -1.35599E+00  1.68300E-01 -1.13565E+00 -1.39908E+00 -1.70369E+00 -9.88072E-01 -3.15753E-02
  -5.82422E-01 -1.13887E+00  9.98758E-01 -1.06198E+00 -7.88012E-03 -9.88380E-01  1.75575E+00  6.99796E-01 -8.25626E-01  8.71338E-01
  -9.50806E-01  1.14282E+00 -7.33843E-01 -1.07180E+00 -5.00225E-02  4.09864E-01  5.02949E-01  1.63307E-01 -2.78309E-01 -6.25232E-01
   8.39236E-01  1.34246E+00  3.62702E-01 -1.06501E+00  3.48399E-01  7.53462E-01  1.45533E-01  1.54703E+00  1.65817E-01  3.37786E-01
   1.01636E+00  5.39826E-01  1.68532E+00  1.55028E+00  5.86169E-01 -2.84210E-01 -5.60163E-01  6.41110E-01  1.63040E+00  1.26104E+00
   6.67121E-01  1.29417E+00  7.42966E-01  1.37326E+00  2.22927E-01  9.21282E-01 -3.40539E-01  2.53574E-01  1.52130E+00  1.19886E+00
  -6.52330E-01  8.20932E-01  1.05590E+00  1.35809E+00  1.01400E+00  5.23207E-01  1.53768E+00  8.73062E-01  2.44349E+00  2.99847E-01
   1.40376E+00  6.08232E-01  7.50595E-01 -5.61812E-01  3.64991E-01  1.59353E-01  4.79935E-01  1.74160E+00  9.69201E-01  9.20899E-01
   9.93626E-01 -4.28807E-01  1.43556E+00  3.02458E+00  8.86206E-01 -1.34287E-01  1.84722E+00  5.52220E-01  2.25938E+00  7.38384E-01
   2.69091E-01 -1.31430E-01  1.37422E+00  1.58763E+00  4.09056E-02  2.49103E+00 -6.20740E-01  2.45227E+00  2.09872E+00  7.82376E-01
   2.66746E+00  1.27165E+00  3.73628E-01  4.76123E-01  1.39056E+00  2.25606E-01  2.61847E+00  1.81959E+00  4.93516E-01  6.41290E-01
   1.02853E+00  1.80964E+00 -6.14881E-01  1.61899E+00  9.67266E-01  1.36179E+00  4.82729E-01  3.85777E-01 -7.59979E-01  1.26513E+00
  -1.41761E+00  1.07953E+00  9.92841E-01  1.77107E+00  7.70909E-02  1.62690E+00  6.06923E-01  1.53604E+00
 NY points of the fit to the data follow
   5.67820E-01  5.49383E-01  6.63538E-01  7.05898E-01  8.32502E-01  8.55622E-01  9.70066E-01  9.15239E-01  9.28867E-01  8.19598E-01
   7.56875E-01  7.45185E-01  7.72557E-01  9.43928E-01  1.08219E+00  1.16408E+00  1.21684E+00  1.26166E+00  1.20411E+00  1.12094E+00
   1.10513E+00  1.06122E+00  1.03545E+00  9.42989E-01  1.00004E+00  9.40532E-01  1.06071E+00  1.21494E+00  1.45001E+00  1.39157E+00
   1.46230E+00  1.15853E+00  1.02488E+00  7.96703E-01  8.55292E-01  9.14075E-01  1.09390E+00  1.04671E+00  1.15735E+00  9.18093E-01
   9.14511E-01  7.17045E-01  7.15269E-01  6.58015E-01  7.32152E-01  7.64825E-01  8.61443E-01  7.95436E-01  8.57503E-01  7.54869E-01
   7.31431E-01  6.12093E-01  5.70750E-01  5.64846E-01  5.97230E-01  6.53397E-01  7.42981E-01  7.22127E-01  7.25865E-01  6.95194E-01
   7.07637E-01  7.20893E-01  7.68943E-01  7.98918E-01  7.88620E-01  7.44312E-01  7.12569E-01  6.85060E-01  6.93757E-01  6.83058E-01
   7.14894E-01  6.95651E-01  7.43385E-01  7.61700E-01  8.12741E-01  8.33008E-01  8.84266E-01  8.72956E-01  9.30625E-01  9.01925E-01
   9.65656E-01  9.64584E-01  1.05238E+00  1.11048E+00  1.27702E+00  1.29163E+00  1.42529E+00  1.38709E+00  1.42416E+00  1.41955E+00
   1.49825E+00  1.41815E+00  1.38516E+00  1.34970E+00  1.36635E+00  1.37534E+00  1.42590E+00  1.43626E+00  1.46264E+00  1.45623E+00
   1.44337E+00  1.36679E+00  1.22881E+00  1.21293E+00  1.18794E+00  1.24086E+00  1.29698E+00  1.30900E+00  1.25886E+00  1.24948E+00
   1.16679E+00  1.16835E+00  1.12278E+00  1.13743E+00  1.11742E+00  1.16568E+00  1.20418E+00  1.24899E+00  1.28254E+00  1.26940E+00
   1.19307E+00  1.19975E+00  1.18107E+00  1.20674E+00  1.23637E+00  1.25739E+00  1.27594E+00  1.29162E+00  1.30390E+00  1.31149E+00
   1.31654E+00  1.31576E+00  1.31511E+00  1.31023E+00  1.31003E+00  1.30842E+00  1.30868E+00  1.30788E+00  1.30461E+00  1.29501E+00
   1.28886E+00  1.27578E+00  1.26968E+00  1.26163E+00  1.25720E+00  1.25033E+00  1.24468E+00  1.23553E+00  1.22699E+00  1.21547E+00
   1.20445E+00  1.18927E+00  1.17841E+00  1.16694E+00  1.15727E+00  1.14890E+00  1.13717E+00  1.12481E+00  1.10978E+00  1.09350E+00
   1.07666E+00  1.06028E+00  1.04274E+00  1.02635E+00  1.00822E+00  9.91636E-01  9.73763E-01  9.55575E-01  9.37711E-01  9.18439E-01
   9.03167E-01  8.86901E-01  8.75492E-01  8.60011E-01  8.48962E-01  8.32336E-01  8.22100E-01  8.06094E-01  7.96805E-01  7.81177E-01
   7.74067E-01  7.64275E-01  7.60144E-01  7.58801E-01  7.57107E-01  7.61623E-01  7.72261E-01  7.95628E-01  8.14759E-01  7.97427E-01
   7.94606E-01  7.44046E-01  6.34567E-01  6.51914E-01  4.92835E-01  5.60033E-01  5.18040E-01  7.63401E-01  9.26705E-01  1.10664E+00
   1.27226E+00  1.20245E+00  1.07862E+00  9.30945E-01  7.00156E-01  2.90232E-01 -1.56530E-01 -2.79730E-01 -3.88615E-01 -2.19258E-01
  -2.47293E-01 -1.29466E-01  6.72187E-02  2.57823E-01  1.57733E-01  9.63048E-02 -3.90655E-01 -3.89386E-01 -5.44212E-01 -3.55770E-01
  -2.44565E-01  5.68907E-05  9.78401E-02  3.17782E-01  8.36051E-03 -6.94961E-02 -4.31789E-01 -5.41692E-01 -4.82164E-01 -3.06298E-01
   9.09086E-02  2.75586E-01  6.24762E-01  5.65127E-01  4.57581E-01  1.81313E-01  6.26461E-02 -1.99218E-01 -1.71634E-01 -3.52423E-01
  -3.35254E-02  7.61746E-02  3.53907E-01  4.01036E-01  5.28597E-01  3.43663E-01  3.75701E-01  1.50814E-01  2.13723E-01  1.75125E-01
   2.62123E-01  3.39253E-01  4.01646E-01  3.92199E-01  2.15319E-01  1.64008E-01 -5.47823E-02 -9.36046E-02 -1.18468E-01 -5.95018E-02
  -1.17678E-01 -2.47623E-02 -1.73806E-01 -1.69991E-01 -3.93559E-01 -4.02555E-01 -6.09969E-01 -6.40483E-01 -7.78261E-01 -7.63761E-01
  -8.83631E-01 -8.60147E-01 -1.01299E+00 -1.05089E+00 -1.23331E+00 -1.30816E+00 -1.41238E+00 -1.44868E+00 -1.50602E+00 -1.55513E+00
  -1.62927E+00 -1.68282E+00 -1.80107E+00 -1.85050E+00 -1.93785E+00 -2.01646E+00 -2.08658E+00 -2.16563E+00 -2.22739E+00 -2.28263E+00
  -2.31697E+00 -2.36190E+00 -2.40678E+00 -2.46177E+00 -2.51602E+00 -2.57492E+00 -2.62623E+00 -2.68330E+00 -2.72824E+00 -2.77328E+00
  -2.81338E+00 -2.85190E+00 -2.88883E+00 -2.92531E+00 -2.95839E+00 -2.98979E+00 -3.01491E+00 -3.03350E+00 -3.03733E+00 -3.01390E+00
  -3.01524E+00 -2.99848E+00 -3.01817E+00 -3.05084E+00 -3.05854E+00 -3.06325E+00 -3.09625E+00 -3.12979E+00 -3.11331E+00 -3.10450E+00
  -3.00682E+00 -2.98408E+00 -2.89875E+00 -2.85850E+00 -2.70749E+00 -2.66662E+00 -2.52558E+00 -2.49430E+00 -2.20614E+00 -1.89346E+00
  -1.72323E+00 -1.33391E+00 -1.54447E+00 -1.41374E+00 -1.55800E+00 -1.40581E+00 -1.95638E+00 -1.77074E+00 -2.26414E+00 -1.62867E+00
  -1.98878E+00 -1.38359E+00 -1.84745E+00 -9.07322E-01 -1.42973E+00 -7.03297E-01 -1.55177E+00 -1.22002E+00 -1.89166E+00 -1.30560E+00
  -1.74154E+00 -8.71799E-01 -1.37252E+00 -4.77572E-01 -9.92146E-01 -6.20007E-01 -1.13049E+00 -9.25262E-01 -1.33052E+00 -8.45212E-01
  -9.98344E-01 -4.12044E-01 -5.08023E-01 -8.26197E-02 -3.98071E-01 -4.07553E-01 -6.43686E-01 -7.55528E-01 -9.05834E-01 -8.76267E-01
  -9.80654E-01 -7.15252E-01 -7.09942E-01 -6.79059E-01 -7.33200E-01 -8.42983E-01 -9.27743E-01 -9.93897E-01 -1.04578E+00 -1.08465E+00
  -1.11064E+00 -1.12345E+00 -1.12268E+00 -1.10794E+00 -1.07897E+00 -1.03575E+00 -9.78621E-01 -9.08314E-01 -8.25885E-01 -7.32682E-01
  -6.30320E-01 -5.20674E-01 -4.05820E-01 -2.87944E-01 -1.69204E-01 -5.16417E-02  6.28752E-02  1.72687E-01  2.76392E-01  3.72900E-01
   4.61476E-01  5.41718E-01  6.13497E-01  6.76900E-01  7.32189E-01  7.79767E-01  8.20145E-01  8.53863E-01  8.81437E-01  9.03312E-01
   9.19882E-01  9.31491E-01  9.38444E-01  9.40996E-01  9.39352E-01  9.33694E-01  9.24224E-01  9.11183E-01  8.94861E-01  8.75574E-01
   8.53662E-01  8.29503E-01  8.03518E-01  7.76170E-01  7.47919E-01  7.19212E-01  6.90461E-01  6.62065E-01  6.34396E-01  6.07798E-01
   5.82553E-01  5.58888E-01  5.36971E-01  5.16949E-01  4.98928E-01  4.82987E-01  4.69151E-01  4.57415E-01  4.47749E-01  4.40127E-01
   4.34507E-01  4.30839E-01  4.29046E-01  4.29042E-01  4.30753E-01  4.34114E-01  4.39061E-01  4.45518E-01  4.53406E-01  4.62648E-01
   4.73186E-01  4.84968E-01  4.97940E-01  5.12039E-01  5.27206E-01  5.43384E-01  5.60541E-01  5.78638E-01  5.97633E-01  6.17480E-01
   6.38135E-01  6.59566E-01  6.81751E-01  7.04663E-01  7.28269E-01  7.52529E-01  7.77416E-01  8.02911E-01  8.28999E-01  8.55656E-01
   8.82851E-01  9.10557E-01  9.38755E-01  9.67437E-01  9.96586E-01  1.02618E+00  1.05619E+00  1.08659E+00  1.11737E+00  1.14853E+00
   1.18005E+00  1.21189E+00  1.24403E+00  1.27646E+00  1.30915E+00  1.34211E+00  1.37528E+00  1.40865E+00  1.44218E+00  1.47585E+00
   1.50961E+00  1.54345E+00  1.57729E+00  1.61107E+00  1.64472E+00  1.67816E+00  1.71127E+00  1.74390E+00
 NY background values follow
    -3.029E-01   -2.906E-01   -2.783E-01   -2.661E-01   -2.540E-01   -2.419E-01   -2.299E-01   -2.179E-01   -2.059E-01   -1.940E-01
    -1.822E-01   -1.704E-01   -1.586E-01   -1.469E-01   -1.352E-01   -1.235E-01   -1.119E-01   -1.003E-01   -8.882E-02   -7.733E-02
    -6.588E-02   -5.447E-02   -4.310E-02   -3.176E-02   -2.047E-02   -9.210E-03    2.010E-03    1.319E-02    2.434E-02    3.544E-02
     4.651E-02    5.753E-02    6.852E-02    7.947E-02    9.038E-02    1.012E-01    1.121E-01    1.229E-01    1.336E-01    1.443E-01
     1.549E-01    1.656E-01    1.761E-01    1.866E-01    1.971E-01    2.075E-01    2.179E-01    2.282E-01    2.385E-01    2.487E-01
     2.588E-01    2.689E-01    2.790E-01    2.890E-01    2.989E-01    3.087E-01    3.185E-01    3.283E-01    3.379E-01    3.475E-01
     3.570E-01    3.665E-01    3.759E-01    3.852E-01    3.944E-01    4.035E-01    4.126E-01    4.215E-01    4.304E-01    4.392E-01
     4.479E-01    4.565E-01    4.650E-01    4.734E-01    4.817E-01    4.899E-01    4.980E-01    5.060E-01    5.139E-01    5.216E-01
     5.293E-01    5.368E-01    5.442E-01    5.515E-01    5.586E-01    5.656E-01    5.725E-01    5.792E-01    5.858E-01    5.923E-01
     5.986E-01    6.047E-01    6.107E-01    6.166E-01    6.223E-01    6.278E-01    6.331E-01    6.383E-01    6.433E-01    6.482E-01
     6.528E-01    6.573E-01    6.616E-01    6.657E-01    6.696E-01    6.733E-01    6.769E-01    6.802E-01    6.833E-01    6.862E-01
     6.888E-01    6.913E-01    6.935E-01    6.956E-01    6.973E-01    6.989E-01    7.002E-01    7.013E-01    7.021E-01    7.027E-01
     7.031E-01    7.032E-01    7.030E-01    7.026E-01    7.019E-01    7.009E-01    6.997E-01    6.981E-01    6.964E-01    6.943E-01
     6.920E-01    6.893E-01    6.864E-01    6.833E-01    6.798E-01    6.760E-01    6.720E-01    6.677E-01    6.630E-01    6.581E-01
     6.529E-01    6.474E-01    6.416E-01    6.355E-01    6.292E-01    6.225E-01    6.155E-01    6.082E-01    6.006E-01    5.927E-01
     5.845E-01    5.760E-01    5.673E-01    5.582E-01    5.488E-01    5.391E-01    5.291E-01    5.187E-01    5.081E-01    4.972E-01
     4.860E-01    4.745E-01    4.626E-01    4.505E-01    4.381E-01    4.253E-01    4.123E-01    3.990E-01    3.853E-01    3.714E-01
     3.571E-01    3.426E-01    3.277E-01    3.126E-01    2.972E-01    2.814E-01    2.654E-01    2.491E-01    2.325E-01    2.156E-01
     1.984E-01    1.809E-01    1.631E-01    1.450E-01    1.267E-01    1.081E-01    8.917E-02    6.998E-02    5.052E-02    3.078E-02
     1.076E-02   -9.523E-03   -3.008E-02   -5.091E-02   -7.200E-02   -9.335E-02   -1.150E-01   -1.368E-01   -1.590E-01   -1.814E-01
    -2.040E-01   -2.269E-01   -2.500E-01   -2.734E-01   -2.971E-01   -3.209E-01   -3.450E-01   -3.694E-01   -3.939E-01   -4.187E-01
    -4.437E-01   -4.690E-01   -4.944E-01   -5.201E-01   -5.460E-01   -5.721E-01   -5.984E-01   -6.249E-01   -6.516E-01   -6.785E-01
    -7.056E-01   -7.329E-01   -7.603E-01   -7.880E-01   -8.158E-01   -8.438E-01   -8.720E-01   -9.003E-01   -9.288E-01   -9.575E-01
    -9.863E-01   -1.015E+00   -1.044E+00   -1.074E+00   -1.103E+00   -1.132E+00   -1.162E+00   -1.192E+00   -1.222E+00   -1.252E+00
    -1.282E+00   -1.312E+00   -1.342E+00   -1.373E+00   -1.403E+00   -1.434E+00   -1.465E+00   -1.496E+00   -1.526E+00   -1.557E+00
    -1.588E+00   -1.619E+00   -1.650E+00   -1.682E+00   -1.713E+00   -1.744E+00   -1.775E+00   -1.806E+00   -1.838E+00   -1.869E+00
    -1.900E+00   -1.931E+00   -1.962E+00   -1.994E+00   -2.025E+00   -2.056E+00   -2.087E+00   -2.118E+00   -2.149E+00   -2.179E+00
    -2.210E+00   -2.241E+00   -2.271E+00   -2.302E+00   -2.332E+00   -2.362E+00   -2.392E+00   -2.422E+00   -2.451E+00   -2.481E+00
    -2.510E+00   -2.540E+00   -2.569E+00   -2.598E+00   -2.626E+00   -2.655E+00   -2.683E+00   -2.711E+00   -2.739E+00   -2.766E+00
    -2.794E+00   -2.821E+00   -2.847E+00   -2.874E+00   -2.900E+00   -2.926E+00   -2.952E+00   -2.978E+00   -3.003E+00   -3.027E+00
    -3.052E+00   -3.076E+00   -3.100E+00   -3.124E+00   -3.147E+00   -3.170E+00   -3.192E+00   -3.214E+00   -3.236E+00   -3.258E+00
    -3.279E+00   -3.299E+00   -3.320E+00   -3.339E+00   -3.359E+00   -3.378E+00   -3.397E+00   -3.415E+00   -3.433E+00   -3.450E+00
    -3.467E+00   -3.483E+00   -3.499E+00   -3.515E+00   -3.530E+00   -3.545E+00   -3.559E+00   -3.573E+00   -3.586E+00   -3.599E+00
    -3.611E+00   -3.623E+00   -3.634E+00   -3.645E+00   -3.655E+00   -3.665E+00   -3.674E+00   -3.683E+00   -3.691E+00   -3.699E+00
    -3.706E+00   -3.712E+00   -3.718E+00   -3.724E+00   -3.729E+00   -3.733E+00   -3.737E+00   -3.741E+00   -3.743E+00   -3.746E+00
    -3.747E+00   -3.749E+00   -3.749E+00   -3.749E+00   -3.749E+00   -3.747E+00   -3.746E+00   -3.743E+00   -3.741E+00   -3.737E+00
    -3.733E+00   -3.729E+00   -3.723E+00   -3.718E+00   -3.711E+00   -3.705E+00   -3.697E+00   -3.689E+00   -3.680E+00   -3.671E+00
    -3.661E+00   -3.651E+00   -3.640E+00   -3.629E+00   -3.617E+00   -3.604E+00   -3.591E+00   -3.577E+00   -3.563E+00   -3.548E+00
    -3.532E+00   -3.516E+00   -3.500E+00   -3.483E+00   -3.465E+00   -3.447E+00   -3.428E+00   -3.409E+00   -3.390E+00   -3.369E+00
    -3.349E+00   -3.328E+00   -3.306E+00   -3.284E+00   -3.261E+00   -3.238E+00   -3.215E+00   -3.191E+00   -3.166E+00   -3.141E+00
    -3.116E+00   -3.090E+00   -3.064E+00   -3.037E+00   -3.010E+00   -2.983E+00   -2.955E+00   -2.926E+00   -2.897E+00   -2.868E+00
    -2.839E+00   -2.809E+00   -2.778E+00   -2.748E+00   -2.716E+00   -2.685E+00   -2.653E+00   -2.621E+00   -2.588E+00   -2.555E+00
    -2.522E+00   -2.488E+00   -2.454E+00   -2.420E+00   -2.385E+00   -2.350E+00   -2.315E+00   -2.279E+00   -2.243E+00   -2.207E+00
    -2.170E+00   -2.133E+00   -2.096E+00   -2.058E+00   -2.020E+00   -1.982E+00   -1.944E+00   -1.905E+00   -1.866E+00   -1.827E+00
    -1.787E+00   -1.748E+00   -1.708E+00   -1.667E+00   -1.627E+00   -1.586E+00   -1.545E+00   -1.504E+00   -1.462E+00   -1.420E+00
    -1.378E+00   -1.336E+00   -1.293E+00   -1.251E+00   -1.208E+00   -1.164E+00   -1.121E+00   -1.077E+00   -1.034E+00   -9.896E-01
    -9.453E-01   -9.009E-01   -8.562E-01   -8.114E-01   -7.663E-01   -7.211E-01   -6.757E-01   -6.300E-01   -5.842E-01   -5.382E-01
    -4.921E-01   -4.457E-01   -3.992E-01   -3.524E-01   -3.056E-01   -2.585E-01   -2.113E-01   -1.639E-01   -1.163E-01   -6.854E-02
    -2.064E-02    2.743E-02    7.565E-02    1.240E-01    1.726E-01    2.213E-01    2.702E-01    3.192E-01    3.683E-01    4.177E-01
     4.672E-01    5.168E-01    5.666E-01    6.165E-01    6.666E-01    7.168E-01    7.672E-01    8.177E-01
 Ala      Conc. = 5.76E+01
