 LCModel (Version 6.3-1L) Copyright: S.W. Provencher.          Ref.: Magn. Reson. Med. 30:672-679 (1993).                
 Slice#1 Row#13 Col#2  K_02_press_1_raw_act
 36 lines in following concentration table = NCONC+1
    Conc.  %SD /Cr+PCr  Metabolite                                         
  304.793 154%   0.721 Ala                                                 
   33.470  65% 7.9E-02 Asp                                                 
    0.000 999%   0.000 Cr                                                  
  422.540  13%   1.000 PCr                                                 
   16.277  81% 3.9E-02 GABA                                                
   15.959  83% 3.8E-02 Glc                                                 
    0.000 999%   0.000 Gln                                                 
 4.46E+03  15%  10.560 Glu                                                 
    0.000 999%   0.000 GPC                                                 
   57.281  42%   0.136 PCh                                                 
    0.000 999%   0.000 GSH                                                 
  438.374  65%   1.037 Ins                                                 
   50.200 934%   0.119 Lac                                                 
    0.000 999%   0.000 NAA                                                 
    0.000 999%   0.000 NAAG                                                
    3.549 124% 8.4E-03 Scyllo                                              
   22.341  97% 5.3E-02 Tau                                                 
   38.265 172% 9.1E-02 -CrCH2                                              
   57.281  42%   0.136 GPC+PCh                                             
    0.000 999%   0.000 NAA+NAAG                                            
  422.540  13%   1.000 Cr+PCr                                              
 4.46E+03  15%  10.560 Glu+Gln                                             
  839.860  38%   1.988 Lip13a                                              
    0.000 999%   0.000 Lip13b                                              
  268.589  55%   0.636 Lip09                                               
   70.413 141%   0.167 MM09                                                
    0.000 999%   0.000 Lip20                                               
    0.000 999%   0.000 MM20                                                
   30.274 202% 7.2E-02 MM12                                                
  224.871  81%   0.532 MM14                                                
  416.925  27%   0.987 MM17                                                
  839.860  38%   1.988 Lip13a+Lip13b                                       
 1.10E+03  34%   2.591 MM14+Lip13a+Lip13b+MM12                             
  339.002  37%   0.802 MM09+Lip09                                          
    0.000 999%   0.000 MM20+Lip20                                          
   6 lines in following misc. output table
  FWHM = 0.214 ppm    S/N =   1                                            
  Data shift =-0.130 ppm                                                   
  Ph:  57 deg      56.2 deg/ppm                                            
  alphaB,S = 2.5E+00,   8.1E+01                                            
    7 spline knots.   Ns = 9(2)                                            
  (12) 7 infls.   (13) 3 extrs.                                            
  498 points on ppm-axis = NY
      4.000000     3.992357     3.984714     3.977070     3.969427     3.961784     3.954141     3.946497     3.938854     3.931211
      3.923568     3.915925     3.908281     3.900638     3.892995     3.885352     3.877708     3.870065     3.862422     3.854779
      3.847136     3.839492     3.831849     3.824206     3.816563     3.808919     3.801276     3.793633     3.785990     3.778347
      3.770703     3.763060     3.755417     3.747774     3.740130     3.732487     3.724844     3.717201     3.709558     3.701914
      3.694271     3.686628     3.678985     3.671341     3.663698     3.656055     3.648412     3.640769     3.633125     3.625482
      3.617839     3.610196     3.602552     3.594909     3.587266     3.579623     3.571980     3.564336     3.556693     3.549050
      3.541407     3.533763     3.526120     3.518477     3.510834     3.503191     3.495547     3.487904     3.480261     3.472618
      3.464974     3.457331     3.449688     3.442045     3.434402     3.426758     3.419115     3.411472     3.403829     3.396185
      3.388542     3.380899     3.373256     3.365613     3.357969     3.350326     3.342683     3.335040     3.327396     3.319753
      3.312110     3.304467     3.296824     3.289180     3.281537     3.273894     3.266251     3.258607     3.250964     3.243321
      3.235678     3.228034     3.220391     3.212748     3.205105     3.197462     3.189818     3.182175     3.174532     3.166889
      3.159245     3.151602     3.143959     3.136316     3.128673     3.121029     3.113386     3.105743     3.098100     3.090456
      3.082813     3.075170     3.067527     3.059884     3.052240     3.044597     3.036954     3.029311     3.021667     3.014024
      3.006381     2.998738     2.991095     2.983451     2.975808     2.968165     2.960522     2.952878     2.945235     2.937592
      2.929949     2.922306     2.914662     2.907019     2.899376     2.891733     2.884089     2.876446     2.868803     2.861160
      2.853517     2.845873     2.838230     2.830587     2.822944     2.815300     2.807657     2.800014     2.792371     2.784728
      2.777084     2.769441     2.761798     2.754155     2.746511     2.738868     2.731225     2.723582     2.715939     2.708295
      2.700652     2.693009     2.685366     2.677722     2.670079     2.662436     2.654793     2.647150     2.639506     2.631863
      2.624220     2.616577     2.608933     2.601290     2.593647     2.586004     2.578361     2.570717     2.563074     2.555431
      2.547788     2.540144     2.532501     2.524858     2.517215     2.509572     2.501928     2.494285     2.486642     2.478999
      2.471355     2.463712     2.456069     2.448426     2.440783     2.433139     2.425496     2.417853     2.410210     2.402566
      2.394923     2.387280     2.379637     2.371994     2.364350     2.356707     2.349064     2.341421     2.333777     2.326134
      2.318491     2.310848     2.303205     2.295561     2.287918     2.280275     2.272632     2.264988     2.257345     2.249702
      2.242059     2.234416     2.226772     2.219129     2.211486     2.203843     2.196199     2.188556     2.180913     2.173270
      2.165627     2.157983     2.150340     2.142697     2.135054     2.127410     2.119767     2.112124     2.104481     2.096838
      2.089194     2.081551     2.073908     2.066265     2.058621     2.050978     2.043335     2.035692     2.028049     2.020405
      2.012762     2.005119     1.997476     1.989833     1.982190     1.974546     1.966903     1.959260     1.951617     1.943974
      1.936331     1.928688     1.921045     1.913402     1.905759     1.898115     1.890472     1.882829     1.875186     1.867543
      1.859900     1.852257     1.844614     1.836971     1.829327     1.821684     1.814041     1.806398     1.798755     1.791112
      1.783469     1.775826     1.768183     1.760540     1.752896     1.745253     1.737610     1.729967     1.722324     1.714681
      1.707038     1.699395     1.691752     1.684108     1.676465     1.668822     1.661179     1.653536     1.645893     1.638250
      1.630607     1.622964     1.615321     1.607677     1.600034     1.592391     1.584748     1.577105     1.569462     1.561819
      1.554176     1.546533     1.538890     1.531246     1.523603     1.515960     1.508317     1.500674     1.493031     1.485388
      1.477745     1.470102     1.462458     1.454815     1.447172     1.439529     1.431886     1.424243     1.416600     1.408957
      1.401314     1.393671     1.386027     1.378384     1.370741     1.363098     1.355455     1.347812     1.340169     1.332526
      1.324883     1.317240     1.309596     1.301953     1.294310     1.286667     1.279024     1.271381     1.263738     1.256095
      1.248452     1.240808     1.233165     1.225522     1.217879     1.210236     1.202593     1.194950     1.187307     1.179664
      1.172021     1.164377     1.156734     1.149091     1.141448     1.133805     1.126162     1.118519     1.110876     1.103233
      1.095590     1.087946     1.080303     1.072660     1.065017     1.057374     1.049731     1.042088     1.034445     1.026802
      1.019158     1.011515     1.003872     0.996229     0.988586     0.980943     0.973300     0.965657     0.958014     0.950371
      0.942727     0.935084     0.927441     0.919798     0.912155     0.904512     0.896869     0.889226     0.881583     0.873940
      0.866296     0.858653     0.851010     0.843367     0.835724     0.828081     0.820438     0.812795     0.805152     0.797508
      0.789865     0.782222     0.774579     0.766936     0.759293     0.751650     0.744007     0.736364     0.728721     0.721077
      0.713434     0.705791     0.698148     0.690505     0.682862     0.675219     0.667576     0.659933     0.652290     0.644646
      0.637003     0.629360     0.621717     0.614074     0.606431     0.598788     0.591145     0.583502     0.575858     0.568215
      0.560572     0.552929     0.545286     0.537643     0.530000     0.522357     0.514714     0.507071     0.499427     0.491784
      0.484141     0.476498     0.468855     0.461212     0.453569     0.445925     0.438282     0.430639     0.422996     0.415353
      0.407710     0.400067     0.392424     0.384780     0.377137     0.369494     0.361851     0.354208     0.346565     0.338922
      0.331278     0.323635     0.315992     0.308349     0.300706     0.293063     0.285420     0.277777     0.270133     0.262490
      0.254847     0.247204     0.239561     0.231918     0.224275     0.216631     0.208988     0.201345
 NY phased data points follow
  -3.41948E+01 -3.56386E+01 -3.55296E+01 -3.35123E+01 -3.33310E+01 -3.45241E+01 -3.54417E+01 -3.60078E+01 -3.53462E+01 -3.32416E+01
  -3.42478E+01 -3.31675E+01 -3.29661E+01 -3.36989E+01 -3.29348E+01 -3.21115E+01 -3.30097E+01 -3.36781E+01 -3.51830E+01 -3.42574E+01
  -3.28676E+01 -3.40542E+01 -3.06291E+01 -3.12003E+01 -3.22740E+01 -3.14984E+01 -2.97561E+01 -3.15103E+01 -3.02665E+01 -3.05827E+01
  -3.25178E+01 -3.23058E+01 -3.18741E+01 -3.19502E+01 -3.26045E+01 -3.14613E+01 -3.09657E+01 -3.01338E+01 -2.82389E+01 -2.98891E+01
  -2.90526E+01 -3.01493E+01 -2.91248E+01 -3.01694E+01 -2.79782E+01 -2.91478E+01 -3.05429E+01 -2.82525E+01 -2.97733E+01 -2.73342E+01
  -2.93908E+01 -3.05492E+01 -2.86077E+01 -2.74272E+01 -2.88827E+01 -2.80139E+01 -2.97677E+01 -2.63538E+01 -2.75339E+01 -2.57147E+01
  -3.06971E+01 -2.68811E+01 -2.89912E+01 -3.09449E+01 -2.93584E+01 -2.57227E+01 -2.93191E+01 -2.93636E+01 -2.79574E+01 -3.00623E+01
  -2.90427E+01 -2.90948E+01 -2.90779E+01 -2.86762E+01 -2.90028E+01 -2.88816E+01 -3.02414E+01 -3.00953E+01 -2.81011E+01 -2.73694E+01
  -3.00740E+01 -2.82471E+01 -2.70339E+01 -2.84083E+01 -2.68424E+01 -2.69721E+01 -2.54813E+01 -2.56325E+01 -2.39502E+01 -2.70283E+01
  -2.51920E+01 -2.51234E+01 -2.51963E+01 -2.45601E+01 -2.51044E+01 -2.55811E+01 -2.36382E+01 -2.43078E+01 -2.38668E+01 -2.46230E+01
  -2.33122E+01 -2.63059E+01 -2.24569E+01 -2.41920E+01 -2.19964E+01 -2.16244E+01 -2.07525E+01 -2.01855E+01 -2.06412E+01 -2.06065E+01
  -1.85897E+01 -1.97059E+01 -1.90817E+01 -1.98342E+01 -1.75820E+01 -1.85582E+01 -1.63790E+01 -1.86566E+01 -1.71947E+01 -1.92644E+01
  -1.96202E+01 -1.93095E+01 -2.08030E+01 -2.07618E+01 -1.96612E+01 -1.95126E+01 -1.83774E+01 -1.87968E+01 -1.76531E+01 -1.85461E+01
  -1.89648E+01 -1.86647E+01 -1.73134E+01 -1.83670E+01 -1.82796E+01 -1.96054E+01 -1.69465E+01 -1.89446E+01 -1.92292E+01 -1.69174E+01
  -1.98717E+01 -1.96167E+01 -2.09352E+01 -2.23633E+01 -2.05343E+01 -2.41620E+01 -2.30451E+01 -2.36998E+01 -2.43804E+01 -2.01702E+01
  -2.36517E+01 -2.35757E+01 -2.26011E+01 -1.98633E+01 -2.26456E+01 -2.34750E+01 -1.90330E+01 -1.93754E+01 -2.19834E+01 -2.02778E+01
  -1.95600E+01 -2.11923E+01 -2.10586E+01 -2.23232E+01 -2.13085E+01 -1.71455E+01 -1.92757E+01 -1.84509E+01 -1.81575E+01 -1.91435E+01
  -1.85431E+01 -1.81487E+01 -1.82515E+01 -1.86628E+01 -1.55353E+01 -1.57028E+01 -1.70756E+01 -1.75281E+01 -1.64172E+01 -1.73763E+01
  -1.49267E+01 -1.53628E+01 -1.56365E+01 -1.66708E+01 -1.49950E+01 -1.58190E+01 -1.30287E+01 -1.48534E+01 -1.31885E+01 -1.55250E+01
  -1.30882E+01 -1.14810E+01 -1.45517E+01 -1.44160E+01 -1.36942E+01 -1.32026E+01 -1.83423E+01 -1.73163E+01 -1.65505E+01 -1.78672E+01
  -1.77677E+01 -1.61133E+01 -1.82282E+01 -1.76433E+01 -1.81877E+01 -2.08337E+01 -2.20164E+01 -2.18402E+01 -2.13893E+01 -1.96154E+01
  -2.13848E+01 -2.19787E+01 -2.20359E+01 -2.25206E+01 -2.35466E+01 -2.21403E+01 -2.13290E+01 -2.26644E+01 -1.88729E+01 -2.14855E+01
  -2.22147E+01 -2.01148E+01 -2.19142E+01 -1.93325E+01 -2.19715E+01 -2.27231E+01 -2.17851E+01 -1.81584E+01 -1.87764E+01 -2.07532E+01
  -2.06733E+01 -1.63797E+01 -2.21170E+01 -2.09461E+01 -1.72621E+01 -1.98783E+01 -1.99962E+01 -2.09637E+01 -1.81789E+01 -1.77264E+01
  -2.03255E+01 -1.84312E+01 -1.69995E+01 -1.52829E+01 -1.56510E+01 -1.86052E+01 -1.85856E+01 -1.80202E+01 -1.82570E+01 -1.74793E+01
  -1.51481E+01 -1.72690E+01 -1.51190E+01 -1.54703E+01 -1.58350E+01 -1.34009E+01 -1.43828E+01 -1.58321E+01 -1.70815E+01 -1.38936E+01
  -1.62318E+01 -1.29561E+01 -1.40662E+01 -1.32666E+01 -1.41643E+01 -1.33718E+01 -1.06126E+01 -1.11532E+01 -1.16421E+01 -1.28570E+01
  -1.14041E+01 -1.61339E+01 -1.38921E+01 -1.17152E+01 -1.29938E+01 -1.27986E+01 -1.26932E+01 -1.33414E+01 -1.20987E+01 -1.49754E+01
  -1.37328E+01 -1.21944E+01 -1.21056E+01 -9.39142E+00 -1.01072E+01 -9.26277E+00 -1.04141E+01 -1.12707E+01 -8.44220E+00 -9.05024E+00
  -9.49749E+00 -8.30971E+00 -8.40688E+00 -9.13090E+00 -8.55440E+00 -8.78224E+00 -8.81661E+00 -5.99172E+00 -6.33849E+00 -6.09624E+00
  -6.69372E+00 -7.58095E+00 -4.37598E+00 -7.94166E+00 -4.66830E+00 -4.73115E+00 -4.90521E+00 -3.55962E+00 -7.05607E+00 -7.31418E+00
  -7.19587E+00 -3.36270E+00 -6.43471E+00 -4.84525E+00 -5.60864E+00 -5.93422E+00 -3.77047E+00 -5.03539E+00 -4.80558E+00 -4.96270E+00
  -4.12100E+00 -5.05334E+00 -6.81335E+00 -4.81196E+00 -5.68611E+00 -3.58652E+00 -5.92538E+00 -5.39515E+00 -4.81671E+00 -2.75163E+00
  -4.12405E+00 -4.01781E+00 -4.91822E+00 -4.80491E+00 -4.18994E+00 -2.17846E+00 -7.67048E-01 -2.24619E+00 -1.02405E+00 -1.31222E+00
  -2.12933E+00 -3.53185E+00 -1.90941E+00 -1.43760E+00 -1.66385E+00 -2.19722E+00  2.80552E+00 -8.13621E-01 -1.59483E+00 -1.68100E+00
   4.41450E-01  2.61638E+00  1.19518E+00  1.38689E+00 -1.24911E+00  8.59712E-02 -7.49661E-01  1.59966E+00  9.72968E-01  2.22124E+00
   1.70211E-03  2.44383E-01  7.25582E-01  3.15572E-02  4.05811E-01  3.24477E+00  4.80663E-01  1.82127E-02  4.00511E+00  2.90396E+00
   1.87250E+00  1.87976E+00  1.62041E+00 -1.55792E-02 -1.29505E-01 -1.73895E-01  1.84507E+00  1.69508E+00  1.59959E+00  1.69496E+00
   2.05563E+00  2.97303E+00  9.19575E-01  2.34595E+00  2.29049E+00  2.14035E+00  3.12617E+00  2.41283E+00  1.80405E+00  3.06139E+00
   2.06944E+00  3.76146E+00  1.73426E+00  1.70261E-01  1.80482E+00  4.85411E+00  1.95950E+00  5.21926E+00  2.91356E+00  4.31641E+00
   4.19513E+00  2.94762E+00  4.04702E+00  2.94944E+00  3.71800E+00  4.54523E+00  6.14912E+00  5.32916E+00  4.11945E+00  5.24940E+00
   1.92063E+00  4.85298E+00  2.21397E+00  4.81519E+00  2.26860E+00  4.44843E+00  2.42120E+00  6.39180E+00  4.50298E+00  4.19055E+00
   2.39513E+00  5.79448E+00  5.82885E+00  6.16627E+00  7.41365E+00  5.74539E+00  2.92635E+00  7.85986E+00  5.76479E+00  6.06436E+00
   7.52742E+00  4.45606E+00  7.35010E+00  6.05423E+00  6.18264E+00  7.23054E+00  4.77885E+00  6.28256E+00  5.33912E+00  7.72461E+00
   6.71742E+00  7.12229E+00  5.60786E+00  6.97271E+00  6.11985E+00  7.99038E+00  6.15339E+00  6.70477E+00  5.95189E+00  6.44066E+00
   5.79407E+00  6.26189E+00  6.66936E+00  6.14393E+00  7.48659E+00  4.96949E+00  4.27451E+00  5.70412E+00  5.16354E+00  4.02876E+00
   4.71750E+00  7.57910E+00  3.75558E+00  5.23249E+00  6.39388E+00  6.55228E+00  3.84381E+00  4.38004E+00  3.71876E+00  7.02555E+00
   6.22060E+00  5.94597E+00  4.90939E+00  6.72095E+00  5.91093E+00  7.25273E+00  8.16127E+00  6.74477E+00  6.53387E+00  7.45801E+00
   5.88982E+00  6.77439E+00  7.70238E+00  5.92741E+00  4.39672E+00  6.33408E+00  8.13455E+00  7.35529E+00  7.85843E+00  8.58393E+00
   7.46700E+00  5.97832E+00  5.07745E+00  6.56796E+00  3.77040E+00  7.20857E+00  7.76644E+00  8.63353E+00
 NY points of the fit to the data follow
  -3.53196E+01 -3.53399E+01 -3.50551E+01 -3.50782E+01 -3.48329E+01 -3.47994E+01 -3.44833E+01 -3.42858E+01 -3.38026E+01 -3.36718E+01
  -3.37391E+01 -3.37059E+01 -3.40754E+01 -3.38818E+01 -3.39834E+01 -3.32204E+01 -3.32605E+01 -3.24276E+01 -3.28190E+01 -3.21142E+01
  -3.28834E+01 -3.22292E+01 -3.26716E+01 -3.19409E+01 -3.24158E+01 -3.17496E+01 -3.21933E+01 -3.16640E+01 -3.20623E+01 -3.14836E+01
  -3.17749E+01 -3.12444E+01 -3.13833E+01 -3.08313E+01 -3.08230E+01 -3.02215E+01 -3.01752E+01 -2.98149E+01 -3.00244E+01 -2.98886E+01
  -3.01635E+01 -3.01282E+01 -3.01881E+01 -3.00130E+01 -2.97827E+01 -2.96383E+01 -2.94111E+01 -2.93509E+01 -2.92480E+01 -2.93659E+01
  -2.93741E+01 -2.94751E+01 -2.94066E+01 -2.94291E+01 -2.92659E+01 -2.91632E+01 -2.90265E+01 -2.88962E+01 -2.87818E+01 -2.86505E+01
  -2.86492E+01 -2.85644E+01 -2.85403E+01 -2.84694E+01 -2.84297E+01 -2.83362E+01 -2.82631E+01 -2.81690E+01 -2.80856E+01 -2.79820E+01
  -2.78964E+01 -2.78007E+01 -2.77177E+01 -2.76295E+01 -2.75397E+01 -2.74772E+01 -2.73870E+01 -2.73248E+01 -2.71995E+01 -2.71477E+01
  -2.70168E+01 -2.69535E+01 -2.68059E+01 -2.67343E+01 -2.65415E+01 -2.62761E+01 -2.58546E+01 -2.57457E+01 -2.53120E+01 -2.53153E+01
  -2.48510E+01 -2.48861E+01 -2.43555E+01 -2.44750E+01 -2.39330E+01 -2.41249E+01 -2.35976E+01 -2.38551E+01 -2.33716E+01 -2.36656E+01
  -2.32304E+01 -2.35030E+01 -2.30820E+01 -2.32934E+01 -2.28516E+01 -2.30095E+01 -2.25084E+01 -2.24417E+01 -2.12326E+01 -2.13082E+01
  -2.02091E+01 -2.04935E+01 -1.94764E+01 -1.97788E+01 -1.86346E+01 -1.90777E+01 -1.80575E+01 -1.86541E+01 -1.78068E+01 -1.85339E+01
  -1.79138E+01 -1.86125E+01 -1.81254E+01 -1.87736E+01 -1.83404E+01 -1.88416E+01 -1.83122E+01 -1.87523E+01 -1.81553E+01 -1.86737E+01
  -1.82969E+01 -1.88222E+01 -1.85268E+01 -1.90594E+01 -1.89352E+01 -1.93691E+01 -1.91894E+01 -1.95691E+01 -1.94488E+01 -1.98150E+01
  -1.98258E+01 -2.01943E+01 -2.04102E+01 -2.06409E+01 -2.07737E+01 -2.09140E+01 -2.10686E+01 -2.10722E+01 -2.10490E+01 -2.10089E+01
  -2.09760E+01 -2.09295E+01 -2.08953E+01 -2.08473E+01 -2.08139E+01 -2.07652E+01 -2.07311E+01 -2.06802E+01 -2.06466E+01 -2.05984E+01
  -2.05684E+01 -2.05230E+01 -2.04967E+01 -2.04537E+01 -2.04270E+01 -2.03857E+01 -2.03564E+01 -2.03131E+01 -2.02842E+01 -2.02432E+01
  -2.02108E+01 -2.01693E+01 -2.01334E+01 -2.00926E+01 -2.00562E+01 -2.00169E+01 -1.99726E+01 -1.99300E+01 -1.98804E+01 -1.98304E+01
  -1.97656E+01 -1.97001E+01 -1.96279E+01 -1.95494E+01 -1.94575E+01 -1.93441E+01 -1.92038E+01 -1.90111E+01 -1.87899E+01 -1.87394E+01
  -1.85864E+01 -1.85704E+01 -1.88279E+01 -1.87997E+01 -1.91721E+01 -1.89685E+01 -1.90442E+01 -1.82515E+01 -1.72773E+01 -1.67281E+01
  -1.61054E+01 -1.59852E+01 -1.56717E+01 -1.61834E+01 -1.66447E+01 -1.78728E+01 -1.79941E+01 -1.88495E+01 -1.89656E+01 -1.96700E+01
  -2.00331E+01 -2.05646E+01 -2.08556E+01 -2.10486E+01 -2.10888E+01 -2.07858E+01 -2.03917E+01 -1.98205E+01 -1.91898E+01 -1.88000E+01
  -1.86959E+01 -1.85419E+01 -1.89289E+01 -1.90753E+01 -1.96341E+01 -1.97967E+01 -1.94720E+01 -1.91855E+01 -1.86902E+01 -1.86118E+01
  -1.79909E+01 -1.82321E+01 -1.82070E+01 -1.87437E+01 -1.84576E+01 -1.86653E+01 -1.79902E+01 -1.77645E+01 -1.66887E+01 -1.64996E+01
  -1.60551E+01 -1.61985E+01 -1.58258E+01 -1.60331E+01 -1.58826E+01 -1.61444E+01 -1.57950E+01 -1.58835E+01 -1.55631E+01 -1.54623E+01
  -1.52570E+01 -1.50745E+01 -1.50531E+01 -1.49506E+01 -1.50201E+01 -1.46885E+01 -1.47179E+01 -1.42345E+01 -1.43447E+01 -1.37491E+01
  -1.40439E+01 -1.34686E+01 -1.37979E+01 -1.31697E+01 -1.34962E+01 -1.29149E+01 -1.30732E+01 -1.24771E+01 -1.27107E+01 -1.22466E+01
  -1.24495E+01 -1.20597E+01 -1.22527E+01 -1.19465E+01 -1.20257E+01 -1.17615E+01 -1.18094E+01 -1.16003E+01 -1.16131E+01 -1.14338E+01
  -1.14795E+01 -1.13284E+01 -1.12974E+01 -1.11535E+01 -1.10432E+01 -1.08515E+01 -1.06413E+01 -1.04462E+01 -1.01958E+01 -9.97933E+00
  -9.72882E+00 -9.49662E+00 -9.21791E+00 -8.96748E+00 -8.68215E+00 -8.40269E+00 -8.08881E+00 -7.78817E+00 -7.48506E+00 -7.19969E+00
  -6.92599E+00 -6.67572E+00 -6.45537E+00 -6.26054E+00 -6.09336E+00 -5.94826E+00 -5.82274E+00 -5.69809E+00 -5.53811E+00 -5.32144E+00
  -5.37765E+00 -5.33156E+00 -5.48816E+00 -5.50636E+00 -5.71144E+00 -5.76811E+00 -6.07499E+00 -5.96236E+00 -6.07481E+00 -5.94353E+00
  -5.97694E+00 -5.84409E+00 -5.80144E+00 -5.60070E+00 -5.42207E+00 -5.17902E+00 -4.91782E+00 -4.64800E+00 -4.35159E+00 -4.08112E+00
  -3.86294E+00 -3.71490E+00 -3.51757E+00 -3.39378E+00 -3.21453E+00 -3.09865E+00 -2.86747E+00 -2.63789E+00 -2.35257E+00 -2.17255E+00
  -1.92058E+00 -1.77280E+00 -1.52288E+00 -1.41762E+00 -1.14190E+00 -9.52274E-01 -6.56475E-01 -4.53493E-01 -1.33379E-01  8.38789E-02
   3.30135E-01  4.35365E-01  5.74994E-01  6.64638E-01  7.63050E-01  8.13755E-01  8.59766E-01  9.47205E-01  9.98793E-01  1.06317E+00
   1.09294E+00  1.13095E+00  1.14071E+00  1.14813E+00  1.14763E+00  1.15568E+00  1.14881E+00  1.15037E+00  1.14520E+00  1.14890E+00
   1.14054E+00  1.13003E+00  1.12186E+00  1.11882E+00  1.12144E+00  1.12520E+00  1.14046E+00  1.16696E+00  1.20185E+00  1.24661E+00
   1.29933E+00  1.36176E+00  1.43202E+00  1.51184E+00  1.59931E+00  1.69611E+00  1.80026E+00  1.91334E+00  2.03324E+00  2.16140E+00
   2.29552E+00  2.43682E+00  2.58273E+00  2.73417E+00  2.88826E+00  3.04564E+00  3.20312E+00  3.36107E+00  3.51610E+00  3.66842E+00
   3.81461E+00  3.95494E+00  4.08612E+00  4.20870E+00  4.31976E+00  4.42031E+00  4.50796E+00  4.58430E+00  4.64755E+00  4.69989E+00
   4.74011E+00  4.77088E+00  4.79145E+00  4.80483E+00  4.81050E+00  4.81164E+00  4.80774E+00  4.80193E+00  4.79361E+00  4.78571E+00
   4.77736E+00  4.77124E+00  4.76620E+00  4.76461E+00  4.76504E+00  4.76962E+00  4.77665E+00  4.78805E+00  4.80194E+00  4.82011E+00
   4.84056E+00  4.86497E+00  4.89128E+00  4.92113E+00  4.95244E+00  4.98685E+00  5.02227E+00  5.06035E+00  5.09902E+00  5.13997E+00
   5.18115E+00  5.22426E+00  5.26729E+00  5.31198E+00  5.35632E+00  5.40209E+00  5.44730E+00  5.49376E+00  5.53950E+00  5.58632E+00
   5.63229E+00  5.67922E+00  5.72519E+00  5.77203E+00  5.81782E+00  5.86440E+00  5.90985E+00  5.95605E+00  6.00107E+00  6.04677E+00
   6.09125E+00  6.13637E+00  6.18024E+00  6.22472E+00  6.26791E+00  6.31169E+00  6.35417E+00  6.39721E+00  6.43893E+00  6.48119E+00
   6.52212E+00  6.56359E+00  6.60370E+00  6.64434E+00  6.68363E+00  6.72344E+00  6.76188E+00  6.80084E+00  6.83844E+00  6.87654E+00
   6.91329E+00  6.95055E+00  6.98644E+00  7.02284E+00  7.05788E+00  7.09345E+00  7.12765E+00  7.16239E+00  7.19578E+00  7.22971E+00
   7.26229E+00  7.29545E+00  7.32729E+00  7.35973E+00  7.39089E+00  7.42270E+00  7.45332E+00  7.48470E+00
 NY background values follow
    -3.929E+01   -3.916E+01   -3.902E+01   -3.889E+01   -3.875E+01   -3.862E+01   -3.848E+01   -3.834E+01   -3.820E+01   -3.806E+01
    -3.792E+01   -3.778E+01   -3.763E+01   -3.749E+01   -3.734E+01   -3.720E+01   -3.705E+01   -3.691E+01   -3.676E+01   -3.661E+01
    -3.646E+01   -3.631E+01   -3.617E+01   -3.601E+01   -3.586E+01   -3.571E+01   -3.556E+01   -3.541E+01   -3.526E+01   -3.510E+01
    -3.495E+01   -3.480E+01   -3.464E+01   -3.449E+01   -3.433E+01   -3.418E+01   -3.402E+01   -3.387E+01   -3.371E+01   -3.356E+01
    -3.340E+01   -3.324E+01   -3.309E+01   -3.293E+01   -3.278E+01   -3.262E+01   -3.246E+01   -3.231E+01   -3.215E+01   -3.199E+01
    -3.184E+01   -3.168E+01   -3.153E+01   -3.137E+01   -3.121E+01   -3.106E+01   -3.090E+01   -3.075E+01   -3.059E+01   -3.044E+01
    -3.029E+01   -3.013E+01   -2.998E+01   -2.983E+01   -2.967E+01   -2.952E+01   -2.937E+01   -2.922E+01   -2.907E+01   -2.892E+01
    -2.877E+01   -2.862E+01   -2.847E+01   -2.832E+01   -2.817E+01   -2.803E+01   -2.788E+01   -2.773E+01   -2.759E+01   -2.745E+01
    -2.730E+01   -2.716E+01   -2.702E+01   -2.688E+01   -2.674E+01   -2.660E+01   -2.646E+01   -2.632E+01   -2.619E+01   -2.605E+01
    -2.592E+01   -2.579E+01   -2.565E+01   -2.552E+01   -2.539E+01   -2.526E+01   -2.514E+01   -2.501E+01   -2.488E+01   -2.476E+01
    -2.464E+01   -2.451E+01   -2.439E+01   -2.428E+01   -2.416E+01   -2.404E+01   -2.393E+01   -2.381E+01   -2.370E+01   -2.359E+01
    -2.348E+01   -2.337E+01   -2.327E+01   -2.316E+01   -2.306E+01   -2.296E+01   -2.286E+01   -2.276E+01   -2.266E+01   -2.256E+01
    -2.247E+01   -2.238E+01   -2.229E+01   -2.220E+01   -2.211E+01   -2.203E+01   -2.195E+01   -2.187E+01   -2.179E+01   -2.171E+01
    -2.163E+01   -2.156E+01   -2.149E+01   -2.141E+01   -2.134E+01   -2.128E+01   -2.121E+01   -2.114E+01   -2.108E+01   -2.102E+01
    -2.096E+01   -2.090E+01   -2.084E+01   -2.078E+01   -2.073E+01   -2.067E+01   -2.062E+01   -2.057E+01   -2.052E+01   -2.047E+01
    -2.042E+01   -2.037E+01   -2.033E+01   -2.028E+01   -2.024E+01   -2.020E+01   -2.015E+01   -2.011E+01   -2.007E+01   -2.003E+01
    -2.000E+01   -1.996E+01   -1.992E+01   -1.988E+01   -1.985E+01   -1.981E+01   -1.978E+01   -1.975E+01   -1.971E+01   -1.968E+01
    -1.965E+01   -1.962E+01   -1.959E+01   -1.956E+01   -1.953E+01   -1.950E+01   -1.947E+01   -1.944E+01   -1.942E+01   -1.939E+01
    -1.936E+01   -1.933E+01   -1.931E+01   -1.928E+01   -1.925E+01   -1.923E+01   -1.920E+01   -1.918E+01   -1.915E+01   -1.912E+01
    -1.910E+01   -1.907E+01   -1.905E+01   -1.902E+01   -1.899E+01   -1.897E+01   -1.894E+01   -1.891E+01   -1.889E+01   -1.886E+01
    -1.883E+01   -1.881E+01   -1.878E+01   -1.875E+01   -1.872E+01   -1.869E+01   -1.866E+01   -1.863E+01   -1.860E+01   -1.857E+01
    -1.854E+01   -1.851E+01   -1.848E+01   -1.844E+01   -1.841E+01   -1.837E+01   -1.834E+01   -1.830E+01   -1.827E+01   -1.823E+01
    -1.819E+01   -1.815E+01   -1.811E+01   -1.807E+01   -1.803E+01   -1.799E+01   -1.794E+01   -1.790E+01   -1.785E+01   -1.781E+01
    -1.776E+01   -1.771E+01   -1.766E+01   -1.761E+01   -1.756E+01   -1.750E+01   -1.745E+01   -1.739E+01   -1.733E+01   -1.727E+01
    -1.721E+01   -1.715E+01   -1.709E+01   -1.702E+01   -1.696E+01   -1.689E+01   -1.682E+01   -1.675E+01   -1.668E+01   -1.660E+01
    -1.653E+01   -1.645E+01   -1.637E+01   -1.629E+01   -1.621E+01   -1.613E+01   -1.604E+01   -1.596E+01   -1.587E+01   -1.578E+01
    -1.569E+01   -1.560E+01   -1.550E+01   -1.541E+01   -1.531E+01   -1.522E+01   -1.512E+01   -1.502E+01   -1.492E+01   -1.482E+01
    -1.471E+01   -1.461E+01   -1.450E+01   -1.439E+01   -1.429E+01   -1.418E+01   -1.407E+01   -1.395E+01   -1.384E+01   -1.373E+01
    -1.361E+01   -1.350E+01   -1.338E+01   -1.326E+01   -1.315E+01   -1.303E+01   -1.291E+01   -1.279E+01   -1.266E+01   -1.254E+01
    -1.242E+01   -1.229E+01   -1.217E+01   -1.204E+01   -1.192E+01   -1.179E+01   -1.166E+01   -1.153E+01   -1.140E+01   -1.127E+01
    -1.114E+01   -1.101E+01   -1.088E+01   -1.075E+01   -1.062E+01   -1.048E+01   -1.035E+01   -1.022E+01   -1.008E+01   -9.949E+00
    -9.813E+00   -9.678E+00   -9.542E+00   -9.406E+00   -9.269E+00   -9.133E+00   -8.996E+00   -8.858E+00   -8.721E+00   -8.583E+00
    -8.445E+00   -8.307E+00   -8.169E+00   -8.031E+00   -7.892E+00   -7.754E+00   -7.615E+00   -7.477E+00   -7.338E+00   -7.199E+00
    -7.061E+00   -6.922E+00   -6.784E+00   -6.645E+00   -6.507E+00   -6.369E+00   -6.230E+00   -6.093E+00   -5.955E+00   -5.817E+00
    -5.680E+00   -5.543E+00   -5.406E+00   -5.270E+00   -5.133E+00   -4.998E+00   -4.862E+00   -4.727E+00   -4.592E+00   -4.458E+00
    -4.324E+00   -4.190E+00   -4.057E+00   -3.925E+00   -3.793E+00   -3.661E+00   -3.530E+00   -3.400E+00   -3.270E+00   -3.141E+00
    -3.013E+00   -2.885E+00   -2.758E+00   -2.631E+00   -2.505E+00   -2.380E+00   -2.256E+00   -2.133E+00   -2.010E+00   -1.888E+00
    -1.767E+00   -1.647E+00   -1.528E+00   -1.409E+00   -1.292E+00   -1.175E+00   -1.059E+00   -9.447E-01   -8.309E-01   -7.179E-01
    -6.058E-01   -4.946E-01   -3.844E-01   -2.749E-01   -1.664E-01   -5.877E-02    4.801E-02    1.539E-01    2.590E-01    3.632E-01
     4.665E-01    5.689E-01    6.706E-01    7.713E-01    8.713E-01    9.704E-01    1.069E+00    1.166E+00    1.263E+00    1.358E+00
     1.453E+00    1.547E+00    1.641E+00    1.733E+00    1.825E+00    1.916E+00    2.006E+00    2.095E+00    2.184E+00    2.271E+00
     2.358E+00    2.444E+00    2.530E+00    2.614E+00    2.698E+00    2.781E+00    2.863E+00    2.945E+00    3.026E+00    3.106E+00
     3.185E+00    3.263E+00    3.341E+00    3.418E+00    3.494E+00    3.570E+00    3.645E+00    3.719E+00    3.792E+00    3.865E+00
     3.937E+00    4.008E+00    4.078E+00    4.148E+00    4.217E+00    4.285E+00    4.353E+00    4.420E+00    4.486E+00    4.552E+00
     4.617E+00    4.681E+00    4.745E+00    4.808E+00    4.870E+00    4.932E+00    4.993E+00    5.053E+00    5.112E+00    5.171E+00
     5.230E+00    5.287E+00    5.344E+00    5.401E+00    5.457E+00    5.512E+00    5.566E+00    5.620E+00    5.674E+00    5.726E+00
     5.778E+00    5.830E+00    5.881E+00    5.931E+00    5.981E+00    6.030E+00    6.078E+00    6.126E+00    6.173E+00    6.220E+00
     6.266E+00    6.312E+00    6.357E+00    6.401E+00    6.445E+00    6.489E+00    6.531E+00    6.574E+00    6.615E+00    6.657E+00
     6.697E+00    6.737E+00    6.777E+00    6.816E+00    6.854E+00    6.892E+00    6.930E+00    6.967E+00    7.003E+00    7.039E+00
     7.075E+00    7.110E+00    7.144E+00    7.178E+00    7.211E+00    7.244E+00    7.277E+00    7.309E+00
 Ala      Conc. = 3.05E+02
