 LCModel (Version 6.3-1L) Copyright: S.W. Provencher.          Ref.: Magn. Reson. Med. 30:672-679 (1993).                
 Slice#2 Row#7 Col#3  K_02_press_1_raw_act
 36 lines in following concentration table = NCONC+1
    Conc.  %SD /Cr+PCr  Metabolite                                         
    0.000 999%   0.000 Ala                                                 
    0.000 999%   0.000 Asp                                                 
    0.000 999%   0.000 Cr                                                  
 2.05E+03   4%   1.000 PCr                                                 
  371.006  56%   0.181 GABA                                                
   54.714 367% 2.7E-02 Glc                                                 
 1.11E+03  45%   0.538 Gln                                                 
 2.15E+03  27%   1.046 Glu                                                 
  721.953   5%   0.351 GPC                                                 
    0.000 999%   0.000 PCh                                                 
  596.680  20%   0.291 GSH                                                 
 1.61E+03  26%   0.783 Ins                                                 
  439.742  50%   0.214 Lac                                                 
 2.85E+03   8%   1.386 NAA                                                 
  530.920  44%   0.258 NAAG                                                
  249.795  17%   0.122 Scyllo                                              
  430.545  64%   0.210 Tau                                                 
  277.724  58%   0.135 -CrCH2                                              
  721.953   5%   0.351 GPC+PCh                                             
 3.38E+03   3%   1.645 NAA+NAAG                                            
 2.05E+03   4%   1.000 Cr+PCr                                              
 3.25E+03  29%   1.585 Glu+Gln                                             
    0.000 999%   0.000 Lip13a                                              
    0.000 999%   0.000 Lip13b                                              
    0.000 999%   0.000 Lip09                                               
  616.085  29%   0.300 MM09                                                
   29.867 219% 1.5E-02 Lip20                                               
 1.42E+03  21%   0.690 MM20                                                
  183.082  43% 8.9E-02 MM12                                                
  302.713  72%   0.147 MM14                                                
  319.434  47%   0.156 MM17                                                
    0.000 999%   0.000 Lip13a+Lip13b                                       
  485.795  54%   0.237 MM14+Lip13a+Lip13b+MM12                             
  616.085  29%   0.300 MM09+Lip09                                          
 1.45E+03  21%   0.705 MM20+Lip20                                          
   6 lines in following misc. output table
  FWHM = 0.076 ppm    S/N =  12                                            
  Data shift = 0.008 ppm                                                   
  Ph: -69 deg     -22.6 deg/ppm                                            
  alphaB,S = 6.8E-01,   1.1E+02                                            
   14 spline knots.   Ns =10(1)                                            
  (18) 7 infls.   (17) 1 extrs.                                            
  498 points on ppm-axis = NY
      4.000000     3.992357     3.984714     3.977070     3.969427     3.961784     3.954141     3.946497     3.938854     3.931211
      3.923568     3.915925     3.908281     3.900638     3.892995     3.885352     3.877708     3.870065     3.862422     3.854779
      3.847136     3.839492     3.831849     3.824206     3.816563     3.808919     3.801276     3.793633     3.785990     3.778347
      3.770703     3.763060     3.755417     3.747774     3.740130     3.732487     3.724844     3.717201     3.709558     3.701914
      3.694271     3.686628     3.678985     3.671341     3.663698     3.656055     3.648412     3.640769     3.633125     3.625482
      3.617839     3.610196     3.602552     3.594909     3.587266     3.579623     3.571980     3.564336     3.556693     3.549050
      3.541407     3.533763     3.526120     3.518477     3.510834     3.503191     3.495547     3.487904     3.480261     3.472618
      3.464974     3.457331     3.449688     3.442045     3.434402     3.426758     3.419115     3.411472     3.403829     3.396185
      3.388542     3.380899     3.373256     3.365613     3.357969     3.350326     3.342683     3.335040     3.327396     3.319753
      3.312110     3.304467     3.296824     3.289180     3.281537     3.273894     3.266251     3.258607     3.250964     3.243321
      3.235678     3.228034     3.220391     3.212748     3.205105     3.197462     3.189818     3.182175     3.174532     3.166889
      3.159245     3.151602     3.143959     3.136316     3.128673     3.121029     3.113386     3.105743     3.098100     3.090456
      3.082813     3.075170     3.067527     3.059884     3.052240     3.044597     3.036954     3.029311     3.021667     3.014024
      3.006381     2.998738     2.991095     2.983451     2.975808     2.968165     2.960522     2.952878     2.945235     2.937592
      2.929949     2.922306     2.914662     2.907019     2.899376     2.891733     2.884089     2.876446     2.868803     2.861160
      2.853517     2.845873     2.838230     2.830587     2.822944     2.815300     2.807657     2.800014     2.792371     2.784728
      2.777084     2.769441     2.761798     2.754155     2.746511     2.738868     2.731225     2.723582     2.715939     2.708295
      2.700652     2.693009     2.685366     2.677722     2.670079     2.662436     2.654793     2.647150     2.639506     2.631863
      2.624220     2.616577     2.608933     2.601290     2.593647     2.586004     2.578361     2.570717     2.563074     2.555431
      2.547788     2.540144     2.532501     2.524858     2.517215     2.509572     2.501928     2.494285     2.486642     2.478999
      2.471355     2.463712     2.456069     2.448426     2.440783     2.433139     2.425496     2.417853     2.410210     2.402566
      2.394923     2.387280     2.379637     2.371994     2.364350     2.356707     2.349064     2.341421     2.333777     2.326134
      2.318491     2.310848     2.303205     2.295561     2.287918     2.280275     2.272632     2.264988     2.257345     2.249702
      2.242059     2.234416     2.226772     2.219129     2.211486     2.203843     2.196199     2.188556     2.180913     2.173270
      2.165627     2.157983     2.150340     2.142697     2.135054     2.127410     2.119767     2.112124     2.104481     2.096838
      2.089194     2.081551     2.073908     2.066265     2.058621     2.050978     2.043335     2.035692     2.028049     2.020405
      2.012762     2.005119     1.997476     1.989833     1.982190     1.974546     1.966903     1.959260     1.951617     1.943974
      1.936331     1.928688     1.921045     1.913402     1.905759     1.898115     1.890472     1.882829     1.875186     1.867543
      1.859900     1.852257     1.844614     1.836971     1.829327     1.821684     1.814041     1.806398     1.798755     1.791112
      1.783469     1.775826     1.768183     1.760540     1.752896     1.745253     1.737610     1.729967     1.722324     1.714681
      1.707038     1.699395     1.691752     1.684108     1.676465     1.668822     1.661179     1.653536     1.645893     1.638250
      1.630607     1.622964     1.615321     1.607677     1.600034     1.592391     1.584748     1.577105     1.569462     1.561819
      1.554176     1.546533     1.538890     1.531246     1.523603     1.515960     1.508317     1.500674     1.493031     1.485388
      1.477745     1.470102     1.462458     1.454815     1.447172     1.439529     1.431886     1.424243     1.416600     1.408957
      1.401314     1.393671     1.386027     1.378384     1.370741     1.363098     1.355455     1.347812     1.340169     1.332526
      1.324883     1.317240     1.309596     1.301953     1.294310     1.286667     1.279024     1.271381     1.263738     1.256095
      1.248452     1.240808     1.233165     1.225522     1.217879     1.210236     1.202593     1.194950     1.187307     1.179664
      1.172021     1.164377     1.156734     1.149091     1.141448     1.133805     1.126162     1.118519     1.110876     1.103233
      1.095590     1.087946     1.080303     1.072660     1.065017     1.057374     1.049731     1.042088     1.034445     1.026802
      1.019158     1.011515     1.003872     0.996229     0.988586     0.980943     0.973300     0.965657     0.958014     0.950371
      0.942727     0.935084     0.927441     0.919798     0.912155     0.904512     0.896869     0.889226     0.881583     0.873940
      0.866296     0.858653     0.851010     0.843367     0.835724     0.828081     0.820438     0.812795     0.805152     0.797508
      0.789865     0.782222     0.774579     0.766936     0.759293     0.751650     0.744007     0.736364     0.728721     0.721077
      0.713434     0.705791     0.698148     0.690505     0.682862     0.675219     0.667576     0.659933     0.652290     0.644646
      0.637003     0.629360     0.621717     0.614074     0.606431     0.598788     0.591145     0.583502     0.575858     0.568215
      0.560572     0.552929     0.545286     0.537643     0.530000     0.522357     0.514714     0.507071     0.499427     0.491784
      0.484141     0.476498     0.468855     0.461212     0.453569     0.445925     0.438282     0.430639     0.422996     0.415353
      0.407710     0.400067     0.392424     0.384780     0.377137     0.369494     0.361851     0.354208     0.346565     0.338922
      0.331278     0.323635     0.315992     0.308349     0.300706     0.293063     0.285420     0.277777     0.270133     0.262490
      0.254847     0.247204     0.239561     0.231918     0.224275     0.216631     0.208988     0.201345
 NY phased data points follow
  -5.52860E+01 -5.16271E+01 -4.13323E+01 -4.30295E+01 -3.82379E+01 -3.65075E+01 -2.91141E+01 -2.15976E+01 -2.46939E+01 -2.54117E+01
  -2.41226E+01 -3.25610E+01 -3.28915E+01 -3.18419E+01 -4.05544E+01 -4.16347E+01 -4.38020E+01 -4.79698E+01 -4.58119E+01 -4.97984E+01
  -4.54519E+01 -4.53167E+01 -4.48203E+01 -4.33240E+01 -4.23493E+01 -4.16107E+01 -3.54861E+01 -3.93441E+01 -3.76840E+01 -3.61361E+01
  -3.56874E+01 -3.94685E+01 -3.63365E+01 -3.83850E+01 -3.39711E+01 -3.82583E+01 -4.03186E+01 -4.11067E+01 -3.34231E+01 -3.66768E+01
  -3.37876E+01 -3.84890E+01 -3.24445E+01 -3.43173E+01 -3.10675E+01 -3.03402E+01 -2.81478E+01 -3.26308E+01 -2.87015E+01 -3.26756E+01
  -3.21968E+01 -2.71704E+01 -3.45276E+01 -3.41305E+01 -3.44305E+01 -2.76895E+01 -3.08270E+01 -3.68068E+01 -2.91855E+01 -3.79085E+01
  -3.76077E+01 -3.59084E+01 -3.88199E+01 -3.97647E+01 -3.45916E+01 -3.85852E+01 -3.59146E+01 -3.27578E+01 -3.95751E+01 -2.89412E+01
  -3.07158E+01 -3.41683E+01 -3.10013E+01 -3.27180E+01 -3.11352E+01 -3.06998E+01 -3.05725E+01 -3.13391E+01 -2.98197E+01 -2.88969E+01
  -2.58513E+01 -2.78847E+01 -2.53433E+01 -2.21974E+01 -2.39718E+01 -2.33532E+01 -2.13286E+01 -2.36420E+01 -2.31173E+01 -1.78257E+01
  -1.77835E+01 -1.85240E+01 -1.56871E+01 -1.49666E+01 -9.92123E+00 -8.11649E+00 -1.14079E+01 -2.75369E+00  5.35069E+00  7.90556E+00
   1.68178E+01  1.79746E+01  1.96186E+01  1.51137E+01  1.09690E+01  4.68321E+00  4.86181E+00  3.45498E+00 -3.95537E+00 -1.25705E+01
  -1.15628E+01 -1.51644E+01 -1.45039E+01 -1.49909E+01 -1.34774E+01 -1.36199E+01 -1.20631E+01 -1.09138E+01 -9.01147E+00 -5.11598E+00
  -3.36611E-02  6.67398E-01  7.78623E+00  8.28288E+00  1.94839E+01  2.21330E+01  2.69883E+01  2.63101E+01  1.47211E+01  1.74443E+01
   6.26094E+00  3.56986E+00 -5.94520E-01 -5.19408E+00 -8.47836E+00 -1.29728E+01 -1.81757E+01 -1.77457E+01 -1.86283E+01 -2.05288E+01
  -1.62756E+01 -1.78636E+01 -1.76802E+01 -1.30991E+01 -1.67424E+01 -1.58973E+01 -1.76662E+01 -1.49879E+01 -1.64353E+01 -1.79189E+01
  -1.96520E+01 -1.47469E+01 -1.77976E+01 -2.34410E+01 -1.73859E+01 -1.49732E+01 -1.46985E+01 -1.67745E+01 -1.89388E+01 -2.04333E+01
  -1.64670E+01 -2.04895E+01 -1.76560E+01 -2.29615E+01 -1.60850E+01 -1.83370E+01 -2.09198E+01 -1.44112E+01 -1.94487E+01 -2.50416E+01
  -2.60157E+01 -1.90459E+01 -2.85262E+01 -2.60110E+01 -2.29455E+01 -2.15194E+01 -2.65933E+01 -2.76755E+01 -2.44848E+01 -1.96252E+01
  -2.25816E+01 -2.38693E+01 -2.39261E+01 -2.32282E+01 -1.96452E+01 -1.53346E+01 -1.87290E+01 -1.42753E+01 -9.66953E+00 -6.50935E+00
  -6.49871E+00 -4.25434E+00 -6.37140E+00 -9.57102E+00 -7.53609E+00 -7.87142E+00 -6.48798E+00 -9.19990E+00 -7.32172E+00 -7.71847E+00
  -1.33144E+01 -4.64728E+00 -7.79582E+00 -7.63445E+00 -8.52964E+00 -6.44300E+00 -1.07825E+01 -8.36683E+00 -1.29667E+01 -3.49170E+00
  -9.11674E+00 -5.79472E+00 -1.94440E-01 -1.89060E+00  3.36244E+00 -1.45501E+00 -4.47675E+00 -1.90301E+00 -2.20946E+00 -6.58535E+00
  -3.52725E+00 -8.15624E+00 -2.34244E+00 -7.81408E-01  5.54803E-02  2.99071E+00  2.90448E+00  1.16223E+00  5.66253E-01  8.91227E+00
   6.74666E+00  7.78776E+00  3.69561E+00  2.42110E+00  8.99531E+00  2.69727E+00  4.94781E+00  8.39088E+00  5.11332E+00  1.05139E+00
   5.88845E+00  4.83523E+00  1.26441E+01  8.37251E+00  8.07815E+00  6.48847E+00  1.41406E+01  1.25969E+01  1.94982E+01  2.25384E+01
   2.20258E+01  2.94364E+01  3.12608E+01  3.93180E+01  4.03171E+01  5.15927E+01  5.63489E+01  7.07718E+01  7.63997E+01  7.69713E+01
   7.68121E+01  7.59740E+01  6.65653E+01  6.34742E+01  5.47295E+01  4.67034E+01  3.79733E+01  3.01348E+01  2.25339E+01  1.38308E+01
   1.71048E+01  1.21813E+01  8.47818E+00  1.08215E+01  6.98847E+00  9.49704E+00  1.19812E+01  1.08176E+01  7.63920E+00  4.81244E+00
   8.07400E+00  4.71488E+00  7.86467E+00  8.42933E+00  1.25073E+01  4.94987E+00  1.69641E+00  5.76004E+00  6.90450E+00  2.53607E+00
   5.46099E+00  5.74426E+00  5.29996E+00  3.02167E+00  6.38558E+00  5.89555E+00  7.41717E+00  9.08570E+00  7.05354E+00  4.69828E+00
   5.59727E+00  7.47904E+00  7.61241E+00  3.19839E+00  8.03575E+00  7.45392E+00  8.70577E+00  7.98630E+00  8.40950E+00  9.08819E+00
   1.31024E+01  1.19338E+01  9.00347E+00  7.53803E+00  6.71050E+00  1.18423E+01  7.46560E+00  1.09130E+01  6.94413E+00  8.11773E+00
   6.61597E+00  6.44930E+00  8.12952E+00  8.13629E+00  1.05113E+01  9.04401E+00  7.79334E+00  7.06278E+00  1.23370E+01  7.52346E+00
   7.22507E+00  1.32903E+01  6.54211E+00  7.71419E+00  9.87265E+00  8.61613E+00  8.92658E+00  1.34475E+01  6.10353E+00  1.17189E+01
   7.60576E+00  4.00017E+00  5.58345E+00  1.03395E+01  9.81663E+00  1.00249E+01  5.34927E+00  7.06483E+00  2.28972E+00  6.48004E+00
   4.40366E+00  3.20936E+00  1.37667E+00  3.91384E+00  5.41862E+00  1.06462E+01  4.43962E+00  9.15418E+00  7.16344E+00  7.23979E+00
   7.26901E+00  7.09288E+00  7.58080E+00  6.41981E+00  1.52281E+01  1.07483E+01  1.15897E+01  1.10747E+01  9.51452E+00  8.78146E+00
   1.26606E+01  8.42976E+00  1.22808E+01  6.09862E+00  8.94653E+00  8.90607E+00  9.74839E+00  8.20264E+00  7.78801E+00  5.19836E+00
   5.80358E+00  6.79166E+00  1.09583E+01  4.65576E+00  9.26201E+00  7.38870E+00  4.10760E+00  1.16489E+01  9.92338E+00  2.37657E+00
   8.74013E+00  4.42579E+00  6.83873E+00  8.52433E+00  1.05378E+01  1.12881E+01  8.01133E+00  1.03614E+01  9.81520E+00  9.02404E+00
   1.10126E+01  9.98693E+00  6.87002E+00  1.06322E+01  1.35901E+01  1.15398E+01  9.21219E+00  8.17198E+00  7.39975E+00  5.04440E+00
   4.75835E+00  1.15868E+01  9.58901E+00  6.68726E+00  1.06285E+01  7.78979E+00  8.77940E+00  6.28242E+00  1.09726E+01  6.86302E+00
   4.22389E+00  7.03025E+00  6.33544E+00  8.75432E+00  2.55210E+00  6.28960E+00  8.38315E+00  9.81899E+00  8.93999E+00  9.95771E+00
   7.12764E+00  8.35303E+00  1.04952E+01  9.83599E+00  1.07024E+01  9.41250E+00  9.51438E+00  1.06164E+01  7.93461E+00  7.06494E+00
   7.39980E+00  1.09949E+01  6.12804E+00  9.20740E+00  9.95464E+00  7.99612E+00  1.00399E+01  6.92179E+00  7.66685E+00  8.63048E+00
   8.82067E+00  5.72635E+00  6.50505E+00  7.61092E+00  7.79162E+00  7.85003E+00  5.29830E+00  8.43087E+00  8.90200E+00  6.72204E+00
   7.37653E+00  7.28234E+00  9.13876E+00  6.43558E+00  6.80381E+00  8.58360E+00  5.52707E+00  9.78000E+00  9.02268E+00  8.97618E+00
   5.13627E+00  4.90097E+00  4.43235E+00  1.12058E+01  7.47093E+00  4.31268E+00  2.39611E+00  1.16751E+01  1.21997E+01  7.33548E+00
   7.27284E+00  6.22449E+00  5.24214E+00  8.83280E+00  6.96834E+00  5.93162E+00  7.36536E+00  5.18921E+00  4.66950E+00  5.75824E+00
   7.97219E+00  8.78517E+00  6.07515E+00  9.35335E+00  1.01834E+01  6.42096E+00  6.84232E+00  1.95600E+00
 NY points of the fit to the data follow
  -4.79209E+01 -4.65911E+01 -4.44138E+01 -4.12096E+01 -3.70834E+01 -3.27492E+01 -2.90900E+01 -2.66879E+01 -2.58810E+01 -2.66439E+01
  -2.84065E+01 -3.04510E+01 -3.25219E+01 -3.48706E+01 -3.75394E+01 -3.98918E+01 -4.15278E+01 -4.27586E+01 -4.43488E+01 -4.60212E+01
  -4.60949E+01 -4.54634E+01 -4.48452E+01 -4.42277E+01 -4.34410E+01 -4.24447E+01 -4.11616E+01 -3.95198E+01 -3.76386E+01 -3.58398E+01
  -3.45611E+01 -3.40757E+01 -3.42084E+01 -3.47879E+01 -3.57278E+01 -3.68011E+01 -3.76692E+01 -3.79061E+01 -3.75872E+01 -3.71753E+01
  -3.70705E+01 -3.68775E+01 -3.60661E+01 -3.50109E+01 -3.38328E+01 -3.27519E+01 -3.19400E+01 -3.16772E+01 -3.19874E+01 -3.25304E+01
  -3.31502E+01 -3.37668E+01 -3.44283E+01 -3.51410E+01 -3.56189E+01 -3.57034E+01 -3.55209E+01 -3.52479E+01 -3.50830E+01 -3.49223E+01
  -3.47846E+01 -3.46547E+01 -3.44942E+01 -3.43150E+01 -3.41317E+01 -3.38629E+01 -3.34571E+01 -3.30390E+01 -3.26172E+01 -3.22116E+01
  -3.18671E+01 -3.15078E+01 -3.11142E+01 -3.07351E+01 -3.04300E+01 -3.02020E+01 -2.98572E+01 -2.90239E+01 -2.84027E+01 -2.81044E+01
  -2.77068E+01 -2.69206E+01 -2.57701E+01 -2.44229E+01 -2.31339E+01 -2.21102E+01 -2.15105E+01 -2.14560E+01 -2.17614E+01 -2.21185E+01
  -2.23087E+01 -2.16503E+01 -1.84741E+01 -1.48585E+01 -1.28512E+01 -1.09806E+01 -7.85742E+00 -3.20014E+00  2.67948E+00  9.12249E+00
   1.47451E+01  1.83676E+01  1.92686E+01  1.74150E+01  1.37044E+01  9.35581E+00  4.93249E+00  2.04995E-01 -4.88121E+00 -9.59029E+00
  -1.30624E+01 -1.52919E+01 -1.75427E+01 -2.05612E+01 -2.21682E+01 -2.09897E+01 -1.67301E+01 -1.26568E+01 -1.01924E+01 -7.82197E+00
  -4.10421E+00  1.43652E+00  8.24618E+00  1.50561E+01  2.06062E+01  2.38111E+01  2.42115E+01  2.19890E+01  1.81419E+01  1.39058E+01
   9.54736E+00  4.67799E+00 -7.27050E-01 -5.71451E+00 -9.37384E+00 -1.19325E+01 -1.46626E+01 -1.77753E+01 -1.91115E+01 -1.90885E+01
  -1.87887E+01 -1.84697E+01 -1.82083E+01 -1.80485E+01 -1.80167E+01 -1.79999E+01 -1.79271E+01 -1.79017E+01 -1.78842E+01 -1.78770E+01
  -1.79847E+01 -1.82209E+01 -1.84936E+01 -1.86053E+01 -1.85351E+01 -1.83502E+01 -1.82443E+01 -1.83388E+01 -1.85195E+01 -1.86773E+01
  -1.87564E+01 -1.87108E+01 -1.85825E+01 -1.84774E+01 -1.84853E+01 -1.86552E+01 -1.89757E+01 -1.93004E+01 -1.94096E+01 -1.94428E+01
  -1.95829E+01 -1.98664E+01 -2.01421E+01 -2.02615E+01 -2.02374E+01 -2.01765E+01 -2.01081E+01 -1.99930E+01 -1.97478E+01 -1.92968E+01
  -1.87051E+01 -1.80174E+01 -1.72665E+01 -1.65497E+01 -1.58664E+01 -1.50490E+01 -1.40228E+01 -1.27801E+01 -1.15591E+01 -1.05519E+01
  -9.77790E+00 -9.18952E+00 -8.73763E+00 -8.41958E+00 -8.11139E+00 -7.70316E+00 -7.21936E+00 -6.68860E+00 -5.97053E+00 -5.37500E+00
  -5.06904E+00 -4.61151E+00 -4.17845E+00 -4.16674E+00 -4.52722E+00 -5.01533E+00 -5.48405E+00 -6.23767E+00 -6.95518E+00 -7.16342E+00
  -6.75234E+00 -5.93692E+00 -5.11169E+00 -4.19844E+00 -3.10055E+00 -2.37399E+00 -2.46023E+00 -3.22640E+00 -4.27818E+00 -5.11095E+00
  -5.37142E+00 -5.28633E+00 -4.85839E+00 -3.68999E+00 -2.09464E+00 -8.06132E-01 -1.18769E-01  5.18967E-01  1.43832E+00  2.16218E+00
   2.59619E+00  3.09430E+00  3.71574E+00  4.39618E+00  4.97634E+00  5.38538E+00  5.71448E+00  5.93380E+00  5.91492E+00  5.64120E+00
   5.32153E+00  5.27781E+00  5.62841E+00  6.20318E+00  6.90786E+00  8.00661E+00  9.87734E+00  1.16839E+01  1.31265E+01  1.53635E+01
   2.07076E+01  2.91002E+01  3.56955E+01  4.06155E+01  4.58004E+01  5.21722E+01  5.98354E+01  6.77433E+01  7.42961E+01  7.83771E+01
   7.90037E+01  7.56558E+01  6.90939E+01  6.12368E+01  5.35197E+01  4.58763E+01  3.75665E+01  2.92064E+01  2.28241E+01  1.87810E+01
   1.55397E+01  1.13692E+01  7.52190E+00  6.31034E+00  6.07779E+00  5.99606E+00  5.98999E+00  5.94789E+00  5.84989E+00  5.73955E+00
   5.64974E+00  5.59478E+00  5.57757E+00  5.59020E+00  5.60769E+00  5.63738E+00  5.69570E+00  5.77426E+00  5.87258E+00  5.98767E+00
   6.11481E+00  6.25000E+00  6.38473E+00  6.51086E+00  6.62938E+00  6.74767E+00  6.86323E+00  6.97341E+00  7.08951E+00  7.21353E+00
   7.34006E+00  7.46955E+00  7.59643E+00  7.70868E+00  7.80935E+00  7.90320E+00  7.98367E+00  8.04745E+00  8.09461E+00  8.12822E+00
   8.15016E+00  8.15775E+00  8.15338E+00  8.14049E+00  8.12116E+00  8.09890E+00  8.07615E+00  8.05514E+00  8.03767E+00  8.02529E+00
   8.01903E+00  8.01992E+00  8.02844E+00  8.04486E+00  8.06888E+00  8.10018E+00  8.13795E+00  8.18171E+00  8.23099E+00  8.28575E+00
   8.34600E+00  8.41264E+00  8.48771E+00  8.57565E+00  8.68473E+00  8.83253E+00  9.06400E+00  9.44627E+00  9.69160E+00  9.62783E+00
   9.54391E+00  9.56741E+00  9.63689E+00  9.60038E+00  9.33997E+00  9.08067E+00  8.72827E+00  8.04212E+00  7.15225E+00  6.35472E+00
   5.89740E+00  5.85083E+00  6.11146E+00  6.58287E+00  7.22911E+00  7.94019E+00  8.50787E+00  8.78439E+00  8.85367E+00  9.00815E+00
   9.19576E+00  9.17291E+00  9.00434E+00  8.83554E+00  8.74389E+00  8.63262E+00  8.34637E+00  8.06998E+00  7.91906E+00  7.82529E+00
   7.75942E+00  7.71100E+00  7.67517E+00  7.64973E+00  7.63355E+00  7.62648E+00  7.62862E+00  7.64059E+00  7.66290E+00  7.69635E+00
   7.74152E+00  7.79924E+00  7.87008E+00  7.95474E+00  8.05349E+00  8.16661E+00  8.29387E+00  8.43501E+00  8.58919E+00  8.75534E+00
   8.93172E+00  9.11623E+00  9.30612E+00  9.49838E+00  9.68938E+00  9.87531E+00  1.00519E+01  1.02149E+01  1.03601E+01  1.04836E+01
   1.05817E+01  1.06516E+01  1.06908E+01  1.06981E+01  1.06730E+01  1.06160E+01  1.05285E+01  1.04129E+01  1.02722E+01  1.01102E+01
   9.93085E+00  9.73868E+00  9.53802E+00  9.33324E+00  9.12825E+00  8.92678E+00  8.73189E+00  8.54630E+00  8.37189E+00  8.21019E+00
   8.06197E+00  7.92778E+00  7.80755E+00  7.70109E+00  7.60768E+00  7.52660E+00  7.45682E+00  7.39749E+00  7.34751E+00  7.30599E+00
   7.27183E+00  7.24423E+00  7.22224E+00  7.20525E+00  7.19249E+00  7.18345E+00  7.17746E+00  7.17415E+00  7.17303E+00  7.17386E+00
   7.17624E+00  7.17998E+00  7.18473E+00  7.19036E+00  7.19663E+00  7.20349E+00  7.21070E+00  7.21821E+00  7.22578E+00  7.23343E+00
   7.24098E+00  7.24848E+00  7.25573E+00  7.26275E+00  7.26940E+00  7.27580E+00  7.28186E+00  7.28766E+00  7.29307E+00  7.29818E+00
   7.30290E+00  7.30734E+00  7.31144E+00  7.31528E+00  7.31874E+00  7.32194E+00  7.32478E+00  7.32741E+00  7.32975E+00  7.33188E+00
   7.33371E+00  7.33535E+00  7.33674E+00  7.33801E+00  7.33908E+00  7.34005E+00  7.34081E+00  7.34150E+00  7.34207E+00  7.34265E+00
   7.34314E+00  7.34365E+00  7.34410E+00  7.34465E+00  7.34523E+00  7.34598E+00  7.34681E+00  7.34784E+00  7.34901E+00  7.35049E+00
   7.35223E+00  7.35438E+00  7.35685E+00  7.35982E+00  7.36325E+00  7.36735E+00  7.37210E+00  7.37769E+00
 NY background values follow
    -6.102E+01   -6.067E+01   -6.032E+01   -5.997E+01   -5.963E+01   -5.928E+01   -5.893E+01   -5.858E+01   -5.824E+01   -5.789E+01
    -5.754E+01   -5.720E+01   -5.685E+01   -5.650E+01   -5.616E+01   -5.581E+01   -5.547E+01   -5.512E+01   -5.478E+01   -5.443E+01
    -5.409E+01   -5.374E+01   -5.340E+01   -5.306E+01   -5.271E+01   -5.237E+01   -5.203E+01   -5.169E+01   -5.135E+01   -5.101E+01
    -5.067E+01   -5.033E+01   -4.999E+01   -4.965E+01   -4.932E+01   -4.898E+01   -4.865E+01   -4.831E+01   -4.798E+01   -4.764E+01
    -4.731E+01   -4.698E+01   -4.665E+01   -4.632E+01   -4.599E+01   -4.567E+01   -4.534E+01   -4.501E+01   -4.469E+01   -4.437E+01
    -4.404E+01   -4.372E+01   -4.340E+01   -4.308E+01   -4.277E+01   -4.245E+01   -4.213E+01   -4.182E+01   -4.151E+01   -4.119E+01
    -4.088E+01   -4.057E+01   -4.027E+01   -3.996E+01   -3.965E+01   -3.935E+01   -3.904E+01   -3.874E+01   -3.844E+01   -3.814E+01
    -3.785E+01   -3.755E+01   -3.725E+01   -3.696E+01   -3.667E+01   -3.638E+01   -3.609E+01   -3.580E+01   -3.551E+01   -3.523E+01
    -3.495E+01   -3.467E+01   -3.439E+01   -3.411E+01   -3.383E+01   -3.356E+01   -3.328E+01   -3.301E+01   -3.274E+01   -3.247E+01
    -3.221E+01   -3.194E+01   -3.168E+01   -3.142E+01   -3.116E+01   -3.090E+01   -3.064E+01   -3.039E+01   -3.013E+01   -2.988E+01
    -2.963E+01   -2.938E+01   -2.914E+01   -2.889E+01   -2.865E+01   -2.841E+01   -2.817E+01   -2.793E+01   -2.769E+01   -2.745E+01
    -2.722E+01   -2.699E+01   -2.676E+01   -2.653E+01   -2.630E+01   -2.607E+01   -2.585E+01   -2.562E+01   -2.540E+01   -2.518E+01
    -2.496E+01   -2.474E+01   -2.453E+01   -2.431E+01   -2.410E+01   -2.389E+01   -2.367E+01   -2.347E+01   -2.326E+01   -2.305E+01
    -2.284E+01   -2.264E+01   -2.244E+01   -2.224E+01   -2.204E+01   -2.184E+01   -2.164E+01   -2.144E+01   -2.125E+01   -2.105E+01
    -2.086E+01   -2.067E+01   -2.048E+01   -2.029E+01   -2.010E+01   -1.991E+01   -1.972E+01   -1.953E+01   -1.935E+01   -1.916E+01
    -1.897E+01   -1.879E+01   -1.860E+01   -1.842E+01   -1.823E+01   -1.805E+01   -1.786E+01   -1.768E+01   -1.749E+01   -1.731E+01
    -1.712E+01   -1.694E+01   -1.675E+01   -1.656E+01   -1.638E+01   -1.619E+01   -1.600E+01   -1.581E+01   -1.563E+01   -1.544E+01
    -1.525E+01   -1.505E+01   -1.486E+01   -1.467E+01   -1.447E+01   -1.428E+01   -1.408E+01   -1.388E+01   -1.368E+01   -1.348E+01
    -1.328E+01   -1.308E+01   -1.287E+01   -1.266E+01   -1.245E+01   -1.225E+01   -1.203E+01   -1.182E+01   -1.161E+01   -1.140E+01
    -1.118E+01   -1.096E+01   -1.075E+01   -1.053E+01   -1.031E+01   -1.009E+01   -9.873E+00   -9.653E+00   -9.433E+00   -9.213E+00
    -8.992E+00   -8.771E+00   -8.550E+00   -8.329E+00   -8.108E+00   -7.887E+00   -7.667E+00   -7.446E+00   -7.226E+00   -7.007E+00
    -6.788E+00   -6.569E+00   -6.351E+00   -6.134E+00   -5.918E+00   -5.702E+00   -5.487E+00   -5.274E+00   -5.061E+00   -4.850E+00
    -4.640E+00   -4.431E+00   -4.223E+00   -4.017E+00   -3.812E+00   -3.609E+00   -3.408E+00   -3.208E+00   -3.010E+00   -2.814E+00
    -2.620E+00   -2.427E+00   -2.236E+00   -2.047E+00   -1.860E+00   -1.675E+00   -1.491E+00   -1.310E+00   -1.130E+00   -9.527E-01
    -7.770E-01   -6.033E-01   -4.316E-01   -2.620E-01   -9.431E-02    7.128E-02    2.348E-01    3.962E-01    5.555E-01    7.127E-01
     8.678E-01    1.021E+00    1.171E+00    1.320E+00    1.466E+00    1.610E+00    1.752E+00    1.891E+00    2.028E+00    2.163E+00
     2.296E+00    2.426E+00    2.554E+00    2.679E+00    2.802E+00    2.923E+00    3.041E+00    3.156E+00    3.270E+00    3.380E+00
     3.488E+00    3.594E+00    3.697E+00    3.797E+00    3.895E+00    3.991E+00    4.084E+00    4.175E+00    4.263E+00    4.349E+00
     4.433E+00    4.514E+00    4.593E+00    4.670E+00    4.745E+00    4.817E+00    4.888E+00    4.956E+00    5.023E+00    5.087E+00
     5.149E+00    5.210E+00    5.268E+00    5.325E+00    5.380E+00    5.433E+00    5.484E+00    5.533E+00    5.581E+00    5.627E+00
     5.671E+00    5.714E+00    5.755E+00    5.794E+00    5.832E+00    5.869E+00    5.904E+00    5.937E+00    5.970E+00    6.000E+00
     6.030E+00    6.058E+00    6.085E+00    6.111E+00    6.135E+00    6.158E+00    6.180E+00    6.201E+00    6.221E+00    6.240E+00
     6.258E+00    6.275E+00    6.291E+00    6.306E+00    6.320E+00    6.333E+00    6.345E+00    6.357E+00    6.367E+00    6.377E+00
     6.387E+00    6.395E+00    6.403E+00    6.411E+00    6.417E+00    6.423E+00    6.429E+00    6.434E+00    6.439E+00    6.443E+00
     6.447E+00    6.450E+00    6.453E+00    6.456E+00    6.458E+00    6.461E+00    6.462E+00    6.464E+00    6.466E+00    6.467E+00
     6.469E+00    6.470E+00    6.471E+00    6.472E+00    6.473E+00    6.475E+00    6.476E+00    6.477E+00    6.479E+00    6.480E+00
     6.482E+00    6.484E+00    6.487E+00    6.489E+00    6.492E+00    6.495E+00    6.499E+00    6.503E+00    6.507E+00    6.511E+00
     6.516E+00    6.520E+00    6.526E+00    6.531E+00    6.537E+00    6.543E+00    6.550E+00    6.556E+00    6.563E+00    6.571E+00
     6.579E+00    6.587E+00    6.595E+00    6.604E+00    6.613E+00    6.622E+00    6.632E+00    6.642E+00    6.653E+00    6.664E+00
     6.675E+00    6.686E+00    6.698E+00    6.711E+00    6.723E+00    6.736E+00    6.750E+00    6.764E+00    6.778E+00    6.793E+00
     6.808E+00    6.823E+00    6.839E+00    6.855E+00    6.872E+00    6.889E+00    6.907E+00    6.925E+00    6.943E+00    6.962E+00
     6.981E+00    7.001E+00    7.020E+00    7.041E+00    7.061E+00    7.082E+00    7.102E+00    7.123E+00    7.144E+00    7.166E+00
     7.187E+00    7.209E+00    7.230E+00    7.252E+00    7.273E+00    7.295E+00    7.317E+00    7.338E+00    7.359E+00    7.381E+00
     7.402E+00    7.423E+00    7.444E+00    7.464E+00    7.484E+00    7.505E+00    7.524E+00    7.544E+00    7.563E+00    7.581E+00
     7.600E+00    7.618E+00    7.635E+00    7.652E+00    7.669E+00    7.684E+00    7.700E+00    7.715E+00    7.729E+00    7.743E+00
     7.755E+00    7.768E+00    7.779E+00    7.790E+00    7.800E+00    7.810E+00    7.819E+00    7.827E+00    7.834E+00    7.841E+00
     7.848E+00    7.854E+00    7.859E+00    7.864E+00    7.868E+00    7.872E+00    7.875E+00    7.878E+00    7.880E+00    7.882E+00
     7.884E+00    7.885E+00    7.886E+00    7.886E+00    7.886E+00    7.886E+00    7.886E+00    7.885E+00    7.884E+00    7.883E+00
     7.882E+00    7.880E+00    7.879E+00    7.877E+00    7.875E+00    7.873E+00    7.870E+00    7.868E+00    7.866E+00    7.863E+00
     7.861E+00    7.859E+00    7.856E+00    7.854E+00    7.852E+00    7.849E+00    7.847E+00    7.845E+00
 PCr      Conc. = 2.05E+03
