 LCModel (Version 6.3-1L) Copyright: S.W. Provencher.          Ref.: Magn. Reson. Med. 30:672-679 (1993).                
 Slice#1 Row#13 Col#3  K_02_press_1_raw_act
 36 lines in following concentration table = NCONC+1
    Conc.  %SD /Cr+PCr  Metabolite                                         
   32.174 268%   0.120 Ala                                                 
    0.000 999%   0.000 Asp                                                 
    0.000 999%   0.000 Cr                                                  
  267.342  11%   1.000 PCr                                                 
   16.564 149% 6.2E-02 GABA                                                
    0.000 999%   0.000 Glc                                                 
    0.000 999%   0.000 Gln                                                 
    0.000 999%   0.000 Glu                                                 
   51.374  22%   0.192 GPC                                                 
    0.000 999%   0.000 PCh                                                 
    0.000 999%   0.000 GSH                                                 
  365.457  42%   1.367 Ins                                                 
    0.000 999%   0.000 Lac                                                 
    0.000 999%   0.000 NAA                                                 
  251.020  13%   0.939 NAAG                                                
    3.988 192% 1.5E-02 Scyllo                                              
    0.000 999%   0.000 Tau                                                 
    0.000 999%   0.000 -CrCH2                                              
   51.374  22%   0.192 GPC+PCh                                             
  251.020  13%   0.939 NAA+NAAG                                            
  267.342  11%   1.000 Cr+PCr                                              
    0.000 999%   0.000 Glu+Gln                                             
  379.707  45%   1.420 Lip13a                                              
    0.000 999%   0.000 Lip13b                                              
   85.943  68%   0.321 Lip09                                               
   82.594  99%   0.309 MM09                                                
   64.350  55%   0.241 Lip20                                               
  125.613  99%   0.470 MM20                                                
   24.712 105% 9.2E-02 MM12                                                
   76.115  91%   0.285 MM14                                                
   31.259 124%   0.117 MM17                                                
  379.707  45%   1.420 Lip13a+Lip13b                                       
  480.534  38%   1.797 MM14+Lip13a+Lip13b+MM12                             
  168.537  52%   0.630 MM09+Lip09                                          
  189.963  66%   0.711 MM20+Lip20                                          
   6 lines in following misc. output table
  FWHM = 0.092 ppm    S/N =   2                                            
  Data shift = 0.008 ppm                                                   
  Ph:  98 deg      31.1 deg/ppm                                            
  alphaB,S = 5.8E-01,   1.3E+02                                            
   14 spline knots.   Ns = 8(1)                                            
  (13) 2 infls.   (13) 1 extrs.                                            
  498 points on ppm-axis = NY
      4.000000     3.992357     3.984714     3.977070     3.969427     3.961784     3.954141     3.946497     3.938854     3.931211
      3.923568     3.915925     3.908281     3.900638     3.892995     3.885352     3.877708     3.870065     3.862422     3.854779
      3.847136     3.839492     3.831849     3.824206     3.816563     3.808919     3.801276     3.793633     3.785990     3.778347
      3.770703     3.763060     3.755417     3.747774     3.740130     3.732487     3.724844     3.717201     3.709558     3.701914
      3.694271     3.686628     3.678985     3.671341     3.663698     3.656055     3.648412     3.640769     3.633125     3.625482
      3.617839     3.610196     3.602552     3.594909     3.587266     3.579623     3.571980     3.564336     3.556693     3.549050
      3.541407     3.533763     3.526120     3.518477     3.510834     3.503191     3.495547     3.487904     3.480261     3.472618
      3.464974     3.457331     3.449688     3.442045     3.434402     3.426758     3.419115     3.411472     3.403829     3.396185
      3.388542     3.380899     3.373256     3.365613     3.357969     3.350326     3.342683     3.335040     3.327396     3.319753
      3.312110     3.304467     3.296824     3.289180     3.281537     3.273894     3.266251     3.258607     3.250964     3.243321
      3.235678     3.228034     3.220391     3.212748     3.205105     3.197462     3.189818     3.182175     3.174532     3.166889
      3.159245     3.151602     3.143959     3.136316     3.128673     3.121029     3.113386     3.105743     3.098100     3.090456
      3.082813     3.075170     3.067527     3.059884     3.052240     3.044597     3.036954     3.029311     3.021667     3.014024
      3.006381     2.998738     2.991095     2.983451     2.975808     2.968165     2.960522     2.952878     2.945235     2.937592
      2.929949     2.922306     2.914662     2.907019     2.899376     2.891733     2.884089     2.876446     2.868803     2.861160
      2.853517     2.845873     2.838230     2.830587     2.822944     2.815300     2.807657     2.800014     2.792371     2.784728
      2.777084     2.769441     2.761798     2.754155     2.746511     2.738868     2.731225     2.723582     2.715939     2.708295
      2.700652     2.693009     2.685366     2.677722     2.670079     2.662436     2.654793     2.647150     2.639506     2.631863
      2.624220     2.616577     2.608933     2.601290     2.593647     2.586004     2.578361     2.570717     2.563074     2.555431
      2.547788     2.540144     2.532501     2.524858     2.517215     2.509572     2.501928     2.494285     2.486642     2.478999
      2.471355     2.463712     2.456069     2.448426     2.440783     2.433139     2.425496     2.417853     2.410210     2.402566
      2.394923     2.387280     2.379637     2.371994     2.364350     2.356707     2.349064     2.341421     2.333777     2.326134
      2.318491     2.310848     2.303205     2.295561     2.287918     2.280275     2.272632     2.264988     2.257345     2.249702
      2.242059     2.234416     2.226772     2.219129     2.211486     2.203843     2.196199     2.188556     2.180913     2.173270
      2.165627     2.157983     2.150340     2.142697     2.135054     2.127410     2.119767     2.112124     2.104481     2.096838
      2.089194     2.081551     2.073908     2.066265     2.058621     2.050978     2.043335     2.035692     2.028049     2.020405
      2.012762     2.005119     1.997476     1.989833     1.982190     1.974546     1.966903     1.959260     1.951617     1.943974
      1.936331     1.928688     1.921045     1.913402     1.905759     1.898115     1.890472     1.882829     1.875186     1.867543
      1.859900     1.852257     1.844614     1.836971     1.829327     1.821684     1.814041     1.806398     1.798755     1.791112
      1.783469     1.775826     1.768183     1.760540     1.752896     1.745253     1.737610     1.729967     1.722324     1.714681
      1.707038     1.699395     1.691752     1.684108     1.676465     1.668822     1.661179     1.653536     1.645893     1.638250
      1.630607     1.622964     1.615321     1.607677     1.600034     1.592391     1.584748     1.577105     1.569462     1.561819
      1.554176     1.546533     1.538890     1.531246     1.523603     1.515960     1.508317     1.500674     1.493031     1.485388
      1.477745     1.470102     1.462458     1.454815     1.447172     1.439529     1.431886     1.424243     1.416600     1.408957
      1.401314     1.393671     1.386027     1.378384     1.370741     1.363098     1.355455     1.347812     1.340169     1.332526
      1.324883     1.317240     1.309596     1.301953     1.294310     1.286667     1.279024     1.271381     1.263738     1.256095
      1.248452     1.240808     1.233165     1.225522     1.217879     1.210236     1.202593     1.194950     1.187307     1.179664
      1.172021     1.164377     1.156734     1.149091     1.141448     1.133805     1.126162     1.118519     1.110876     1.103233
      1.095590     1.087946     1.080303     1.072660     1.065017     1.057374     1.049731     1.042088     1.034445     1.026802
      1.019158     1.011515     1.003872     0.996229     0.988586     0.980943     0.973300     0.965657     0.958014     0.950371
      0.942727     0.935084     0.927441     0.919798     0.912155     0.904512     0.896869     0.889226     0.881583     0.873940
      0.866296     0.858653     0.851010     0.843367     0.835724     0.828081     0.820438     0.812795     0.805152     0.797508
      0.789865     0.782222     0.774579     0.766936     0.759293     0.751650     0.744007     0.736364     0.728721     0.721077
      0.713434     0.705791     0.698148     0.690505     0.682862     0.675219     0.667576     0.659933     0.652290     0.644646
      0.637003     0.629360     0.621717     0.614074     0.606431     0.598788     0.591145     0.583502     0.575858     0.568215
      0.560572     0.552929     0.545286     0.537643     0.530000     0.522357     0.514714     0.507071     0.499427     0.491784
      0.484141     0.476498     0.468855     0.461212     0.453569     0.445925     0.438282     0.430639     0.422996     0.415353
      0.407710     0.400067     0.392424     0.384780     0.377137     0.369494     0.361851     0.354208     0.346565     0.338922
      0.331278     0.323635     0.315992     0.308349     0.300706     0.293063     0.285420     0.277777     0.270133     0.262490
      0.254847     0.247204     0.239561     0.231918     0.224275     0.216631     0.208988     0.201345
 NY phased data points follow
   7.42830E+01  7.21117E+01  7.11107E+01  7.02198E+01  6.91116E+01  6.75820E+01  6.86835E+01  6.64520E+01  6.69565E+01  6.50821E+01
   6.61777E+01  6.60648E+01  6.38256E+01  6.32859E+01  5.96630E+01  5.84607E+01  5.80122E+01  5.55903E+01  5.37911E+01  5.23041E+01
   5.19742E+01  5.30162E+01  5.20490E+01  4.86146E+01  4.91078E+01  4.90063E+01  4.75631E+01  4.86222E+01  4.50351E+01  4.60309E+01
   4.49176E+01  4.42945E+01  4.62962E+01  4.17749E+01  3.98050E+01  4.23381E+01  4.39241E+01  4.23938E+01  4.09651E+01  4.16328E+01
   4.07316E+01  4.12643E+01  4.08784E+01  4.18717E+01  4.12854E+01  3.89996E+01  3.96577E+01  3.82561E+01  3.91155E+01  3.73592E+01
   3.73569E+01  3.56644E+01  3.74125E+01  3.49477E+01  3.50183E+01  3.45045E+01  3.34455E+01  3.18686E+01  3.26157E+01  3.08783E+01
   3.28799E+01  2.87584E+01  2.99269E+01  2.57097E+01  2.86029E+01  2.65845E+01  2.80526E+01  2.45673E+01  2.68763E+01  2.51174E+01
   2.52751E+01  2.50666E+01  2.38790E+01  2.26002E+01  2.40003E+01  2.31788E+01  2.23491E+01  2.28741E+01  2.05933E+01  2.00977E+01
   2.47982E+01  2.05018E+01  2.07498E+01  1.79417E+01  1.89053E+01  1.77384E+01  1.98350E+01  1.96774E+01  1.87776E+01  1.83624E+01
   1.68544E+01  1.90303E+01  1.89064E+01  1.70946E+01  1.87861E+01  1.63643E+01  1.55119E+01  1.57273E+01  1.82351E+01  1.87427E+01
   1.79669E+01  1.72353E+01  1.70463E+01  1.91216E+01  1.76846E+01  1.72648E+01  1.67108E+01  1.62009E+01  1.30635E+01  1.26482E+01
   1.37406E+01  1.44641E+01  1.26440E+01  1.28505E+01  1.25274E+01  1.26083E+01  1.17209E+01  1.08902E+01  1.30221E+01  1.42505E+01
   1.07164E+01  1.28082E+01  1.26477E+01  1.13013E+01  1.53830E+01  1.33563E+01  1.43160E+01  1.48893E+01  1.30562E+01  1.56816E+01
   1.27415E+01  1.16659E+01  1.22898E+01  9.87150E+00  8.67542E+00  1.28005E+01  9.72846E+00  8.18326E+00  1.02860E+01  9.34647E+00
   8.63498E+00  8.53826E+00  1.09749E+01  1.08786E+01  1.02898E+01  6.80648E+00  5.31841E+00  7.32910E+00  5.82368E+00  5.59427E+00
   5.69907E+00  5.66892E+00  5.95921E+00  7.64655E+00  8.71866E+00  3.15834E+00  5.75638E+00  6.18721E+00  6.91505E+00  7.79460E+00
   6.35406E+00  4.22436E+00  3.23094E+00  6.55284E+00  5.56075E+00  3.13860E+00  3.82260E+00  3.95032E+00  6.26125E-01  1.55676E+00
   2.32673E+00  1.44489E+00 -1.13296E-01  1.89412E+00  1.45449E+00 -1.04386E+00 -6.85553E-02  3.76649E+00  8.45092E-01 -1.34071E+00
  -4.21849E-01  6.62259E-02 -3.32857E+00 -1.35676E+00  8.37571E-01 -2.07857E+00  3.45435E-01  3.80530E+00  1.63646E+00  1.21829E+00
  -1.23360E+00 -1.83275E+00  1.52828E+00  9.43393E-01  8.93554E-02  3.03629E-01 -2.82472E-01 -1.48485E+00  9.82736E-02 -4.58650E+00
  -4.05849E+00  4.95334E-01 -2.75307E+00  1.90680E+00 -1.56447E+00  1.20600E+00 -1.06026E+00 -8.59103E-01 -2.25380E+00 -3.14289E+00
  -6.23045E-01 -5.38775E-01 -3.08520E+00 -1.94704E+00 -9.69353E-01 -1.74969E+00 -7.68520E-01 -3.89892E+00 -3.37388E+00 -4.23039E+00
  -2.71128E+00 -4.11221E+00 -3.42810E+00 -5.77166E+00 -3.64801E+00 -2.87757E+00 -3.51861E+00 -4.04274E+00 -2.95356E+00 -3.69987E+00
  -5.76791E+00 -4.62062E+00 -2.99291E+00 -4.09740E+00 -4.78465E+00 -3.93302E+00 -6.12614E+00 -3.88362E+00 -4.16997E+00 -2.82892E+00
  -4.69054E+00 -2.55952E+00 -6.26977E+00 -5.76073E+00 -5.01244E+00 -8.07032E+00 -5.26761E+00 -5.36230E+00 -3.78068E+00 -2.96817E+00
  -2.59138E+00 -1.15541E+00 -1.23990E+00 -2.12668E+00 -3.88959E+00  9.08572E-01 -1.80524E+00 -1.61803E+00 -9.23261E-01 -3.24167E+00
  -7.34793E-01 -2.35435E-02 -4.66242E+00 -4.38162E+00 -7.81024E+00 -6.62438E+00 -9.32574E+00 -6.64759E+00 -6.65704E+00 -7.79688E+00
  -9.33657E+00 -1.00369E+01 -6.61524E+00 -7.63564E+00 -6.26171E+00 -6.57263E+00 -7.45655E+00 -7.67208E+00 -9.10436E+00 -8.41431E+00
  -1.17603E+01 -1.07893E+01 -9.92792E+00 -1.08746E+01 -7.12690E+00 -1.07917E+01 -1.08517E+01 -8.44984E+00 -1.11934E+01 -9.07899E+00
  -8.12770E+00 -1.08150E+01 -1.06647E+01 -8.66583E+00 -8.12038E+00 -1.22348E+01 -9.16449E+00 -1.20021E+01 -8.04005E+00 -7.79073E+00
  -9.28502E+00 -7.81778E+00 -1.24947E+01 -1.01232E+01 -1.01307E+01 -1.07387E+01 -1.10999E+01 -1.00546E+01 -9.60039E+00 -9.08830E+00
  -1.08733E+01 -1.14453E+01 -8.77197E+00 -9.79895E+00 -7.18642E+00 -1.11063E+01 -1.01726E+01 -1.26779E+01 -9.51726E+00 -1.18284E+01
  -1.13862E+01 -1.28263E+01 -8.13164E+00 -9.85769E+00 -1.21672E+01 -9.80490E+00 -9.49390E+00 -1.29300E+01 -1.22570E+01 -8.76783E+00
  -9.53037E+00 -9.56568E+00 -1.05510E+01 -1.12684E+01 -9.35532E+00 -1.13467E+01 -9.74592E+00 -9.91781E+00 -1.08314E+01 -1.01910E+01
  -9.19925E+00 -9.65418E+00 -8.74503E+00 -1.12153E+01 -1.26248E+01 -9.96334E+00 -9.88343E+00 -1.22323E+01 -1.07087E+01 -1.44613E+01
  -1.01611E+01 -9.72084E+00 -1.16431E+01 -1.10566E+01 -9.26422E+00 -9.05223E+00 -9.27367E+00 -1.23408E+01 -9.64185E+00 -1.04648E+01
  -1.38425E+01 -1.31599E+01 -1.13172E+01 -1.08281E+01 -1.30667E+01 -1.08006E+01 -1.06149E+01 -1.16163E+01 -1.24380E+01 -1.09584E+01
  -1.09719E+01 -1.05665E+01 -1.19989E+01 -1.25542E+01 -1.31490E+01 -1.36833E+01 -1.52536E+01 -1.49073E+01 -1.37988E+01 -1.26469E+01
  -1.34714E+01 -1.35191E+01 -1.24758E+01 -1.15656E+01 -1.35995E+01 -1.14682E+01 -1.42460E+01 -1.35875E+01 -1.41602E+01 -1.09744E+01
  -1.32198E+01 -1.16745E+01 -1.01116E+01 -1.12174E+01 -1.25746E+01 -1.41046E+01 -1.22352E+01 -1.15509E+01 -1.36980E+01 -1.31908E+01
  -9.78379E+00 -1.41881E+01 -1.17196E+01 -1.39590E+01 -1.32270E+01 -1.43576E+01 -1.37261E+01 -1.32376E+01 -1.42599E+01 -1.65274E+01
  -1.26373E+01 -1.46698E+01 -1.04336E+01 -1.50353E+01 -1.15876E+01 -1.28389E+01 -1.59673E+01 -1.43161E+01 -1.19696E+01 -1.55724E+01
  -1.41352E+01 -1.43563E+01 -1.42679E+01 -1.38684E+01 -1.21523E+01 -1.35051E+01 -1.25903E+01 -1.47804E+01 -1.33514E+01 -1.19282E+01
  -1.42740E+01 -1.22553E+01 -1.41024E+01 -1.48784E+01 -1.25749E+01 -1.16215E+01 -1.23858E+01 -1.17549E+01 -1.31313E+01 -1.19819E+01
  -1.24281E+01 -1.13890E+01 -1.47589E+01 -1.20911E+01 -1.14962E+01 -1.31174E+01 -1.39582E+01 -1.26324E+01 -1.21039E+01 -1.27247E+01
  -1.35424E+01 -1.60866E+01 -1.37870E+01 -1.16496E+01 -1.14915E+01 -1.45537E+01 -1.36275E+01 -1.47410E+01 -1.60825E+01 -1.38068E+01
  -1.53253E+01 -1.46566E+01 -1.29650E+01 -1.41189E+01 -1.20722E+01 -1.49315E+01 -1.18313E+01 -1.20105E+01 -1.36239E+01 -1.15901E+01
  -1.37039E+01 -1.33841E+01 -1.14467E+01 -1.16922E+01 -1.16766E+01 -1.23122E+01 -1.01486E+01 -1.28326E+01 -1.38173E+01 -1.41660E+01
  -1.03442E+01 -1.05692E+01 -1.20113E+01 -1.19643E+01 -1.09738E+01 -1.21187E+01 -1.22025E+01 -1.05290E+01 -1.05060E+01 -9.83754E+00
  -1.24201E+01 -9.74287E+00 -7.98450E+00 -1.07206E+01 -9.75538E+00 -1.12344E+01 -5.74927E+00 -7.04567E+00
 NY points of the fit to the data follow
   6.82974E+01  6.79730E+01  6.77002E+01  6.73931E+01  6.70173E+01  6.65803E+01  6.61369E+01  6.57037E+01  6.52506E+01  6.47386E+01
   6.41218E+01  6.33513E+01  6.23850E+01  6.12110E+01  5.98691E+01  5.84478E+01  5.70623E+01  5.58444E+01  5.49053E+01  5.41542E+01
   5.34455E+01  5.27482E+01  5.20591E+01  5.13772E+01  5.07021E+01  5.00392E+01  4.93935E+01  4.87638E+01  4.81471E+01  4.75468E+01
   4.69728E+01  4.64233E+01  4.58690E+01  4.52915E+01  4.47003E+01  4.41122E+01  4.35271E+01  4.29416E+01  4.23642E+01  4.18254E+01
   4.13757E+01  4.10058E+01  4.06407E+01  4.02180E+01  3.97327E+01  3.92145E+01  3.87013E+01  3.82156E+01  3.77552E+01  3.72909E+01
   3.67714E+01  3.61762E+01  3.55217E+01  3.48167E+01  3.40740E+01  3.33209E+01  3.26004E+01  3.19668E+01  3.14540E+01  3.10302E+01
   3.06397E+01  3.02461E+01  2.98411E+01  2.94124E+01  2.89619E+01  2.84934E+01  2.80037E+01  2.74986E+01  2.69908E+01  2.65087E+01
   2.60791E+01  2.56987E+01  2.53501E+01  2.50054E+01  2.46429E+01  2.42533E+01  2.38356E+01  2.33992E+01  2.29617E+01  2.25179E+01
   2.20544E+01  2.15680E+01  2.10812E+01  2.06120E+01  2.01639E+01  1.97375E+01  1.93326E+01  1.89486E+01  1.85822E+01  1.82364E+01
   1.79025E+01  1.75775E+01  1.72729E+01  1.70175E+01  1.69024E+01  1.70589E+01  1.73604E+01  1.76260E+01  1.77701E+01  1.77868E+01
   1.77211E+01  1.76216E+01  1.75068E+01  1.73710E+01  1.71975E+01  1.69559E+01  1.66035E+01  1.61051E+01  1.54490E+01  1.46780E+01
   1.38759E+01  1.31458E+01  1.26032E+01  1.22951E+01  1.20852E+01  1.19055E+01  1.17642E+01  1.17513E+01  1.21221E+01  1.28026E+01
   1.35088E+01  1.40842E+01  1.44943E+01  1.47841E+01  1.50193E+01  1.52232E+01  1.53692E+01  1.54087E+01  1.52843E+01  1.49264E+01
   1.42746E+01  1.33206E+01  1.21342E+01  1.08516E+01  9.64574E+00  8.71556E+00  8.20890E+00  7.94777E+00  7.74575E+00  7.56419E+00
   7.39451E+00  7.23260E+00  7.07498E+00  6.91922E+00  6.76359E+00  6.60634E+00  6.44109E+00  6.26392E+00  6.08298E+00  5.90685E+00
   5.74169E+00  5.59054E+00  5.44143E+00  5.28473E+00  5.11973E+00  4.94979E+00  4.77943E+00  4.61226E+00  4.44983E+00  4.29157E+00
   4.13435E+00  3.97117E+00  3.79172E+00  3.60076E+00  3.40925E+00  3.22425E+00  3.05191E+00  2.88573E+00  2.72078E+00  2.56421E+00
   2.41518E+00  2.27455E+00  2.14288E+00  2.01691E+00  1.88929E+00  1.75487E+00  1.62569E+00  1.50636E+00  1.39274E+00  1.28007E+00
   1.16753E+00  1.06595E+00  9.82195E-01  9.13434E-01  8.58377E-01  8.05077E-01  7.41836E-01  6.71158E-01  5.91810E-01  5.00098E-01
   3.92299E-01  2.69618E-01  1.38383E-01  2.45892E-04 -1.37378E-01 -2.77050E-01 -4.22280E-01 -5.71233E-01 -7.18678E-01 -8.59619E-01
  -9.94061E-01 -1.12756E+00 -1.25620E+00 -1.38305E+00 -1.51514E+00 -1.65352E+00 -1.79846E+00 -1.94851E+00 -2.09909E+00 -2.24163E+00
  -2.36971E+00 -2.48594E+00 -2.59075E+00 -2.68306E+00 -2.76261E+00 -2.83039E+00 -2.88940E+00 -2.94549E+00 -3.00662E+00 -3.07740E+00
  -3.15497E+00 -3.23509E+00 -3.31646E+00 -3.40507E+00 -3.49888E+00 -3.59362E+00 -3.68678E+00 -3.77072E+00 -3.84531E+00 -3.92248E+00
  -4.01341E+00 -4.11476E+00 -4.21827E+00 -4.31845E+00 -4.41979E+00 -4.51962E+00 -4.60608E+00 -4.67736E+00 -4.74222E+00 -4.80823E+00
  -4.88472E+00 -4.97820E+00 -5.07765E+00 -5.16982E+00 -5.23993E+00 -5.27220E+00 -5.25497E+00 -5.10238E+00 -4.57959E+00 -3.79728E+00
  -3.02404E+00 -2.40146E+00 -1.95818E+00 -1.63756E+00 -1.36478E+00 -1.12020E+00 -9.33210E-01 -8.52973E-01 -9.36957E-01 -1.25173E+00
  -1.85038E+00 -2.73496E+00 -3.83055E+00 -4.99984E+00 -6.07586E+00 -6.86975E+00 -7.25784E+00 -7.43427E+00 -7.56330E+00 -7.68313E+00
  -7.80178E+00 -7.91785E+00 -8.02778E+00 -8.13096E+00 -8.22820E+00 -8.31943E+00 -8.40535E+00 -8.49195E+00 -8.58271E+00 -8.67800E+00
  -8.77532E+00 -8.86808E+00 -8.95163E+00 -9.02541E+00 -9.08593E+00 -9.13355E+00 -9.17548E+00 -9.21979E+00 -9.26838E+00 -9.32032E+00
  -9.37487E+00 -9.43249E+00 -9.49007E+00 -9.54269E+00 -9.58906E+00 -9.63113E+00 -9.67040E+00 -9.71004E+00 -9.75260E+00 -9.79908E+00
  -9.84955E+00 -9.90177E+00 -9.95123E+00 -9.99676E+00 -1.00389E+01 -1.00782E+01 -1.01159E+01 -1.01532E+01 -1.01918E+01 -1.02329E+01
  -1.02754E+01 -1.03177E+01 -1.03590E+01 -1.03988E+01 -1.04363E+01 -1.04708E+01 -1.05013E+01 -1.05259E+01 -1.05404E+01 -1.05386E+01
  -1.05343E+01 -1.05464E+01 -1.05770E+01 -1.06208E+01 -1.06723E+01 -1.07290E+01 -1.07929E+01 -1.08525E+01 -1.08931E+01 -1.09206E+01
  -1.09451E+01 -1.09728E+01 -1.10015E+01 -1.10215E+01 -1.10212E+01 -1.09926E+01 -1.09332E+01 -1.08490E+01 -1.07621E+01 -1.06898E+01
  -1.06371E+01 -1.06078E+01 -1.06027E+01 -1.06182E+01 -1.06454E+01 -1.06669E+01 -1.06743E+01 -1.06757E+01 -1.06759E+01 -1.06777E+01
  -1.06829E+01 -1.06928E+01 -1.07088E+01 -1.07319E+01 -1.07627E+01 -1.08020E+01 -1.08501E+01 -1.09069E+01 -1.09725E+01 -1.10463E+01
  -1.11279E+01 -1.12163E+01 -1.13107E+01 -1.14100E+01 -1.15130E+01 -1.16185E+01 -1.17253E+01 -1.18322E+01 -1.19383E+01 -1.20423E+01
  -1.21436E+01 -1.22412E+01 -1.23345E+01 -1.24231E+01 -1.25063E+01 -1.25840E+01 -1.26557E+01 -1.27215E+01 -1.27810E+01 -1.28343E+01
  -1.28813E+01 -1.29219E+01 -1.29560E+01 -1.29838E+01 -1.30052E+01 -1.30202E+01 -1.30289E+01 -1.30315E+01 -1.30281E+01 -1.30191E+01
  -1.30048E+01 -1.29858E+01 -1.29627E+01 -1.29364E+01 -1.29077E+01 -1.28777E+01 -1.28475E+01 -1.28184E+01 -1.27916E+01 -1.27683E+01
  -1.27497E+01 -1.27369E+01 -1.27306E+01 -1.27316E+01 -1.27403E+01 -1.27568E+01 -1.27811E+01 -1.28127E+01 -1.28512E+01 -1.28956E+01
  -1.29451E+01 -1.29985E+01 -1.30547E+01 -1.31126E+01 -1.31710E+01 -1.32288E+01 -1.32852E+01 -1.33392E+01 -1.33902E+01 -1.34375E+01
  -1.34809E+01 -1.35200E+01 -1.35546E+01 -1.35847E+01 -1.36103E+01 -1.36316E+01 -1.36486E+01 -1.36616E+01 -1.36708E+01 -1.36764E+01
  -1.36786E+01 -1.36776E+01 -1.36737E+01 -1.36670E+01 -1.36577E+01 -1.36460E+01 -1.36321E+01 -1.36159E+01 -1.35978E+01 -1.35777E+01
  -1.35557E+01 -1.35320E+01 -1.35066E+01 -1.34795E+01 -1.34508E+01 -1.34206E+01 -1.33888E+01 -1.33555E+01 -1.33208E+01 -1.32846E+01
  -1.32470E+01 -1.32080E+01 -1.31676E+01 -1.31258E+01 -1.30826E+01 -1.30381E+01 -1.29924E+01 -1.29454E+01 -1.28971E+01 -1.28477E+01
  -1.27970E+01 -1.27452E+01 -1.26922E+01 -1.26382E+01 -1.25830E+01 -1.25268E+01 -1.24695E+01 -1.24111E+01 -1.23518E+01 -1.22914E+01
  -1.22301E+01 -1.21678E+01 -1.21046E+01 -1.20405E+01 -1.19755E+01 -1.19095E+01 -1.18428E+01 -1.17752E+01 -1.17067E+01 -1.16375E+01
  -1.15674E+01 -1.14966E+01 -1.14250E+01 -1.13527E+01 -1.12797E+01 -1.12059E+01 -1.11315E+01 -1.10564E+01 -1.09807E+01 -1.09043E+01
  -1.08273E+01 -1.07497E+01 -1.06715E+01 -1.05927E+01 -1.05134E+01 -1.04335E+01 -1.03531E+01 -1.02722E+01
 NY background values follow
     6.639E+01    6.571E+01    6.503E+01    6.435E+01    6.367E+01    6.299E+01    6.231E+01    6.163E+01    6.095E+01    6.027E+01
     5.960E+01    5.892E+01    5.825E+01    5.758E+01    5.691E+01    5.624E+01    5.557E+01    5.491E+01    5.425E+01    5.359E+01
     5.293E+01    5.227E+01    5.162E+01    5.097E+01    5.032E+01    4.968E+01    4.904E+01    4.840E+01    4.777E+01    4.713E+01
     4.651E+01    4.588E+01    4.526E+01    4.464E+01    4.403E+01    4.342E+01    4.282E+01    4.222E+01    4.162E+01    4.103E+01
     4.044E+01    3.986E+01    3.929E+01    3.871E+01    3.815E+01    3.758E+01    3.703E+01    3.648E+01    3.593E+01    3.539E+01
     3.486E+01    3.433E+01    3.380E+01    3.328E+01    3.277E+01    3.226E+01    3.176E+01    3.126E+01    3.077E+01    3.028E+01
     2.980E+01    2.933E+01    2.886E+01    2.839E+01    2.793E+01    2.748E+01    2.703E+01    2.659E+01    2.615E+01    2.572E+01
     2.529E+01    2.487E+01    2.446E+01    2.405E+01    2.365E+01    2.325E+01    2.285E+01    2.247E+01    2.209E+01    2.171E+01
     2.134E+01    2.098E+01    2.062E+01    2.026E+01    1.992E+01    1.957E+01    1.924E+01    1.891E+01    1.858E+01    1.826E+01
     1.795E+01    1.764E+01    1.734E+01    1.704E+01    1.675E+01    1.646E+01    1.618E+01    1.591E+01    1.564E+01    1.537E+01
     1.511E+01    1.485E+01    1.460E+01    1.435E+01    1.411E+01    1.387E+01    1.364E+01    1.341E+01    1.318E+01    1.295E+01
     1.273E+01    1.252E+01    1.231E+01    1.210E+01    1.189E+01    1.169E+01    1.149E+01    1.129E+01    1.109E+01    1.090E+01
     1.071E+01    1.052E+01    1.034E+01    1.016E+01    9.976E+00    9.797E+00    9.620E+00    9.445E+00    9.271E+00    9.099E+00
     8.929E+00    8.759E+00    8.591E+00    8.424E+00    8.258E+00    8.093E+00    7.928E+00    7.764E+00    7.601E+00    7.439E+00
     7.277E+00    7.116E+00    6.955E+00    6.795E+00    6.636E+00    6.478E+00    6.320E+00    6.163E+00    6.007E+00    5.851E+00
     5.696E+00    5.542E+00    5.388E+00    5.235E+00    5.083E+00    4.931E+00    4.781E+00    4.630E+00    4.481E+00    4.332E+00
     4.184E+00    4.037E+00    3.890E+00    3.744E+00    3.599E+00    3.454E+00    3.311E+00    3.168E+00    3.025E+00    2.883E+00
     2.742E+00    2.602E+00    2.463E+00    2.324E+00    2.186E+00    2.048E+00    1.912E+00    1.776E+00    1.641E+00    1.506E+00
     1.372E+00    1.239E+00    1.107E+00    9.753E-01    8.444E-01    7.142E-01    5.846E-01    4.558E-01    3.276E-01    2.002E-01
     7.331E-02   -5.288E-02   -1.784E-01   -3.033E-01   -4.276E-01   -5.513E-01   -6.744E-01   -7.969E-01   -9.188E-01   -1.040E+00
    -1.161E+00   -1.281E+00   -1.401E+00   -1.520E+00   -1.638E+00   -1.756E+00   -1.874E+00   -1.991E+00   -2.107E+00   -2.223E+00
    -2.339E+00   -2.454E+00   -2.568E+00   -2.682E+00   -2.796E+00   -2.909E+00   -3.022E+00   -3.134E+00   -3.246E+00   -3.358E+00
    -3.469E+00   -3.579E+00   -3.690E+00   -3.800E+00   -3.909E+00   -4.018E+00   -4.127E+00   -4.236E+00   -4.344E+00   -4.452E+00
    -4.559E+00   -4.666E+00   -4.773E+00   -4.879E+00   -4.984E+00   -5.089E+00   -5.194E+00   -5.298E+00   -5.402E+00   -5.505E+00
    -5.607E+00   -5.709E+00   -5.810E+00   -5.911E+00   -6.011E+00   -6.111E+00   -6.209E+00   -6.307E+00   -6.405E+00   -6.501E+00
    -6.597E+00   -6.692E+00   -6.787E+00   -6.880E+00   -6.973E+00   -7.065E+00   -7.156E+00   -7.246E+00   -7.335E+00   -7.424E+00
    -7.511E+00   -7.598E+00   -7.684E+00   -7.768E+00   -7.852E+00   -7.935E+00   -8.017E+00   -8.097E+00   -8.177E+00   -8.256E+00
    -8.333E+00   -8.409E+00   -8.485E+00   -8.559E+00   -8.632E+00   -8.704E+00   -8.775E+00   -8.845E+00   -8.914E+00   -8.982E+00
    -9.050E+00   -9.116E+00   -9.181E+00   -9.246E+00   -9.309E+00   -9.372E+00   -9.434E+00   -9.495E+00   -9.555E+00   -9.615E+00
    -9.674E+00   -9.732E+00   -9.789E+00   -9.846E+00   -9.902E+00   -9.958E+00   -1.001E+01   -1.007E+01   -1.012E+01   -1.017E+01
    -1.023E+01   -1.028E+01   -1.033E+01   -1.038E+01   -1.043E+01   -1.048E+01   -1.053E+01   -1.058E+01   -1.063E+01   -1.068E+01
    -1.073E+01   -1.078E+01   -1.083E+01   -1.088E+01   -1.092E+01   -1.097E+01   -1.102E+01   -1.107E+01   -1.111E+01   -1.116E+01
    -1.121E+01   -1.126E+01   -1.130E+01   -1.135E+01   -1.139E+01   -1.144E+01   -1.149E+01   -1.153E+01   -1.158E+01   -1.162E+01
    -1.167E+01   -1.171E+01   -1.176E+01   -1.180E+01   -1.185E+01   -1.189E+01   -1.194E+01   -1.198E+01   -1.202E+01   -1.207E+01
    -1.211E+01   -1.215E+01   -1.219E+01   -1.224E+01   -1.228E+01   -1.232E+01   -1.236E+01   -1.240E+01   -1.244E+01   -1.248E+01
    -1.252E+01   -1.256E+01   -1.260E+01   -1.264E+01   -1.268E+01   -1.272E+01   -1.276E+01   -1.280E+01   -1.284E+01   -1.287E+01
    -1.291E+01   -1.295E+01   -1.298E+01   -1.302E+01   -1.306E+01   -1.309E+01   -1.313E+01   -1.316E+01   -1.319E+01   -1.323E+01
    -1.326E+01   -1.329E+01   -1.333E+01   -1.336E+01   -1.339E+01   -1.342E+01   -1.345E+01   -1.348E+01   -1.351E+01   -1.354E+01
    -1.357E+01   -1.359E+01   -1.362E+01   -1.365E+01   -1.367E+01   -1.370E+01   -1.372E+01   -1.374E+01   -1.377E+01   -1.379E+01
    -1.381E+01   -1.383E+01   -1.385E+01   -1.387E+01   -1.389E+01   -1.390E+01   -1.392E+01   -1.393E+01   -1.395E+01   -1.396E+01
    -1.398E+01   -1.399E+01   -1.400E+01   -1.401E+01   -1.402E+01   -1.403E+01   -1.403E+01   -1.404E+01   -1.405E+01   -1.405E+01
    -1.405E+01   -1.406E+01   -1.406E+01   -1.406E+01   -1.406E+01   -1.405E+01   -1.405E+01   -1.405E+01   -1.404E+01   -1.404E+01
    -1.403E+01   -1.402E+01   -1.401E+01   -1.400E+01   -1.399E+01   -1.398E+01   -1.397E+01   -1.395E+01   -1.394E+01   -1.392E+01
    -1.390E+01   -1.388E+01   -1.386E+01   -1.384E+01   -1.382E+01   -1.380E+01   -1.377E+01   -1.375E+01   -1.372E+01   -1.369E+01
    -1.366E+01   -1.363E+01   -1.360E+01   -1.357E+01   -1.353E+01   -1.350E+01   -1.346E+01   -1.343E+01   -1.339E+01   -1.335E+01
    -1.331E+01   -1.326E+01   -1.322E+01   -1.318E+01   -1.313E+01   -1.308E+01   -1.304E+01   -1.299E+01   -1.294E+01   -1.289E+01
    -1.283E+01   -1.278E+01   -1.273E+01   -1.267E+01   -1.261E+01   -1.256E+01   -1.250E+01   -1.244E+01   -1.238E+01   -1.232E+01
    -1.225E+01   -1.219E+01   -1.213E+01   -1.206E+01   -1.200E+01   -1.193E+01   -1.186E+01   -1.179E+01   -1.172E+01   -1.165E+01
    -1.158E+01   -1.151E+01   -1.144E+01   -1.137E+01   -1.129E+01   -1.122E+01   -1.114E+01   -1.107E+01   -1.099E+01   -1.092E+01
    -1.084E+01   -1.076E+01   -1.068E+01   -1.060E+01   -1.052E+01   -1.044E+01   -1.036E+01   -1.028E+01
 Ala      Conc. = 3.22E+01
