 LCModel (Version 6.3-1L) Copyright: S.W. Provencher.          Ref.: Magn. Reson. Med. 30:672-679 (1993).                
 Slice#1 Row#1 Col#2  K_02_press_1_raw_act
 36 lines in following concentration table = NCONC+1
    Conc.  %SD /Cr+PCr  Metabolite                                         
   17.479 196%   0.200 Ala                                                 
   11.625  54%   0.133 Asp                                                 
   38.146 139%   0.437 Cr                                                  
   49.193 110%   0.563 PCr                                                 
    7.157  53% 8.2E-02 GABA                                                
    7.168  53% 8.2E-02 Glc                                                 
   82.535  82%   0.945 Gln                                                 
  127.965  60%   1.465 Glu                                                 
    0.653 999% 7.5E-03 GPC                                                 
   14.664 214%   0.168 PCh                                                 
   61.554  42%   0.705 GSH                                                 
  124.488  63%   1.425 Ins                                                 
    0.000 999%   0.000 Lac                                                 
  103.535  22%   1.185 NAA                                                 
    0.000 999%   0.000 NAAG                                                
    2.474  51% 2.8E-02 Scyllo                                              
   11.536  54%   0.132 Tau                                                 
    8.245  98% 9.4E-02 -CrCH2                                              
   15.316  47%   0.175 GPC+PCh                                             
  103.535  22%   1.185 NAA+NAAG                                            
   87.339  23%   1.000 Cr+PCr                                              
  210.500  47%   2.410 Glu+Gln                                             
  248.022  53%   2.840 Lip13a                                              
    0.000 999%   0.000 Lip13b                                              
   66.222  53%   0.758 Lip09                                               
   28.310 218%   0.324 MM09                                                
   37.203  53%   0.426 Lip20                                               
   22.684 414%   0.260 MM20                                                
    7.508 284% 8.6E-02 MM12                                                
   66.413  96%   0.760 MM14                                                
    6.293 567% 7.2E-02 MM17                                                
  248.022  53%   2.840 Lip13a+Lip13b                                       
  321.943  33%   3.686 MM14+Lip13a+Lip13b+MM12                             
   94.532  54%   1.082 MM09+Lip09                                          
   59.887 142%   0.686 MM20+Lip20                                          
   6 lines in following misc. output table
  FWHM = 0.038 ppm    S/N =   1                                            
  Data shift = 0.031 ppm                                                   
  Ph: 179 deg       3.4 deg/ppm                                            
  alphaB,S = 8.5E+01,   2.6E+01                                            
   14 spline knots.   Ns = 5(1)                                            
   2 inflections.     1 extrema                                            
  498 points on ppm-axis = NY
      4.000000     3.992357     3.984714     3.977070     3.969427     3.961784     3.954141     3.946497     3.938854     3.931211
      3.923568     3.915925     3.908281     3.900638     3.892995     3.885352     3.877708     3.870065     3.862422     3.854779
      3.847136     3.839492     3.831849     3.824206     3.816563     3.808919     3.801276     3.793633     3.785990     3.778347
      3.770703     3.763060     3.755417     3.747774     3.740130     3.732487     3.724844     3.717201     3.709558     3.701914
      3.694271     3.686628     3.678985     3.671341     3.663698     3.656055     3.648412     3.640769     3.633125     3.625482
      3.617839     3.610196     3.602552     3.594909     3.587266     3.579623     3.571980     3.564336     3.556693     3.549050
      3.541407     3.533763     3.526120     3.518477     3.510834     3.503191     3.495547     3.487904     3.480261     3.472618
      3.464974     3.457331     3.449688     3.442045     3.434402     3.426758     3.419115     3.411472     3.403829     3.396185
      3.388542     3.380899     3.373256     3.365613     3.357969     3.350326     3.342683     3.335040     3.327396     3.319753
      3.312110     3.304467     3.296824     3.289180     3.281537     3.273894     3.266251     3.258607     3.250964     3.243321
      3.235678     3.228034     3.220391     3.212748     3.205105     3.197462     3.189818     3.182175     3.174532     3.166889
      3.159245     3.151602     3.143959     3.136316     3.128673     3.121029     3.113386     3.105743     3.098100     3.090456
      3.082813     3.075170     3.067527     3.059884     3.052240     3.044597     3.036954     3.029311     3.021667     3.014024
      3.006381     2.998738     2.991095     2.983451     2.975808     2.968165     2.960522     2.952878     2.945235     2.937592
      2.929949     2.922306     2.914662     2.907019     2.899376     2.891733     2.884089     2.876446     2.868803     2.861160
      2.853517     2.845873     2.838230     2.830587     2.822944     2.815300     2.807657     2.800014     2.792371     2.784728
      2.777084     2.769441     2.761798     2.754155     2.746511     2.738868     2.731225     2.723582     2.715939     2.708295
      2.700652     2.693009     2.685366     2.677722     2.670079     2.662436     2.654793     2.647150     2.639506     2.631863
      2.624220     2.616577     2.608933     2.601290     2.593647     2.586004     2.578361     2.570717     2.563074     2.555431
      2.547788     2.540144     2.532501     2.524858     2.517215     2.509572     2.501928     2.494285     2.486642     2.478999
      2.471355     2.463712     2.456069     2.448426     2.440783     2.433139     2.425496     2.417853     2.410210     2.402566
      2.394923     2.387280     2.379637     2.371994     2.364350     2.356707     2.349064     2.341421     2.333777     2.326134
      2.318491     2.310848     2.303205     2.295561     2.287918     2.280275     2.272632     2.264988     2.257345     2.249702
      2.242059     2.234416     2.226772     2.219129     2.211486     2.203843     2.196199     2.188556     2.180913     2.173270
      2.165627     2.157983     2.150340     2.142697     2.135054     2.127410     2.119767     2.112124     2.104481     2.096838
      2.089194     2.081551     2.073908     2.066265     2.058621     2.050978     2.043335     2.035692     2.028049     2.020405
      2.012762     2.005119     1.997476     1.989833     1.982190     1.974546     1.966903     1.959260     1.951617     1.943974
      1.936331     1.928688     1.921045     1.913402     1.905759     1.898115     1.890472     1.882829     1.875186     1.867543
      1.859900     1.852257     1.844614     1.836971     1.829327     1.821684     1.814041     1.806398     1.798755     1.791112
      1.783469     1.775826     1.768183     1.760540     1.752896     1.745253     1.737610     1.729967     1.722324     1.714681
      1.707038     1.699395     1.691752     1.684108     1.676465     1.668822     1.661179     1.653536     1.645893     1.638250
      1.630607     1.622964     1.615321     1.607677     1.600034     1.592391     1.584748     1.577105     1.569462     1.561819
      1.554176     1.546533     1.538890     1.531246     1.523603     1.515960     1.508317     1.500674     1.493031     1.485388
      1.477745     1.470102     1.462458     1.454815     1.447172     1.439529     1.431886     1.424243     1.416600     1.408957
      1.401314     1.393671     1.386027     1.378384     1.370741     1.363098     1.355455     1.347812     1.340169     1.332526
      1.324883     1.317240     1.309596     1.301953     1.294310     1.286667     1.279024     1.271381     1.263738     1.256095
      1.248452     1.240808     1.233165     1.225522     1.217879     1.210236     1.202593     1.194950     1.187307     1.179664
      1.172021     1.164377     1.156734     1.149091     1.141448     1.133805     1.126162     1.118519     1.110876     1.103233
      1.095590     1.087946     1.080303     1.072660     1.065017     1.057374     1.049731     1.042088     1.034445     1.026802
      1.019158     1.011515     1.003872     0.996229     0.988586     0.980943     0.973300     0.965657     0.958014     0.950371
      0.942727     0.935084     0.927441     0.919798     0.912155     0.904512     0.896869     0.889226     0.881583     0.873940
      0.866296     0.858653     0.851010     0.843367     0.835724     0.828081     0.820438     0.812795     0.805152     0.797508
      0.789865     0.782222     0.774579     0.766936     0.759293     0.751650     0.744007     0.736364     0.728721     0.721077
      0.713434     0.705791     0.698148     0.690505     0.682862     0.675219     0.667576     0.659933     0.652290     0.644646
      0.637003     0.629360     0.621717     0.614074     0.606431     0.598788     0.591145     0.583502     0.575858     0.568215
      0.560572     0.552929     0.545286     0.537643     0.530000     0.522357     0.514714     0.507071     0.499427     0.491784
      0.484141     0.476498     0.468855     0.461212     0.453569     0.445925     0.438282     0.430639     0.422996     0.415353
      0.407710     0.400067     0.392424     0.384780     0.377137     0.369494     0.361851     0.354208     0.346565     0.338922
      0.331278     0.323635     0.315992     0.308349     0.300706     0.293063     0.285420     0.277777     0.270133     0.262490
      0.254847     0.247204     0.239561     0.231918     0.224275     0.216631     0.208988     0.201345
 NY phased data points follow
   7.35850E-01  3.30894E+00  3.13180E+00  4.16441E+00  2.40518E+00  1.76417E+00  1.61920E+00  4.64027E+00  4.04867E+00  2.55064E+00
   2.59593E+00  3.80926E+00  3.27076E+00  3.36495E+00 -1.42473E-01  1.93171E+00  3.45859E+00  1.99055E+00 -7.06863E-01  1.85919E+00
   5.45572E+00  1.85613E+00  3.19681E+00  4.94698E+00  6.36438E-01  3.72848E+00 -3.07905E-01  1.17047E+00  2.73900E+00  5.40343E+00
   4.72732E+00  2.71837E+00  1.48140E+00  3.54964E+00  7.25968E-01  1.82286E+00  3.18965E-01  4.35604E+00  3.42693E+00  8.48861E-01
   1.78255E+00  1.25905E+00  3.03809E+00  3.11639E+00  1.55059E+00  5.16074E+00 -1.74667E+00  4.52060E+00  2.85019E+00 -4.91995E-01
   2.45409E+00  1.71025E+00  2.10926E-01  6.89563E+00  2.76623E+00  1.39155E+00  2.87585E+00  9.55595E-01 -3.90176E-01  8.92498E-01
   2.27722E-01 -6.40196E-03  3.14876E+00  2.19907E+00  1.39410E+00  5.41836E-01 -3.44437E-01  4.06608E-01  1.61119E+00  1.74849E+00
   2.43801E+00  3.08519E+00  2.60708E+00  2.72670E+00  1.48301E+00  7.64749E-01  1.13703E+00 -3.49745E+00 -3.48735E+00  2.71817E+00
   3.91539E+00  3.71249E+00  5.61061E+00  1.50929E+00  3.31939E+00  7.05989E-01 -3.04097E-01  2.27075E+00 -1.40264E+00  5.64352E-01
   3.31882E+00  1.10520E+00  3.09332E-01  2.31718E+00  8.50940E-01 -1.37383E-01  1.90769E+00 -1.79157E+00  1.46246E+00 -1.03626E+00
   1.70183E+00  2.72220E+00  3.25474E+00  1.96542E+00  3.68230E+00  3.73474E+00  9.84292E-01 -6.77325E-01  3.26660E+00 -1.45077E+00
  -9.75703E-03 -2.10634E+00 -1.29752E+00  7.23096E-01  1.36394E+00 -3.61661E+00  3.51643E+00  1.60298E+00 -7.89034E-01 -2.41651E-01
   2.37041E+00 -2.28343E-01  1.38352E+00  8.09407E-01  2.25825E+00  5.63936E+00  3.09011E+00  8.18248E+00  5.03427E+00  2.39115E+00
  -2.17390E-01  1.30250E+00  7.19489E-01  9.41764E-01 -2.43896E+00  2.79430E+00  6.07793E-01 -1.28882E+00  1.68124E+00  3.81205E+00
   2.11975E+00  2.84280E+00  2.48080E+00 -6.62255E-01  3.55202E+00  1.10815E+00  3.32344E-01  3.85316E+00  1.12191E+00  1.43687E+00
   3.12169E+00  2.51058E+00  1.17026E+00  2.37449E+00  1.69724E+00  2.25731E+00  6.19529E-01  1.97317E+00  3.09918E+00  4.80753E-01
   2.04049E+00  9.00426E-01  2.57911E-02  4.96862E-02  1.57412E-01  2.48267E+00  9.15535E-01  1.41818E+00  5.29984E-01  1.66459E+00
   1.35609E-01 -8.94049E-01  1.43332E-01  1.73564E-01  5.09014E-02  3.44799E+00  9.84814E-01  1.56880E+00  1.73406E+00  1.06300E+00
   8.63219E-01 -1.71689E+00  2.26957E+00  7.09853E-02  1.11931E+00  2.14485E+00 -1.16193E+00  3.09198E+00  8.62688E-01  2.33267E+00
   7.51346E-01 -1.77751E-01 -1.34744E-02  9.55629E-01 -5.50536E-01  1.22742E+00  6.69506E-01  2.20826E-01 -2.36905E+00  1.22218E+00
   8.99427E-01 -8.81168E-02  3.59087E+00  3.60460E+00 -1.13182E+00  6.27623E+00 -9.39551E-02 -2.22215E+00 -2.16604E+00 -1.18157E+00
   1.57349E+00 -9.76344E-01  2.42157E+00 -1.83197E+00  1.72364E+00 -2.58639E-01  1.77670E+00 -3.78143E-02  2.61478E-02 -1.32660E+00
  -2.46549E+00  2.10073E+00  6.20601E-01  1.00780E+00  3.74068E-01 -7.82069E-01  2.01679E+00  9.21034E-01  5.06742E+00 -1.02963E+00
   6.01775E-01  1.24597E+00  3.18353E-01 -1.31201E+00  1.08159E+00  5.49390E+00 -9.36161E-01 -1.23438E+00  2.06862E-01  9.00173E-01
  -9.68868E-01 -7.14392E-01  2.55667E+00  2.67604E+00  9.10438E-01  2.55245E+00 -7.55450E-01 -3.83284E-01  1.82768E+00  4.53859E-01
   7.39167E-01 -1.62110E+00 -6.22930E-01  5.65682E+00  1.42408E+00 -1.93420E+00  2.70228E+00  2.95216E+00  5.19294E+00  5.97583E+00
   6.51038E+00  3.43964E+00  3.22839E+00  2.75907E+00  8.10372E-01 -4.05626E+00 -1.12047E+00 -1.27917E+00 -1.18743E+00 -2.67294E+00
   2.98858E+00 -2.21523E-01  2.83687E+00  2.85211E+00  4.43316E-01 -2.19355E-01 -1.30489E+00  2.19227E+00 -3.34292E+00  2.01814E+00
   1.33829E+00  2.93507E+00  5.28633E-01  1.45708E-01  1.35029E+00  1.65310E+00  3.25066E+00  1.47689E+00 -1.81659E+00  3.15174E+00
   3.25319E+00  4.12360E-01  1.35251E+00  1.48176E+00  3.10150E+00  7.22559E-01  2.51184E+00  2.21672E+00  2.31827E+00  3.34145E-01
  -1.16861E+00 -3.77108E-01 -1.58800E+00 -3.03723E+00 -8.02218E-01  1.39999E+00  4.12943E+00 -8.57650E-02 -3.00956E+00  2.84435E-01
   1.46530E+00  4.06670E-02  1.73429E-01  1.27520E+00 -2.60573E-01 -9.42320E-01  1.48615E+00 -1.53612E+00  1.49431E+00  7.74238E-01
  -6.01496E-02  2.46829E+00  1.79519E-01  3.95487E+00  1.24909E+00 -1.00418E+00  4.48088E-02 -3.30909E-01  1.66669E+00  4.97001E-01
   3.04337E+00  1.25488E+00  1.39589E+00  4.97325E+00  2.64648E+00  5.66293E-01  2.61355E+00  3.24729E+00  2.35670E+00  1.30034E+00
   2.81167E+00  2.45446E+00  4.87145E+00  1.92495E+00  3.73363E+00  1.56439E-01  1.59073E+00  1.55407E+00  3.26038E+00  1.60276E+00
   3.19132E+00  5.58829E+00  1.40132E+00  1.76180E-01  1.55143E+00  3.02480E-01 -1.05747E+00  3.83542E-01  2.91617E-01  1.73815E-01
  -9.10811E-01  5.93032E-01 -1.63312E+00  1.12203E+00  4.02862E-01 -1.07206E+00 -2.43534E+00 -5.53404E-01  2.85553E-01  1.71299E+00
  -4.66032E-01  3.48048E-01  2.28546E+00  4.13686E+00  1.79749E+00  1.38756E+00  3.53464E+00  1.60325E+00 -2.83548E-01  2.19978E+00
   1.51665E+00  1.91753E+00 -1.67321E+00  1.55193E+00 -7.57042E-01 -1.10113E+00 -1.23992E+00 -9.03503E-01 -5.19742E-01  1.97452E+00
  -5.04252E-01 -6.14991E-01  4.64372E+00 -1.00430E+00  1.63902E+00  8.88919E-01  7.94212E-02  1.14728E+00  3.14098E+00  5.22254E-01
   7.57000E-01  7.17013E-01  4.01427E-01  2.27804E+00  1.86071E+00  2.03367E+00  9.72122E-01  1.58076E+00  3.23451E-01  2.45616E+00
   2.16839E+00  7.34441E-01 -1.70306E+00 -1.70765E-01  9.32242E-01  1.64611E+00  2.63408E-01  2.48578E+00 -2.23395E+00 -1.29351E+00
   2.40503E-01  9.45426E-01  3.47665E-01  3.28461E+00 -7.79633E-01 -1.21304E+00 -6.40717E-01  3.12613E+00  1.31658E+00  8.19639E-01
  -1.55534E+00  2.00024E+00  3.81102E-01 -1.85319E+00  2.09082E+00 -2.64881E+00  9.44361E-01  3.31011E-01 -2.08414E+00  1.28041E+00
   1.20455E+00  1.19258E+00 -8.29384E-01  1.89842E+00 -2.36274E+00 -6.63862E-01 -8.67297E-01 -1.25819E+00  1.01241E+00 -1.47791E-02
   5.27042E-01  8.62343E-01  4.06342E+00  2.07598E+00  7.20323E-02  1.59488E+00  2.21453E+00 -1.81714E+00  8.40155E-01 -5.99793E-01
  -2.18700E+00  4.27240E-02 -4.49026E-01  4.79154E-01 -3.57389E-01 -1.08649E+00 -1.01370E+00 -1.09234E+00  5.30424E-01  1.17572E+00
  -1.64882E-01  6.44997E-01  7.47987E-01 -7.38121E-02  1.39713E-01  1.36858E+00 -8.16492E-01  9.35706E-01 -1.22286E+00 -2.82307E-01
  -5.06119E-01 -5.31453E-01  6.18174E-01  2.43780E-01  1.01912E+00 -1.78750E+00 -3.78649E-02  3.48949E+00 -2.37507E+00  1.20708E+00
  -6.15735E-01 -1.87024E+00 -5.59448E-01  1.52094E+00 -2.59912E+00  2.98337E+00  2.88878E+00  3.94666E+00
 NY points of the fit to the data follow
   1.51842E+00  1.50853E+00  1.53253E+00  1.58330E+00  1.71946E+00  1.99798E+00  2.41970E+00  2.92409E+00  3.36938E+00  3.59908E+00
   3.51852E+00  3.15172E+00  2.61834E+00  2.07599E+00  1.66777E+00  1.45358E+00  1.39127E+00  1.43079E+00  1.51419E+00  1.58744E+00
   1.65652E+00  1.71261E+00  1.72017E+00  1.64796E+00  1.55022E+00  1.61051E+00  1.93693E+00  2.48742E+00  3.11421E+00  3.62276E+00
   3.82349E+00  3.61151E+00  3.04204E+00  2.30425E+00  1.63308E+00  1.20371E+00  1.03521E+00  1.02965E+00  1.14273E+00  1.30082E+00
   1.42449E+00  1.50092E+00  1.59902E+00  1.80169E+00  2.10417E+00  2.40756E+00  2.57340E+00  2.50597E+00  2.20876E+00  1.77387E+00
   1.34613E+00  1.05638E+00  9.64378E-01  1.03501E+00  1.17552E+00  1.32196E+00  1.46827E+00  1.61491E+00  1.73259E+00  1.78166E+00
   1.73729E+00  1.60929E+00  1.44202E+00  1.29208E+00  1.21190E+00  1.21916E+00  1.28731E+00  1.38408E+00  1.48142E+00  1.55510E+00
   1.59785E+00  1.61308E+00  1.60543E+00  1.57547E+00  1.52515E+00  1.46287E+00  1.39749E+00  1.34373E+00  1.30911E+00  1.28991E+00
   1.28928E+00  1.30942E+00  1.32896E+00  1.31307E+00  1.24130E+00  1.12301E+00  9.92638E-01  8.94188E-01  8.61673E-01  9.04412E-01
   1.00339E+00  1.12393E+00  1.22523E+00  1.27572E+00  1.27826E+00  1.24986E+00  1.20979E+00  1.18653E+00  1.26539E+00  1.56372E+00
   2.05786E+00  2.58364E+00  2.93944E+00  2.99036E+00  2.71297E+00  2.20274E+00  1.64201E+00  1.20713E+00  9.90537E-01  9.74089E-01
   1.03299E+00  1.05835E+00  1.06862E+00  1.07707E+00  1.08462E+00  1.08675E+00  1.08325E+00  1.07868E+00  1.08076E+00  1.10149E+00
   1.16325E+00  1.33262E+00  1.81200E+00  2.70204E+00  3.79528E+00  4.70744E+00  5.10982E+00  4.86840E+00  4.07371E+00  3.02637E+00
   2.06943E+00  1.41472E+00  1.09652E+00  9.68624E-01  7.98420E-01  5.96819E-01  5.11297E-01  5.97335E-01  8.21348E-01  1.09003E+00
   1.29337E+00  1.37250E+00  1.34249E+00  1.24523E+00  1.13349E+00  1.04902E+00  9.99153E-01  9.72773E-01  9.53187E-01  9.27340E-01
   8.98657E-01  8.73215E-01  8.57878E-01  8.55836E-01  8.65693E-01  8.78630E-01  8.77429E-01  8.52400E-01  8.09359E-01  7.66767E-01
   7.48056E-01  7.63142E-01  8.02614E-01  8.43111E-01  8.63434E-01  8.54015E-01  8.18370E-01  7.73477E-01  7.40231E-01  7.24411E-01
   7.17162E-01  7.00881E-01  6.62388E-01  6.16434E-01  5.84473E-01  5.76987E-01  5.87044E-01  6.00531E-01  6.07912E-01  6.06341E-01
   5.93851E-01  5.70715E-01  5.40715E-01  5.17415E-01  5.20630E-01  5.69866E-01  6.85075E-01  8.64080E-01  1.06923E+00  1.22891E+00
   1.27676E+00  1.18713E+00  9.78288E-01  6.99030E-01  4.37448E-01  2.79832E-01  2.75434E-01  4.29492E-01  7.05430E-01  1.03662E+00
   1.34849E+00  1.57644E+00  1.66412E+00  1.59373E+00  1.38299E+00  1.04418E+00  6.09099E-01  1.91431E-01 -7.65955E-02 -1.08218E-01
   1.30844E-01  6.19788E-01  1.21677E+00  1.71999E+00  1.97295E+00  1.90546E+00  1.55278E+00  1.01975E+00  4.35800E-01 -3.88600E-02
  -2.49271E-01 -1.49079E-01  1.88884E-01  6.31272E-01  1.06559E+00  1.37520E+00  1.47814E+00  1.36986E+00  1.14054E+00  9.24146E-01
   7.99072E-01  7.65431E-01  8.17906E-01  9.52237E-01  1.11637E+00  1.23591E+00  1.26517E+00  1.20390E+00  1.06161E+00  8.59454E-01
   6.48755E-01  4.98691E-01  4.55376E-01  5.30910E-01  6.75535E-01  8.11905E-01  9.00667E-01  9.32954E-01  9.21542E-01  9.09590E-01
   9.50259E-01  1.04191E+00  1.14791E+00  1.23754E+00  1.33700E+00  1.65571E+00  2.45724E+00  3.65100E+00  4.83464E+00  5.55902E+00
   5.54471E+00  4.76218E+00  3.46615E+00  2.10773E+00  1.08882E+00  6.01085E-01  5.60954E-01  6.42069E-01  6.40056E-01  6.29681E-01
   6.37725E-01  6.62219E-01  7.00630E-01  7.40218E-01  7.65424E-01  7.68357E-01  7.49869E-01  7.18070E-01  6.84154E-01  6.56915E-01
   6.38795E-01  6.29650E-01  6.28896E-01  6.33267E-01  6.38720E-01  6.42900E-01  6.44841E-01  6.44926E-01  6.43913E-01  6.42216E-01
   6.40462E-01  6.39193E-01  6.38462E-01  6.38106E-01  6.38286E-01  6.39301E-01  6.40956E-01  6.42937E-01  6.45318E-01  6.48107E-01
   6.51117E-01  6.54316E-01  6.57635E-01  6.61016E-01  6.64446E-01  6.68004E-01  6.71839E-01  6.76130E-01  6.81051E-01  6.86718E-01
   6.93190E-01  7.00618E-01  7.09202E-01  7.19160E-01  7.30744E-01  7.44240E-01  7.60001E-01  7.78506E-01  8.00467E-01  8.27087E-01
   8.60728E-01  9.07102E-01  9.74459E-01  1.04754E+00  1.09052E+00  1.07550E+00  9.99907E-01  8.84061E-01  7.60186E-01  6.63646E-01
   6.34466E-01  7.01431E-01  8.55951E-01  1.05171E+00  1.23297E+00  1.37174E+00  1.45088E+00  1.46564E+00  1.43564E+00  1.39276E+00
   1.36697E+00  1.37162E+00  1.39124E+00  1.41058E+00  1.42947E+00  1.44788E+00  1.46532E+00  1.48124E+00  1.49507E+00  1.50628E+00
   1.51434E+00  1.51877E+00  1.51917E+00  1.51518E+00  1.50654E+00  1.49310E+00  1.47478E+00  1.45169E+00  1.42399E+00  1.39199E+00
   1.35609E+00  1.31678E+00  1.27461E+00  1.23020E+00  1.18419E+00  1.13723E+00  1.08993E+00  1.04290E+00  9.96700E-01  9.51828E-01
   9.08724E-01  8.67757E-01  8.29227E-01  7.93374E-01  7.60381E-01  7.30379E-01  7.03454E-01  6.79657E-01  6.59008E-01  6.41517E-01
   6.27180E-01  6.15991E-01  6.07939E-01  6.03009E-01  6.01191E-01  6.02469E-01  6.06822E-01  6.14208E-01  6.24558E-01  6.37764E-01
   6.53672E-01  6.72071E-01  6.92678E-01  7.15132E-01  7.38987E-01  7.63719E-01  7.88727E-01  8.13348E-01  8.36872E-01  8.58559E-01
   8.77673E-01  8.93509E-01  9.05428E-01  9.12883E-01  9.15445E-01  9.12825E-01  9.04887E-01  8.91664E-01  8.73349E-01  8.50285E-01
   8.22946E-01  7.91914E-01  7.57850E-01  7.21466E-01  6.83488E-01  6.44629E-01  6.05559E-01  5.66883E-01  5.29131E-01  4.92747E-01
   4.58078E-01  4.25379E-01  3.94813E-01  3.66467E-01  3.40360E-01  3.16455E-01  2.94666E-01  2.74876E-01  2.56943E-01  2.40716E-01
   2.26038E-01  2.12755E-01  2.00714E-01  1.89773E-01  1.79797E-01  1.70670E-01  1.62286E-01  1.54552E-01  1.47382E-01  1.40704E-01
   1.34455E-01  1.28580E-01  1.23035E-01  1.17779E-01  1.12775E-01  1.07993E-01  1.03406E-01  9.89953E-02  9.47406E-02  9.06250E-02
   8.66318E-02  8.27490E-02  7.89669E-02  7.52784E-02  7.16746E-02  6.81466E-02  6.46853E-02  6.12852E-02  5.79416E-02  5.46512E-02
   5.14091E-02  4.82110E-02  4.50530E-02  4.19336E-02  3.88509E-02  3.58025E-02  3.27838E-02  2.97918E-02  2.68245E-02  2.38824E-02
   2.09652E-02  1.80718E-02  1.51991E-02  1.23455E-02  9.51033E-03  6.69459E-03  3.89713E-03  1.11646E-03 -1.65024E-03 -4.40280E-03
  -7.14055E-03 -9.86188E-03 -1.25680E-02 -1.52603E-02 -1.79403E-02 -2.06069E-02 -2.32588E-02 -2.58948E-02 -2.85165E-02 -3.11246E-02
  -3.37194E-02 -3.62981E-02 -3.88589E-02 -4.14007E-02 -4.39246E-02 -4.64301E-02 -4.89150E-02 -5.13748E-02
 NY background values follow
     1.271E+00    1.268E+00    1.266E+00    1.263E+00    1.260E+00    1.258E+00    1.255E+00    1.252E+00    1.250E+00    1.247E+00
     1.245E+00    1.242E+00    1.239E+00    1.237E+00    1.234E+00    1.231E+00    1.229E+00    1.226E+00    1.223E+00    1.221E+00
     1.218E+00    1.215E+00    1.213E+00    1.210E+00    1.207E+00    1.205E+00    1.202E+00    1.200E+00    1.197E+00    1.194E+00
     1.192E+00    1.189E+00    1.186E+00    1.184E+00    1.181E+00    1.178E+00    1.176E+00    1.173E+00    1.170E+00    1.168E+00
     1.165E+00    1.162E+00    1.160E+00    1.157E+00    1.155E+00    1.152E+00    1.149E+00    1.147E+00    1.144E+00    1.141E+00
     1.139E+00    1.136E+00    1.133E+00    1.131E+00    1.128E+00    1.125E+00    1.123E+00    1.120E+00    1.117E+00    1.115E+00
     1.112E+00    1.110E+00    1.107E+00    1.104E+00    1.102E+00    1.099E+00    1.096E+00    1.094E+00    1.091E+00    1.088E+00
     1.086E+00    1.083E+00    1.080E+00    1.078E+00    1.075E+00    1.072E+00    1.070E+00    1.067E+00    1.065E+00    1.062E+00
     1.059E+00    1.057E+00    1.054E+00    1.051E+00    1.049E+00    1.046E+00    1.043E+00    1.041E+00    1.038E+00    1.035E+00
     1.033E+00    1.030E+00    1.027E+00    1.025E+00    1.022E+00    1.020E+00    1.017E+00    1.014E+00    1.012E+00    1.009E+00
     1.006E+00    1.004E+00    1.001E+00    9.984E-01    9.957E-01    9.931E-01    9.904E-01    9.878E-01    9.851E-01    9.825E-01
     9.799E-01    9.772E-01    9.746E-01    9.719E-01    9.693E-01    9.666E-01    9.640E-01    9.613E-01    9.587E-01    9.561E-01
     9.534E-01    9.508E-01    9.481E-01    9.455E-01    9.428E-01    9.402E-01    9.375E-01    9.349E-01    9.323E-01    9.296E-01
     9.270E-01    9.243E-01    9.217E-01    9.190E-01    9.164E-01    9.137E-01    9.111E-01    9.085E-01    9.058E-01    9.032E-01
     9.005E-01    8.979E-01    8.952E-01    8.926E-01    8.899E-01    8.873E-01    8.847E-01    8.820E-01    8.794E-01    8.767E-01
     8.741E-01    8.714E-01    8.688E-01    8.662E-01    8.635E-01    8.609E-01    8.582E-01    8.556E-01    8.529E-01    8.503E-01
     8.477E-01    8.450E-01    8.424E-01    8.397E-01    8.371E-01    8.344E-01    8.318E-01    8.292E-01    8.265E-01    8.239E-01
     8.212E-01    8.186E-01    8.159E-01    8.133E-01    8.107E-01    8.080E-01    8.054E-01    8.027E-01    8.001E-01    7.974E-01
     7.948E-01    7.922E-01    7.895E-01    7.869E-01    7.842E-01    7.816E-01    7.790E-01    7.763E-01    7.737E-01    7.710E-01
     7.684E-01    7.657E-01    7.631E-01    7.605E-01    7.578E-01    7.552E-01    7.525E-01    7.499E-01    7.473E-01    7.446E-01
     7.420E-01    7.393E-01    7.367E-01    7.340E-01    7.314E-01    7.288E-01    7.261E-01    7.235E-01    7.208E-01    7.182E-01
     7.156E-01    7.129E-01    7.103E-01    7.076E-01    7.050E-01    7.024E-01    6.997E-01    6.971E-01    6.944E-01    6.918E-01
     6.891E-01    6.865E-01    6.839E-01    6.812E-01    6.786E-01    6.759E-01    6.733E-01    6.707E-01    6.680E-01    6.654E-01
     6.627E-01    6.601E-01    6.575E-01    6.548E-01    6.522E-01    6.495E-01    6.469E-01    6.443E-01    6.416E-01    6.390E-01
     6.364E-01    6.337E-01    6.311E-01    6.284E-01    6.258E-01    6.232E-01    6.205E-01    6.179E-01    6.152E-01    6.126E-01
     6.100E-01    6.073E-01    6.047E-01    6.020E-01    5.994E-01    5.968E-01    5.941E-01    5.915E-01    5.888E-01    5.862E-01
     5.836E-01    5.809E-01    5.783E-01    5.757E-01    5.730E-01    5.704E-01    5.677E-01    5.651E-01    5.625E-01    5.598E-01
     5.572E-01    5.546E-01    5.519E-01    5.493E-01    5.466E-01    5.440E-01    5.414E-01    5.387E-01    5.361E-01    5.334E-01
     5.308E-01    5.282E-01    5.255E-01    5.229E-01    5.203E-01    5.176E-01    5.150E-01    5.123E-01    5.097E-01    5.071E-01
     5.044E-01    5.018E-01    4.992E-01    4.965E-01    4.939E-01    4.913E-01    4.886E-01    4.860E-01    4.833E-01    4.807E-01
     4.781E-01    4.754E-01    4.728E-01    4.702E-01    4.675E-01    4.649E-01    4.623E-01    4.596E-01    4.570E-01    4.543E-01
     4.517E-01    4.491E-01    4.464E-01    4.438E-01    4.412E-01    4.385E-01    4.359E-01    4.333E-01    4.306E-01    4.280E-01
     4.254E-01    4.227E-01    4.201E-01    4.174E-01    4.148E-01    4.122E-01    4.095E-01    4.069E-01    4.043E-01    4.016E-01
     3.990E-01    3.964E-01    3.937E-01    3.911E-01    3.885E-01    3.858E-01    3.832E-01    3.806E-01    3.779E-01    3.753E-01
     3.727E-01    3.700E-01    3.674E-01    3.647E-01    3.621E-01    3.595E-01    3.568E-01    3.542E-01    3.516E-01    3.489E-01
     3.463E-01    3.437E-01    3.410E-01    3.384E-01    3.358E-01    3.331E-01    3.305E-01    3.279E-01    3.252E-01    3.226E-01
     3.200E-01    3.173E-01    3.147E-01    3.121E-01    3.094E-01    3.068E-01    3.042E-01    3.015E-01    2.989E-01    2.963E-01
     2.936E-01    2.910E-01    2.884E-01    2.857E-01    2.831E-01    2.805E-01    2.778E-01    2.752E-01    2.726E-01    2.699E-01
     2.673E-01    2.647E-01    2.620E-01    2.594E-01    2.568E-01    2.542E-01    2.515E-01    2.489E-01    2.463E-01    2.436E-01
     2.410E-01    2.384E-01    2.357E-01    2.331E-01    2.305E-01    2.278E-01    2.252E-01    2.226E-01    2.199E-01    2.173E-01
     2.147E-01    2.120E-01    2.094E-01    2.068E-01    2.042E-01    2.015E-01    1.989E-01    1.963E-01    1.936E-01    1.910E-01
     1.884E-01    1.857E-01    1.831E-01    1.805E-01    1.778E-01    1.752E-01    1.726E-01    1.700E-01    1.673E-01    1.647E-01
     1.621E-01    1.594E-01    1.568E-01    1.542E-01    1.515E-01    1.489E-01    1.463E-01    1.437E-01    1.410E-01    1.384E-01
     1.358E-01    1.331E-01    1.305E-01    1.279E-01    1.252E-01    1.226E-01    1.200E-01    1.174E-01    1.147E-01    1.121E-01
     1.095E-01    1.068E-01    1.042E-01    1.016E-01    9.895E-02    9.633E-02    9.370E-02    9.107E-02    8.844E-02    8.581E-02
     8.318E-02    8.055E-02    7.793E-02    7.530E-02    7.267E-02    7.004E-02    6.741E-02    6.478E-02    6.216E-02    5.953E-02
     5.690E-02    5.427E-02    5.164E-02    4.902E-02    4.639E-02    4.376E-02    4.113E-02    3.851E-02    3.588E-02    3.325E-02
     3.062E-02    2.800E-02    2.537E-02    2.274E-02    2.012E-02    1.749E-02    1.486E-02    1.223E-02    9.607E-03    6.980E-03
     4.353E-03    1.727E-03   -9.001E-04   -3.527E-03   -6.153E-03   -8.780E-03   -1.141E-02   -1.403E-02   -1.666E-02   -1.929E-02
    -2.191E-02   -2.454E-02   -2.716E-02   -2.979E-02   -3.242E-02   -3.504E-02   -3.767E-02   -4.029E-02
 Ala      Conc. = 1.75E+01
