 LCModel (Version 6.3-1L) Copyright: S.W. Provencher.          Ref.: Magn. Reson. Med. 30:672-679 (1993).                
 Slice#3 Row#8 Col#12  K_02_press_1_raw_act
 36 lines in following concentration table = NCONC+1
    Conc.  %SD /Cr+PCr  Metabolite                                         
   38.093 166% 6.0E-02 Ala                                                 
    0.000 999%   0.000 Asp                                                 
    0.000 999%   0.000 Cr                                                  
  635.583   6%   1.000 PCr                                                 
    0.000 999%   0.000 GABA                                                
   68.651 134%   0.108 Glc                                                 
  302.970  42%   0.477 Gln                                                 
 1.15E+03  13%   1.810 Glu                                                 
  133.539  10%   0.210 GPC                                                 
    0.000 999%   0.000 PCh                                                 
   75.886  59%   0.119 GSH                                                 
  343.394  44%   0.540 Ins                                                 
  119.006  58%   0.187 Lac                                                 
 2.02E+03   5%   3.183 NAA                                                 
  276.016  37%   0.434 NAAG                                                
   44.957  38% 7.1E-02 Scyllo                                              
  108.839 116%   0.171 Tau                                                 
  466.644  14%   0.734 -CrCH2                                              
  133.539  10%   0.210 GPC+PCh                                             
 2.30E+03   3%   3.618 NAA+NAAG                                            
  635.583   6%   1.000 Cr+PCr                                              
 1.45E+03  14%   2.286 Glu+Gln                                             
 3.46E+03  14%   5.445 Lip13a                                              
    0.000 999%   0.000 Lip13b                                              
  913.887  15%   1.438 Lip09                                               
  583.464  29%   0.918 MM09                                                
  522.202  15%   0.822 Lip20                                               
 1.33E+03  19%   2.093 MM20                                                
  176.154  40%   0.277 MM12                                                
  978.414  23%   1.539 MM14                                                
  267.248  50%   0.420 MM17                                                
 3.46E+03  14%   5.445 Lip13a+Lip13b                                       
 4.62E+03   8%   7.262 MM14+Lip13a+Lip13b+MM12                             
 1.50E+03  11%   2.356 MM09+Lip09                                          
 1.85E+03  13%   2.915 MM20+Lip20                                          
   6 lines in following misc. output table
  FWHM = 0.038 ppm    S/N =  17                                            
  Data shift =-0.008 ppm                                                   
  Ph: -58 deg     -30.5 deg/ppm                                            
  alphaB,S = 5.2E-01,   5.1E+01                                            
   14 spline knots.   Ns = 6(1)                                            
  ( 7) 2 infls.   ( 1) 1 extrs.                                            
  498 points on ppm-axis = NY
      4.000000     3.992357     3.984714     3.977070     3.969427     3.961784     3.954141     3.946497     3.938854     3.931211
      3.923568     3.915925     3.908281     3.900638     3.892995     3.885352     3.877708     3.870065     3.862422     3.854779
      3.847136     3.839492     3.831849     3.824206     3.816563     3.808919     3.801276     3.793633     3.785990     3.778347
      3.770703     3.763060     3.755417     3.747774     3.740130     3.732487     3.724844     3.717201     3.709558     3.701914
      3.694271     3.686628     3.678985     3.671341     3.663698     3.656055     3.648412     3.640769     3.633125     3.625482
      3.617839     3.610196     3.602552     3.594909     3.587266     3.579623     3.571980     3.564336     3.556693     3.549050
      3.541407     3.533763     3.526120     3.518477     3.510834     3.503191     3.495547     3.487904     3.480261     3.472618
      3.464974     3.457331     3.449688     3.442045     3.434402     3.426758     3.419115     3.411472     3.403829     3.396185
      3.388542     3.380899     3.373256     3.365613     3.357969     3.350326     3.342683     3.335040     3.327396     3.319753
      3.312110     3.304467     3.296824     3.289180     3.281537     3.273894     3.266251     3.258607     3.250964     3.243321
      3.235678     3.228034     3.220391     3.212748     3.205105     3.197462     3.189818     3.182175     3.174532     3.166889
      3.159245     3.151602     3.143959     3.136316     3.128673     3.121029     3.113386     3.105743     3.098100     3.090456
      3.082813     3.075170     3.067527     3.059884     3.052240     3.044597     3.036954     3.029311     3.021667     3.014024
      3.006381     2.998738     2.991095     2.983451     2.975808     2.968165     2.960522     2.952878     2.945235     2.937592
      2.929949     2.922306     2.914662     2.907019     2.899376     2.891733     2.884089     2.876446     2.868803     2.861160
      2.853517     2.845873     2.838230     2.830587     2.822944     2.815300     2.807657     2.800014     2.792371     2.784728
      2.777084     2.769441     2.761798     2.754155     2.746511     2.738868     2.731225     2.723582     2.715939     2.708295
      2.700652     2.693009     2.685366     2.677722     2.670079     2.662436     2.654793     2.647150     2.639506     2.631863
      2.624220     2.616577     2.608933     2.601290     2.593647     2.586004     2.578361     2.570717     2.563074     2.555431
      2.547788     2.540144     2.532501     2.524858     2.517215     2.509572     2.501928     2.494285     2.486642     2.478999
      2.471355     2.463712     2.456069     2.448426     2.440783     2.433139     2.425496     2.417853     2.410210     2.402566
      2.394923     2.387280     2.379637     2.371994     2.364350     2.356707     2.349064     2.341421     2.333777     2.326134
      2.318491     2.310848     2.303205     2.295561     2.287918     2.280275     2.272632     2.264988     2.257345     2.249702
      2.242059     2.234416     2.226772     2.219129     2.211486     2.203843     2.196199     2.188556     2.180913     2.173270
      2.165627     2.157983     2.150340     2.142697     2.135054     2.127410     2.119767     2.112124     2.104481     2.096838
      2.089194     2.081551     2.073908     2.066265     2.058621     2.050978     2.043335     2.035692     2.028049     2.020405
      2.012762     2.005119     1.997476     1.989833     1.982190     1.974546     1.966903     1.959260     1.951617     1.943974
      1.936331     1.928688     1.921045     1.913402     1.905759     1.898115     1.890472     1.882829     1.875186     1.867543
      1.859900     1.852257     1.844614     1.836971     1.829327     1.821684     1.814041     1.806398     1.798755     1.791112
      1.783469     1.775826     1.768183     1.760540     1.752896     1.745253     1.737610     1.729967     1.722324     1.714681
      1.707038     1.699395     1.691752     1.684108     1.676465     1.668822     1.661179     1.653536     1.645893     1.638250
      1.630607     1.622964     1.615321     1.607677     1.600034     1.592391     1.584748     1.577105     1.569462     1.561819
      1.554176     1.546533     1.538890     1.531246     1.523603     1.515960     1.508317     1.500674     1.493031     1.485388
      1.477745     1.470102     1.462458     1.454815     1.447172     1.439529     1.431886     1.424243     1.416600     1.408957
      1.401314     1.393671     1.386027     1.378384     1.370741     1.363098     1.355455     1.347812     1.340169     1.332526
      1.324883     1.317240     1.309596     1.301953     1.294310     1.286667     1.279024     1.271381     1.263738     1.256095
      1.248452     1.240808     1.233165     1.225522     1.217879     1.210236     1.202593     1.194950     1.187307     1.179664
      1.172021     1.164377     1.156734     1.149091     1.141448     1.133805     1.126162     1.118519     1.110876     1.103233
      1.095590     1.087946     1.080303     1.072660     1.065017     1.057374     1.049731     1.042088     1.034445     1.026802
      1.019158     1.011515     1.003872     0.996229     0.988586     0.980943     0.973300     0.965657     0.958014     0.950371
      0.942727     0.935084     0.927441     0.919798     0.912155     0.904512     0.896869     0.889226     0.881583     0.873940
      0.866296     0.858653     0.851010     0.843367     0.835724     0.828081     0.820438     0.812795     0.805152     0.797508
      0.789865     0.782222     0.774579     0.766936     0.759293     0.751650     0.744007     0.736364     0.728721     0.721077
      0.713434     0.705791     0.698148     0.690505     0.682862     0.675219     0.667576     0.659933     0.652290     0.644646
      0.637003     0.629360     0.621717     0.614074     0.606431     0.598788     0.591145     0.583502     0.575858     0.568215
      0.560572     0.552929     0.545286     0.537643     0.530000     0.522357     0.514714     0.507071     0.499427     0.491784
      0.484141     0.476498     0.468855     0.461212     0.453569     0.445925     0.438282     0.430639     0.422996     0.415353
      0.407710     0.400067     0.392424     0.384780     0.377137     0.369494     0.361851     0.354208     0.346565     0.338922
      0.331278     0.323635     0.315992     0.308349     0.300706     0.293063     0.285420     0.277777     0.270133     0.262490
      0.254847     0.247204     0.239561     0.231918     0.224275     0.216631     0.208988     0.201345
 NY phased data points follow
   7.43915E+00  8.45586E+00  7.43391E+00  7.81679E+00  8.91714E+00  7.05385E+00  8.91572E+00  1.21924E+01  8.71046E+00  1.17450E+01
   9.98485E+00  8.70073E+00  9.08478E+00  7.68413E+00  7.04781E+00  3.62010E+00  3.84304E+00  8.83708E+00  5.85689E+00  9.56171E+00
   6.09988E+00  3.27564E+00  6.19245E+00  7.43892E+00  7.31602E+00  1.03393E+01  8.23077E+00  7.24677E+00  6.90405E+00  7.34611E+00
   7.41533E+00  7.38443E+00  7.73729E+00  8.53535E+00  7.48421E+00  6.60814E+00  6.27651E+00  7.42608E+00  8.95418E+00  6.79649E+00
   1.08235E+01  5.51481E+00  6.70176E+00  6.98462E+00  1.00165E+01  9.75624E+00  1.13924E+01  1.06215E+01  9.99366E+00  7.61804E+00
   6.00990E+00  7.15553E+00  8.58640E+00  6.04760E+00  5.75961E+00  8.48204E+00  5.74471E+00  4.70755E+00  8.17543E+00  8.57570E+00
   6.18944E+00  3.52498E+00  5.92879E+00  4.30966E+00  5.28895E+00  3.52007E+00  3.83034E+00  4.35574E+00  6.93615E+00  6.19398E+00
   6.37920E+00  3.98477E+00  7.08958E+00  5.94447E+00  5.43150E+00  6.34584E+00  4.74524E+00  4.73851E+00  4.82382E+00  7.69264E+00
   6.23043E+00  4.50267E+00  8.36517E+00  4.87001E+00  8.06698E+00  6.91652E+00  5.91399E+00  6.76968E+00  5.85335E+00  8.19465E+00
   7.84663E+00  8.26099E+00  1.02733E+01  6.54222E+00  5.91404E+00  7.32179E+00  8.90483E+00  1.04933E+01  9.73095E+00  7.55085E+00
   1.16659E+01  1.52543E+01  1.94420E+01  2.16598E+01  1.85396E+01  1.36146E+01  1.02142E+01  6.88280E+00  7.11712E+00  4.52373E+00
   4.06625E+00  8.48670E+00  5.74065E+00  4.91084E+00  3.27658E+00  6.96833E+00  5.10515E+00  5.88416E+00  7.99288E+00  5.95532E+00
   8.63581E+00  8.00381E+00  1.24190E+01  9.09127E+00  1.40012E+01  2.21289E+01  2.63666E+01  3.04031E+01  3.00300E+01  2.44707E+01
   1.71582E+01  1.24081E+01  9.14573E+00  5.66293E+00  7.69570E+00  6.25427E+00  4.41945E+00  4.66708E+00  8.57306E+00  4.43752E+00
   7.21279E+00  4.24901E+00  6.04694E+00  7.80323E+00  5.77736E+00  5.39772E+00  2.40121E+00  4.87244E+00  4.80634E+00  4.09505E+00
   2.38348E+00  1.91939E+00  5.11401E+00  1.03763E-01  4.30909E+00  3.18839E+00  5.66309E+00  5.09972E+00  3.30197E+00  5.11226E+00
   4.83300E+00  2.20041E+00  3.60094E+00  1.23427E-01  7.12325E-02  3.81953E+00  6.33359E-01  2.90158E+00 -3.70527E+00 -1.66510E+00
  -2.08287E+00 -4.09625E+00 -2.22356E+00 -4.77351E+00 -4.39075E+00 -6.19068E+00 -8.13789E+00 -8.03093E+00 -3.47001E+00 -2.78705E+00
  -2.19303E+00  1.03461E+00 -1.86908E+00 -3.21851E+00 -5.70567E-01 -2.73402E+00 -5.86878E-01 -2.66846E+00 -1.25753E+00 -1.43091E-01
   2.14024E+00  2.86403E+00  3.71703E+00  2.34010E+00  4.67717E+00 -5.72266E-01 -8.67660E-01 -2.63023E+00 -4.89619E+00 -4.07671E+00
  -1.52331E+00 -7.45495E-01  6.90488E-01  4.33459E+00  2.88387E+00  4.63857E+00  1.98794E+00  2.72139E+00  1.67551E+00  1.37343E+00
  -1.41471E+00  3.98422E-01  6.33996E+00  9.55099E+00  1.30261E+01  1.63714E+01  1.43264E+01  1.53095E+01  8.36391E+00  6.34835E+00
   4.75579E+00 -2.60758E+00 -2.32150E+00  1.98150E+00  3.84167E+00  4.65722E+00  8.39151E+00  9.70900E+00  1.33558E+01  7.92943E+00
   1.12664E+01  1.02894E+01  7.91826E+00  9.64628E+00  5.20422E+00  7.88209E+00  8.46257E+00  1.12075E+01  6.03978E+00  6.81281E+00
   9.77449E+00  7.45973E+00  3.63837E+00  7.64769E+00  9.47429E+00  8.50331E+00  1.18850E+01  1.13773E+01  1.20124E+01  1.10304E+01
   1.29780E+01  1.36537E+01  1.66406E+01  1.85330E+01  2.60380E+01  2.91889E+01  3.99305E+01  4.81216E+01  6.30473E+01  7.98582E+01
   9.32653E+01  9.14597E+01  7.62897E+01  5.93778E+01  4.09904E+01  2.94244E+01  2.14148E+01  1.43692E+01  1.41208E+01  1.15025E+01
   1.08070E+01  9.32569E+00  1.18216E+01  1.02317E+01  1.18313E+01  9.54438E+00  5.28550E+00  6.32229E+00  6.06176E+00  5.38071E+00
   9.13041E+00  6.30430E+00  5.01998E+00  6.12255E+00  4.34269E+00  4.61763E+00  3.34689E+00  7.40949E+00  5.97812E+00  3.91688E+00
   4.58658E+00  6.50836E+00  4.45675E+00  8.04106E+00  4.90362E+00  8.11327E+00  4.62474E+00  2.96647E+00  5.35685E+00  3.97486E+00
   4.17161E+00  4.29290E+00  3.18218E+00  5.63169E+00  4.94972E+00  6.34315E+00  7.14825E+00  5.15626E+00  4.84949E+00  5.83737E+00
   4.94847E+00  7.03210E+00  8.65309E+00  8.64708E+00  5.07083E+00  2.82052E+00  6.70649E+00  5.61483E+00  5.47007E+00  4.42274E+00
   3.68221E+00  1.04413E+01  5.54492E+00  3.12332E+00  7.53375E+00  9.12374E+00  1.21654E+01  9.47381E+00  9.58086E+00  1.15444E+01
   1.23649E+01  1.28926E+01  1.36980E+01  1.72270E+01  1.66711E+01  1.69872E+01  1.92307E+01  1.89685E+01  2.29657E+01  2.31229E+01
   2.48172E+01  2.30961E+01  2.65599E+01  2.54625E+01  2.85566E+01  2.49131E+01  2.81821E+01  2.65317E+01  2.64806E+01  2.29499E+01
   2.24300E+01  2.12700E+01  2.46086E+01  2.10926E+01  2.14517E+01  2.33663E+01  1.92103E+01  1.72879E+01  1.76617E+01  1.70955E+01
   1.52212E+01  1.41362E+01  1.25402E+01  1.36238E+01  1.25835E+01  1.21591E+01  1.07339E+01  8.66322E+00  1.08520E+01  1.24366E+01
   5.79854E+00  1.03370E+01  7.77689E+00  5.54641E+00  7.75617E+00  7.45411E+00  7.26399E+00  5.77506E+00  4.37600E+00  7.47222E+00
   7.01753E+00  4.70612E+00  3.26200E+00  2.23446E+00  2.92900E+00 -2.03680E-01  1.35796E+00  3.88179E+00  5.67391E+00  6.07086E+00
   3.56478E+00  5.69161E+00  2.86952E+00  3.30674E+00  7.53430E-01  3.70235E+00  2.99093E+00  4.14739E+00  4.93690E+00  8.48635E+00
   4.99571E+00  6.26571E+00  4.66792E+00  6.01735E+00  3.63925E+00  6.66092E+00  7.84823E+00  1.02779E+01  6.61504E+00  8.31792E+00
   6.26200E+00  7.95862E+00  6.87015E+00  5.82876E+00  5.57652E+00  8.62700E+00  7.80288E+00  7.76498E+00  5.62756E+00  5.43537E+00
   3.30512E+00  3.55209E+00  5.05659E+00  6.06813E+00  5.53193E+00  4.85033E+00  3.46103E+00  6.54490E+00  3.10957E+00  2.32854E+00
   4.25498E+00  4.79365E+00  5.45383E+00  3.59872E+00  4.56762E+00  1.19705E+00  4.33995E+00  3.16632E+00  2.43958E+00  5.33783E+00
   4.39527E+00  6.05871E+00  4.33216E+00  4.18335E+00  2.25423E+00  5.00225E+00  2.51970E+00  5.08600E+00  3.49106E+00  5.59183E+00
   2.87980E+00  2.44016E+00  3.05712E+00  6.52132E+00  2.91552E+00  4.82107E+00  3.97828E+00  3.34619E+00  5.63605E+00  2.71636E+00
   2.40077E+00  4.68503E+00  2.96835E+00  1.55445E+00  6.11829E+00  3.58036E+00  5.22828E+00  3.00615E+00  2.20181E+00  4.86725E+00
   2.07428E+00  3.54316E+00  4.93241E+00  9.66984E-01  3.18727E+00  1.95814E+00  5.21196E+00  3.41278E+00  2.66648E+00  5.18381E-01
  -6.55491E-01  1.86268E+00  3.77270E+00  1.15689E+00  2.84810E+00  3.35685E+00  3.96487E+00  2.62620E+00  3.93684E+00  4.74916E+00
   8.50099E+00  1.00362E+00  5.83795E+00  2.25046E+00  3.22781E+00  2.97467E+00  4.71892E+00  5.04832E-01
 NY points of the fit to the data follow
   6.49090E+00  6.48107E+00  6.64210E+00  7.01825E+00  7.52212E+00  8.20885E+00  9.21937E+00  1.03930E+01  1.12427E+01  1.13302E+01
   1.06350E+01  9.57601E+00  8.59837E+00  7.91452E+00  7.52350E+00  7.27266E+00  7.09042E+00  7.02308E+00  7.02593E+00  7.10069E+00
   7.24250E+00  7.42628E+00  7.52371E+00  7.57798E+00  7.56318E+00  7.28416E+00  6.76110E+00  6.31801E+00  6.36984E+00  7.16059E+00
   8.51001E+00  1.00062E+01  1.10975E+01  1.12989E+01  1.04954E+01  8.94718E+00  7.13390E+00  5.72278E+00  5.12033E+00  5.28519E+00
   5.94604E+00  6.72955E+00  7.37443E+00  7.85251E+00  8.29951E+00  8.85610E+00  9.39074E+00  9.58749E+00  9.27818E+00  8.53918E+00
   7.63433E+00  6.83821E+00  6.27189E+00  5.95436E+00  5.82982E+00  5.84284E+00  5.95736E+00  6.15180E+00  6.40088E+00  6.62619E+00
   6.71239E+00  6.59952E+00  6.31362E+00  5.98961E+00  5.74499E+00  5.64019E+00  5.66227E+00  5.74650E+00  5.83461E+00  5.94240E+00
   6.07980E+00  6.21670E+00  6.34047E+00  6.45480E+00  6.53895E+00  6.54067E+00  6.39590E+00  6.12053E+00  5.79344E+00  5.54227E+00
   5.50336E+00  5.68789E+00  5.95173E+00  6.33078E+00  6.89037E+00  7.47321E+00  7.76056E+00  7.52619E+00  6.86087E+00  6.11274E+00
   5.55960E+00  5.23943E+00  5.05305E+00  4.91047E+00  4.82234E+00  4.91152E+00  5.38233E+00  6.43337E+00  7.72604E+00  9.61311E+00
   1.26652E+01  1.64491E+01  1.94084E+01  1.99641E+01  1.78775E+01  1.44114E+01  1.10395E+01  8.55082E+00  6.94776E+00  5.83558E+00
   5.04995E+00  4.74271E+00  4.63998E+00  4.59272E+00  4.56852E+00  4.55898E+00  4.56830E+00  4.59852E+00  4.66301E+00  4.81244E+00
   5.27255E+00  6.61938E+00  8.57321E+00  1.12442E+01  1.56403E+01  2.17257E+01  2.74709E+01  3.00733E+01  2.81875E+01  2.31298E+01
   1.74220E+01  1.28150E+01  9.71671E+00  7.59689E+00  5.90629E+00  4.89011E+00  4.44111E+00  4.24973E+00  4.24527E+00  4.36134E+00
   4.50307E+00  4.59805E+00  4.61044E+00  4.54285E+00  4.43246E+00  4.31933E+00  4.22050E+00  4.14103E+00  4.06412E+00  3.98560E+00
   3.90939E+00  3.82230E+00  3.72167E+00  3.63443E+00  3.57979E+00  3.53552E+00  3.50858E+00  3.44573E+00  3.18377E+00  2.67118E+00
   2.02909E+00  1.59700E+00  1.69441E+00  2.22069E+00  2.70939E+00  2.73447E+00  2.20597E+00  1.39795E+00  6.60738E-01  1.26545E-01
  -2.42768E-01 -5.30402E-01 -8.14915E-01 -1.21156E+00 -1.73538E+00 -2.18122E+00 -2.20889E+00 -1.73925E+00 -1.15389E+00 -9.00530E-01
  -1.03431E+00 -1.26636E+00 -1.22923E+00 -8.74513E-01 -5.31632E-01 -3.40753E-01 -1.67432E-02  7.37587E-01  1.93893E+00  3.24703E+00
   4.24278E+00  4.76555E+00  4.82117E+00  4.61715E+00  4.41565E+00  4.27978E+00  4.15631E+00  4.04487E+00  4.02922E+00  4.20845E+00
   4.66728E+00  5.39552E+00  6.25689E+00  6.95287E+00  7.02805E+00  6.34136E+00  4.89734E+00  2.87734E+00  8.49948E-01 -5.47342E-01
  -8.76902E-01 -2.01557E-01  1.37457E+00  3.87488E+00  6.90196E+00  9.37912E+00  1.01415E+01  8.83751E+00  6.07381E+00  2.78301E+00
  -3.92021E-01 -2.75373E+00 -3.51561E+00 -2.31489E+00  4.73015E-01  3.69333E+00  6.31856E+00  8.00165E+00  8.79401E+00  8.90906E+00
   8.55067E+00  8.01582E+00  7.62654E+00  7.54216E+00  7.68946E+00  8.00398E+00  8.39231E+00  8.69428E+00  8.84123E+00  8.72246E+00
   8.28830E+00  7.73480E+00  7.46091E+00  7.72689E+00  8.45057E+00  9.34398E+00  1.01184E+01  1.06452E+01  1.09141E+01  1.11587E+01
   1.18447E+01  1.30207E+01  1.49658E+01  1.83334E+01  2.41952E+01  3.19943E+01  3.95385E+01  4.90113E+01  6.33797E+01  8.01887E+01
   9.16465E+01  9.08077E+01  7.77095E+01  5.90374E+01  4.18250E+01  2.92602E+01  2.09190E+01  1.49207E+01  1.08817E+01  9.13670E+00
   8.28714E+00  7.77825E+00  7.52489E+00  7.43077E+00  7.33952E+00  7.16343E+00  6.89024E+00  6.57047E+00  6.25735E+00  5.98125E+00
   5.75557E+00  5.59411E+00  5.49765E+00  5.44064E+00  5.38623E+00  5.31358E+00  5.22860E+00  5.14390E+00  5.06942E+00  5.01694E+00
   5.00063E+00  5.02493E+00  5.07548E+00  5.12819E+00  5.17140E+00  5.20261E+00  5.22116E+00  5.23181E+00  5.24111E+00  5.25695E+00
   5.28571E+00  5.32473E+00  5.36511E+00  5.39938E+00  5.42233E+00  5.43376E+00  5.43485E+00  5.42702E+00  5.41348E+00  5.39832E+00
   5.38410E+00  5.37473E+00  5.37381E+00  5.38632E+00  5.41721E+00  5.47264E+00  5.55823E+00  5.68077E+00  5.84692E+00  6.06511E+00
   6.34542E+00  6.70176E+00  7.12582E+00  7.61454E+00  8.18490E+00  8.81443E+00  9.43674E+00  9.99992E+00  1.05186E+01  1.10876E+01
   1.17943E+01  1.26441E+01  1.36305E+01  1.47606E+01  1.60197E+01  1.73477E+01  1.86320E+01  1.97844E+01  2.08042E+01  2.17352E+01
   2.26273E+01  2.35164E+01  2.43356E+01  2.50665E+01  2.57517E+01  2.62769E+01  2.64061E+01  2.59774E+01  2.50775E+01  2.40547E+01
   2.31433E+01  2.24125E+01  2.19254E+01  2.17083E+01  2.16628E+01  2.15725E+01  2.11535E+01  2.03042E+01  1.91539E+01  1.78829E+01
   1.66183E+01  1.53980E+01  1.42126E+01  1.31090E+01  1.21012E+01  1.11746E+01  1.03239E+01  9.54766E+00  8.84387E+00  8.21074E+00
   7.64495E+00  7.14318E+00  6.70101E+00  6.31456E+00  5.97931E+00  5.69148E+00  5.44679E+00  5.24184E+00  5.07299E+00  4.93775E+00
   4.83339E+00  4.75816E+00  4.70990E+00  4.68738E+00  4.68907E+00  4.71437E+00  4.76220E+00  4.83212E+00  4.92305E+00  5.03453E+00
   5.16547E+00  5.31529E+00  5.48255E+00  5.66608E+00  5.86371E+00  6.07357E+00  6.29287E+00  6.51905E+00  6.74847E+00  6.97769E+00
   7.20238E+00  7.41867E+00  7.62209E+00  7.80875E+00  7.97431E+00  8.11527E+00  8.22804E+00  8.31029E+00  8.35980E+00  8.37566E+00
   8.35709E+00  8.30471E+00  8.21941E+00  8.10346E+00  7.95918E+00  7.78991E+00  7.59877E+00  7.38970E+00  7.16626E+00  6.93260E+00
   6.69212E+00  6.44851E+00  6.20453E+00  5.96322E+00  5.72672E+00  5.49735E+00  5.27638E+00  5.06524E+00  4.86446E+00  4.67488E+00
   4.49659E+00  4.32996E+00  4.17458E+00  4.03042E+00  3.89682E+00  3.77365E+00  3.66021E+00  3.55627E+00  3.46098E+00  3.37403E+00
   3.29462E+00  3.22258E+00  3.15719E+00  3.09824E+00  3.04496E+00  2.99716E+00  2.95421E+00  2.91609E+00  2.88219E+00  2.85243E+00
   2.82620E+00  2.80348E+00  2.78379E+00  2.76723E+00  2.75332E+00  2.74207E+00  2.73302E+00  2.72629E+00  2.72153E+00  2.71887E+00
   2.71790E+00  2.71872E+00  2.72095E+00  2.72478E+00  2.72992E+00  2.73653E+00  2.74424E+00  2.75318E+00  2.76304E+00  2.77405E+00
   2.78594E+00  2.79889E+00  2.81255E+00  2.82708E+00  2.84224E+00  2.85828E+00  2.87491E+00  2.89232E+00  2.91016E+00  2.92866E+00
   2.94758E+00  2.96718E+00  2.98718E+00  3.00775E+00  3.02858E+00  3.04992E+00  3.07157E+00  3.09376E+00  3.11619E+00  3.13905E+00
   3.16207E+00  3.18550E+00  3.20915E+00  3.23324E+00  3.25747E+00  3.28203E+00  3.30669E+00  3.33172E+00
 NY background values follow
     5.502E+00    5.489E+00    5.476E+00    5.464E+00    5.451E+00    5.438E+00    5.426E+00    5.413E+00    5.401E+00    5.388E+00
     5.376E+00    5.364E+00    5.351E+00    5.339E+00    5.326E+00    5.314E+00    5.302E+00    5.289E+00    5.277E+00    5.265E+00
     5.252E+00    5.240E+00    5.228E+00    5.216E+00    5.203E+00    5.191E+00    5.179E+00    5.166E+00    5.154E+00    5.141E+00
     5.129E+00    5.117E+00    5.104E+00    5.092E+00    5.079E+00    5.066E+00    5.054E+00    5.041E+00    5.029E+00    5.016E+00
     5.003E+00    4.990E+00    4.977E+00    4.964E+00    4.951E+00    4.938E+00    4.925E+00    4.912E+00    4.899E+00    4.886E+00
     4.872E+00    4.859E+00    4.845E+00    4.831E+00    4.818E+00    4.804E+00    4.790E+00    4.775E+00    4.761E+00    4.747E+00
     4.732E+00    4.717E+00    4.702E+00    4.687E+00    4.672E+00    4.656E+00    4.641E+00    4.625E+00    4.609E+00    4.593E+00
     4.576E+00    4.559E+00    4.542E+00    4.525E+00    4.508E+00    4.490E+00    4.472E+00    4.454E+00    4.435E+00    4.417E+00
     4.398E+00    4.378E+00    4.359E+00    4.339E+00    4.319E+00    4.298E+00    4.277E+00    4.256E+00    4.235E+00    4.213E+00
     4.190E+00    4.168E+00    4.145E+00    4.122E+00    4.098E+00    4.074E+00    4.050E+00    4.025E+00    4.001E+00    3.975E+00
     3.950E+00    3.924E+00    3.898E+00    3.872E+00    3.845E+00    3.818E+00    3.791E+00    3.764E+00    3.736E+00    3.708E+00
     3.680E+00    3.652E+00    3.624E+00    3.595E+00    3.566E+00    3.537E+00    3.508E+00    3.478E+00    3.449E+00    3.419E+00
     3.389E+00    3.359E+00    3.329E+00    3.298E+00    3.268E+00    3.237E+00    3.207E+00    3.176E+00    3.145E+00    3.114E+00
     3.083E+00    3.052E+00    3.020E+00    2.989E+00    2.958E+00    2.926E+00    2.895E+00    2.864E+00    2.832E+00    2.801E+00
     2.769E+00    2.738E+00    2.707E+00    2.676E+00    2.645E+00    2.614E+00    2.584E+00    2.553E+00    2.524E+00    2.494E+00
     2.465E+00    2.436E+00    2.407E+00    2.379E+00    2.351E+00    2.324E+00    2.298E+00    2.271E+00    2.246E+00    2.221E+00
     2.196E+00    2.173E+00    2.150E+00    2.127E+00    2.105E+00    2.085E+00    2.064E+00    2.045E+00    2.027E+00    2.009E+00
     1.992E+00    1.976E+00    1.961E+00    1.948E+00    1.935E+00    1.923E+00    1.912E+00    1.902E+00    1.894E+00    1.886E+00
     1.880E+00    1.875E+00    1.871E+00    1.868E+00    1.866E+00    1.866E+00    1.867E+00    1.868E+00    1.871E+00    1.874E+00
     1.879E+00    1.885E+00    1.891E+00    1.898E+00    1.906E+00    1.915E+00    1.925E+00    1.935E+00    1.946E+00    1.958E+00
     1.971E+00    1.984E+00    1.997E+00    2.011E+00    2.026E+00    2.041E+00    2.056E+00    2.072E+00    2.089E+00    2.105E+00
     2.122E+00    2.140E+00    2.157E+00    2.175E+00    2.193E+00    2.211E+00    2.229E+00    2.247E+00    2.266E+00    2.284E+00
     2.302E+00    2.321E+00    2.339E+00    2.357E+00    2.375E+00    2.393E+00    2.411E+00    2.428E+00    2.446E+00    2.463E+00
     2.479E+00    2.496E+00    2.512E+00    2.528E+00    2.544E+00    2.559E+00    2.574E+00    2.589E+00    2.603E+00    2.617E+00
     2.631E+00    2.644E+00    2.657E+00    2.670E+00    2.682E+00    2.694E+00    2.706E+00    2.717E+00    2.727E+00    2.737E+00
     2.747E+00    2.756E+00    2.765E+00    2.773E+00    2.781E+00    2.789E+00    2.796E+00    2.802E+00    2.808E+00    2.813E+00
     2.818E+00    2.822E+00    2.826E+00    2.829E+00    2.831E+00    2.833E+00    2.835E+00    2.836E+00    2.836E+00    2.835E+00
     2.834E+00    2.832E+00    2.830E+00    2.827E+00    2.823E+00    2.819E+00    2.814E+00    2.809E+00    2.802E+00    2.796E+00
     2.788E+00    2.780E+00    2.772E+00    2.763E+00    2.753E+00    2.743E+00    2.732E+00    2.721E+00    2.709E+00    2.697E+00
     2.684E+00    2.671E+00    2.657E+00    2.643E+00    2.628E+00    2.613E+00    2.597E+00    2.581E+00    2.564E+00    2.547E+00
     2.530E+00    2.512E+00    2.494E+00    2.475E+00    2.456E+00    2.436E+00    2.416E+00    2.396E+00    2.375E+00    2.354E+00
     2.333E+00    2.311E+00    2.289E+00    2.267E+00    2.244E+00    2.221E+00    2.198E+00    2.174E+00    2.150E+00    2.126E+00
     2.101E+00    2.077E+00    2.052E+00    2.026E+00    2.001E+00    1.976E+00    1.950E+00    1.924E+00    1.898E+00    1.872E+00
     1.845E+00    1.819E+00    1.792E+00    1.765E+00    1.739E+00    1.712E+00    1.685E+00    1.658E+00    1.631E+00    1.604E+00
     1.577E+00    1.550E+00    1.524E+00    1.497E+00    1.470E+00    1.443E+00    1.417E+00    1.390E+00    1.364E+00    1.338E+00
     1.311E+00    1.285E+00    1.260E+00    1.234E+00    1.208E+00    1.183E+00    1.158E+00    1.133E+00    1.109E+00    1.084E+00
     1.060E+00    1.037E+00    1.013E+00    9.901E-01    9.673E-01    9.448E-01    9.227E-01    9.009E-01    8.796E-01    8.586E-01
     8.381E-01    8.180E-01    7.983E-01    7.791E-01    7.604E-01    7.422E-01    7.245E-01    7.074E-01    6.907E-01    6.747E-01
     6.592E-01    6.443E-01    6.300E-01    6.163E-01    6.032E-01    5.909E-01    5.791E-01    5.681E-01    5.577E-01    5.481E-01
     5.392E-01    5.310E-01    5.236E-01    5.170E-01    5.112E-01    5.061E-01    5.019E-01    4.985E-01    4.960E-01    4.943E-01
     4.936E-01    4.937E-01    4.947E-01    4.967E-01    4.996E-01    5.035E-01    5.083E-01    5.141E-01    5.210E-01    5.288E-01
     5.375E-01    5.472E-01    5.578E-01    5.693E-01    5.816E-01    5.948E-01    6.089E-01    6.238E-01    6.394E-01    6.558E-01
     6.730E-01    6.909E-01    7.095E-01    7.289E-01    7.488E-01    7.695E-01    7.908E-01    8.126E-01    8.351E-01    8.582E-01
     8.818E-01    9.059E-01    9.305E-01    9.557E-01    9.813E-01    1.007E+00    1.034E+00    1.061E+00    1.088E+00    1.116E+00
     1.144E+00    1.172E+00    1.201E+00    1.230E+00    1.259E+00    1.288E+00    1.318E+00    1.348E+00    1.378E+00    1.408E+00
     1.439E+00    1.469E+00    1.500E+00    1.531E+00    1.562E+00    1.593E+00    1.624E+00    1.655E+00    1.686E+00    1.717E+00
     1.748E+00    1.780E+00    1.811E+00    1.843E+00    1.875E+00    1.906E+00    1.938E+00    1.970E+00    2.002E+00    2.033E+00
     2.065E+00    2.097E+00    2.129E+00    2.162E+00    2.194E+00    2.226E+00    2.258E+00    2.290E+00    2.322E+00    2.355E+00
     2.387E+00    2.419E+00    2.451E+00    2.484E+00    2.516E+00    2.548E+00    2.581E+00    2.613E+00    2.645E+00    2.678E+00
     2.710E+00    2.742E+00    2.775E+00    2.807E+00    2.839E+00    2.871E+00    2.904E+00    2.936E+00
 Ala      Conc. = 3.81E+01
