 LCModel (Version 6.3-1L) Copyright: S.W. Provencher.          Ref.: Magn. Reson. Med. 30:672-679 (1993).                
 Slice#3 Row#6 Col#7  K_02_press_1_raw_act
 36 lines in following concentration table = NCONC+1
    Conc.  %SD /Cr+PCr  Metabolite                                         
    0.000 999%   0.000 Ala                                                 
    0.000 999%   0.000 Asp                                                 
  784.592  35%   0.328 Cr                                                  
 1.61E+03  17%   0.672 PCr                                                 
    0.000 999%   0.000 GABA                                                
    0.000 999%   0.000 Glc                                                 
  812.170  34%   0.340 Gln                                                 
 1.99E+03  15%   0.835 Glu                                                 
  725.035   4%   0.303 GPC                                                 
    0.000 999%   0.000 PCh                                                 
  727.298  12%   0.304 GSH                                                 
 1.27E+03  23%   0.533 Ins                                                 
   91.594 157% 3.8E-02 Lac                                                 
 2.59E+03   5%   1.085 NAA                                                 
   21.631 603% 9.1E-03 NAAG                                                
    0.000 999%   0.000 Scyllo                                              
    0.000 999%   0.000 Tau                                                 
    0.000 999%   0.000 -CrCH2                                              
  725.035   4%   0.303 GPC+PCh                                             
 2.61E+03   4%   1.094 NAA+NAAG                                            
 2.39E+03   3%   1.000 Cr+PCr                                              
 2.81E+03  15%   1.174 Glu+Gln                                             
 2.66E+03  22%   1.113 Lip13a                                              
    0.000 999%   0.000 Lip13b                                              
    0.000 999%   0.000 Lip09                                               
 1.52E+03  19%   0.638 MM09                                                
  472.999  40%   0.198 Lip20                                               
 3.17E+03  15%   1.326 MM20                                                
  474.558  33%   0.199 MM12                                                
 3.48E+03  14%   1.458+MM14                                                
 1.32E+03  25%   0.552 MM17                                                
 2.66E+03  22%   1.113 Lip13a+Lip13b                                       
 6.62E+03  10%   2.769 MM14+Lip13a+Lip13b+MM12                             
 1.52E+03  19%   0.638 MM09+Lip09                                          
 3.64E+03  13%   1.524 MM20+Lip20                                          
   6 lines in following misc. output table
  FWHM = 0.046 ppm    S/N =  11                                            
  Data shift = 0.015 ppm                                                   
  Ph: -14 deg      -7.3 deg/ppm                                            
  alphaB,S = 6.7E-01,   1.5E+02                                            
   14 spline knots.   Ns = 6(1)                                            
  ( 9) 2 infls.   ( 3) 1 extrs.                                            
  498 points on ppm-axis = NY
      4.000000     3.992357     3.984714     3.977070     3.969427     3.961784     3.954141     3.946497     3.938854     3.931211
      3.923568     3.915925     3.908281     3.900638     3.892995     3.885352     3.877708     3.870065     3.862422     3.854779
      3.847136     3.839492     3.831849     3.824206     3.816563     3.808919     3.801276     3.793633     3.785990     3.778347
      3.770703     3.763060     3.755417     3.747774     3.740130     3.732487     3.724844     3.717201     3.709558     3.701914
      3.694271     3.686628     3.678985     3.671341     3.663698     3.656055     3.648412     3.640769     3.633125     3.625482
      3.617839     3.610196     3.602552     3.594909     3.587266     3.579623     3.571980     3.564336     3.556693     3.549050
      3.541407     3.533763     3.526120     3.518477     3.510834     3.503191     3.495547     3.487904     3.480261     3.472618
      3.464974     3.457331     3.449688     3.442045     3.434402     3.426758     3.419115     3.411472     3.403829     3.396185
      3.388542     3.380899     3.373256     3.365613     3.357969     3.350326     3.342683     3.335040     3.327396     3.319753
      3.312110     3.304467     3.296824     3.289180     3.281537     3.273894     3.266251     3.258607     3.250964     3.243321
      3.235678     3.228034     3.220391     3.212748     3.205105     3.197462     3.189818     3.182175     3.174532     3.166889
      3.159245     3.151602     3.143959     3.136316     3.128673     3.121029     3.113386     3.105743     3.098100     3.090456
      3.082813     3.075170     3.067527     3.059884     3.052240     3.044597     3.036954     3.029311     3.021667     3.014024
      3.006381     2.998738     2.991095     2.983451     2.975808     2.968165     2.960522     2.952878     2.945235     2.937592
      2.929949     2.922306     2.914662     2.907019     2.899376     2.891733     2.884089     2.876446     2.868803     2.861160
      2.853517     2.845873     2.838230     2.830587     2.822944     2.815300     2.807657     2.800014     2.792371     2.784728
      2.777084     2.769441     2.761798     2.754155     2.746511     2.738868     2.731225     2.723582     2.715939     2.708295
      2.700652     2.693009     2.685366     2.677722     2.670079     2.662436     2.654793     2.647150     2.639506     2.631863
      2.624220     2.616577     2.608933     2.601290     2.593647     2.586004     2.578361     2.570717     2.563074     2.555431
      2.547788     2.540144     2.532501     2.524858     2.517215     2.509572     2.501928     2.494285     2.486642     2.478999
      2.471355     2.463712     2.456069     2.448426     2.440783     2.433139     2.425496     2.417853     2.410210     2.402566
      2.394923     2.387280     2.379637     2.371994     2.364350     2.356707     2.349064     2.341421     2.333777     2.326134
      2.318491     2.310848     2.303205     2.295561     2.287918     2.280275     2.272632     2.264988     2.257345     2.249702
      2.242059     2.234416     2.226772     2.219129     2.211486     2.203843     2.196199     2.188556     2.180913     2.173270
      2.165627     2.157983     2.150340     2.142697     2.135054     2.127410     2.119767     2.112124     2.104481     2.096838
      2.089194     2.081551     2.073908     2.066265     2.058621     2.050978     2.043335     2.035692     2.028049     2.020405
      2.012762     2.005119     1.997476     1.989833     1.982190     1.974546     1.966903     1.959260     1.951617     1.943974
      1.936331     1.928688     1.921045     1.913402     1.905759     1.898115     1.890472     1.882829     1.875186     1.867543
      1.859900     1.852257     1.844614     1.836971     1.829327     1.821684     1.814041     1.806398     1.798755     1.791112
      1.783469     1.775826     1.768183     1.760540     1.752896     1.745253     1.737610     1.729967     1.722324     1.714681
      1.707038     1.699395     1.691752     1.684108     1.676465     1.668822     1.661179     1.653536     1.645893     1.638250
      1.630607     1.622964     1.615321     1.607677     1.600034     1.592391     1.584748     1.577105     1.569462     1.561819
      1.554176     1.546533     1.538890     1.531246     1.523603     1.515960     1.508317     1.500674     1.493031     1.485388
      1.477745     1.470102     1.462458     1.454815     1.447172     1.439529     1.431886     1.424243     1.416600     1.408957
      1.401314     1.393671     1.386027     1.378384     1.370741     1.363098     1.355455     1.347812     1.340169     1.332526
      1.324883     1.317240     1.309596     1.301953     1.294310     1.286667     1.279024     1.271381     1.263738     1.256095
      1.248452     1.240808     1.233165     1.225522     1.217879     1.210236     1.202593     1.194950     1.187307     1.179664
      1.172021     1.164377     1.156734     1.149091     1.141448     1.133805     1.126162     1.118519     1.110876     1.103233
      1.095590     1.087946     1.080303     1.072660     1.065017     1.057374     1.049731     1.042088     1.034445     1.026802
      1.019158     1.011515     1.003872     0.996229     0.988586     0.980943     0.973300     0.965657     0.958014     0.950371
      0.942727     0.935084     0.927441     0.919798     0.912155     0.904512     0.896869     0.889226     0.881583     0.873940
      0.866296     0.858653     0.851010     0.843367     0.835724     0.828081     0.820438     0.812795     0.805152     0.797508
      0.789865     0.782222     0.774579     0.766936     0.759293     0.751650     0.744007     0.736364     0.728721     0.721077
      0.713434     0.705791     0.698148     0.690505     0.682862     0.675219     0.667576     0.659933     0.652290     0.644646
      0.637003     0.629360     0.621717     0.614074     0.606431     0.598788     0.591145     0.583502     0.575858     0.568215
      0.560572     0.552929     0.545286     0.537643     0.530000     0.522357     0.514714     0.507071     0.499427     0.491784
      0.484141     0.476498     0.468855     0.461212     0.453569     0.445925     0.438282     0.430639     0.422996     0.415353
      0.407710     0.400067     0.392424     0.384780     0.377137     0.369494     0.361851     0.354208     0.346565     0.338922
      0.331278     0.323635     0.315992     0.308349     0.300706     0.293063     0.285420     0.277777     0.270133     0.262490
      0.254847     0.247204     0.239561     0.231918     0.224275     0.216631     0.208988     0.201345
 NY phased data points follow
   3.34519E+01  3.27222E+01  3.10597E+01  3.60632E+01  4.23680E+01  4.53275E+01  5.68687E+01  6.94681E+01  7.53125E+01  8.49284E+01
   9.30678E+01  8.39348E+01  8.50400E+01  7.37160E+01  6.66125E+01  5.66557E+01  3.72662E+01  3.30645E+01  3.51591E+01  3.50769E+01
   2.63088E+01  3.26924E+01  2.94955E+01  2.98209E+01  3.43960E+01  3.40907E+01  2.93420E+01  3.25705E+01  4.21763E+01  4.73414E+01
   4.45400E+01  5.07418E+01  4.69847E+01  4.21880E+01  3.65241E+01  3.51855E+01  3.63506E+01  3.66683E+01  3.02390E+01  3.40225E+01
   4.18919E+01  3.39720E+01  2.87788E+01  3.31586E+01  3.82943E+01  3.91960E+01  4.20627E+01  4.41626E+01  4.26635E+01  4.02195E+01
   2.95305E+01  2.83642E+01  2.38555E+01  2.82580E+01  2.90516E+01  2.48789E+01  2.27182E+01  2.99064E+01  3.02291E+01  2.65619E+01
   2.22658E+01  1.96393E+01  1.58916E+01  1.45334E+01  1.15159E+01  8.88547E+00  1.31468E+01  9.33928E+00  1.72704E+01  1.42067E+01
   1.11227E+01  7.80103E+00  1.29948E+01  1.52312E+01  1.74922E+01  1.24381E+01  1.57545E+01  1.20157E+01  1.77240E+01  8.40526E+00
   1.57879E+01  6.94261E+00  2.74288E+00  1.13873E+01  1.04924E+01  1.16895E+01  1.22786E+01  8.12816E+00  1.03664E+01  1.64751E+01
   1.10529E+01  1.40197E+01  1.84477E+01  1.58783E+01  1.83640E+01  1.44885E+01  1.72377E+01  1.53320E+01  2.17111E+01  3.30551E+01
   5.67730E+01  7.31607E+01  8.87217E+01  8.58191E+01  7.67651E+01  6.12980E+01  5.33704E+01  4.24591E+01  3.22309E+01  2.94012E+01
   2.49816E+01  1.84039E+01  1.77118E+01  1.61264E+01  1.83276E+01  1.61922E+01  2.02137E+01  1.84448E+01  1.80571E+01  1.80770E+01
   1.86798E+01  1.35489E+01  2.55956E+01  3.49935E+01  5.44393E+01  7.56194E+01  9.16708E+01  9.74871E+01  9.26652E+01  7.71109E+01
   6.74639E+01  4.83827E+01  3.93328E+01  3.15561E+01  2.29948E+01  2.26887E+01  1.95018E+01  1.67711E+01  1.79835E+01  6.73640E+00
   1.94311E+01  1.42612E+01  1.18076E+01  1.81584E+01  9.34856E+00  1.08031E+01  1.06189E+01  1.21972E+01  1.66156E+01  9.42371E+00
   1.13739E+01  1.22093E+01  9.90458E+00  8.82934E+00  7.66052E+00  9.92077E+00  1.21132E+01  1.09017E+01  9.06526E+00  5.95197E+00
   8.31540E+00  7.28697E+00  9.62885E+00  1.06297E+01  6.06787E+00  8.75663E+00  1.25836E+01  7.16109E+00  7.47081E+00  2.38554E+00
   3.88416E+00 -1.51208E+00  2.60417E-01 -2.24760E+00 -1.36569E+00 -5.46180E+00 -1.20753E+01 -3.17486E-01 -3.66093E+00 -4.89188E+00
  -4.13404E+00 -7.97395E+00 -4.70898E+00 -6.97791E+00 -8.88164E+00 -3.99818E+00 -7.62624E+00 -1.16095E+00  5.08726E+00  9.11961E+00
   7.63120E+00  1.40181E+01  1.50206E+01  1.87915E+01  1.73092E+01  9.75376E+00  1.23810E+01  8.61456E+00  9.22977E+00  4.83449E+00
   7.15800E+00  1.00969E+01  1.30443E+01  1.24135E+01  1.13577E+01  1.78931E+01  1.00542E+01  1.16038E+01  3.98027E-01  1.43726E+00
   7.05373E+00  3.26758E+00  1.22378E+01  1.84376E+01  2.74213E+01  2.72214E+01  2.70333E+01  2.84909E+01  1.78945E+01  1.62530E+01
   5.27060E+00  5.20619E+00  5.87193E+00  7.99223E+00  1.94843E+01  2.05644E+01  2.22128E+01  2.32534E+01  2.11345E+01  2.43969E+01
   2.04527E+01  1.61720E+01  2.11559E+01  1.76531E+01  1.92166E+01  1.84946E+01  2.08116E+01  2.39629E+01  1.33819E+01  1.50211E+01
   1.42337E+01  1.58501E+01  2.26097E+01  1.54937E+01  2.28565E+01  2.47554E+01  2.76016E+01  2.37912E+01  1.92362E+01  3.02848E+01
   2.86777E+01  3.22935E+01  3.25032E+01  4.27240E+01  3.46814E+01  3.20912E+01  4.85910E+01  7.63063E+01  9.95731E+01  1.15968E+02
   1.22973E+02  1.10616E+02  9.38958E+01  7.69290E+01  5.65075E+01  4.26105E+01  3.83933E+01  3.56863E+01  3.23437E+01  1.98532E+01
   2.28899E+01  2.59626E+01  2.27115E+01  2.11428E+01  1.96039E+01  2.00398E+01  1.54789E+01  2.13358E+01  1.68849E+01  1.73673E+01
   1.84564E+01  2.35741E+01  1.92729E+01  1.72655E+01  1.76825E+01  1.66995E+01  1.49519E+01  1.45947E+01  1.59067E+01  1.59555E+01
   2.20535E+01  1.30224E+01  1.71186E+01  1.55560E+01  1.70150E+01  2.18300E+01  2.10751E+01  2.09989E+01  1.95778E+01  1.80967E+01
   1.95669E+01  1.87995E+01  1.51782E+01  1.56492E+01  2.24473E+01  2.32316E+01  1.78768E+01  2.33885E+01  2.43082E+01  2.88730E+01
   2.49715E+01  2.58739E+01  3.07850E+01  2.37971E+01  2.99400E+01  2.79391E+01  2.95197E+01  2.52077E+01  2.77218E+01  2.95070E+01
   2.95574E+01  3.60647E+01  3.21440E+01  3.30705E+01  3.87839E+01  3.42626E+01  3.49100E+01  4.25620E+01  4.31593E+01  3.48410E+01
   4.36598E+01  4.33903E+01  3.79669E+01  3.82954E+01  3.61545E+01  3.37525E+01  3.63603E+01  3.95242E+01  3.82134E+01  3.40269E+01
   3.75050E+01  3.58967E+01  4.06911E+01  3.89503E+01  3.93456E+01  3.60448E+01  3.92769E+01  3.72008E+01  3.48864E+01  2.78668E+01
   2.86402E+01  2.98896E+01  3.07756E+01  3.30825E+01  2.81440E+01  2.78687E+01  2.30194E+01  2.36508E+01  2.79797E+01  1.96688E+01
   2.04981E+01  2.77584E+01  2.51277E+01  1.50170E+01  1.32632E+01  1.56323E+01  2.22077E+01  2.14345E+01  1.82992E+01  2.24735E+01
   1.83714E+01  1.88184E+01  2.15069E+01  2.39494E+01  1.70259E+01  1.81002E+01  1.93477E+01  1.23119E+01  9.65889E+00  1.71971E+01
   1.88524E+01  1.55400E+01  1.11176E+01  1.47417E+01  8.73565E+00  1.02273E+01  1.80796E+01  8.53744E+00  1.06817E+01  6.77757E+00
   1.03278E+01  1.29184E+01  1.10389E+01  1.53741E+01  1.21342E+01  7.53745E+00  1.51742E+01  9.90099E+00  1.42197E+01  1.14477E+01
   1.03532E+01  1.88110E+01  1.60818E+01  8.34362E+00  1.05215E+01  1.94124E+01  1.28672E+01  1.54974E+01  1.67253E+01  1.59534E+01
   1.72541E+01  1.66054E+01  1.19569E+01  1.77726E+01  1.25026E+01  1.53029E+01  1.08023E+01  1.01840E+01  1.45831E+01  1.22470E+01
   7.32049E+00  1.19355E+01  1.09396E+01  1.30754E+01  1.12446E+01  6.01795E+00  6.49552E+00  7.48550E+00  2.73867E+00  8.45748E+00
   1.02773E+01  1.12192E+01  4.21616E+00  8.98940E+00  6.11027E+00  1.13764E+01  8.56073E+00  5.78397E+00  1.23778E+01  9.65056E+00
   6.58546E+00  3.56578E+00  7.27008E+00  1.22133E+01  5.47374E+00  3.02757E+00  5.68324E+00  1.31780E+00  4.74245E+00  6.27529E+00
   5.48536E+00  7.51431E+00  8.17822E+00  4.52371E+00  5.97763E+00  1.32966E+00  6.98081E+00  7.13281E+00  6.74653E+00  3.42365E+00
   5.74717E+00  6.93369E+00  3.06995E+00  5.59262E+00  1.00386E+01  5.59861E+00  8.02218E+00  1.52365E+00  9.27092E+00  3.14742E+00
   4.74424E+00  2.82144E+00  7.40119E+00  4.97906E+00  6.60745E+00  5.87446E+00  1.94295E+00  9.66801E-01  8.34105E+00  1.15046E+00
   9.16800E+00  2.81391E+00  9.90236E+00  2.95528E+00  5.69466E+00  5.70518E+00  9.37487E+00  8.89655E+00  4.91885E+00  5.23889E+00
   6.19097E+00  5.02086E+00  3.78225E+00  8.65709E+00  1.02743E+01  4.30750E+00  6.68567E+00  2.27527E+00
 NY points of the fit to the data follow
   3.27386E+01  3.23860E+01  3.24924E+01  3.35711E+01  3.68440E+01  4.33600E+01  5.34572E+01  6.57769E+01  7.75095E+01  8.55358E+01
   8.78787E+01  8.45710E+01  7.73273E+01  6.84582E+01  5.98798E+01  5.24521E+01  4.61599E+01  4.11974E+01  3.79790E+01  3.59439E+01
   3.47896E+01  3.38968E+01  3.28583E+01  3.15156E+01  3.01961E+01  2.97597E+01  3.10810E+01  3.45620E+01  3.96398E+01  4.49225E+01
   4.87848E+01  5.01136E+01  4.86452E+01  4.49767E+01  4.02965E+01  3.57153E+01  3.18101E+01  2.89109E+01  2.74073E+01  2.71682E+01
   2.75537E+01  2.84240E+01  2.98617E+01  3.18717E+01  3.41151E+01  3.60349E+01  3.69647E+01  3.65232E+01  3.49266E+01  3.25573E+01
   2.99552E+01  2.76540E+01  2.58391E+01  2.44210E+01  2.34751E+01  2.32194E+01  2.35609E+01  2.41215E+01  2.45710E+01  2.46398E+01
   2.41643E+01  2.31892E+01  2.19342E+01  2.07255E+01  1.98176E+01  1.92807E+01  1.90867E+01  1.91998E+01  1.95124E+01  1.98734E+01
   2.01316E+01  2.01614E+01  1.99378E+01  1.95107E+01  1.89742E+01  1.84353E+01  1.79495E+01  1.75330E+01  1.71472E+01  1.67906E+01
   1.64621E+01  1.60625E+01  1.54757E+01  1.46201E+01  1.35221E+01  1.23332E+01  1.12852E+01  1.05995E+01  1.03949E+01  1.06500E+01
   1.12460E+01  1.20038E+01  1.27425E+01  1.33222E+01  1.36554E+01  1.37951E+01  1.43020E+01  1.72179E+01  2.50184E+01  3.86603E+01
   5.62812E+01  7.31876E+01  8.41683E+01  8.61715E+01  7.96602E+01  6.78154E+01  5.44388E+01  4.23291E+01  3.26089E+01  2.47678E+01
   1.83672E+01  1.47835E+01  1.36183E+01  1.31356E+01  1.28703E+01  1.27009E+01  1.25823E+01  1.25087E+01  1.25233E+01  1.27516E+01
   1.35828E+01  1.66110E+01  2.45003E+01  3.86841E+01  5.79628E+01  7.78009E+01  9.23275E+01  9.74334E+01  9.27188E+01  8.11919E+01
   6.70434E+01  5.34571E+01  4.18013E+01  3.16901E+01  2.24725E+01  1.56445E+01  1.24731E+01  1.12986E+01  1.13655E+01  1.21926E+01
   1.32130E+01  1.40096E+01  1.44409E+01  1.44413E+01  1.40638E+01  1.34955E+01  1.28567E+01  1.22045E+01  1.15985E+01  1.10165E+01
   1.05182E+01  1.00974E+01  9.75525E+00  9.52221E+00  9.40335E+00  9.30811E+00  9.09039E+00  8.65163E+00  8.01954E+00  7.40636E+00
   7.07714E+00  7.15476E+00  7.52251E+00  7.87539E+00  7.94023E+00  7.62672E+00  7.02878E+00  6.36321E+00  5.79789E+00  5.30162E+00
   4.78225E+00  4.14737E+00  3.40513E+00  2.74587E+00  2.33991E+00  2.23950E+00  2.39517E+00  2.63533E+00  2.79220E+00  2.81995E+00
   2.76507E+00  2.65273E+00  2.48384E+00  2.30377E+00  2.23325E+00  2.56608E+00  3.68629E+00  5.63384E+00  8.05899E+00  1.03383E+01
   1.19308E+01  1.26094E+01  1.23471E+01  1.13167E+01  9.83150E+00  8.28596E+00  7.18891E+00  6.99189E+00  7.85460E+00  9.67437E+00
   1.21110E+01  1.46213E+01  1.65768E+01  1.74944E+01  1.70331E+01  1.51665E+01  1.21465E+01  8.67260E+00  5.71681E+00  4.11049E+00
   4.48465E+00  6.96937E+00  1.11020E+01  1.58185E+01  1.97610E+01  2.17451E+01  2.12292E+01  1.83200E+01  1.36131E+01  8.49415E+00
   4.49562E+00  2.58776E+00  3.08591E+00  5.66653E+00  9.64863E+00  1.38027E+01  1.70809E+01  1.90645E+01  1.98413E+01  1.97838E+01
   1.92041E+01  1.85304E+01  1.83674E+01  1.90164E+01  2.02654E+01  2.17322E+01  2.29254E+01  2.33811E+01  2.29378E+01  2.17146E+01
   2.01463E+01  1.89169E+01  1.85935E+01  1.92857E+01  2.06353E+01  2.22294E+01  2.37310E+01  2.48509E+01  2.55385E+01  2.60925E+01
   2.68179E+01  2.77092E+01  2.88009E+01  3.02650E+01  3.36025E+01  4.17782E+01  5.66212E+01  7.71060E+01  9.83144E+01  1.13642E+02
   1.18306E+02  1.11679E+02  9.70839E+01  7.94629E+01  6.28569E+01  4.92899E+01  3.84827E+01  2.94026E+01  2.31999E+01  2.08806E+01
   1.99383E+01  1.94493E+01  1.92451E+01  1.91611E+01  1.90485E+01  1.88711E+01  1.86052E+01  1.82650E+01  1.78941E+01  1.75325E+01
   1.71979E+01  1.69188E+01  1.67152E+01  1.65741E+01  1.64730E+01  1.63983E+01  1.63481E+01  1.63263E+01  1.63318E+01  1.63632E+01
   1.64291E+01  1.65340E+01  1.66785E+01  1.68616E+01  1.70830E+01  1.73433E+01  1.76414E+01  1.79772E+01  1.83516E+01  1.87636E+01
   1.92106E+01  1.96890E+01  2.01933E+01  2.07170E+01  2.12532E+01  2.17960E+01  2.23403E+01  2.28819E+01  2.34172E+01  2.39437E+01
   2.44603E+01  2.49685E+01  2.54719E+01  2.59753E+01  2.64854E+01  2.70095E+01  2.75561E+01  2.81333E+01  2.87488E+01  2.94079E+01
   3.01134E+01  3.08650E+01  3.16587E+01  3.24871E+01  3.33387E+01  3.41984E+01  3.50482E+01  3.58678E+01  3.66361E+01  3.73324E+01
   3.79368E+01  3.84317E+01  3.88031E+01  3.90411E+01  3.91412E+01  3.91039E+01  3.89352E+01  3.86461E+01  3.82527E+01  3.77770E+01
   3.72501E+01  3.67166E+01  3.62009E+01  3.56753E+01  3.50679E+01  3.42960E+01  3.33257E+01  3.21986E+01  3.10148E+01  2.99144E+01
   2.90256E+01  2.84225E+01  2.80987E+01  2.79583E+01  2.78713E+01  2.77353E+01  2.74505E+01  2.69713E+01  2.63454E+01  2.56349E+01
   2.48851E+01  2.41057E+01  2.32960E+01  2.25036E+01  2.17478E+01  2.10126E+01  2.02945E+01  1.95954E+01  1.89189E+01  1.82688E+01
   1.76487E+01  1.70618E+01  1.65107E+01  1.59976E+01  1.55242E+01  1.50917E+01  1.47004E+01  1.43505E+01  1.40423E+01  1.37754E+01
   1.35497E+01  1.33647E+01  1.32199E+01  1.31148E+01  1.30492E+01  1.30226E+01  1.30347E+01  1.30848E+01  1.31722E+01  1.32958E+01
   1.34545E+01  1.36464E+01  1.38691E+01  1.41194E+01  1.43934E+01  1.46862E+01  1.49923E+01  1.53052E+01  1.56176E+01  1.59213E+01
   1.62082E+01  1.64696E+01  1.66973E+01  1.68830E+01  1.70194E+01  1.71002E+01  1.71204E+01  1.70770E+01  1.69682E+01  1.67942E+01
   1.65570E+01  1.62601E+01  1.59090E+01  1.55103E+01  1.50715E+01  1.46008E+01  1.41066E+01  1.35975E+01  1.30817E+01  1.25669E+01
   1.20599E+01  1.15663E+01  1.10911E+01  1.06381E+01  1.02101E+01  9.80895E+00  9.43545E+00  9.08975E+00  8.77143E+00  8.47965E+00
   8.21318E+00  7.97043E+00  7.74962E+00  7.54895E+00  7.36670E+00  7.20121E+00  7.05086E+00  6.91403E+00  6.78924E+00  6.67519E+00
   6.57082E+00  6.47513E+00  6.38717E+00  6.30602E+00  6.23093E+00  6.16130E+00  6.09665E+00  6.03650E+00  5.98036E+00  5.92778E+00
   5.87841E+00  5.83203E+00  5.78844E+00  5.74739E+00  5.70861E+00  5.67187E+00  5.63703E+00  5.60402E+00  5.57274E+00  5.54301E+00
   5.51467E+00  5.48759E+00  5.46176E+00  5.43717E+00  5.41373E+00  5.39130E+00  5.36976E+00  5.34908E+00  5.32929E+00  5.31037E+00
   5.29224E+00  5.27478E+00  5.25795E+00  5.24176E+00  5.22623E+00  5.21135E+00  5.19702E+00  5.18315E+00  5.16973E+00  5.15681E+00
   5.14440E+00  5.13247E+00  5.12092E+00  5.10970E+00  5.09884E+00  5.08841E+00  5.07840E+00  5.06874E+00  5.05937E+00  5.05027E+00
   5.04152E+00  5.03316E+00  5.02517E+00  5.01749E+00  5.01009E+00  5.00301E+00  4.99634E+00  4.99014E+00
 NY background values follow
     3.103E+01    3.081E+01    3.058E+01    3.036E+01    3.014E+01    2.991E+01    2.969E+01    2.947E+01    2.924E+01    2.902E+01
     2.880E+01    2.857E+01    2.835E+01    2.812E+01    2.790E+01    2.768E+01    2.745E+01    2.723E+01    2.701E+01    2.678E+01
     2.656E+01    2.634E+01    2.612E+01    2.590E+01    2.567E+01    2.545E+01    2.523E+01    2.501E+01    2.479E+01    2.457E+01
     2.435E+01    2.413E+01    2.392E+01    2.370E+01    2.348E+01    2.326E+01    2.305E+01    2.283E+01    2.262E+01    2.240E+01
     2.219E+01    2.198E+01    2.177E+01    2.155E+01    2.134E+01    2.113E+01    2.093E+01    2.072E+01    2.051E+01    2.030E+01
     2.010E+01    1.990E+01    1.969E+01    1.949E+01    1.929E+01    1.909E+01    1.889E+01    1.869E+01    1.849E+01    1.830E+01
     1.810E+01    1.791E+01    1.772E+01    1.753E+01    1.734E+01    1.715E+01    1.696E+01    1.678E+01    1.660E+01    1.641E+01
     1.623E+01    1.605E+01    1.588E+01    1.570E+01    1.552E+01    1.535E+01    1.518E+01    1.501E+01    1.484E+01    1.467E+01
     1.451E+01    1.435E+01    1.419E+01    1.403E+01    1.387E+01    1.371E+01    1.356E+01    1.341E+01    1.326E+01    1.311E+01
     1.296E+01    1.282E+01    1.268E+01    1.254E+01    1.240E+01    1.226E+01    1.213E+01    1.200E+01    1.187E+01    1.174E+01
     1.161E+01    1.149E+01    1.137E+01    1.125E+01    1.113E+01    1.101E+01    1.089E+01    1.078E+01    1.067E+01    1.056E+01
     1.045E+01    1.034E+01    1.024E+01    1.014E+01    1.004E+01    9.936E+00    9.838E+00    9.742E+00    9.647E+00    9.554E+00
     9.463E+00    9.373E+00    9.284E+00    9.197E+00    9.112E+00    9.028E+00    8.946E+00    8.865E+00    8.786E+00    8.708E+00
     8.631E+00    8.556E+00    8.482E+00    8.410E+00    8.339E+00    8.269E+00    8.201E+00    8.134E+00    8.069E+00    8.005E+00
     7.942E+00    7.880E+00    7.821E+00    7.762E+00    7.705E+00    7.650E+00    7.596E+00    7.544E+00    7.494E+00    7.445E+00
     7.397E+00    7.352E+00    7.308E+00    7.266E+00    7.226E+00    7.187E+00    7.150E+00    7.115E+00    7.082E+00    7.051E+00
     7.022E+00    6.995E+00    6.969E+00    6.946E+00    6.924E+00    6.905E+00    6.888E+00    6.873E+00    6.860E+00    6.849E+00
     6.840E+00    6.833E+00    6.829E+00    6.827E+00    6.827E+00    6.829E+00    6.834E+00    6.841E+00    6.850E+00    6.862E+00
     6.876E+00    6.893E+00    6.912E+00    6.933E+00    6.957E+00    6.983E+00    7.011E+00    7.042E+00    7.074E+00    7.109E+00
     7.145E+00    7.183E+00    7.224E+00    7.266E+00    7.309E+00    7.355E+00    7.402E+00    7.450E+00    7.500E+00    7.552E+00
     7.605E+00    7.659E+00    7.715E+00    7.771E+00    7.829E+00    7.888E+00    7.948E+00    8.009E+00    8.071E+00    8.134E+00
     8.197E+00    8.262E+00    8.327E+00    8.392E+00    8.459E+00    8.525E+00    8.592E+00    8.660E+00    8.728E+00    8.796E+00
     8.865E+00    8.933E+00    9.002E+00    9.070E+00    9.139E+00    9.208E+00    9.276E+00    9.345E+00    9.413E+00    9.481E+00
     9.548E+00    9.616E+00    9.683E+00    9.750E+00    9.816E+00    9.882E+00    9.948E+00    1.001E+01    1.008E+01    1.014E+01
     1.021E+01    1.027E+01    1.033E+01    1.040E+01    1.046E+01    1.052E+01    1.058E+01    1.064E+01    1.070E+01    1.076E+01
     1.082E+01    1.087E+01    1.093E+01    1.099E+01    1.104E+01    1.110E+01    1.115E+01    1.120E+01    1.125E+01    1.131E+01
     1.136E+01    1.141E+01    1.145E+01    1.150E+01    1.155E+01    1.159E+01    1.164E+01    1.168E+01    1.172E+01    1.176E+01
     1.180E+01    1.184E+01    1.188E+01    1.192E+01    1.195E+01    1.199E+01    1.202E+01    1.205E+01    1.208E+01    1.211E+01
     1.214E+01    1.217E+01    1.219E+01    1.222E+01    1.224E+01    1.227E+01    1.229E+01    1.231E+01    1.232E+01    1.234E+01
     1.236E+01    1.237E+01    1.239E+01    1.240E+01    1.241E+01    1.242E+01    1.243E+01    1.243E+01    1.244E+01    1.244E+01
     1.244E+01    1.244E+01    1.244E+01    1.244E+01    1.244E+01    1.244E+01    1.243E+01    1.242E+01    1.241E+01    1.240E+01
     1.239E+01    1.238E+01    1.237E+01    1.235E+01    1.233E+01    1.231E+01    1.229E+01    1.227E+01    1.225E+01    1.222E+01
     1.220E+01    1.217E+01    1.214E+01    1.211E+01    1.208E+01    1.205E+01    1.201E+01    1.198E+01    1.194E+01    1.190E+01
     1.186E+01    1.182E+01    1.178E+01    1.174E+01    1.169E+01    1.165E+01    1.160E+01    1.156E+01    1.151E+01    1.146E+01
     1.141E+01    1.136E+01    1.131E+01    1.126E+01    1.121E+01    1.115E+01    1.110E+01    1.104E+01    1.098E+01    1.093E+01
     1.087E+01    1.081E+01    1.075E+01    1.069E+01    1.063E+01    1.057E+01    1.051E+01    1.045E+01    1.039E+01    1.032E+01
     1.026E+01    1.020E+01    1.013E+01    1.007E+01    1.000E+01    9.940E+00    9.875E+00    9.809E+00    9.743E+00    9.677E+00
     9.611E+00    9.545E+00    9.479E+00    9.412E+00    9.346E+00    9.280E+00    9.213E+00    9.147E+00    9.081E+00    9.015E+00
     8.949E+00    8.884E+00    8.818E+00    8.753E+00    8.688E+00    8.624E+00    8.560E+00    8.496E+00    8.433E+00    8.370E+00
     8.307E+00    8.246E+00    8.184E+00    8.124E+00    8.064E+00    8.004E+00    7.945E+00    7.887E+00    7.830E+00    7.774E+00
     7.718E+00    7.663E+00    7.609E+00    7.556E+00    7.504E+00    7.453E+00    7.403E+00    7.354E+00    7.305E+00    7.258E+00
     7.212E+00    7.167E+00    7.123E+00    7.080E+00    7.038E+00    6.997E+00    6.957E+00    6.917E+00    6.879E+00    6.841E+00
     6.805E+00    6.769E+00    6.734E+00    6.700E+00    6.666E+00    6.634E+00    6.602E+00    6.571E+00    6.541E+00    6.512E+00
     6.483E+00    6.455E+00    6.428E+00    6.401E+00    6.375E+00    6.350E+00    6.325E+00    6.301E+00    6.278E+00    6.255E+00
     6.233E+00    6.211E+00    6.190E+00    6.169E+00    6.149E+00    6.130E+00    6.111E+00    6.092E+00    6.074E+00    6.057E+00
     6.040E+00    6.023E+00    6.007E+00    5.991E+00    5.975E+00    5.960E+00    5.945E+00    5.931E+00    5.917E+00    5.903E+00
     5.890E+00    5.877E+00    5.864E+00    5.851E+00    5.839E+00    5.827E+00    5.816E+00    5.804E+00    5.793E+00    5.782E+00
     5.772E+00    5.761E+00    5.751E+00    5.741E+00    5.731E+00    5.722E+00    5.712E+00    5.703E+00    5.694E+00    5.685E+00
     5.676E+00    5.667E+00    5.658E+00    5.650E+00    5.641E+00    5.633E+00    5.624E+00    5.616E+00    5.608E+00    5.600E+00
     5.591E+00    5.583E+00    5.575E+00    5.567E+00    5.559E+00    5.551E+00    5.542E+00    5.534E+00
 Cr       Conc. = 7.85E+02
