 LCModel (Version 6.3-1L) Copyright: S.W. Provencher.          Ref.: Magn. Reson. Med. 30:672-679 (1993).                
 Slice#3 Row#9 Col#10  K_02_press_1_raw_act
 36 lines in following concentration table = NCONC+1
    Conc.  %SD /Cr+PCr  Metabolite                                         
  579.079  18%   0.313 Ala                                                 
    0.000 999%   0.000 Asp                                                 
  573.413  36%   0.310 Cr                                                  
 1.28E+03  17%   0.690 PCr                                                 
    0.000 999%   0.000 GABA                                                
    0.000 999%   0.000 Glc                                                 
  532.176  39%   0.287 Gln                                                 
 1.49E+03  15%   0.804 Glu                                                 
  672.349   4%   0.363 GPC                                                 
    0.000 999%   0.000 PCh                                                 
  531.543  14%   0.287 GSH                                                 
  797.034  32%   0.430 Ins                                                 
   84.470 127% 4.6E-02 Lac                                                 
 2.34E+03   5%   1.261 NAA                                                 
  654.659  19%   0.353 NAAG                                                
   93.084  31% 5.0E-02 Scyllo                                              
    0.000 999%   0.000 Tau                                                 
  180.652  64% 9.8E-02 -CrCH2                                              
  672.349   4%   0.363 GPC+PCh                                             
 2.99E+03   3%   1.615 NAA+NAAG                                            
 1.85E+03   3%   1.000 Cr+PCr                                              
 2.02E+03  16%   1.092 Glu+Gln                                             
  385.712  99%   0.208 Lip13a                                              
    0.000 999%   0.000 Lip13b                                              
   64.580 264% 3.5E-02 Lip09                                               
 1.58E+03  17%   0.850 MM09                                                
   68.857 161% 3.7E-02 Lip20                                               
 3.11E+03  15%   1.677 MM20                                                
  656.725  34%   0.355 MM12                                                
    0.000 999%   0.000 MM14                                                
 1.22E+03  25%   0.659 MM17                                                
  385.712  99%   0.208 Lip13a+Lip13b                                       
 1.04E+03  34%   0.563 MM14+Lip13a+Lip13b+MM12                             
 1.64E+03  16%   0.885 MM09+Lip09                                          
 3.17E+03  14%   1.714 MM20+Lip20                                          
   6 lines in following misc. output table
  FWHM = 0.054 ppm    S/N =  14                                            
  Data shift = 0.023 ppm                                                   
  Ph: -35 deg     -18.8 deg/ppm                                            
  alphaB,S = 6.1E-01,   4.8E+01                                            
   14 spline knots.   Ns = 6(1)                                            
  ( 8) 3 infls.   ( 3) 1 extrs.                                            
  498 points on ppm-axis = NY
      4.000000     3.992357     3.984714     3.977070     3.969427     3.961784     3.954141     3.946497     3.938854     3.931211
      3.923568     3.915925     3.908281     3.900638     3.892995     3.885352     3.877708     3.870065     3.862422     3.854779
      3.847136     3.839492     3.831849     3.824206     3.816563     3.808919     3.801276     3.793633     3.785990     3.778347
      3.770703     3.763060     3.755417     3.747774     3.740130     3.732487     3.724844     3.717201     3.709558     3.701914
      3.694271     3.686628     3.678985     3.671341     3.663698     3.656055     3.648412     3.640769     3.633125     3.625482
      3.617839     3.610196     3.602552     3.594909     3.587266     3.579623     3.571980     3.564336     3.556693     3.549050
      3.541407     3.533763     3.526120     3.518477     3.510834     3.503191     3.495547     3.487904     3.480261     3.472618
      3.464974     3.457331     3.449688     3.442045     3.434402     3.426758     3.419115     3.411472     3.403829     3.396185
      3.388542     3.380899     3.373256     3.365613     3.357969     3.350326     3.342683     3.335040     3.327396     3.319753
      3.312110     3.304467     3.296824     3.289180     3.281537     3.273894     3.266251     3.258607     3.250964     3.243321
      3.235678     3.228034     3.220391     3.212748     3.205105     3.197462     3.189818     3.182175     3.174532     3.166889
      3.159245     3.151602     3.143959     3.136316     3.128673     3.121029     3.113386     3.105743     3.098100     3.090456
      3.082813     3.075170     3.067527     3.059884     3.052240     3.044597     3.036954     3.029311     3.021667     3.014024
      3.006381     2.998738     2.991095     2.983451     2.975808     2.968165     2.960522     2.952878     2.945235     2.937592
      2.929949     2.922306     2.914662     2.907019     2.899376     2.891733     2.884089     2.876446     2.868803     2.861160
      2.853517     2.845873     2.838230     2.830587     2.822944     2.815300     2.807657     2.800014     2.792371     2.784728
      2.777084     2.769441     2.761798     2.754155     2.746511     2.738868     2.731225     2.723582     2.715939     2.708295
      2.700652     2.693009     2.685366     2.677722     2.670079     2.662436     2.654793     2.647150     2.639506     2.631863
      2.624220     2.616577     2.608933     2.601290     2.593647     2.586004     2.578361     2.570717     2.563074     2.555431
      2.547788     2.540144     2.532501     2.524858     2.517215     2.509572     2.501928     2.494285     2.486642     2.478999
      2.471355     2.463712     2.456069     2.448426     2.440783     2.433139     2.425496     2.417853     2.410210     2.402566
      2.394923     2.387280     2.379637     2.371994     2.364350     2.356707     2.349064     2.341421     2.333777     2.326134
      2.318491     2.310848     2.303205     2.295561     2.287918     2.280275     2.272632     2.264988     2.257345     2.249702
      2.242059     2.234416     2.226772     2.219129     2.211486     2.203843     2.196199     2.188556     2.180913     2.173270
      2.165627     2.157983     2.150340     2.142697     2.135054     2.127410     2.119767     2.112124     2.104481     2.096838
      2.089194     2.081551     2.073908     2.066265     2.058621     2.050978     2.043335     2.035692     2.028049     2.020405
      2.012762     2.005119     1.997476     1.989833     1.982190     1.974546     1.966903     1.959260     1.951617     1.943974
      1.936331     1.928688     1.921045     1.913402     1.905759     1.898115     1.890472     1.882829     1.875186     1.867543
      1.859900     1.852257     1.844614     1.836971     1.829327     1.821684     1.814041     1.806398     1.798755     1.791112
      1.783469     1.775826     1.768183     1.760540     1.752896     1.745253     1.737610     1.729967     1.722324     1.714681
      1.707038     1.699395     1.691752     1.684108     1.676465     1.668822     1.661179     1.653536     1.645893     1.638250
      1.630607     1.622964     1.615321     1.607677     1.600034     1.592391     1.584748     1.577105     1.569462     1.561819
      1.554176     1.546533     1.538890     1.531246     1.523603     1.515960     1.508317     1.500674     1.493031     1.485388
      1.477745     1.470102     1.462458     1.454815     1.447172     1.439529     1.431886     1.424243     1.416600     1.408957
      1.401314     1.393671     1.386027     1.378384     1.370741     1.363098     1.355455     1.347812     1.340169     1.332526
      1.324883     1.317240     1.309596     1.301953     1.294310     1.286667     1.279024     1.271381     1.263738     1.256095
      1.248452     1.240808     1.233165     1.225522     1.217879     1.210236     1.202593     1.194950     1.187307     1.179664
      1.172021     1.164377     1.156734     1.149091     1.141448     1.133805     1.126162     1.118519     1.110876     1.103233
      1.095590     1.087946     1.080303     1.072660     1.065017     1.057374     1.049731     1.042088     1.034445     1.026802
      1.019158     1.011515     1.003872     0.996229     0.988586     0.980943     0.973300     0.965657     0.958014     0.950371
      0.942727     0.935084     0.927441     0.919798     0.912155     0.904512     0.896869     0.889226     0.881583     0.873940
      0.866296     0.858653     0.851010     0.843367     0.835724     0.828081     0.820438     0.812795     0.805152     0.797508
      0.789865     0.782222     0.774579     0.766936     0.759293     0.751650     0.744007     0.736364     0.728721     0.721077
      0.713434     0.705791     0.698148     0.690505     0.682862     0.675219     0.667576     0.659933     0.652290     0.644646
      0.637003     0.629360     0.621717     0.614074     0.606431     0.598788     0.591145     0.583502     0.575858     0.568215
      0.560572     0.552929     0.545286     0.537643     0.530000     0.522357     0.514714     0.507071     0.499427     0.491784
      0.484141     0.476498     0.468855     0.461212     0.453569     0.445925     0.438282     0.430639     0.422996     0.415353
      0.407710     0.400067     0.392424     0.384780     0.377137     0.369494     0.361851     0.354208     0.346565     0.338922
      0.331278     0.323635     0.315992     0.308349     0.300706     0.293063     0.285420     0.277777     0.270133     0.262490
      0.254847     0.247204     0.239561     0.231918     0.224275     0.216631     0.208988     0.201345
 NY phased data points follow
  -1.44319E+01 -1.46560E+01 -1.22668E+01 -1.02394E+01 -4.76808E+00  1.75959E+00  8.84941E+00  1.20113E+01  2.00880E+01  2.71017E+01
   2.80367E+01  2.77483E+01  2.06061E+01  1.33830E+01  3.26722E+00 -1.95193E+00 -3.58244E+00 -1.06033E+01 -8.01625E+00 -1.32825E+01
  -1.23857E+01 -6.37148E+00 -8.00233E+00 -7.83465E+00 -7.60638E+00 -5.92689E+00 -4.85838E+00 -7.72652E+00 -1.29129E+00  1.35942E+00
   2.00647E+00  1.35228E+00  1.84774E+00 -2.17177E+00  4.53519E-01 -1.92928E+00 -8.57788E-01 -4.21691E+00 -2.05864E+00 -5.15901E+00
  -1.63003E+00 -5.90229E+00 -8.83665E-01 -5.80874E-01 -4.65219E-01  5.09229E+00  1.17082E+00  6.23105E+00  7.17070E+00  2.29829E+00
   5.84298E-02  9.82640E-01  2.74417E+00 -1.41135E-01 -2.92404E+00 -2.67647E+00  1.14578E+00 -2.57477E+00 -3.89965E+00 -4.75361E+00
  -4.76080E+00 -1.18947E+01 -1.15737E+01 -1.19570E+01 -1.60861E+01 -1.54573E+01 -1.05906E+01 -1.24510E+01 -1.35220E+01 -1.01282E+01
  -9.89564E+00 -8.06262E+00 -7.54547E+00 -6.99513E+00 -2.65642E+00 -5.18795E+00 -6.79003E+00 -6.85118E+00 -7.31994E+00 -5.96701E+00
  -4.46133E+00 -2.52384E+00 -4.44081E+00 -3.50644E+00 -4.55750E+00 -3.10440E+00 -2.22285E+00 -5.88650E-01  5.82220E-01  2.83775E+00
   4.94769E+00  1.32620E+00  5.66542E+00  4.92289E+00  4.94201E+00  8.62772E+00  7.90957E+00  8.74960E+00  1.48943E+01  2.26438E+01
   4.27679E+01  5.58783E+01  6.43497E+01  6.40039E+01  5.50069E+01  4.51870E+01  3.44301E+01  2.08094E+01  1.91335E+01  8.97641E+00
   2.37718E+00  3.56984E+00  3.65795E+00 -3.53822E+00  2.19242E+00  1.98306E-01  5.32959E+00  2.90557E+00  3.88579E+00  9.29719E+00
   1.15795E+01  8.47919E+00  1.10909E+01  2.19304E+01  3.80251E+01  5.39761E+01  6.52677E+01  6.20978E+01  5.93857E+01  5.66901E+01
   4.69153E+01  3.18568E+01  1.78606E+01  1.29121E+01  7.33749E+00  4.96547E+00  1.81109E+00  1.07393E+00  8.82936E-01  2.45471E+00
  -3.19638E-01  3.34228E+00  9.57440E-01  6.21022E+00  3.27633E+00  3.62970E+00  3.55752E+00  1.77491E+00  3.28844E+00  4.04734E+00
   3.13961E+00  6.65670E+00  1.02148E+00 -9.11581E-01  7.75696E-01  6.21744E-01 -8.65495E-01  9.99423E-01  7.59272E+00  2.80507E+00
  -1.69110E+00 -2.98059E+00 -2.97099E+00  2.68346E+00 -8.66566E-01  2.11279E+00 -6.60917E-01  1.03981E+00 -3.34194E+00 -8.50024E+00
  -5.32531E+00 -8.20468E+00 -3.97482E+00 -1.12864E+01 -1.67500E+01 -1.52357E+01 -1.08561E+01 -6.63386E+00 -7.42834E+00 -3.61950E+00
  -4.51353E+00 -1.09246E+01 -9.16163E+00 -1.14905E+01 -9.02306E+00 -4.74488E+00 -6.06608E+00 -5.83590E+00 -1.50172E+00  4.21703E+00
   4.95868E+00  5.48525E+00  8.41020E+00  7.60541E+00  8.48193E+00  6.97466E+00  3.54255E+00  5.45816E+00  3.31680E+00  1.09973E+00
   2.21575E+00  5.00663E+00  6.83835E+00  9.42625E+00  9.83921E+00  7.40982E+00  4.07240E+00  8.06715E-01  6.10243E+00  3.76401E-01
   5.16296E-01  5.77624E+00  5.78904E+00  1.17283E+01  1.75224E+01  1.83378E+01  1.64566E+01  1.94902E+01  1.66989E+01  1.02944E+01
   4.12966E+00  3.66915E+00  2.87250E+00  2.75665E+00  8.09696E+00  1.22197E+01  1.21263E+01  1.18347E+01  2.11304E+01  1.56648E+01
   1.45056E+01  1.30835E+01  1.39870E+01  1.34199E+01  1.61684E+01  1.24499E+01  1.39105E+01  1.98578E+01  1.49031E+01  1.24020E+01
   9.82458E+00  6.99288E+00  8.18752E+00  9.02492E+00  1.05148E+01  1.14218E+01  1.13141E+01  2.23398E+01  2.01659E+01  1.87339E+01
   2.11423E+01  1.67242E+01  2.45169E+01  4.25048E+01  5.82756E+01  5.59614E+01  5.93000E+01  7.38528E+01  9.26022E+01  1.14090E+02
   1.19518E+02  1.05526E+02  8.35512E+01  7.14114E+01  4.90204E+01  3.37983E+01  2.61078E+01  2.24303E+01  1.46523E+01  1.76570E+01
   1.95928E+01  1.39334E+01  1.51865E+01  1.40288E+01  1.76844E+01  1.84574E+01  1.63687E+01  1.37702E+01  1.57943E+01  1.47546E+01
   1.23082E+01  1.75676E+01  1.37611E+01  1.44536E+01  1.16855E+01  1.13328E+01  1.27782E+01  1.14309E+01  1.29258E+01  1.42225E+01
   1.39566E+01  1.52509E+01  1.72801E+01  1.39031E+01  1.05485E+01  1.26089E+01  1.37800E+01  1.84137E+01  1.42220E+01  1.98823E+01
   1.97362E+01  1.94515E+01  2.10342E+01  1.81717E+01  1.68396E+01  1.63505E+01  1.54692E+01  1.42387E+01  1.35118E+01  1.42254E+01
   1.24799E+01  1.54870E+01  1.53414E+01  1.90694E+01  2.04652E+01  1.75877E+01  1.63635E+01  1.77675E+01  1.81084E+01  1.80607E+01
   1.35674E+01  1.54007E+01  8.22374E+00  1.16421E+01  8.96824E+00  1.00154E+01  5.86972E+00  7.04058E+00  1.77330E+00 -1.01657E+00
   1.08309E+00 -3.33574E+00  1.11173E+00  6.19655E+00  1.00888E+01  1.14818E+01  1.43299E+01  1.48323E+01  1.58401E+01  1.49549E+01
   1.62036E+01  1.49976E+01  1.77780E+01  1.75933E+01  1.89354E+01  1.68019E+01  1.63173E+01  1.80454E+01  1.29535E+01  1.46074E+01
   1.46712E+01  1.11336E+01  1.75226E+01  1.59336E+01  1.62258E+01  1.35814E+01  1.68135E+01  1.63974E+01  1.31629E+01  1.74074E+01
   1.73879E+01  1.44626E+01  1.80402E+01  1.75169E+01  1.86985E+01  1.62837E+01  2.08239E+01  1.65831E+01  2.14334E+01  1.99322E+01
   2.07384E+01  1.80639E+01  2.01983E+01  2.23692E+01  1.76202E+01  1.60678E+01  1.90291E+01  1.55980E+01  1.75726E+01  1.58117E+01
   1.77043E+01  1.87438E+01  1.70309E+01  1.59058E+01  2.07157E+01  1.31555E+01  1.98246E+01  1.86682E+01  1.79453E+01  1.77560E+01
   1.75255E+01  2.07953E+01  2.04045E+01  2.21128E+01  2.38038E+01  2.48435E+01  2.34227E+01  2.54506E+01  2.26247E+01  2.21773E+01
   2.39679E+01  2.33611E+01  2.40842E+01  2.51882E+01  1.70332E+01  2.20367E+01  2.36840E+01  2.53875E+01  2.81393E+01  2.58544E+01
   2.41145E+01  2.93731E+01  2.64112E+01  2.66686E+01  2.72701E+01  2.68677E+01  2.33633E+01  2.29674E+01  2.05519E+01  2.15139E+01
   2.26768E+01  1.95736E+01  2.00856E+01  2.38583E+01  2.26539E+01  2.17917E+01  1.88024E+01  2.20302E+01  1.92093E+01  2.04192E+01
   1.89900E+01  2.14430E+01  2.04477E+01  2.05149E+01  2.04816E+01  1.56983E+01  2.05293E+01  1.90422E+01  2.06922E+01  2.21278E+01
   1.72462E+01  1.69785E+01  2.06677E+01  1.83440E+01  2.12517E+01  2.19214E+01  2.03638E+01  1.57457E+01  2.00378E+01  1.71172E+01
   1.61908E+01  1.79458E+01  1.84132E+01  1.85950E+01  1.53513E+01  2.18427E+01  1.84133E+01  2.06372E+01  1.62439E+01  2.00167E+01
   1.82105E+01  1.70554E+01  1.89353E+01  1.33011E+01  1.85369E+01  1.73381E+01  1.95764E+01  1.83834E+01  1.58237E+01  1.63672E+01
   1.70027E+01  1.80188E+01  1.55626E+01  1.62170E+01  1.44876E+01  1.72393E+01  1.81784E+01  1.72333E+01  1.79618E+01  1.74092E+01
   1.50133E+01  1.85827E+01  1.45925E+01  1.77470E+01  1.77643E+01  1.92611E+01  1.55637E+01  1.70641E+01  1.63301E+01  1.76200E+01
   1.61494E+01  1.50680E+01  1.59461E+01  8.74776E+00  1.51074E+01  1.65092E+01  1.72585E+01  1.33852E+01
 NY points of the fit to the data follow
  -1.27904E+01 -1.22284E+01 -1.09647E+01 -8.17020E+00 -4.96976E+00 -8.00956E-01  5.68232E+00  1.39623E+01  2.22195E+01  2.75217E+01
   2.82160E+01  2.49005E+01  1.91069E+01  1.23463E+01  6.00935E+00  7.56187E-01 -3.36091E+00 -5.88521E+00 -7.13658E+00 -7.60226E+00
  -7.66041E+00 -7.53853E+00 -7.74234E+00 -7.92815E+00 -7.75215E+00 -8.40710E+00 -8.42224E+00 -6.21939E+00 -2.54590E+00  1.09458E+00
   3.55840E+00  4.87663E+00  5.08738E+00  3.72139E+00  9.82802E-01 -1.85910E+00 -4.21672E+00 -6.15211E+00 -7.34413E+00 -7.54153E+00
  -6.76582E+00 -5.62522E+00 -4.61573E+00 -3.49638E+00 -1.95215E+00 -2.70627E-01  8.74843E-01  1.05022E+00  4.57893E-01 -6.52184E-01
  -2.10447E+00 -3.56246E+00 -4.72458E+00 -5.44281E+00 -5.85227E+00 -5.95811E+00 -5.73405E+00 -5.26995E+00 -4.69824E+00 -4.31069E+00
  -4.27925E+00 -4.56750E+00 -5.09419E+00 -5.66373E+00 -6.09356E+00 -6.22350E+00 -6.08795E+00 -5.80994E+00 -5.39864E+00 -4.88364E+00
  -4.37861E+00 -4.04084E+00 -3.91872E+00 -3.94431E+00 -4.02613E+00 -4.11460E+00 -4.18958E+00 -4.19790E+00 -4.15390E+00 -4.06117E+00
  -3.86349E+00 -3.34550E+00 -2.92391E+00 -2.51975E+00 -1.52591E+00 -2.13725E-01  7.25875E-01  8.96811E-01  4.49854E-01 -1.59683E-01
  -6.43322E-01 -1.06811E+00 -1.24126E+00 -1.02315E+00 -5.67944E-01  5.51705E-01  4.18146E+00  1.00060E+01  1.45568E+01  2.39264E+01
   4.02504E+01  5.69854E+01  6.63077E+01  6.52369E+01  5.69871E+01  4.59306E+01  3.36021E+01  2.15868E+01  1.25685E+01  6.23156E+00
   1.79472E+00  1.54858E-01 -2.07139E-01 -2.35476E-01 -1.37778E-01  5.70334E-02  3.15032E-01  6.22673E-01  1.05871E+00  1.87961E+00
   4.26382E+00  1.01556E+01  1.48883E+01  2.15102E+01  3.54925E+01  5.28926E+01  6.54963E+01  6.82309E+01  6.23342E+01  5.24537E+01
   4.13486E+01  2.98318E+01  2.00832E+01  1.27537E+01  6.46670E+00  2.58896E+00  9.50804E-01  2.72521E-01  4.46448E-01  1.31798E+00
   2.35735E+00  3.15951E+00  3.61928E+00  3.68112E+00  3.42031E+00  3.00780E+00  2.54233E+00  2.12117E+00  1.72204E+00  1.36973E+00
   1.10197E+00  7.99059E-01  4.88759E-01  2.78135E-01  1.72033E-01  1.51592E-01  3.83289E-01  4.42443E-01  6.09369E-02 -5.71768E-01
  -1.29413E+00 -1.41055E+00 -9.39390E-01 -5.09520E-01 -4.64204E-01 -7.54042E-01 -1.34066E+00 -1.98549E+00 -2.52476E+00 -3.00949E+00
  -3.30528E+00 -3.34357E+00 -3.53235E+00 -4.11959E+00 -4.76799E+00 -5.05371E+00 -4.59181E+00 -3.90999E+00 -3.64669E+00 -3.80595E+00
  -3.89714E+00 -3.74987E+00 -3.19290E+00 -2.72663E+00 -2.53657E+00 -2.05042E+00 -8.41194E-01  9.42366E-01  3.07449E+00  5.13314E+00
   6.65617E+00  7.28552E+00  6.81362E+00  6.04534E+00  5.10136E+00  3.84572E+00  2.79447E+00  2.63194E+00  3.46975E+00  4.78529E+00
   6.38887E+00  8.09373E+00  9.59186E+00  1.03165E+01  9.86610E+00  8.73623E+00  6.59821E+00  3.72804E+00  1.45389E+00  2.32215E-01
   3.19716E-01  1.19377E+00  3.14908E+00  6.67305E+00  1.06586E+01  1.32806E+01  1.36286E+01  1.22361E+01  9.81782E+00  6.54523E+00
   2.65042E+00 -2.81462E-01 -9.19993E-01  5.81230E-01  3.42417E+00  6.52367E+00  9.40032E+00  1.17841E+01  1.30042E+01  1.30275E+01
   1.25448E+01  1.22619E+01  1.23386E+01  1.27409E+01  1.35949E+01  1.48548E+01  1.58992E+01  1.61748E+01  1.57798E+01  1.47815E+01
   1.33410E+01  1.19344E+01  1.14396E+01  1.21278E+01  1.35279E+01  1.51490E+01  1.67331E+01  1.80703E+01  1.89963E+01  2.03661E+01
   2.24844E+01  2.40537E+01  2.76814E+01  3.54969E+01  4.90879E+01  5.80560E+01  6.35545E+01  7.73951E+01  9.75338E+01  1.12383E+02
   1.13691E+02  1.03372E+02  8.81030E+01  7.12933E+01  5.39216E+01  3.93437E+01  2.93659E+01  2.14320E+01  1.69107E+01  1.54609E+01
   1.47185E+01  1.42768E+01  1.40966E+01  1.40186E+01  1.38250E+01  1.35161E+01  1.31905E+01  1.28909E+01  1.25745E+01  1.22991E+01
   1.21431E+01  1.21074E+01  1.21469E+01  1.22255E+01  1.23143E+01  1.24207E+01  1.25417E+01  1.26651E+01  1.28370E+01  1.30957E+01
   1.34472E+01  1.38767E+01  1.43365E+01  1.47958E+01  1.52557E+01  1.56766E+01  1.60345E+01  1.63465E+01  1.66244E+01  1.68723E+01
   1.70865E+01  1.72504E+01  1.73534E+01  1.73867E+01  1.73398E+01  1.72161E+01  1.70225E+01  1.67624E+01  1.64515E+01  1.61059E+01
   1.57390E+01  1.53640E+01  1.49935E+01  1.46408E+01  1.43200E+01  1.40459E+01  1.38341E+01  1.37053E+01  1.36941E+01  1.38805E+01
   1.44290E+01  1.49471E+01  1.51851E+01  1.61073E+01  1.70476E+01  1.66533E+01  1.44484E+01  1.10449E+01  7.85409E+00  5.74484E+00
   3.74946E+00  2.72782E+00  3.95064E+00  6.97839E+00  1.06320E+01  1.37880E+01  1.57651E+01  1.68465E+01  1.71695E+01  1.68142E+01
   1.63036E+01  1.58604E+01  1.53283E+01  1.50553E+01  1.51140E+01  1.52513E+01  1.52272E+01  1.49755E+01  1.46132E+01  1.43790E+01
   1.42364E+01  1.41512E+01  1.43326E+01  1.48537E+01  1.55450E+01  1.62231E+01  1.67663E+01  1.71452E+01  1.73957E+01  1.75184E+01
   1.75626E+01  1.75878E+01  1.75815E+01  1.75716E+01  1.75791E+01  1.75854E+01  1.75817E+01  1.75655E+01  1.75363E+01  1.74955E+01
   1.74455E+01  1.73896E+01  1.73307E+01  1.72720E+01  1.72166E+01  1.71688E+01  1.71320E+01  1.71101E+01  1.71060E+01  1.71226E+01
   1.71627E+01  1.72294E+01  1.73252E+01  1.74526E+01  1.76130E+01  1.78082E+01  1.80394E+01  1.83083E+01  1.86153E+01  1.89603E+01
   1.93423E+01  1.97597E+01  2.02102E+01  2.06908E+01  2.11964E+01  2.17214E+01  2.22582E+01  2.27991E+01  2.33352E+01  2.38570E+01
   2.43542E+01  2.48162E+01  2.52329E+01  2.55954E+01  2.58955E+01  2.61267E+01  2.62836E+01  2.63631E+01  2.63644E+01  2.62892E+01
   2.61408E+01  2.59247E+01  2.56474E+01  2.53171E+01  2.49430E+01  2.45351E+01  2.41030E+01  2.36561E+01  2.32028E+01  2.27514E+01
   2.23088E+01  2.18813E+01  2.14733E+01  2.10883E+01  2.07282E+01  2.03948E+01  2.00887E+01  1.98099E+01  1.95573E+01  1.93297E+01
   1.91253E+01  1.89428E+01  1.87804E+01  1.86365E+01  1.85088E+01  1.83956E+01  1.82952E+01  1.82065E+01  1.81281E+01  1.80588E+01
   1.79970E+01  1.79420E+01  1.78927E+01  1.78489E+01  1.78097E+01  1.77744E+01  1.77422E+01  1.77128E+01  1.76859E+01  1.76613E+01
   1.76385E+01  1.76172E+01  1.75969E+01  1.75776E+01  1.75592E+01  1.75418E+01  1.75249E+01  1.75084E+01  1.74920E+01  1.74761E+01
   1.74605E+01  1.74452E+01  1.74300E+01  1.74146E+01  1.73992E+01  1.73839E+01  1.73687E+01  1.73536E+01  1.73382E+01  1.73226E+01
   1.73068E+01  1.72912E+01  1.72756E+01  1.72599E+01  1.72438E+01  1.72276E+01  1.72113E+01  1.71952E+01  1.71790E+01  1.71626E+01
   1.71460E+01  1.71294E+01  1.71128E+01  1.70964E+01  1.70799E+01  1.70633E+01  1.70466E+01  1.70301E+01  1.70137E+01  1.69976E+01
   1.69813E+01  1.69652E+01  1.69490E+01  1.69332E+01  1.69177E+01  1.69025E+01  1.68873E+01  1.68723E+01
 NY background values follow
    -1.724E+01   -1.709E+01   -1.694E+01   -1.679E+01   -1.664E+01   -1.650E+01   -1.635E+01   -1.620E+01   -1.605E+01   -1.591E+01
    -1.576E+01   -1.561E+01   -1.547E+01   -1.532E+01   -1.517E+01   -1.503E+01   -1.488E+01   -1.473E+01   -1.459E+01   -1.444E+01
    -1.430E+01   -1.415E+01   -1.400E+01   -1.386E+01   -1.372E+01   -1.357E+01   -1.343E+01   -1.328E+01   -1.314E+01   -1.300E+01
    -1.285E+01   -1.271E+01   -1.257E+01   -1.243E+01   -1.228E+01   -1.214E+01   -1.200E+01   -1.186E+01   -1.172E+01   -1.158E+01
    -1.144E+01   -1.130E+01   -1.116E+01   -1.102E+01   -1.089E+01   -1.075E+01   -1.061E+01   -1.048E+01   -1.034E+01   -1.020E+01
    -1.007E+01   -9.933E+00   -9.799E+00   -9.666E+00   -9.533E+00   -9.400E+00   -9.268E+00   -9.136E+00   -9.005E+00   -8.875E+00
    -8.745E+00   -8.616E+00   -8.487E+00   -8.359E+00   -8.232E+00   -8.105E+00   -7.978E+00   -7.853E+00   -7.728E+00   -7.604E+00
    -7.480E+00   -7.357E+00   -7.235E+00   -7.113E+00   -6.992E+00   -6.872E+00   -6.752E+00   -6.634E+00   -6.516E+00   -6.398E+00
    -6.282E+00   -6.166E+00   -6.051E+00   -5.937E+00   -5.823E+00   -5.711E+00   -5.599E+00   -5.488E+00   -5.377E+00   -5.268E+00
    -5.159E+00   -5.052E+00   -4.945E+00   -4.839E+00   -4.733E+00   -4.629E+00   -4.526E+00   -4.423E+00   -4.322E+00   -4.221E+00
    -4.122E+00   -4.023E+00   -3.925E+00   -3.828E+00   -3.733E+00   -3.638E+00   -3.544E+00   -3.451E+00   -3.359E+00   -3.269E+00
    -3.179E+00   -3.090E+00   -3.003E+00   -2.916E+00   -2.831E+00   -2.747E+00   -2.664E+00   -2.582E+00   -2.501E+00   -2.421E+00
    -2.342E+00   -2.265E+00   -2.189E+00   -2.114E+00   -2.040E+00   -1.967E+00   -1.896E+00   -1.825E+00   -1.756E+00   -1.689E+00
    -1.622E+00   -1.557E+00   -1.493E+00   -1.430E+00   -1.369E+00   -1.309E+00   -1.250E+00   -1.193E+00   -1.137E+00   -1.082E+00
    -1.028E+00   -9.751E-01   -9.233E-01   -8.724E-01   -8.225E-01   -7.733E-01   -7.250E-01   -6.773E-01   -6.303E-01   -5.839E-01
    -5.379E-01   -4.925E-01   -4.474E-01   -4.027E-01   -3.583E-01   -3.141E-01   -2.701E-01   -2.262E-01   -1.823E-01   -1.384E-01
    -9.446E-02   -5.035E-02   -6.059E-03    3.849E-02    8.336E-02    1.286E-01    1.743E-01    2.204E-01    2.672E-01    3.145E-01
     3.625E-01    4.113E-01    4.608E-01    5.112E-01    5.625E-01    6.148E-01    6.681E-01    7.225E-01    7.781E-01    8.348E-01
     8.929E-01    9.523E-01    1.013E+00    1.075E+00    1.138E+00    1.203E+00    1.269E+00    1.335E+00    1.403E+00    1.472E+00
     1.542E+00    1.612E+00    1.684E+00    1.756E+00    1.829E+00    1.902E+00    1.977E+00    2.051E+00    2.127E+00    2.203E+00
     2.279E+00    2.355E+00    2.432E+00    2.509E+00    2.586E+00    2.664E+00    2.741E+00    2.819E+00    2.896E+00    2.974E+00
     3.051E+00    3.128E+00    3.205E+00    3.282E+00    3.358E+00    3.434E+00    3.509E+00    3.584E+00    3.659E+00    3.733E+00
     3.806E+00    3.878E+00    3.950E+00    4.021E+00    4.091E+00    4.160E+00    4.228E+00    4.295E+00    4.361E+00    4.426E+00
     4.490E+00    4.553E+00    4.615E+00    4.677E+00    4.737E+00    4.796E+00    4.855E+00    4.913E+00    4.969E+00    5.025E+00
     5.081E+00    5.135E+00    5.189E+00    5.241E+00    5.293E+00    5.345E+00    5.395E+00    5.445E+00    5.495E+00    5.543E+00
     5.591E+00    5.638E+00    5.685E+00    5.731E+00    5.776E+00    5.821E+00    5.865E+00    5.909E+00    5.952E+00    5.995E+00
     6.037E+00    6.078E+00    6.120E+00    6.160E+00    6.201E+00    6.241E+00    6.280E+00    6.319E+00    6.358E+00    6.396E+00
     6.434E+00    6.472E+00    6.509E+00    6.546E+00    6.583E+00    6.619E+00    6.656E+00    6.692E+00    6.728E+00    6.764E+00
     6.800E+00    6.835E+00    6.871E+00    6.907E+00    6.942E+00    6.978E+00    7.014E+00    7.049E+00    7.085E+00    7.121E+00
     7.157E+00    7.194E+00    7.231E+00    7.267E+00    7.304E+00    7.342E+00    7.380E+00    7.418E+00    7.456E+00    7.495E+00
     7.534E+00    7.574E+00    7.614E+00    7.655E+00    7.696E+00    7.738E+00    7.781E+00    7.824E+00    7.867E+00    7.912E+00
     7.957E+00    8.003E+00    8.049E+00    8.096E+00    8.145E+00    8.193E+00    8.243E+00    8.294E+00    8.345E+00    8.398E+00
     8.451E+00    8.505E+00    8.560E+00    8.616E+00    8.672E+00    8.729E+00    8.787E+00    8.846E+00    8.906E+00    8.966E+00
     9.027E+00    9.088E+00    9.150E+00    9.213E+00    9.277E+00    9.341E+00    9.406E+00    9.471E+00    9.537E+00    9.603E+00
     9.670E+00    9.738E+00    9.806E+00    9.875E+00    9.944E+00    1.001E+01    1.008E+01    1.015E+01    1.022E+01    1.030E+01
     1.037E+01    1.044E+01    1.051E+01    1.059E+01    1.066E+01    1.073E+01    1.081E+01    1.088E+01    1.095E+01    1.103E+01
     1.110E+01    1.118E+01    1.125E+01    1.133E+01    1.141E+01    1.148E+01    1.156E+01    1.163E+01    1.171E+01    1.179E+01
     1.186E+01    1.194E+01    1.201E+01    1.209E+01    1.217E+01    1.224E+01    1.232E+01    1.240E+01    1.247E+01    1.255E+01
     1.262E+01    1.270E+01    1.277E+01    1.285E+01    1.292E+01    1.300E+01    1.307E+01    1.315E+01    1.322E+01    1.329E+01
     1.336E+01    1.344E+01    1.351E+01    1.358E+01    1.365E+01    1.372E+01    1.379E+01    1.386E+01    1.393E+01    1.399E+01
     1.406E+01    1.413E+01    1.419E+01    1.426E+01    1.432E+01    1.439E+01    1.445E+01    1.451E+01    1.457E+01    1.464E+01
     1.469E+01    1.475E+01    1.481E+01    1.487E+01    1.493E+01    1.498E+01    1.504E+01    1.509E+01    1.514E+01    1.519E+01
     1.525E+01    1.530E+01    1.534E+01    1.539E+01    1.544E+01    1.549E+01    1.553E+01    1.558E+01    1.562E+01    1.566E+01
     1.570E+01    1.574E+01    1.578E+01    1.582E+01    1.586E+01    1.589E+01    1.593E+01    1.596E+01    1.600E+01    1.603E+01
     1.606E+01    1.609E+01    1.612E+01    1.614E+01    1.617E+01    1.619E+01    1.622E+01    1.624E+01    1.626E+01    1.628E+01
     1.630E+01    1.632E+01    1.634E+01    1.635E+01    1.637E+01    1.638E+01    1.639E+01    1.640E+01    1.641E+01    1.642E+01
     1.643E+01    1.643E+01    1.644E+01    1.644E+01    1.645E+01    1.645E+01    1.645E+01    1.645E+01    1.646E+01    1.646E+01
     1.645E+01    1.645E+01    1.645E+01    1.645E+01    1.645E+01    1.644E+01    1.644E+01    1.643E+01    1.643E+01    1.642E+01
     1.641E+01    1.641E+01    1.640E+01    1.639E+01    1.639E+01    1.638E+01    1.637E+01    1.636E+01    1.636E+01    1.635E+01
     1.634E+01    1.633E+01    1.632E+01    1.631E+01    1.631E+01    1.630E+01    1.629E+01    1.628E+01
 Ala      Conc. = 5.79E+02
