 LCModel (Version 6.3-1L) Copyright: S.W. Provencher.          Ref.: Magn. Reson. Med. 30:672-679 (1993).                
 Slice#2 Row#12 Col#3  K_02_press_1_raw_act
 36 lines in following concentration table = NCONC+1
    Conc.  %SD /Cr+PCr  Metabolite                                         
  235.253 110%   0.397 Ala                                                 
    0.000 999%   0.000 Asp                                                 
    0.000 999%   0.000 Cr                                                  
  591.882  10%   1.000 PCr                                                 
   66.958 139%   0.113 GABA                                                
    0.000 999%   0.000 Glc                                                 
  410.892 108%   0.694 Gln                                                 
    0.000 999%   0.000 Glu                                                 
  279.287   9%   0.472 GPC                                                 
    0.000 999%   0.000 PCh                                                 
    0.000 999%   0.000 GSH                                                 
 3.81E+03   8%   6.432 Ins                                                 
    0.000 999%   0.000 Lac                                                 
  175.638  75%   0.297 NAA                                                 
  453.698  29%   0.767 NAAG                                                
   96.841  25%   0.164 Scyllo                                              
    0.000 999%   0.000 Tau                                                 
    0.000 999%   0.000 -CrCH2                                              
  279.287   9%   0.472 GPC+PCh                                             
  629.336  10%   1.063 NAA+NAAG                                            
  591.882  10%   1.000 Cr+PCr                                              
  410.892 108%   0.694 Glu+Gln                                             
    0.000 999%   0.000 Lip13a                                              
    0.000 999%   0.000 Lip13b                                              
    0.000 999%   0.000 Lip09                                               
  182.005  50%   0.308 MM09                                                
   53.490 119% 9.0E-02 Lip20                                               
  262.535  61%   0.444 MM20                                                
   59.882  61%   0.101 MM12                                                
    0.000 999%   0.000 MM14                                                
  284.835  22%   0.481 MM17                                                
    0.000 999%   0.000 Lip13a+Lip13b                                       
   59.882  61%   0.101 MM14+Lip13a+Lip13b+MM12                             
  182.005  50%   0.308 MM09+Lip09                                          
  316.025  53%   0.534 MM20+Lip20                                          
   6 lines in following misc. output table
  FWHM = 0.138 ppm    S/N =   4                                            
  Data shift = 0.038 ppm                                                   
  Ph: 107 deg      33.9 deg/ppm                                            
  alphaB,S = 6.5E-01,   2.0E+02                                            
   14 spline knots.   Ns = 7(2)                                            
  (11) 2 infls.   ( 3) 1 extrs.                                            
  498 points on ppm-axis = NY
      4.000000     3.992357     3.984714     3.977070     3.969427     3.961784     3.954141     3.946497     3.938854     3.931211
      3.923568     3.915925     3.908281     3.900638     3.892995     3.885352     3.877708     3.870065     3.862422     3.854779
      3.847136     3.839492     3.831849     3.824206     3.816563     3.808919     3.801276     3.793633     3.785990     3.778347
      3.770703     3.763060     3.755417     3.747774     3.740130     3.732487     3.724844     3.717201     3.709558     3.701914
      3.694271     3.686628     3.678985     3.671341     3.663698     3.656055     3.648412     3.640769     3.633125     3.625482
      3.617839     3.610196     3.602552     3.594909     3.587266     3.579623     3.571980     3.564336     3.556693     3.549050
      3.541407     3.533763     3.526120     3.518477     3.510834     3.503191     3.495547     3.487904     3.480261     3.472618
      3.464974     3.457331     3.449688     3.442045     3.434402     3.426758     3.419115     3.411472     3.403829     3.396185
      3.388542     3.380899     3.373256     3.365613     3.357969     3.350326     3.342683     3.335040     3.327396     3.319753
      3.312110     3.304467     3.296824     3.289180     3.281537     3.273894     3.266251     3.258607     3.250964     3.243321
      3.235678     3.228034     3.220391     3.212748     3.205105     3.197462     3.189818     3.182175     3.174532     3.166889
      3.159245     3.151602     3.143959     3.136316     3.128673     3.121029     3.113386     3.105743     3.098100     3.090456
      3.082813     3.075170     3.067527     3.059884     3.052240     3.044597     3.036954     3.029311     3.021667     3.014024
      3.006381     2.998738     2.991095     2.983451     2.975808     2.968165     2.960522     2.952878     2.945235     2.937592
      2.929949     2.922306     2.914662     2.907019     2.899376     2.891733     2.884089     2.876446     2.868803     2.861160
      2.853517     2.845873     2.838230     2.830587     2.822944     2.815300     2.807657     2.800014     2.792371     2.784728
      2.777084     2.769441     2.761798     2.754155     2.746511     2.738868     2.731225     2.723582     2.715939     2.708295
      2.700652     2.693009     2.685366     2.677722     2.670079     2.662436     2.654793     2.647150     2.639506     2.631863
      2.624220     2.616577     2.608933     2.601290     2.593647     2.586004     2.578361     2.570717     2.563074     2.555431
      2.547788     2.540144     2.532501     2.524858     2.517215     2.509572     2.501928     2.494285     2.486642     2.478999
      2.471355     2.463712     2.456069     2.448426     2.440783     2.433139     2.425496     2.417853     2.410210     2.402566
      2.394923     2.387280     2.379637     2.371994     2.364350     2.356707     2.349064     2.341421     2.333777     2.326134
      2.318491     2.310848     2.303205     2.295561     2.287918     2.280275     2.272632     2.264988     2.257345     2.249702
      2.242059     2.234416     2.226772     2.219129     2.211486     2.203843     2.196199     2.188556     2.180913     2.173270
      2.165627     2.157983     2.150340     2.142697     2.135054     2.127410     2.119767     2.112124     2.104481     2.096838
      2.089194     2.081551     2.073908     2.066265     2.058621     2.050978     2.043335     2.035692     2.028049     2.020405
      2.012762     2.005119     1.997476     1.989833     1.982190     1.974546     1.966903     1.959260     1.951617     1.943974
      1.936331     1.928688     1.921045     1.913402     1.905759     1.898115     1.890472     1.882829     1.875186     1.867543
      1.859900     1.852257     1.844614     1.836971     1.829327     1.821684     1.814041     1.806398     1.798755     1.791112
      1.783469     1.775826     1.768183     1.760540     1.752896     1.745253     1.737610     1.729967     1.722324     1.714681
      1.707038     1.699395     1.691752     1.684108     1.676465     1.668822     1.661179     1.653536     1.645893     1.638250
      1.630607     1.622964     1.615321     1.607677     1.600034     1.592391     1.584748     1.577105     1.569462     1.561819
      1.554176     1.546533     1.538890     1.531246     1.523603     1.515960     1.508317     1.500674     1.493031     1.485388
      1.477745     1.470102     1.462458     1.454815     1.447172     1.439529     1.431886     1.424243     1.416600     1.408957
      1.401314     1.393671     1.386027     1.378384     1.370741     1.363098     1.355455     1.347812     1.340169     1.332526
      1.324883     1.317240     1.309596     1.301953     1.294310     1.286667     1.279024     1.271381     1.263738     1.256095
      1.248452     1.240808     1.233165     1.225522     1.217879     1.210236     1.202593     1.194950     1.187307     1.179664
      1.172021     1.164377     1.156734     1.149091     1.141448     1.133805     1.126162     1.118519     1.110876     1.103233
      1.095590     1.087946     1.080303     1.072660     1.065017     1.057374     1.049731     1.042088     1.034445     1.026802
      1.019158     1.011515     1.003872     0.996229     0.988586     0.980943     0.973300     0.965657     0.958014     0.950371
      0.942727     0.935084     0.927441     0.919798     0.912155     0.904512     0.896869     0.889226     0.881583     0.873940
      0.866296     0.858653     0.851010     0.843367     0.835724     0.828081     0.820438     0.812795     0.805152     0.797508
      0.789865     0.782222     0.774579     0.766936     0.759293     0.751650     0.744007     0.736364     0.728721     0.721077
      0.713434     0.705791     0.698148     0.690505     0.682862     0.675219     0.667576     0.659933     0.652290     0.644646
      0.637003     0.629360     0.621717     0.614074     0.606431     0.598788     0.591145     0.583502     0.575858     0.568215
      0.560572     0.552929     0.545286     0.537643     0.530000     0.522357     0.514714     0.507071     0.499427     0.491784
      0.484141     0.476498     0.468855     0.461212     0.453569     0.445925     0.438282     0.430639     0.422996     0.415353
      0.407710     0.400067     0.392424     0.384780     0.377137     0.369494     0.361851     0.354208     0.346565     0.338922
      0.331278     0.323635     0.315992     0.308349     0.300706     0.293063     0.285420     0.277777     0.270133     0.262490
      0.254847     0.247204     0.239561     0.231918     0.224275     0.216631     0.208988     0.201345
 NY phased data points follow
   3.37768E+02  3.31025E+02  3.30187E+02  3.21926E+02  3.19615E+02  3.15755E+02  3.11769E+02  3.09443E+02  3.04345E+02  3.00793E+02
   2.98237E+02  2.93919E+02  2.88969E+02  2.83574E+02  2.77074E+02  2.73688E+02  2.70396E+02  2.66500E+02  2.61645E+02  2.57954E+02
   2.55462E+02  2.51162E+02  2.45940E+02  2.41345E+02  2.37559E+02  2.39347E+02  2.33627E+02  2.29570E+02  2.27526E+02  2.25666E+02
   2.21277E+02  2.22816E+02  2.18721E+02  2.15510E+02  2.17687E+02  2.12522E+02  2.12675E+02  2.06766E+02  2.05963E+02  2.04161E+02
   2.02762E+02  1.97735E+02  1.98162E+02  1.94271E+02  1.94341E+02  1.91515E+02  1.91633E+02  1.89541E+02  1.88126E+02  1.81045E+02
   1.82265E+02  1.79641E+02  1.74084E+02  1.71279E+02  1.70081E+02  1.69202E+02  1.70288E+02  1.64685E+02  1.63621E+02  1.61049E+02
   1.58926E+02  1.53951E+02  1.54015E+02  1.47492E+02  1.47896E+02  1.43595E+02  1.44793E+02  1.41765E+02  1.38696E+02  1.38098E+02
   1.37215E+02  1.34399E+02  1.34504E+02  1.31517E+02  1.30162E+02  1.26271E+02  1.26389E+02  1.25872E+02  1.25723E+02  1.20473E+02
   1.20429E+02  1.19674E+02  1.19143E+02  1.19312E+02  1.14476E+02  1.12368E+02  1.12626E+02  1.11049E+02  1.08430E+02  1.09487E+02
   1.06814E+02  1.04750E+02  1.03216E+02  1.01414E+02  1.03187E+02  1.03778E+02  1.01158E+02  1.01791E+02  9.96058E+01  9.98114E+01
   1.00073E+02  9.77427E+01  9.94361E+01  1.00170E+02  9.11976E+01  9.39167E+01  9.22318E+01  9.11472E+01  8.94857E+01  9.22874E+01
   8.71467E+01  8.66747E+01  8.50776E+01  8.46610E+01  8.28971E+01  8.12940E+01  7.84646E+01  7.97315E+01  7.98675E+01  7.93485E+01
   7.86065E+01  7.84324E+01  7.65618E+01  7.83102E+01  7.68290E+01  7.97182E+01  7.84795E+01  7.51691E+01  7.47893E+01  7.53568E+01
   6.97071E+01  7.35635E+01  6.65077E+01  6.75626E+01  6.52815E+01  6.68701E+01  6.57276E+01  6.45155E+01  6.40198E+01  6.19429E+01
   6.16910E+01  6.01411E+01  5.77841E+01  5.82720E+01  5.49031E+01  5.69261E+01  5.66308E+01  5.55461E+01  5.31206E+01  5.41572E+01
   5.45809E+01  5.04914E+01  5.08080E+01  5.22696E+01  5.28312E+01  5.06087E+01  5.11422E+01  5.18968E+01  4.95566E+01  4.98079E+01
   4.48670E+01  4.52378E+01  4.62765E+01  4.34333E+01  4.52258E+01  4.55356E+01  4.42360E+01  4.09191E+01  3.92652E+01  4.02142E+01
   3.69268E+01  3.53582E+01  3.37355E+01  3.44002E+01  3.80163E+01  3.28055E+01  3.24137E+01  3.15967E+01  2.87268E+01  2.73414E+01
   2.81042E+01  2.61220E+01  2.80766E+01  2.93492E+01  2.95866E+01  2.68092E+01  2.51312E+01  2.76240E+01  2.40065E+01  2.37254E+01
   2.39220E+01  2.26371E+01  2.35834E+01  2.25874E+01  2.02685E+01  1.91603E+01  2.12362E+01  2.06814E+01  1.93251E+01  2.26880E+01
   1.74724E+01  1.85822E+01  1.93201E+01  1.71324E+01  1.59038E+01  1.53524E+01  1.50469E+01  1.61815E+01  1.47100E+01  1.34946E+01
   1.44868E+01  1.38126E+01  1.26962E+01  1.28316E+01  1.28105E+01  1.45084E+01  1.02166E+01  1.03760E+01  9.07691E+00  8.66016E+00
   7.84417E+00  9.58617E+00  8.93170E+00  9.81783E+00  5.92799E+00  8.20862E+00  8.30967E+00  6.37934E+00  4.75820E+00  6.33571E+00
   4.97038E+00  6.61871E+00  3.05655E+00  4.23849E+00  4.60666E+00  1.22172E+00  3.14937E+00  4.81940E+00 -2.33834E+00  3.86177E+00
  -1.31769E+00 -1.94212E+00 -3.28055E-01  2.83046E-01 -4.57495E-01  4.69597E-03  1.13880E+00  2.36761E+00  2.64162E+00  2.09856E+00
   6.79910E-01  3.79781E+00  5.15308E+00  2.87660E+00  4.59051E+00  5.00278E+00  5.03717E+00  7.03362E+00  7.18839E+00  2.57045E+00
   1.80561E-01 -6.91462E-01 -2.03675E+00 -2.64903E+00 -2.45499E+00 -2.78366E+00 -7.53191E+00 -2.89639E+00 -7.27919E+00 -5.69421E+00
  -9.63776E+00 -9.42315E+00 -8.47114E+00 -8.34525E+00 -1.00722E+01 -1.03793E+01 -1.25533E+01 -1.31921E+01 -1.42424E+01 -1.23398E+01
  -1.34162E+01 -1.70521E+01 -1.73301E+01 -1.51855E+01 -1.46119E+01 -1.41016E+01 -1.80008E+01 -1.73772E+01 -1.67555E+01 -1.69059E+01
  -1.62523E+01 -1.67794E+01 -1.83878E+01 -2.04817E+01 -1.93355E+01 -1.76279E+01 -1.75396E+01 -1.76903E+01 -1.97531E+01 -1.81545E+01
  -1.99864E+01 -2.01256E+01 -1.96589E+01 -1.90315E+01 -1.70928E+01 -1.84629E+01 -2.00490E+01 -1.92004E+01 -1.75479E+01 -1.86541E+01
  -1.94441E+01 -1.90745E+01 -1.94851E+01 -2.28986E+01 -1.91074E+01 -2.24218E+01 -2.51235E+01 -2.32529E+01 -2.38226E+01 -1.99951E+01
  -2.13443E+01 -2.47832E+01 -2.60955E+01 -2.85652E+01 -2.72717E+01 -2.80162E+01 -2.91714E+01 -2.76343E+01 -2.61470E+01 -3.11485E+01
  -3.03166E+01 -3.15571E+01 -3.33288E+01 -3.52276E+01 -3.47055E+01 -3.56274E+01 -3.43020E+01 -3.41217E+01 -3.71793E+01 -3.80708E+01
  -3.66020E+01 -3.51538E+01 -3.55477E+01 -3.99412E+01 -3.52783E+01 -3.91268E+01 -3.99820E+01 -3.97962E+01 -3.90211E+01 -3.83106E+01
  -4.00604E+01 -4.04170E+01 -4.04620E+01 -4.13640E+01 -3.97071E+01 -4.27234E+01 -3.99558E+01 -4.16424E+01 -4.08587E+01 -4.11535E+01
  -4.28548E+01 -4.37752E+01 -4.21208E+01 -4.28432E+01 -4.15636E+01 -4.27748E+01 -3.89020E+01 -4.16291E+01 -4.24044E+01 -4.12092E+01
  -4.33480E+01 -4.50773E+01 -4.32645E+01 -4.27192E+01 -4.59639E+01 -4.53889E+01 -4.61878E+01 -4.64814E+01 -4.69904E+01 -4.60392E+01
  -4.79033E+01 -4.81690E+01 -4.84157E+01 -5.14640E+01 -4.79677E+01 -4.72017E+01 -5.03038E+01 -4.84520E+01 -4.81213E+01 -4.93313E+01
  -4.69558E+01 -5.01733E+01 -4.91942E+01 -4.99573E+01 -4.80284E+01 -4.96163E+01 -5.10731E+01 -4.93823E+01 -4.54941E+01 -5.00939E+01
  -5.05981E+01 -4.73627E+01 -4.73309E+01 -4.99560E+01 -5.15008E+01 -5.25517E+01 -4.83844E+01 -5.05117E+01 -4.88157E+01 -4.94593E+01
  -5.07290E+01 -4.93051E+01 -5.25160E+01 -5.15189E+01 -4.87153E+01 -5.25082E+01 -5.03835E+01 -5.34058E+01 -4.90908E+01 -4.95040E+01
  -5.06530E+01 -4.93216E+01 -5.21923E+01 -5.07778E+01 -5.35767E+01 -5.30295E+01 -5.18457E+01 -5.07763E+01 -5.30497E+01 -5.24467E+01
  -5.25976E+01 -5.15435E+01 -5.34378E+01 -4.74925E+01 -4.93495E+01 -4.93459E+01 -5.01902E+01 -4.82315E+01 -4.74218E+01 -4.87226E+01
  -5.08822E+01 -4.97037E+01 -4.93004E+01 -4.85835E+01 -5.05938E+01 -4.55439E+01 -4.97503E+01 -5.12547E+01 -4.78722E+01 -4.76763E+01
  -4.91240E+01 -4.88473E+01 -4.64892E+01 -4.68445E+01 -5.01366E+01 -4.57814E+01 -4.98936E+01 -4.95264E+01 -4.90544E+01 -4.54388E+01
  -4.70749E+01 -4.81601E+01 -5.10496E+01 -4.62927E+01 -4.72192E+01 -4.71972E+01 -4.82146E+01 -4.88537E+01 -4.35178E+01 -4.73510E+01
  -4.81544E+01 -4.75183E+01 -4.45848E+01 -4.44382E+01 -4.50081E+01 -4.50934E+01 -4.34079E+01 -4.43583E+01 -4.58747E+01 -4.28345E+01
  -4.42913E+01 -4.39271E+01 -4.43051E+01 -4.39753E+01 -4.24352E+01 -4.23493E+01 -4.21116E+01 -4.15632E+01 -3.83062E+01 -4.28768E+01
  -4.18949E+01 -4.10627E+01 -3.85358E+01 -3.86547E+01 -4.11184E+01 -3.82670E+01 -3.75191E+01 -3.79599E+01
 NY points of the fit to the data follow
   3.32162E+02  3.29045E+02  3.25295E+02  3.22139E+02  3.18007E+02  3.14756E+02  3.10239E+02  3.06861E+02  3.02076E+02  2.98647E+02
   2.93810E+02  2.90424E+02  2.85669E+02  2.82600E+02  2.78005E+02  2.74980E+02  2.70624E+02  2.67580E+02  2.63299E+02  2.60128E+02
   2.55973E+02  2.52685E+02  2.48787E+02  2.45467E+02  2.42031E+02  2.38882E+02  2.36067E+02  2.33129E+02  2.30453E+02  2.27588E+02
   2.24992E+02  2.22196E+02  2.19628E+02  2.16873E+02  2.14309E+02  2.11905E+02  2.09693E+02  2.07594E+02  2.05478E+02  2.03541E+02
   2.01571E+02  1.99805E+02  1.97999E+02  1.96266E+02  1.94465E+02  1.92598E+02  1.90680E+02  1.88604E+02  1.86545E+02  1.84195E+02
   1.81990E+02  1.79298E+02  1.76983E+02  1.74139E+02  1.72008E+02  1.69216E+02  1.67417E+02  1.64641E+02  1.62997E+02  1.59950E+02
   1.58234E+02  1.54920E+02  1.53149E+02  1.49760E+02  1.48167E+02  1.45049E+02  1.43972E+02  1.41512E+02  1.41139E+02  1.38870E+02
   1.38410E+02  1.35980E+02  1.35392E+02  1.32935E+02  1.32069E+02  1.29611E+02  1.28449E+02  1.26132E+02  1.24806E+02  1.22757E+02
   1.21428E+02  1.19497E+02  1.18037E+02  1.16048E+02  1.14340E+02  1.12353E+02  1.10440E+02  1.08672E+02  1.07201E+02  1.05971E+02
   1.04769E+02  1.04059E+02  1.03157E+02  1.02978E+02  1.02141E+02  1.02359E+02  1.01251E+02  1.01709E+02  1.00217E+02  1.00811E+02
   9.88953E+01  9.95090E+01  9.72514E+01  9.77879E+01  9.52898E+01  9.56343E+01  9.29180E+01  9.28774E+01  9.00779E+01  8.97130E+01
   8.69953E+01  8.64771E+01  8.42524E+01  8.36979E+01  8.18678E+01  8.12844E+01  7.99893E+01  7.95287E+01  7.88829E+01  7.87068E+01
   7.87749E+01  7.89346E+01  7.87598E+01  7.88912E+01  7.82907E+01  7.82915E+01  7.72426E+01  7.70325E+01  7.55645E+01  7.51435E+01
   7.34811E+01  7.29181E+01  7.12081E+01  7.05330E+01  6.87702E+01  6.79625E+01  6.61141E+01  6.51588E+01  6.32752E+01  6.22106E+01
   6.04610E+01  5.93921E+01  5.80311E+01  5.71257E+01  5.63842E+01  5.56598E+01  5.49501E+01  5.42310E+01  5.35278E+01  5.28071E+01
   5.21030E+01  5.13766E+01  5.06655E+01  4.99284E+01  4.92130E+01  4.84653E+01  4.77353E+01  4.69883E+01  4.62538E+01  4.55060E+01
   4.47666E+01  4.40112E+01  4.32653E+01  4.25168E+01  4.17801E+01  4.10419E+01  4.03126E+01  3.95804E+01  3.88551E+01  3.81293E+01
   3.74235E+01  3.67082E+01  3.60201E+01  3.53100E+01  3.46585E+01  3.39694E+01  3.33638E+01  3.27031E+01  3.21409E+01  3.14885E+01
   3.09527E+01  3.03166E+01  2.97844E+01  2.91709E+01  2.86166E+01  2.80227E+01  2.74389E+01  2.68809E+01  2.62685E+01  2.57523E+01
   2.51350E+01  2.46641E+01  2.40288E+01  2.35855E+01  2.29116E+01  2.24560E+01  2.17366E+01  2.12998E+01  2.05369E+01  2.00822E+01
   1.92616E+01  1.87887E+01  1.79291E+01  1.74713E+01  1.65995E+01  1.61774E+01  1.53401E+01  1.49817E+01  1.42165E+01  1.39218E+01
   1.32356E+01  1.29732E+01  1.23223E+01  1.20547E+01  1.14160E+01  1.11418E+01  1.05353E+01  1.02662E+01  9.73444E+00  9.49288E+00
   9.03306E+00  8.77062E+00  8.33976E+00  8.04135E+00  7.59250E+00  7.22983E+00  6.74269E+00  6.32951E+00  5.77027E+00  5.42090E+00
   4.85055E+00  4.55900E+00  3.96481E+00  3.73513E+00  3.10671E+00  2.91085E+00  2.27209E+00  2.10405E+00  1.48136E+00  1.33504E+00
   7.74970E-01  7.36135E-01  5.36538E-01  5.83370E-01  6.28289E-01  7.37342E-01  1.13465E+00  1.30423E+00  1.96801E+00  2.08890E+00
   2.87621E+00  2.88730E+00  3.66339E+00  3.50362E+00  4.05636E+00  3.72215E+00  3.92849E+00  3.42821E+00  3.20740E+00  2.57462E+00
   1.97014E+00  1.22345E+00  3.57996E-01 -4.85703E-01 -1.55808E+00 -2.46547E+00 -3.70952E+00 -4.64341E+00 -6.00555E+00 -6.89300E+00
  -8.25141E+00 -9.01785E+00 -1.01571E+01 -1.07285E+01 -1.13885E+01 -1.18804E+01 -1.23876E+01 -1.28372E+01 -1.31402E+01 -1.35241E+01
  -1.38009E+01 -1.41746E+01 -1.44371E+01 -1.48064E+01 -1.50611E+01 -1.54282E+01 -1.56819E+01 -1.60415E+01 -1.62917E+01 -1.66313E+01
  -1.68684E+01 -1.71829E+01 -1.74062E+01 -1.76934E+01 -1.79043E+01 -1.81688E+01 -1.83672E+01 -1.86005E+01 -1.87800E+01 -1.89795E+01
  -1.91402E+01 -1.93082E+01 -1.94551E+01 -1.96093E+01 -1.97584E+01 -1.99196E+01 -2.00927E+01 -2.02832E+01 -2.04989E+01 -2.07373E+01
  -2.10036E+01 -2.12938E+01 -2.16055E+01 -2.19201E+01 -2.23113E+01 -2.27148E+01 -2.31786E+01 -2.36649E+01 -2.41913E+01 -2.47639E+01
  -2.53574E+01 -2.59897E+01 -2.65548E+01 -2.72534E+01 -2.77727E+01 -2.85334E+01 -2.89666E+01 -2.97604E+01 -3.00612E+01 -3.08652E+01
  -3.10202E+01 -3.17989E+01 -3.18271E+01 -3.25862E+01 -3.25444E+01 -3.33072E+01 -3.32538E+01 -3.40262E+01 -3.40060E+01 -3.47496E+01
  -3.47594E+01 -3.54229E+01 -3.54488E+01 -3.60063E+01 -3.60667E+01 -3.65389E+01 -3.67157E+01 -3.72236E+01 -3.75192E+01 -3.80296E+01
  -3.84251E+01 -3.89052E+01 -3.93468E+01 -3.97433E+01 -4.01176E+01 -4.04779E+01 -4.08274E+01 -4.11681E+01 -4.15011E+01 -4.18272E+01
  -4.21468E+01 -4.24603E+01 -4.27679E+01 -4.30699E+01 -4.33663E+01 -4.36575E+01 -4.39434E+01 -4.42241E+01 -4.44996E+01 -4.47696E+01
  -4.50340E+01 -4.52926E+01 -4.55451E+01 -4.57911E+01 -4.60302E+01 -4.62623E+01 -4.64868E+01 -4.67033E+01 -4.69115E+01 -4.71109E+01
  -4.73013E+01 -4.74821E+01 -4.76531E+01 -4.78139E+01 -4.79642E+01 -4.81039E+01 -4.82328E+01 -4.83509E+01 -4.84583E+01 -4.85554E+01
  -4.86425E+01 -4.87203E+01 -4.87898E+01 -4.88521E+01 -4.89083E+01 -4.89602E+01 -4.90092E+01 -4.90571E+01 -4.91056E+01 -4.91563E+01
  -4.92109E+01 -4.92706E+01 -4.93364E+01 -4.94091E+01 -4.94890E+01 -4.95759E+01 -4.96693E+01 -4.97685E+01 -4.98722E+01 -4.99791E+01
  -5.00874E+01 -5.01956E+01 -5.03018E+01 -5.04045E+01 -5.05021E+01 -5.05931E+01 -5.06766E+01 -5.07514E+01 -5.08171E+01 -5.08731E+01
  -5.09191E+01 -5.09553E+01 -5.09816E+01 -5.09983E+01 -5.10058E+01 -5.10044E+01 -5.09946E+01 -5.09768E+01 -5.09514E+01 -5.09189E+01
  -5.08797E+01 -5.08341E+01 -5.07825E+01 -5.07251E+01 -5.06622E+01 -5.05941E+01 -5.05209E+01 -5.04429E+01 -5.03601E+01 -5.02728E+01
  -5.01811E+01 -5.00850E+01 -4.99847E+01 -4.98803E+01 -4.97718E+01 -4.96594E+01 -4.95430E+01 -4.94228E+01 -4.92989E+01 -4.91712E+01
  -4.90398E+01 -4.89049E+01 -4.87664E+01 -4.86244E+01 -4.84790E+01 -4.83300E+01 -4.81776E+01 -4.80218E+01 -4.78626E+01 -4.77000E+01
  -4.75341E+01 -4.73648E+01 -4.71921E+01 -4.70161E+01 -4.68368E+01 -4.66542E+01 -4.64683E+01 -4.62791E+01 -4.60867E+01 -4.58911E+01
  -4.56922E+01 -4.54900E+01 -4.52847E+01 -4.50762E+01 -4.48644E+01 -4.46495E+01 -4.44315E+01 -4.42103E+01 -4.39859E+01 -4.37584E+01
  -4.35278E+01 -4.32941E+01 -4.30572E+01 -4.28173E+01 -4.25742E+01 -4.23281E+01 -4.20790E+01 -4.18267E+01 -4.15714E+01 -4.13130E+01
  -4.10516E+01 -4.07871E+01 -4.05196E+01 -4.02490E+01 -3.99753E+01 -3.96986E+01 -3.94189E+01 -3.91360E+01
 NY background values follow
     3.155E+02    3.122E+02    3.089E+02    3.056E+02    3.023E+02    2.990E+02    2.957E+02    2.924E+02    2.891E+02    2.859E+02
     2.826E+02    2.793E+02    2.761E+02    2.729E+02    2.696E+02    2.664E+02    2.632E+02    2.600E+02    2.569E+02    2.537E+02
     2.506E+02    2.475E+02    2.444E+02    2.413E+02    2.382E+02    2.352E+02    2.322E+02    2.292E+02    2.262E+02    2.232E+02
     2.203E+02    2.174E+02    2.145E+02    2.117E+02    2.088E+02    2.060E+02    2.033E+02    2.005E+02    1.978E+02    1.951E+02
     1.925E+02    1.899E+02    1.873E+02    1.847E+02    1.822E+02    1.797E+02    1.773E+02    1.749E+02    1.725E+02    1.701E+02
     1.678E+02    1.656E+02    1.633E+02    1.611E+02    1.589E+02    1.568E+02    1.547E+02    1.526E+02    1.506E+02    1.486E+02
     1.466E+02    1.447E+02    1.427E+02    1.409E+02    1.390E+02    1.372E+02    1.354E+02    1.336E+02    1.319E+02    1.302E+02
     1.285E+02    1.269E+02    1.253E+02    1.237E+02    1.221E+02    1.206E+02    1.190E+02    1.176E+02    1.161E+02    1.147E+02
     1.133E+02    1.119E+02    1.105E+02    1.092E+02    1.079E+02    1.066E+02    1.054E+02    1.041E+02    1.029E+02    1.017E+02
     1.006E+02    9.941E+01    9.829E+01    9.719E+01    9.611E+01    9.505E+01    9.401E+01    9.298E+01    9.198E+01    9.100E+01
     9.003E+01    8.908E+01    8.815E+01    8.723E+01    8.633E+01    8.544E+01    8.457E+01    8.371E+01    8.286E+01    8.203E+01
     8.121E+01    8.040E+01    7.960E+01    7.881E+01    7.804E+01    7.727E+01    7.651E+01    7.576E+01    7.502E+01    7.428E+01
     7.355E+01    7.283E+01    7.212E+01    7.140E+01    7.070E+01    7.000E+01    6.930E+01    6.860E+01    6.791E+01    6.722E+01
     6.653E+01    6.584E+01    6.516E+01    6.447E+01    6.378E+01    6.309E+01    6.240E+01    6.171E+01    6.101E+01    6.032E+01
     5.962E+01    5.892E+01    5.822E+01    5.752E+01    5.681E+01    5.611E+01    5.540E+01    5.470E+01    5.399E+01    5.329E+01
     5.258E+01    5.187E+01    5.116E+01    5.046E+01    4.975E+01    4.904E+01    4.834E+01    4.763E+01    4.692E+01    4.622E+01
     4.552E+01    4.481E+01    4.411E+01    4.341E+01    4.271E+01    4.201E+01    4.132E+01    4.062E+01    3.993E+01    3.924E+01
     3.855E+01    3.786E+01    3.718E+01    3.650E+01    3.582E+01    3.514E+01    3.446E+01    3.379E+01    3.313E+01    3.246E+01
     3.180E+01    3.114E+01    3.048E+01    2.983E+01    2.918E+01    2.854E+01    2.790E+01    2.726E+01    2.663E+01    2.600E+01
     2.537E+01    2.475E+01    2.413E+01    2.352E+01    2.291E+01    2.230E+01    2.170E+01    2.110E+01    2.050E+01    1.991E+01
     1.933E+01    1.874E+01    1.817E+01    1.759E+01    1.702E+01    1.646E+01    1.590E+01    1.534E+01    1.479E+01    1.425E+01
     1.370E+01    1.317E+01    1.263E+01    1.210E+01    1.158E+01    1.106E+01    1.055E+01    1.004E+01    9.534E+00    9.034E+00
     8.540E+00    8.051E+00    7.566E+00    7.087E+00    6.613E+00    6.144E+00    5.680E+00    5.222E+00    4.768E+00    4.320E+00
     3.876E+00    3.438E+00    3.004E+00    2.575E+00    2.151E+00    1.731E+00    1.316E+00    9.044E-01    4.975E-01    9.482E-02
    -3.038E-01   -6.985E-01   -1.089E+00   -1.476E+00   -1.859E+00   -2.239E+00   -2.615E+00   -2.988E+00   -3.357E+00   -3.723E+00
    -4.086E+00   -4.446E+00   -4.803E+00   -5.156E+00   -5.507E+00   -5.856E+00   -6.201E+00   -6.545E+00   -6.885E+00   -7.223E+00
    -7.559E+00   -7.893E+00   -8.225E+00   -8.555E+00   -8.882E+00   -9.208E+00   -9.533E+00   -9.855E+00   -1.018E+01   -1.050E+01
    -1.081E+01   -1.113E+01   -1.145E+01   -1.176E+01   -1.207E+01   -1.239E+01   -1.270E+01   -1.301E+01   -1.332E+01   -1.363E+01
    -1.394E+01   -1.425E+01   -1.456E+01   -1.487E+01   -1.518E+01   -1.549E+01   -1.580E+01   -1.611E+01   -1.642E+01   -1.673E+01
    -1.704E+01   -1.735E+01   -1.767E+01   -1.798E+01   -1.830E+01   -1.861E+01   -1.893E+01   -1.925E+01   -1.957E+01   -1.990E+01
    -2.022E+01   -2.055E+01   -2.087E+01   -2.120E+01   -2.154E+01   -2.187E+01   -2.221E+01   -2.255E+01   -2.289E+01   -2.324E+01
    -2.358E+01   -2.394E+01   -2.429E+01   -2.465E+01   -2.501E+01   -2.537E+01   -2.574E+01   -2.611E+01   -2.648E+01   -2.686E+01
    -2.724E+01   -2.762E+01   -2.801E+01   -2.839E+01   -2.878E+01   -2.917E+01   -2.957E+01   -2.996E+01   -3.036E+01   -3.075E+01
    -3.115E+01   -3.155E+01   -3.195E+01   -3.235E+01   -3.275E+01   -3.315E+01   -3.354E+01   -3.394E+01   -3.434E+01   -3.473E+01
    -3.513E+01   -3.552E+01   -3.591E+01   -3.630E+01   -3.669E+01   -3.707E+01   -3.745E+01   -3.783E+01   -3.821E+01   -3.858E+01
    -3.895E+01   -3.931E+01   -3.968E+01   -4.003E+01   -4.038E+01   -4.073E+01   -4.108E+01   -4.141E+01   -4.175E+01   -4.208E+01
    -4.240E+01   -4.271E+01   -4.302E+01   -4.333E+01   -4.363E+01   -4.392E+01   -4.420E+01   -4.448E+01   -4.476E+01   -4.502E+01
    -4.529E+01   -4.554E+01   -4.579E+01   -4.603E+01   -4.627E+01   -4.650E+01   -4.673E+01   -4.695E+01   -4.716E+01   -4.737E+01
    -4.757E+01   -4.777E+01   -4.796E+01   -4.815E+01   -4.833E+01   -4.850E+01   -4.867E+01   -4.883E+01   -4.899E+01   -4.914E+01
    -4.929E+01   -4.943E+01   -4.956E+01   -4.969E+01   -4.981E+01   -4.993E+01   -5.005E+01   -5.015E+01   -5.026E+01   -5.035E+01
    -5.044E+01   -5.053E+01   -5.061E+01   -5.068E+01   -5.075E+01   -5.082E+01   -5.088E+01   -5.093E+01   -5.098E+01   -5.103E+01
    -5.106E+01   -5.110E+01   -5.113E+01   -5.115E+01   -5.117E+01   -5.118E+01   -5.119E+01   -5.120E+01   -5.120E+01   -5.119E+01
    -5.118E+01   -5.117E+01   -5.115E+01   -5.112E+01   -5.110E+01   -5.106E+01   -5.103E+01   -5.098E+01   -5.094E+01   -5.089E+01
    -5.083E+01   -5.077E+01   -5.071E+01   -5.064E+01   -5.057E+01   -5.049E+01   -5.042E+01   -5.033E+01   -5.024E+01   -5.015E+01
    -5.006E+01   -4.996E+01   -4.985E+01   -4.975E+01   -4.964E+01   -4.952E+01   -4.940E+01   -4.928E+01   -4.916E+01   -4.903E+01
    -4.889E+01   -4.876E+01   -4.862E+01   -4.848E+01   -4.833E+01   -4.818E+01   -4.803E+01   -4.787E+01   -4.771E+01   -4.755E+01
    -4.738E+01   -4.721E+01   -4.704E+01   -4.686E+01   -4.669E+01   -4.650E+01   -4.632E+01   -4.613E+01   -4.594E+01   -4.574E+01
    -4.554E+01   -4.534E+01   -4.514E+01   -4.493E+01   -4.472E+01   -4.450E+01   -4.428E+01   -4.406E+01   -4.384E+01   -4.361E+01
    -4.338E+01   -4.315E+01   -4.291E+01   -4.267E+01   -4.243E+01   -4.219E+01   -4.194E+01   -4.169E+01   -4.143E+01   -4.118E+01
    -4.092E+01   -4.065E+01   -4.039E+01   -4.012E+01   -3.985E+01   -3.957E+01   -3.930E+01   -3.902E+01
 Ala      Conc. = 2.35E+02
