 LCModel (Version 6.3-1L) Copyright: S.W. Provencher.          Ref.: Magn. Reson. Med. 30:672-679 (1993).                
 Slice#2 Row#13 Col#10  K_02_press_1_raw_act
 36 lines in following concentration table = NCONC+1
    Conc.  %SD /Cr+PCr  Metabolite                                         
    0.000 999%   0.000 Ala                                                 
    1.369 999% 5.4E-03 Asp                                                 
    0.000 999%   0.000 Cr                                                  
  252.612   9%   1.000 PCr                                                 
   24.037 130% 9.5E-02 GABA                                                
   38.548  80%   0.153 Glc                                                 
    0.000 999%   0.000 Gln                                                 
  140.512  74%   0.556 Glu                                                 
    0.000 999%   0.000 GPC                                                 
   71.762  12%   0.284 PCh                                                 
   50.262  60%   0.199 GSH                                                 
  328.490  32%   1.300 Ins                                                 
    0.000 999%   0.000 Lac                                                 
  422.743   9%   1.673 NAA                                                 
   53.084  74%   0.210 NAAG                                                
   27.454  30%   0.109 Scyllo                                              
   94.959  52%   0.376 Tau                                                 
  247.917  16%   0.981 -CrCH2                                              
   71.762  12%   0.284 GPC+PCh                                             
  475.827   7%   1.884 NAA+NAAG                                            
  252.612   9%   1.000 Cr+PCr                                              
  140.512  74%   0.556 Glu+Gln                                             
  457.801  26%   1.812 Lip13a                                              
    0.000 999%   0.000 Lip13b                                              
  116.266  54%   0.460 Lip09                                               
  205.274  34%   0.813 MM09                                                
   77.205  58%   0.306 Lip20                                               
  404.009  30%   1.599 MM20                                                
   69.805  61%   0.276 MM12                                                
    0.000 999%   0.000 MM14                                                
   67.075 107%   0.266 MM17                                                
  457.801  26%   1.812 Lip13a+Lip13b                                       
  527.606  22%   2.089 MM14+Lip13a+Lip13b+MM12                             
  321.540  20%   1.273 MM09+Lip09                                          
  481.214  26%   1.905 MM20+Lip20                                          
   6 lines in following misc. output table
  FWHM = 0.054 ppm    S/N =   5                                            
  Data shift = 0.000 ppm                                                   
  Ph: -68 deg     -19.1 deg/ppm                                            
  alphaB,S = 8.3E-01,   4.5E+01                                            
   14 spline knots.   Ns = 7(1)                                            
  ( 9) 2 infls.   (11) 1 extrs.                                            
  498 points on ppm-axis = NY
      4.000000     3.992357     3.984714     3.977070     3.969427     3.961784     3.954141     3.946497     3.938854     3.931211
      3.923568     3.915925     3.908281     3.900638     3.892995     3.885352     3.877708     3.870065     3.862422     3.854779
      3.847136     3.839492     3.831849     3.824206     3.816563     3.808919     3.801276     3.793633     3.785990     3.778347
      3.770703     3.763060     3.755417     3.747774     3.740130     3.732487     3.724844     3.717201     3.709558     3.701914
      3.694271     3.686628     3.678985     3.671341     3.663698     3.656055     3.648412     3.640769     3.633125     3.625482
      3.617839     3.610196     3.602552     3.594909     3.587266     3.579623     3.571980     3.564336     3.556693     3.549050
      3.541407     3.533763     3.526120     3.518477     3.510834     3.503191     3.495547     3.487904     3.480261     3.472618
      3.464974     3.457331     3.449688     3.442045     3.434402     3.426758     3.419115     3.411472     3.403829     3.396185
      3.388542     3.380899     3.373256     3.365613     3.357969     3.350326     3.342683     3.335040     3.327396     3.319753
      3.312110     3.304467     3.296824     3.289180     3.281537     3.273894     3.266251     3.258607     3.250964     3.243321
      3.235678     3.228034     3.220391     3.212748     3.205105     3.197462     3.189818     3.182175     3.174532     3.166889
      3.159245     3.151602     3.143959     3.136316     3.128673     3.121029     3.113386     3.105743     3.098100     3.090456
      3.082813     3.075170     3.067527     3.059884     3.052240     3.044597     3.036954     3.029311     3.021667     3.014024
      3.006381     2.998738     2.991095     2.983451     2.975808     2.968165     2.960522     2.952878     2.945235     2.937592
      2.929949     2.922306     2.914662     2.907019     2.899376     2.891733     2.884089     2.876446     2.868803     2.861160
      2.853517     2.845873     2.838230     2.830587     2.822944     2.815300     2.807657     2.800014     2.792371     2.784728
      2.777084     2.769441     2.761798     2.754155     2.746511     2.738868     2.731225     2.723582     2.715939     2.708295
      2.700652     2.693009     2.685366     2.677722     2.670079     2.662436     2.654793     2.647150     2.639506     2.631863
      2.624220     2.616577     2.608933     2.601290     2.593647     2.586004     2.578361     2.570717     2.563074     2.555431
      2.547788     2.540144     2.532501     2.524858     2.517215     2.509572     2.501928     2.494285     2.486642     2.478999
      2.471355     2.463712     2.456069     2.448426     2.440783     2.433139     2.425496     2.417853     2.410210     2.402566
      2.394923     2.387280     2.379637     2.371994     2.364350     2.356707     2.349064     2.341421     2.333777     2.326134
      2.318491     2.310848     2.303205     2.295561     2.287918     2.280275     2.272632     2.264988     2.257345     2.249702
      2.242059     2.234416     2.226772     2.219129     2.211486     2.203843     2.196199     2.188556     2.180913     2.173270
      2.165627     2.157983     2.150340     2.142697     2.135054     2.127410     2.119767     2.112124     2.104481     2.096838
      2.089194     2.081551     2.073908     2.066265     2.058621     2.050978     2.043335     2.035692     2.028049     2.020405
      2.012762     2.005119     1.997476     1.989833     1.982190     1.974546     1.966903     1.959260     1.951617     1.943974
      1.936331     1.928688     1.921045     1.913402     1.905759     1.898115     1.890472     1.882829     1.875186     1.867543
      1.859900     1.852257     1.844614     1.836971     1.829327     1.821684     1.814041     1.806398     1.798755     1.791112
      1.783469     1.775826     1.768183     1.760540     1.752896     1.745253     1.737610     1.729967     1.722324     1.714681
      1.707038     1.699395     1.691752     1.684108     1.676465     1.668822     1.661179     1.653536     1.645893     1.638250
      1.630607     1.622964     1.615321     1.607677     1.600034     1.592391     1.584748     1.577105     1.569462     1.561819
      1.554176     1.546533     1.538890     1.531246     1.523603     1.515960     1.508317     1.500674     1.493031     1.485388
      1.477745     1.470102     1.462458     1.454815     1.447172     1.439529     1.431886     1.424243     1.416600     1.408957
      1.401314     1.393671     1.386027     1.378384     1.370741     1.363098     1.355455     1.347812     1.340169     1.332526
      1.324883     1.317240     1.309596     1.301953     1.294310     1.286667     1.279024     1.271381     1.263738     1.256095
      1.248452     1.240808     1.233165     1.225522     1.217879     1.210236     1.202593     1.194950     1.187307     1.179664
      1.172021     1.164377     1.156734     1.149091     1.141448     1.133805     1.126162     1.118519     1.110876     1.103233
      1.095590     1.087946     1.080303     1.072660     1.065017     1.057374     1.049731     1.042088     1.034445     1.026802
      1.019158     1.011515     1.003872     0.996229     0.988586     0.980943     0.973300     0.965657     0.958014     0.950371
      0.942727     0.935084     0.927441     0.919798     0.912155     0.904512     0.896869     0.889226     0.881583     0.873940
      0.866296     0.858653     0.851010     0.843367     0.835724     0.828081     0.820438     0.812795     0.805152     0.797508
      0.789865     0.782222     0.774579     0.766936     0.759293     0.751650     0.744007     0.736364     0.728721     0.721077
      0.713434     0.705791     0.698148     0.690505     0.682862     0.675219     0.667576     0.659933     0.652290     0.644646
      0.637003     0.629360     0.621717     0.614074     0.606431     0.598788     0.591145     0.583502     0.575858     0.568215
      0.560572     0.552929     0.545286     0.537643     0.530000     0.522357     0.514714     0.507071     0.499427     0.491784
      0.484141     0.476498     0.468855     0.461212     0.453569     0.445925     0.438282     0.430639     0.422996     0.415353
      0.407710     0.400067     0.392424     0.384780     0.377137     0.369494     0.361851     0.354208     0.346565     0.338922
      0.331278     0.323635     0.315992     0.308349     0.300706     0.293063     0.285420     0.277777     0.270133     0.262490
      0.254847     0.247204     0.239561     0.231918     0.224275     0.216631     0.208988     0.201345
 NY phased data points follow
  -2.34575E+01 -2.32375E+01 -2.23083E+01 -2.35571E+01 -2.30623E+01 -2.26664E+01 -2.06602E+01 -1.95227E+01 -1.91219E+01 -1.96985E+01
  -1.67728E+01 -1.91153E+01 -1.73459E+01 -1.98228E+01 -1.97213E+01 -2.17822E+01 -1.90903E+01 -1.99249E+01 -2.13316E+01 -2.05591E+01
  -1.91568E+01 -2.01144E+01 -1.84693E+01 -1.77105E+01 -1.88806E+01 -1.88878E+01 -1.71288E+01 -1.50028E+01 -1.67811E+01 -1.61463E+01
  -1.57369E+01 -1.59210E+01 -1.54389E+01 -1.45778E+01 -1.82674E+01 -1.61076E+01 -1.60850E+01 -1.57643E+01 -1.40848E+01 -1.37023E+01
  -1.54118E+01 -1.42559E+01 -1.44826E+01 -1.57105E+01 -1.30116E+01 -1.21714E+01 -1.35548E+01 -1.21241E+01 -1.26298E+01 -1.50031E+01
  -1.08179E+01 -1.26718E+01 -1.43417E+01 -1.12151E+01 -1.19989E+01 -1.18521E+01 -9.87458E+00 -1.40443E+01 -1.11728E+01 -1.12375E+01
  -1.18592E+01 -1.07933E+01 -1.18102E+01 -1.21586E+01 -1.28735E+01 -1.17794E+01 -1.47472E+01 -9.61987E+00 -1.41206E+01 -1.40375E+01
  -9.77455E+00 -1.07081E+01 -1.13619E+01 -1.14066E+01 -9.58473E+00 -1.11445E+01 -1.12750E+01 -9.67339E+00 -1.22729E+01 -9.46732E+00
  -1.00793E+01 -1.17269E+01 -8.86711E+00 -1.05518E+01 -9.33656E+00 -9.43217E+00 -8.12653E+00 -9.01966E+00 -9.09905E+00 -8.23946E+00
  -8.90179E+00 -7.70892E+00 -1.04414E+01 -9.67593E+00 -9.46423E+00 -1.18328E+01 -9.14513E+00 -9.99303E+00 -6.29978E+00 -5.30202E+00
  -6.45854E+00 -2.42140E+00 -2.32594E+00 -1.34451E+00 -4.45675E+00 -3.41916E+00 -6.42745E+00 -9.19224E+00 -7.97385E+00 -6.26044E+00
  -7.55887E+00 -8.65445E+00 -9.77939E+00 -6.77098E+00 -6.35359E+00 -7.86030E+00 -6.63060E+00 -6.53912E+00 -9.98061E+00 -6.19668E+00
  -7.39431E+00 -7.72247E+00 -3.69316E+00 -1.58986E+00 -2.42642E+00 -9.01830E-01 -9.95357E-01  4.72552E-01  1.40721E+00  9.64783E-01
  -2.35739E+00 -2.56768E-01 -4.26660E+00 -4.73092E+00 -4.52802E+00 -4.43487E+00 -4.33550E+00 -7.27359E+00 -4.14856E+00 -6.35410E+00
  -5.54026E+00 -6.18459E+00 -5.37093E+00 -4.18155E+00 -5.57966E+00 -5.35466E+00 -8.07760E+00 -3.04961E+00 -3.67123E+00 -5.06408E+00
  -7.45704E+00 -2.46845E+00 -4.21507E+00 -4.30174E+00 -3.78401E+00 -5.37178E+00 -7.39128E+00 -7.18545E+00 -5.43651E+00 -3.07222E+00
  -4.87025E+00 -5.76590E+00 -5.84979E+00 -4.75498E+00 -6.42212E+00 -3.67671E+00 -5.61653E+00 -7.09299E+00 -5.74605E+00 -7.16862E+00
  -5.05237E+00 -7.24120E+00 -6.96379E+00 -7.00902E+00 -6.78594E+00 -6.75996E+00 -7.61185E+00 -5.15025E+00 -5.76760E+00 -5.75938E+00
  -5.86460E+00 -8.87746E+00 -5.01582E+00 -5.72404E+00 -6.81149E+00 -3.80989E+00 -6.46306E+00 -7.05893E+00 -2.72154E+00 -3.61214E+00
  -4.38172E+00 -1.83095E+00 -4.16933E+00 -3.39771E+00 -2.75895E+00 -3.52440E+00 -3.77065E+00 -2.25664E+00 -3.63628E+00 -3.21745E+00
  -4.98314E+00 -3.54347E+00 -2.97487E+00 -3.03309E+00 -1.83529E+00 -5.48269E+00 -2.40890E+00 -5.21179E+00 -3.20723E+00 -4.04147E+00
  -4.35465E+00 -4.28849E+00 -1.51527E+00 -2.18093E+00 -2.63580E+00 -1.71125E+00 -1.70112E+00 -1.32254E+00 -1.62194E+00 -3.74567E+00
  -3.99288E+00 -3.10048E+00 -3.29314E+00 -2.00572E+00 -4.71654E+00 -1.43346E+00 -8.70170E-01 -3.90144E+00 -7.26873E-01 -1.81695E+00
  -1.80085E+00 -3.04921E+00 -1.55059E+00 -2.50870E+00 -1.51568E-01 -3.02327E+00 -1.20169E+00 -7.74295E-01 -2.53007E+00 -2.24217E+00
  -1.56372E+00 -3.38384E+00 -2.15544E+00 -3.51310E+00 -2.53295E+00 -1.31531E+00  2.33879E+00 -4.70199E-01  1.34421E+00 -1.61065E+00
  -9.11874E-01 -6.72277E-02  2.20494E+00  2.21305E+00  1.30496E+00  4.43590E+00  5.72246E+00  1.01604E+01  1.13675E+01  1.06443E+01
   1.53527E+01  1.25548E+01  1.16020E+01  1.29459E+01  6.75291E+00  3.90869E+00  1.50062E+00 -6.88748E-01 -1.92646E+00 -3.27817E+00
  -1.19892E+00  4.60680E-01 -5.10528E-01 -2.06412E+00 -1.16932E+00  2.96482E-01  8.36165E-02 -1.71000E-01 -1.37320E+00  8.13687E-01
  -1.61729E-01 -1.36932E+00 -2.77881E+00 -1.20303E+00 -2.66622E+00 -1.67510E+00 -5.23499E+00 -2.07171E+00 -2.92694E+00 -1.87699E+00
   5.26710E-02 -2.44391E+00  6.63100E-01 -1.43796E+00  7.86772E-01  5.01744E-01  1.27016E+00 -1.22946E+00 -5.94422E-01 -1.56738E+00
   1.33296E-01 -4.95399E-01 -2.81531E+00 -1.67488E+00 -1.44218E+00 -2.04798E+00 -2.91258E+00 -1.35034E+00  1.20593E+00  6.42692E-01
   1.38604E+00  1.67883E+00 -9.38829E-01  3.38007E+00 -9.45662E-01  6.24709E-01 -3.22781E+00 -5.66750E-01 -2.24759E+00 -3.49707E-01
  -1.88022E+00 -2.88986E+00 -2.61860E+00 -3.07668E+00 -3.76683E+00 -2.82256E+00 -3.33895E-01  9.25643E-02  2.03182E-02 -1.28644E+00
  -2.49708E+00 -1.34321E+00 -1.16590E+00 -1.42504E+00 -5.17927E-01 -8.13526E-01 -5.27337E-01 -3.02777E-01 -2.66394E+00 -2.22586E+00
  -1.84361E+00 -1.39302E+00  3.50198E-01  4.32755E-01  9.15719E-01  1.20771E+00  1.93851E+00  1.69705E+00  2.64771E+00  3.28659E+00
   3.65672E+00  1.17568E+00  1.25458E+00  1.34159E-01  3.32849E+00 -5.66911E-01  6.12981E-01  2.45083E+00  3.50574E+00  3.10260E+00
  -1.61100E-01  1.59670E+00  2.74072E+00  2.63073E+00  1.72570E+00  2.20142E+00  6.82819E-01  9.97466E-01  2.05884E+00  3.07747E-02
   1.81256E-01  4.78602E-01  3.68562E+00  1.57016E+00  4.50130E+00  2.77272E+00  1.70276E+00  2.63954E+00  2.51522E+00  3.84317E+00
   2.50343E+00  1.37217E+00  2.30558E+00 -1.87663E+00  8.58424E-01  3.57281E+00 -2.00771E+00  7.10089E-01  2.42220E+00 -1.88105E-01
   1.52194E+00  5.15068E-01  9.59244E-01  1.65473E+00  6.39590E-01 -7.11326E-01  2.51939E+00  2.49031E+00  8.88298E-01  2.14974E+00
   4.02017E+00  1.07892E+00  3.92634E+00  1.81861E+00  1.11353E+00  7.89560E-01  2.59067E+00  5.45564E+00  3.94662E+00  2.11839E+00
   2.27206E+00  3.33867E+00  2.04672E+00  3.58585E+00  1.38679E+00  2.87766E+00  2.88778E+00  4.80631E+00  1.93052E+00  2.23220E+00
   2.42264E+00  4.52231E+00  2.31335E-02  2.56143E+00  2.16910E+00  2.47050E+00  3.12543E+00 -1.53011E-01  2.28707E+00  1.72010E+00
  -3.94074E-02  1.60026E+00  5.02167E+00  2.08472E+00  3.89940E+00  1.86386E+00  6.96348E-01  1.60997E+00  5.76264E-01  1.85477E+00
  -2.28479E-01  6.70667E-01  1.30262E+00  3.35037E-01  9.49481E-01  1.47648E+00  2.89658E-01  9.60476E-01  2.70288E+00  1.37595E+00
   1.81474E+00  3.68815E+00  3.34485E+00  1.31514E+00  4.56094E+00  3.41912E+00  1.09663E+00  1.86179E+00 -1.58753E+00  3.54932E+00
   2.32194E-01  2.14751E+00  6.81772E-01  2.18444E+00  2.81874E+00  1.34098E+00  2.95191E+00  2.26527E+00  5.15462E-01  3.81575E+00
   1.55633E+00 -1.05054E+00  1.20538E+00  3.03732E+00  7.30674E-01  2.40330E+00  1.66862E+00  1.76375E+00  2.84995E-01 -2.46231E-01
   1.77082E+00  2.32312E+00  2.70329E+00  4.20234E-01  6.01837E-01  2.04748E+00  2.44895E+00  3.20851E+00  1.65203E+00  2.73188E+00
   1.80863E+00  6.82118E-01  2.58050E-01  3.16011E+00  4.85301E-01  1.90619E+00  2.71207E+00  2.56734E+00
 NY points of the fit to the data follow
  -2.00778E+01 -2.02669E+01 -2.05879E+01 -2.09080E+01 -2.09838E+01 -2.07346E+01 -2.03892E+01 -2.01162E+01 -1.97678E+01 -1.92166E+01
  -1.86074E+01 -1.80529E+01 -1.77176E+01 -1.77865E+01 -1.81057E+01 -1.83572E+01 -1.84441E+01 -1.84161E+01 -1.83050E+01 -1.81702E+01
  -1.80189E+01 -1.78594E+01 -1.77017E+01 -1.75286E+01 -1.72930E+01 -1.69772E+01 -1.66239E+01 -1.62840E+01 -1.59556E+01 -1.56367E+01
  -1.53705E+01 -1.51908E+01 -1.51119E+01 -1.51595E+01 -1.53120E+01 -1.54849E+01 -1.56176E+01 -1.57144E+01 -1.57842E+01 -1.58027E+01
  -1.57145E+01 -1.54514E+01 -1.49830E+01 -1.43986E+01 -1.38555E+01 -1.34281E+01 -1.30997E+01 -1.28870E+01 -1.28561E+01 -1.30470E+01
  -1.34281E+01 -1.38819E+01 -1.42307E+01 -1.43363E+01 -1.41833E+01 -1.38614E+01 -1.34885E+01 -1.31451E+01 -1.28627E+01 -1.26523E+01
  -1.25108E+01 -1.24337E+01 -1.24213E+01 -1.24614E+01 -1.25087E+01 -1.25038E+01 -1.24072E+01 -1.22215E+01 -1.19843E+01 -1.17336E+01
  -1.14838E+01 -1.12450E+01 -1.10535E+01 -1.09307E+01 -1.08633E+01 -1.08408E+01 -1.08581E+01 -1.08896E+01 -1.09199E+01 -1.09213E+01
  -1.08164E+01 -1.05705E+01 -1.02577E+01 -9.99069E+00 -9.80320E+00 -9.67018E+00 -9.59803E+00 -9.62583E+00 -9.75809E+00 -9.96633E+00
  -1.01843E+01 -1.03067E+01 -1.02882E+01 -1.01794E+01 -1.00371E+01 -9.82182E+00 -9.32266E+00 -8.35408E+00 -7.01055E+00 -5.67233E+00
  -4.59811E+00 -3.73478E+00 -3.05781E+00 -2.77767E+00 -3.05516E+00 -3.89616E+00 -5.19754E+00 -6.55474E+00 -7.54483E+00 -8.07824E+00
  -8.31263E+00 -8.37605E+00 -8.37701E+00 -8.35845E+00 -8.32869E+00 -8.29436E+00 -8.25407E+00 -8.20519E+00 -8.13953E+00 -8.01438E+00
  -7.63324E+00 -6.72330E+00 -5.24434E+00 -3.52508E+00 -1.99803E+00 -7.72646E-01  2.49866E-01  9.28563E-01  9.61169E-01  2.42074E-01
  -1.17725E+00 -2.97956E+00 -4.57339E+00 -5.60558E+00 -6.15727E+00 -6.41433E+00 -6.50509E+00 -6.52389E+00 -6.48205E+00 -6.38455E+00
  -6.25353E+00 -6.11859E+00 -6.00808E+00 -5.94024E+00 -5.91177E+00 -5.90874E+00 -5.91346E+00 -5.91204E+00 -5.90104E+00 -5.88494E+00
  -5.86384E+00 -5.83530E+00 -5.79706E+00 -5.75079E+00 -5.70707E+00 -5.68309E+00 -5.68643E+00 -5.70138E+00 -5.69836E+00 -5.66916E+00
  -5.63300E+00 -5.60699E+00 -5.58909E+00 -5.56185E+00 -5.51020E+00 -5.45267E+00 -5.42818E+00 -5.45299E+00 -5.51939E+00 -5.60663E+00
  -5.69018E+00 -5.75222E+00 -5.78236E+00 -5.77173E+00 -5.74017E+00 -5.72427E+00 -5.72281E+00 -5.69755E+00 -5.62390E+00 -5.51766E+00
  -5.42536E+00 -5.38787E+00 -5.38503E+00 -5.35277E+00 -5.23977E+00 -5.05157E+00 -4.82824E+00 -4.59651E+00 -4.35587E+00 -4.11046E+00
  -3.87273E+00 -3.67363E+00 -3.56105E+00 -3.54969E+00 -3.60318E+00 -3.67266E+00 -3.72941E+00 -3.75239E+00 -3.72353E+00 -3.63944E+00
  -3.52649E+00 -3.40794E+00 -3.29191E+00 -3.19300E+00 -3.13564E+00 -3.13520E+00 -3.20243E+00 -3.33853E+00 -3.50480E+00 -3.62315E+00
  -3.63053E+00 -3.53517E+00 -3.39321E+00 -3.24364E+00 -3.09442E+00 -2.97121E+00 -2.92582E+00 -2.98889E+00 -3.13943E+00 -3.32008E+00
  -3.46017E+00 -3.50991E+00 -3.44649E+00 -3.27201E+00 -3.01942E+00 -2.74719E+00 -2.51260E+00 -2.35639E+00 -2.28297E+00 -2.25698E+00
  -2.23658E+00 -2.18769E+00 -2.09178E+00 -1.95801E+00 -1.81525E+00 -1.69462E+00 -1.62609E+00 -1.62252E+00 -1.67134E+00 -1.73733E+00
  -1.78067E+00 -1.77322E+00 -1.70052E+00 -1.55884E+00 -1.36862E+00 -1.17162E+00 -1.00211E+00 -8.77015E-01 -7.88344E-01 -6.78786E-01
  -4.75741E-01 -1.63297E-01  2.22418E-01  8.21954E-01  2.10952E+00  4.34172E+00  7.11535E+00  9.60690E+00  1.14129E+01  1.27065E+01
   1.35345E+01  1.35105E+01  1.23772E+01  1.01340E+01  7.06282E+00  4.04632E+00  1.88025E+00  6.43256E-01 -3.96731E-03 -3.00734E-01
  -4.63861E-01 -5.71923E-01 -6.45149E-01 -6.94821E-01 -7.33626E-01 -7.72892E-01 -8.20323E-01 -8.77895E-01 -9.41728E-01 -1.00440E+00
  -1.05904E+00 -1.10108E+00 -1.12953E+00 -1.14690E+00 -1.15555E+00 -1.15743E+00 -1.15480E+00 -1.14902E+00 -1.14021E+00 -1.12934E+00
  -1.11636E+00 -1.09982E+00 -1.07962E+00 -1.05745E+00 -1.03444E+00 -1.01138E+00 -9.88508E-01 -9.65334E-01 -9.41271E-01 -9.16301E-01
  -8.90737E-01 -8.65216E-01 -8.40362E-01 -8.17229E-01 -7.97051E-01 -7.80596E-01 -7.67947E-01 -7.58972E-01 -7.53193E-01 -7.50110E-01
  -7.49239E-01 -7.50167E-01 -7.52435E-01 -7.55579E-01 -7.59012E-01 -7.62193E-01 -7.64599E-01 -7.65829E-01 -7.65485E-01 -7.63249E-01
  -7.58783E-01 -7.51863E-01 -7.42294E-01 -7.29976E-01 -7.14744E-01 -6.96444E-01 -6.74860E-01 -6.49835E-01 -6.21171E-01 -5.88680E-01
  -5.52045E-01 -5.10921E-01 -4.64884E-01 -4.13554E-01 -3.56499E-01 -2.93304E-01 -2.23484E-01 -1.46619E-01 -6.23240E-02  2.96112E-02
   1.29304E-01  2.36682E-01  3.51543E-01  4.73395E-01  6.01504E-01  7.34792E-01  8.71947E-01  1.01137E+00  1.15128E+00  1.28963E+00
   1.42422E+00  1.55276E+00  1.67299E+00  1.78274E+00  1.88005E+00  1.96318E+00  2.03074E+00  2.08168E+00  2.11549E+00  2.13206E+00
   2.13181E+00  2.11549E+00  2.08430E+00  2.03973E+00  1.98362E+00  1.91794E+00  1.84480E+00  1.76626E+00  1.68441E+00  1.60117E+00
   1.51841E+00  1.43774E+00  1.36061E+00  1.28817E+00  1.22143E+00  1.16118E+00  1.10809E+00  1.06262E+00  1.02514E+00  9.95865E-01
   9.75032E-01  9.62807E-01  9.59387E-01  9.64913E-01  9.79563E-01  1.00349E+00  1.03693E+00  1.08005E+00  1.13306E+00  1.19603E+00
   1.26895E+00  1.35167E+00  1.44390E+00  1.54509E+00  1.65445E+00  1.77082E+00  1.89280E+00  2.01862E+00  2.14631E+00  2.27356E+00
   2.39790E+00  2.51672E+00  2.62740E+00  2.72744E+00  2.81454E+00  2.88668E+00  2.94228E+00  2.98018E+00  2.99982E+00  3.00118E+00
   2.98480E+00  2.95174E+00  2.90348E+00  2.84189E+00  2.76913E+00  2.68753E+00  2.59948E+00  2.50729E+00  2.41317E+00  2.31910E+00
   2.22689E+00  2.13798E+00  2.05358E+00  1.97454E+00  1.90145E+00  1.83467E+00  1.77435E+00  1.72044E+00  1.67275E+00  1.63097E+00
   1.59472E+00  1.56360E+00  1.53720E+00  1.51506E+00  1.49677E+00  1.48189E+00  1.47008E+00  1.46097E+00  1.45429E+00  1.44974E+00
   1.44707E+00  1.44604E+00  1.44649E+00  1.44824E+00  1.45117E+00  1.45513E+00  1.45999E+00  1.46566E+00  1.47207E+00  1.47915E+00
   1.48683E+00  1.49503E+00  1.50370E+00  1.51280E+00  1.52231E+00  1.53219E+00  1.54241E+00  1.55291E+00  1.56368E+00  1.57471E+00
   1.58598E+00  1.59747E+00  1.60917E+00  1.62103E+00  1.63307E+00  1.64526E+00  1.65762E+00  1.67011E+00  1.68273E+00  1.69546E+00
   1.70830E+00  1.72125E+00  1.73432E+00  1.74747E+00  1.76071E+00  1.77402E+00  1.78742E+00  1.80089E+00  1.81445E+00  1.82807E+00
   1.84174E+00  1.85546E+00  1.86926E+00  1.88312E+00  1.89703E+00  1.91098E+00  1.92498E+00  1.93901E+00  1.95311E+00  1.96725E+00
   1.98143E+00  1.99563E+00  2.00987E+00  2.02415E+00  2.03847E+00  2.05283E+00  2.06720E+00  2.08159E+00
 NY background values follow
    -2.061E+01   -2.049E+01   -2.038E+01   -2.026E+01   -2.014E+01   -2.003E+01   -1.991E+01   -1.979E+01   -1.968E+01   -1.956E+01
    -1.944E+01   -1.933E+01   -1.921E+01   -1.909E+01   -1.898E+01   -1.886E+01   -1.874E+01   -1.863E+01   -1.851E+01   -1.839E+01
    -1.828E+01   -1.816E+01   -1.805E+01   -1.793E+01   -1.782E+01   -1.770E+01   -1.758E+01   -1.747E+01   -1.735E+01   -1.724E+01
    -1.712E+01   -1.701E+01   -1.690E+01   -1.678E+01   -1.667E+01   -1.655E+01   -1.644E+01   -1.633E+01   -1.621E+01   -1.610E+01
    -1.599E+01   -1.588E+01   -1.576E+01   -1.565E+01   -1.554E+01   -1.543E+01   -1.532E+01   -1.521E+01   -1.510E+01   -1.499E+01
    -1.488E+01   -1.477E+01   -1.466E+01   -1.455E+01   -1.444E+01   -1.434E+01   -1.423E+01   -1.412E+01   -1.401E+01   -1.391E+01
    -1.380E+01   -1.370E+01   -1.359E+01   -1.348E+01   -1.338E+01   -1.328E+01   -1.317E+01   -1.307E+01   -1.297E+01   -1.286E+01
    -1.276E+01   -1.266E+01   -1.256E+01   -1.246E+01   -1.236E+01   -1.226E+01   -1.216E+01   -1.206E+01   -1.196E+01   -1.186E+01
    -1.176E+01   -1.167E+01   -1.157E+01   -1.147E+01   -1.138E+01   -1.128E+01   -1.119E+01   -1.109E+01   -1.100E+01   -1.091E+01
    -1.082E+01   -1.072E+01   -1.063E+01   -1.054E+01   -1.045E+01   -1.036E+01   -1.027E+01   -1.018E+01   -1.009E+01   -1.001E+01
    -9.919E+00   -9.833E+00   -9.746E+00   -9.661E+00   -9.576E+00   -9.492E+00   -9.408E+00   -9.324E+00   -9.242E+00   -9.160E+00
    -9.078E+00   -8.997E+00   -8.916E+00   -8.837E+00   -8.757E+00   -8.678E+00   -8.600E+00   -8.523E+00   -8.446E+00   -8.369E+00
    -8.293E+00   -8.218E+00   -8.143E+00   -8.069E+00   -7.995E+00   -7.922E+00   -7.850E+00   -7.778E+00   -7.707E+00   -7.636E+00
    -7.566E+00   -7.497E+00   -7.428E+00   -7.359E+00   -7.292E+00   -7.225E+00   -7.158E+00   -7.092E+00   -7.027E+00   -6.962E+00
    -6.898E+00   -6.834E+00   -6.771E+00   -6.709E+00   -6.647E+00   -6.586E+00   -6.525E+00   -6.465E+00   -6.405E+00   -6.346E+00
    -6.288E+00   -6.230E+00   -6.172E+00   -6.115E+00   -6.059E+00   -6.003E+00   -5.948E+00   -5.893E+00   -5.838E+00   -5.785E+00
    -5.731E+00   -5.678E+00   -5.626E+00   -5.574E+00   -5.523E+00   -5.472E+00   -5.422E+00   -5.372E+00   -5.322E+00   -5.273E+00
    -5.224E+00   -5.176E+00   -5.129E+00   -5.081E+00   -5.035E+00   -4.988E+00   -4.942E+00   -4.897E+00   -4.852E+00   -4.807E+00
    -4.763E+00   -4.719E+00   -4.676E+00   -4.633E+00   -4.590E+00   -4.548E+00   -4.506E+00   -4.465E+00   -4.424E+00   -4.383E+00
    -4.343E+00   -4.303E+00   -4.264E+00   -4.224E+00   -4.186E+00   -4.147E+00   -4.109E+00   -4.072E+00   -4.035E+00   -3.998E+00
    -3.961E+00   -3.925E+00   -3.889E+00   -3.854E+00   -3.819E+00   -3.784E+00   -3.750E+00   -3.716E+00   -3.682E+00   -3.649E+00
    -3.616E+00   -3.583E+00   -3.551E+00   -3.519E+00   -3.487E+00   -3.456E+00   -3.425E+00   -3.394E+00   -3.363E+00   -3.333E+00
    -3.304E+00   -3.274E+00   -3.245E+00   -3.216E+00   -3.188E+00   -3.159E+00   -3.131E+00   -3.104E+00   -3.076E+00   -3.049E+00
    -3.022E+00   -2.996E+00   -2.970E+00   -2.944E+00   -2.918E+00   -2.893E+00   -2.867E+00   -2.842E+00   -2.818E+00   -2.793E+00
    -2.769E+00   -2.745E+00   -2.721E+00   -2.698E+00   -2.674E+00   -2.651E+00   -2.628E+00   -2.606E+00   -2.583E+00   -2.561E+00
    -2.539E+00   -2.517E+00   -2.495E+00   -2.474E+00   -2.453E+00   -2.431E+00   -2.410E+00   -2.390E+00   -2.369E+00   -2.348E+00
    -2.328E+00   -2.308E+00   -2.288E+00   -2.268E+00   -2.248E+00   -2.228E+00   -2.209E+00   -2.189E+00   -2.170E+00   -2.151E+00
    -2.132E+00   -2.113E+00   -2.094E+00   -2.075E+00   -2.056E+00   -2.038E+00   -2.019E+00   -2.001E+00   -1.982E+00   -1.964E+00
    -1.946E+00   -1.927E+00   -1.909E+00   -1.891E+00   -1.873E+00   -1.856E+00   -1.838E+00   -1.820E+00   -1.802E+00   -1.784E+00
    -1.767E+00   -1.749E+00   -1.732E+00   -1.714E+00   -1.697E+00   -1.679E+00   -1.662E+00   -1.644E+00   -1.627E+00   -1.609E+00
    -1.592E+00   -1.575E+00   -1.557E+00   -1.540E+00   -1.522E+00   -1.505E+00   -1.488E+00   -1.470E+00   -1.453E+00   -1.436E+00
    -1.418E+00   -1.401E+00   -1.383E+00   -1.366E+00   -1.348E+00   -1.331E+00   -1.313E+00   -1.295E+00   -1.278E+00   -1.260E+00
    -1.242E+00   -1.224E+00   -1.207E+00   -1.189E+00   -1.171E+00   -1.153E+00   -1.135E+00   -1.117E+00   -1.099E+00   -1.081E+00
    -1.063E+00   -1.045E+00   -1.026E+00   -1.008E+00   -9.899E-01   -9.716E-01   -9.533E-01   -9.350E-01   -9.167E-01   -8.983E-01
    -8.799E-01   -8.614E-01   -8.430E-01   -8.245E-01   -8.060E-01   -7.874E-01   -7.689E-01   -7.503E-01   -7.317E-01   -7.130E-01
    -6.944E-01   -6.757E-01   -6.570E-01   -6.383E-01   -6.195E-01   -6.008E-01   -5.820E-01   -5.632E-01   -5.444E-01   -5.256E-01
    -5.068E-01   -4.879E-01   -4.690E-01   -4.501E-01   -4.312E-01   -4.123E-01   -3.934E-01   -3.745E-01   -3.555E-01   -3.366E-01
    -3.176E-01   -2.986E-01   -2.797E-01   -2.607E-01   -2.417E-01   -2.227E-01   -2.037E-01   -1.847E-01   -1.657E-01   -1.467E-01
    -1.277E-01   -1.088E-01   -8.977E-02   -7.079E-02   -5.181E-02   -3.284E-02   -1.388E-02    5.073E-03    2.402E-02    4.295E-02
     6.188E-02    8.079E-02    9.969E-02    1.186E-01    1.375E-01    1.563E-01    1.751E-01    1.940E-01    2.128E-01    2.316E-01
     2.503E-01    2.691E-01    2.878E-01    3.065E-01    3.252E-01    3.438E-01    3.624E-01    3.810E-01    3.996E-01    4.182E-01
     4.367E-01    4.552E-01    4.736E-01    4.921E-01    5.105E-01    5.288E-01    5.472E-01    5.655E-01    5.838E-01    6.020E-01
     6.202E-01    6.384E-01    6.566E-01    6.747E-01    6.928E-01    7.109E-01    7.289E-01    7.469E-01    7.649E-01    7.828E-01
     8.007E-01    8.186E-01    8.364E-01    8.542E-01    8.720E-01    8.897E-01    9.074E-01    9.250E-01    9.426E-01    9.602E-01
     9.778E-01    9.953E-01    1.013E+00    1.030E+00    1.048E+00    1.065E+00    1.082E+00    1.100E+00    1.117E+00    1.134E+00
     1.151E+00    1.168E+00    1.185E+00    1.202E+00    1.219E+00    1.236E+00    1.253E+00    1.270E+00    1.287E+00    1.304E+00
     1.321E+00    1.338E+00    1.354E+00    1.371E+00    1.388E+00    1.404E+00    1.421E+00    1.438E+00    1.454E+00    1.471E+00
     1.487E+00    1.504E+00    1.520E+00    1.537E+00    1.553E+00    1.570E+00    1.586E+00    1.602E+00    1.619E+00    1.635E+00
     1.652E+00    1.668E+00    1.684E+00    1.701E+00    1.717E+00    1.733E+00    1.750E+00    1.766E+00    1.782E+00    1.799E+00
     1.815E+00    1.831E+00    1.848E+00    1.864E+00    1.880E+00    1.897E+00    1.913E+00    1.930E+00
 Asp      Conc. = 1.37E+00
