 LCModel (Version 6.3-1L) Copyright: S.W. Provencher.          Ref.: Magn. Reson. Med. 30:672-679 (1993).                
 Slice#2 Row#14 Col#2  K_02_press_1_raw_act
 36 lines in following concentration table = NCONC+1
    Conc.  %SD /Cr+PCr  Metabolite                                         
  846.650  31%   7.944 Ala                                                 
   10.215  31% 9.6E-02 Asp                                                 
  106.576  30%   1.000 Cr                                                  
    0.000 999%   0.000 PCr                                                 
    6.113  32% 5.7E-02 GABA                                                
    6.123  31% 5.7E-02 Glc                                                 
  616.530  62%   5.785 Gln                                                 
  528.878  92%   4.962 Glu                                                 
   32.474  44%   0.305 GPC                                                 
    0.000 999%   0.000 PCh                                                 
  147.281  55%   1.382 GSH                                                 
 1.27E+03  14%  11.958 Ins                                                 
    0.000 999%   0.000 Lac                                                 
    0.000 999%   0.000 NAA                                                 
    0.000 999%   0.000 NAAG                                                
    2.041  31% 1.9E-02 Scyllo                                              
   10.208  31% 9.6E-02 Tau                                                 
    9.146  62% 8.6E-02 -CrCH2                                              
   32.474  44%   0.305 GPC+PCh                                             
    0.000 999%   0.000 NAA+NAAG                                            
  106.576  30%   1.000 Cr+PCr                                              
 1.15E+03  67%  10.747 Glu+Gln                                             
    0.000 999%   0.000 Lip13a                                              
    0.000 999%   0.000 Lip13b                                              
    0.000 999%   0.000 Lip09                                               
   30.649 175%   0.288 MM09                                                
    0.000 999%   0.000 Lip20                                               
    0.000 999%   0.000 MM20                                                
   48.530 186%   0.455 MM12                                                
  548.330  29%   5.145 MM14                                                
 2.31E+03   8%  21.698+MM17                                                
    0.000 999%   0.000 Lip13a+Lip13b                                       
  596.860  34%   5.600 MM14+Lip13a+Lip13b+MM12                             
   30.649 175%   0.288 MM09+Lip09                                          
    0.000 999%   0.000 MM20+Lip20                                          
   6 lines in following misc. output table
  FWHM = 0.168 ppm    S/N =   4                                            
  Data shift = 0.153 ppm                                                   
  Ph: -80 deg      19.9 deg/ppm                                            
  alphaB,S = 8.5E+01,   3.5E+02                                            
    6 spline knots.   Ns = 9(2)                                            
  (11) 2 infls.   (11) 1 extrs.                                            
  498 points on ppm-axis = NY
      4.000000     3.992357     3.984714     3.977070     3.969427     3.961784     3.954141     3.946497     3.938854     3.931211
      3.923568     3.915925     3.908281     3.900638     3.892995     3.885352     3.877708     3.870065     3.862422     3.854779
      3.847136     3.839492     3.831849     3.824206     3.816563     3.808919     3.801276     3.793633     3.785990     3.778347
      3.770703     3.763060     3.755417     3.747774     3.740130     3.732487     3.724844     3.717201     3.709558     3.701914
      3.694271     3.686628     3.678985     3.671341     3.663698     3.656055     3.648412     3.640769     3.633125     3.625482
      3.617839     3.610196     3.602552     3.594909     3.587266     3.579623     3.571980     3.564336     3.556693     3.549050
      3.541407     3.533763     3.526120     3.518477     3.510834     3.503191     3.495547     3.487904     3.480261     3.472618
      3.464974     3.457331     3.449688     3.442045     3.434402     3.426758     3.419115     3.411472     3.403829     3.396185
      3.388542     3.380899     3.373256     3.365613     3.357969     3.350326     3.342683     3.335040     3.327396     3.319753
      3.312110     3.304467     3.296824     3.289180     3.281537     3.273894     3.266251     3.258607     3.250964     3.243321
      3.235678     3.228034     3.220391     3.212748     3.205105     3.197462     3.189818     3.182175     3.174532     3.166889
      3.159245     3.151602     3.143959     3.136316     3.128673     3.121029     3.113386     3.105743     3.098100     3.090456
      3.082813     3.075170     3.067527     3.059884     3.052240     3.044597     3.036954     3.029311     3.021667     3.014024
      3.006381     2.998738     2.991095     2.983451     2.975808     2.968165     2.960522     2.952878     2.945235     2.937592
      2.929949     2.922306     2.914662     2.907019     2.899376     2.891733     2.884089     2.876446     2.868803     2.861160
      2.853517     2.845873     2.838230     2.830587     2.822944     2.815300     2.807657     2.800014     2.792371     2.784728
      2.777084     2.769441     2.761798     2.754155     2.746511     2.738868     2.731225     2.723582     2.715939     2.708295
      2.700652     2.693009     2.685366     2.677722     2.670079     2.662436     2.654793     2.647150     2.639506     2.631863
      2.624220     2.616577     2.608933     2.601290     2.593647     2.586004     2.578361     2.570717     2.563074     2.555431
      2.547788     2.540144     2.532501     2.524858     2.517215     2.509572     2.501928     2.494285     2.486642     2.478999
      2.471355     2.463712     2.456069     2.448426     2.440783     2.433139     2.425496     2.417853     2.410210     2.402566
      2.394923     2.387280     2.379637     2.371994     2.364350     2.356707     2.349064     2.341421     2.333777     2.326134
      2.318491     2.310848     2.303205     2.295561     2.287918     2.280275     2.272632     2.264988     2.257345     2.249702
      2.242059     2.234416     2.226772     2.219129     2.211486     2.203843     2.196199     2.188556     2.180913     2.173270
      2.165627     2.157983     2.150340     2.142697     2.135054     2.127410     2.119767     2.112124     2.104481     2.096838
      2.089194     2.081551     2.073908     2.066265     2.058621     2.050978     2.043335     2.035692     2.028049     2.020405
      2.012762     2.005119     1.997476     1.989833     1.982190     1.974546     1.966903     1.959260     1.951617     1.943974
      1.936331     1.928688     1.921045     1.913402     1.905759     1.898115     1.890472     1.882829     1.875186     1.867543
      1.859900     1.852257     1.844614     1.836971     1.829327     1.821684     1.814041     1.806398     1.798755     1.791112
      1.783469     1.775826     1.768183     1.760540     1.752896     1.745253     1.737610     1.729967     1.722324     1.714681
      1.707038     1.699395     1.691752     1.684108     1.676465     1.668822     1.661179     1.653536     1.645893     1.638250
      1.630607     1.622964     1.615321     1.607677     1.600034     1.592391     1.584748     1.577105     1.569462     1.561819
      1.554176     1.546533     1.538890     1.531246     1.523603     1.515960     1.508317     1.500674     1.493031     1.485388
      1.477745     1.470102     1.462458     1.454815     1.447172     1.439529     1.431886     1.424243     1.416600     1.408957
      1.401314     1.393671     1.386027     1.378384     1.370741     1.363098     1.355455     1.347812     1.340169     1.332526
      1.324883     1.317240     1.309596     1.301953     1.294310     1.286667     1.279024     1.271381     1.263738     1.256095
      1.248452     1.240808     1.233165     1.225522     1.217879     1.210236     1.202593     1.194950     1.187307     1.179664
      1.172021     1.164377     1.156734     1.149091     1.141448     1.133805     1.126162     1.118519     1.110876     1.103233
      1.095590     1.087946     1.080303     1.072660     1.065017     1.057374     1.049731     1.042088     1.034445     1.026802
      1.019158     1.011515     1.003872     0.996229     0.988586     0.980943     0.973300     0.965657     0.958014     0.950371
      0.942727     0.935084     0.927441     0.919798     0.912155     0.904512     0.896869     0.889226     0.881583     0.873940
      0.866296     0.858653     0.851010     0.843367     0.835724     0.828081     0.820438     0.812795     0.805152     0.797508
      0.789865     0.782222     0.774579     0.766936     0.759293     0.751650     0.744007     0.736364     0.728721     0.721077
      0.713434     0.705791     0.698148     0.690505     0.682862     0.675219     0.667576     0.659933     0.652290     0.644646
      0.637003     0.629360     0.621717     0.614074     0.606431     0.598788     0.591145     0.583502     0.575858     0.568215
      0.560572     0.552929     0.545286     0.537643     0.530000     0.522357     0.514714     0.507071     0.499427     0.491784
      0.484141     0.476498     0.468855     0.461212     0.453569     0.445925     0.438282     0.430639     0.422996     0.415353
      0.407710     0.400067     0.392424     0.384780     0.377137     0.369494     0.361851     0.354208     0.346565     0.338922
      0.331278     0.323635     0.315992     0.308349     0.300706     0.293063     0.285420     0.277777     0.270133     0.262490
      0.254847     0.247204     0.239561     0.231918     0.224275     0.216631     0.208988     0.201345
 NY phased data points follow
  -2.55750E+01 -2.54733E+01 -2.71431E+01 -2.57426E+01 -2.47393E+01 -2.51676E+01 -2.54018E+01 -2.35723E+01 -2.33921E+01 -2.29985E+01
  -2.18633E+01 -2.45059E+01 -2.37709E+01 -2.44162E+01 -2.44061E+01 -2.26120E+01 -2.30090E+01 -2.25652E+01 -2.24589E+01 -2.11194E+01
  -2.17460E+01 -2.17848E+01 -2.06521E+01 -2.33844E+01 -2.44400E+01 -2.27496E+01 -2.26277E+01 -2.43454E+01 -1.99917E+01 -2.05359E+01
  -2.20345E+01 -2.26831E+01 -2.25993E+01 -2.17139E+01 -2.11392E+01 -2.17523E+01 -2.11129E+01 -2.08323E+01 -2.04478E+01 -2.06203E+01
  -2.17952E+01 -2.11731E+01 -1.99004E+01 -2.29051E+01 -2.35262E+01 -1.95738E+01 -2.19833E+01 -2.08474E+01 -2.13418E+01 -1.87461E+01
  -2.00946E+01 -2.31354E+01 -2.06495E+01 -1.91248E+01 -1.99460E+01 -1.94351E+01 -2.08049E+01 -2.10038E+01 -2.04852E+01 -1.84290E+01
  -1.91911E+01 -1.85289E+01 -1.83559E+01 -1.90156E+01 -1.97638E+01 -1.97272E+01 -1.72656E+01 -1.86466E+01 -1.90276E+01 -2.00975E+01
  -1.67913E+01 -1.74399E+01 -1.72780E+01 -1.60424E+01 -1.76238E+01 -1.67901E+01 -1.61407E+01 -1.56748E+01 -1.51776E+01 -1.81900E+01
  -1.60949E+01 -1.51018E+01 -1.58301E+01 -1.63772E+01 -1.58964E+01 -1.36147E+01 -1.40441E+01 -1.57706E+01 -1.64575E+01 -1.52005E+01
  -1.34278E+01 -1.63053E+01 -1.62436E+01 -1.29828E+01 -1.55143E+01 -1.51857E+01 -1.53207E+01 -1.63098E+01 -1.80445E+01 -1.45165E+01
  -1.55483E+01 -1.75635E+01 -1.78787E+01 -1.82508E+01 -1.71962E+01 -1.53851E+01 -1.65099E+01 -1.49360E+01 -1.39694E+01 -1.30756E+01
  -1.61964E+01 -1.51220E+01 -1.46373E+01 -1.56416E+01 -1.61096E+01 -1.55490E+01 -1.47222E+01 -1.52529E+01 -1.62826E+01 -1.73153E+01
  -1.61553E+01 -1.50319E+01 -1.58978E+01 -1.45859E+01 -1.67331E+01 -1.77605E+01 -1.58519E+01 -1.65746E+01 -1.49445E+01 -1.44944E+01
  -1.64674E+01 -1.47123E+01 -1.53547E+01 -1.58227E+01 -1.65347E+01 -1.36312E+01 -1.51897E+01 -1.50216E+01 -1.60793E+01 -1.49785E+01
  -1.65869E+01 -1.37739E+01 -1.39674E+01 -1.20097E+01 -1.31547E+01 -1.38392E+01 -1.46016E+01 -1.55408E+01 -1.40983E+01 -1.27943E+01
  -1.23794E+01 -1.40355E+01 -1.34748E+01 -1.29967E+01 -1.37265E+01 -1.35255E+01 -1.38467E+01 -1.37490E+01 -1.39697E+01 -1.42934E+01
  -1.34461E+01 -1.35615E+01 -1.52905E+01 -1.39643E+01 -1.35202E+01 -1.37297E+01 -1.53448E+01 -1.55752E+01 -1.45253E+01 -1.38325E+01
  -1.58214E+01 -1.56037E+01 -1.49382E+01 -1.41309E+01 -1.68586E+01 -1.44331E+01 -1.60498E+01 -1.57732E+01 -1.57816E+01 -1.47396E+01
  -1.58863E+01 -1.53829E+01 -1.59677E+01 -1.51513E+01 -1.47484E+01 -1.61096E+01 -1.54895E+01 -1.56398E+01 -1.45215E+01 -1.54352E+01
  -1.40642E+01 -1.33394E+01 -1.46593E+01 -1.60405E+01 -1.62449E+01 -1.37294E+01 -1.43427E+01 -1.30547E+01 -1.65755E+01 -1.30575E+01
  -1.57720E+01 -1.61916E+01 -1.40147E+01 -1.37626E+01 -1.46881E+01 -1.33164E+01 -1.55724E+01 -1.36718E+01 -1.47300E+01 -1.50748E+01
  -1.43542E+01 -1.35950E+01 -1.41096E+01 -1.26837E+01 -1.41330E+01 -1.28067E+01 -1.31822E+01 -1.16622E+01 -1.37628E+01 -1.36690E+01
  -1.43263E+01 -1.38097E+01 -1.15848E+01 -1.26643E+01 -1.46159E+01 -1.26905E+01 -1.31607E+01 -1.38348E+01 -1.33408E+01 -1.33283E+01
  -1.30777E+01 -1.23088E+01 -1.30366E+01 -1.21970E+01 -1.13195E+01 -1.33657E+01 -1.25018E+01 -1.17161E+01 -1.11918E+01 -1.17438E+01
  -1.16992E+01 -1.08777E+01 -1.31489E+01 -1.31531E+01 -1.23925E+01 -1.49025E+01 -1.34548E+01 -1.36569E+01 -1.29123E+01 -1.36898E+01
  -1.50623E+01 -1.54008E+01 -1.48827E+01 -1.38659E+01 -1.44239E+01 -1.47844E+01 -1.63534E+01 -1.45220E+01 -1.51928E+01 -1.55154E+01
  -1.60479E+01 -1.56746E+01 -1.68224E+01 -1.51332E+01 -1.64093E+01 -1.63602E+01 -1.65521E+01 -1.67061E+01 -1.56609E+01 -1.65201E+01
  -1.70619E+01 -1.79724E+01 -1.70122E+01 -1.78466E+01 -1.78469E+01 -1.77084E+01 -1.93374E+01 -1.81510E+01 -2.00612E+01 -2.14815E+01
  -1.99179E+01 -1.83450E+01 -2.03204E+01 -2.15236E+01 -1.94713E+01 -2.06125E+01 -1.81848E+01 -2.09379E+01 -1.87289E+01 -1.88336E+01
  -1.91441E+01 -1.57462E+01 -1.57681E+01 -1.62103E+01 -1.47689E+01 -1.27040E+01 -1.23702E+01 -1.13096E+01 -1.10143E+01 -8.63220E+00
  -9.28924E+00 -9.68561E+00 -8.62318E+00 -7.39474E+00 -7.26121E+00 -5.99151E+00 -6.98343E+00 -6.87074E+00 -7.10451E+00 -7.11415E+00
  -5.49196E+00 -7.30915E+00 -4.52647E+00 -4.55673E+00 -4.50669E+00 -5.49779E+00 -4.07812E+00 -4.35427E+00 -5.04373E+00 -4.43185E+00
  -5.16724E+00 -3.81449E+00 -4.10867E+00 -4.35985E+00 -3.36041E+00 -4.20970E+00 -3.27608E+00 -4.15033E+00 -4.37635E+00 -1.02827E+00
  -3.83546E+00 -3.59152E+00 -3.01505E+00  2.85499E-01 -2.49265E+00 -3.65195E+00 -4.97137E+00 -2.14892E+00 -3.59687E+00 -3.41510E+00
  -3.31754E+00 -5.57362E+00 -4.20118E+00 -4.09647E+00 -4.37731E+00 -4.53088E+00 -3.94747E+00 -4.69192E+00 -4.55829E+00 -3.43855E+00
  -3.37930E+00 -2.43981E+00 -3.70466E+00 -2.43810E+00 -3.00646E+00 -4.12164E+00 -4.52653E+00 -2.27725E+00 -5.95503E+00 -4.07354E+00
  -5.65920E+00 -3.10228E+00 -3.30549E+00 -3.71321E+00 -3.16948E+00 -3.78658E+00 -3.93768E+00 -4.51246E+00 -4.07031E+00 -2.35686E+00
  -4.76850E-01 -4.23481E+00 -3.49361E+00 -4.73273E+00 -3.71411E+00 -2.06532E+00 -2.90350E+00 -5.02015E+00 -4.29325E+00 -1.49786E+00
  -3.34455E+00 -3.67921E+00 -4.02655E+00 -5.38367E+00 -4.06408E+00 -4.95064E+00 -3.53673E+00 -4.15228E+00 -3.84959E+00 -3.12984E+00
  -2.91541E+00 -3.65748E+00 -4.46765E+00 -4.79180E+00 -3.96624E+00 -4.02157E+00 -2.63707E+00 -4.94195E+00 -2.37317E+00 -4.59181E+00
  -4.12624E+00 -4.92601E+00 -4.25184E+00 -2.71709E+00 -4.47509E+00 -3.39788E+00 -3.92932E+00 -2.46096E+00 -2.18283E+00 -4.52323E+00
  -4.25577E+00 -4.44893E+00 -5.35990E+00 -2.19711E+00 -2.39840E+00 -5.15270E+00 -5.02158E+00 -3.28929E+00 -2.55245E+00 -3.43871E+00
  -3.17173E+00 -4.97871E+00 -1.84898E+00 -3.57637E+00 -2.43399E+00 -3.21083E+00 -5.33997E+00 -4.38161E+00 -1.53623E+00 -2.61776E+00
  -4.26398E+00 -1.40656E+00 -4.87194E+00 -3.67951E+00 -4.07597E+00 -3.62610E+00 -4.04340E+00 -3.60347E+00 -4.09547E+00 -2.84900E+00
  -3.61500E+00 -3.79852E+00 -4.16949E+00 -1.76916E+00 -3.16680E+00 -1.88080E+00 -2.82954E+00 -4.33479E+00 -5.57007E+00 -4.33632E+00
  -2.79445E+00 -4.36527E+00 -3.12809E+00 -3.40032E+00 -1.22927E+00 -1.64239E+00 -2.84579E+00 -3.98171E+00 -3.65527E+00 -1.74420E+00
  -1.38112E+00 -4.43326E+00 -3.09887E+00 -3.13194E+00 -5.12080E+00 -3.65862E+00 -3.28448E+00 -2.17859E+00 -3.85521E+00 -1.82736E+00
  -1.49747E+00 -2.14826E+00 -9.02954E-01 -3.92402E+00 -2.21972E+00 -4.84558E-01 -1.62030E+00 -3.70684E+00 -2.15263E+00 -2.85279E+00
  -2.51450E+00 -2.11931E+00 -2.90757E+00 -1.73782E+00 -1.98877E+00 -3.20099E+00 -2.37769E+00 -1.33405E+00 -3.29762E+00 -5.08538E+00
  -3.71523E+00 -3.26772E+00 -1.73546E+00 -2.07815E+00 -3.91693E+00 -1.92064E+00 -2.47832E+00 -2.83508E+00
 NY points of the fit to the data follow
  -2.49682E+01 -2.46877E+01 -2.43709E+01 -2.41177E+01 -2.38128E+01 -2.36126E+01 -2.33384E+01 -2.31656E+01 -2.29401E+01 -2.28122E+01
  -2.26812E+01 -2.26389E+01 -2.25932E+01 -2.26446E+01 -2.26616E+01 -2.27698E+01 -2.28101E+01 -2.28731E+01 -2.29089E+01 -2.29379E+01
  -2.29542E+01 -2.29499E+01 -2.29407E+01 -2.29219E+01 -2.28925E+01 -2.28633E+01 -2.28176E+01 -2.27884E+01 -2.27429E+01 -2.27595E+01
  -2.27517E+01 -2.28091E+01 -2.27669E+01 -2.28121E+01 -2.26799E+01 -2.26981E+01 -2.25009E+01 -2.24988E+01 -2.22772E+01 -2.22580E+01
  -2.20429E+01 -2.20006E+01 -2.18061E+01 -2.17174E+01 -2.15391E+01 -2.13763E+01 -2.12038E+01 -2.09601E+01 -2.08138E+01 -2.05788E+01
  -2.04755E+01 -2.02805E+01 -2.01714E+01 -1.99856E+01 -1.98753E+01 -1.96615E+01 -1.95030E+01 -1.92611E+01 -1.90802E+01 -1.88504E+01
  -1.86791E+01 -1.84807E+01 -1.83171E+01 -1.81777E+01 -1.80482E+01 -1.79726E+01 -1.78716E+01 -1.78511E+01 -1.77647E+01 -1.77619E+01
  -1.76505E+01 -1.75893E+01 -1.73691E+01 -1.72526E+01 -1.69975E+01 -1.68901E+01 -1.66413E+01 -1.65680E+01 -1.63403E+01 -1.63113E+01
  -1.60973E+01 -1.61036E+01 -1.59141E+01 -1.59562E+01 -1.57844E+01 -1.58345E+01 -1.56712E+01 -1.57378E+01 -1.56087E+01 -1.57027E+01
  -1.56233E+01 -1.57428E+01 -1.57106E+01 -1.58450E+01 -1.58501E+01 -1.59900E+01 -1.60032E+01 -1.61300E+01 -1.61439E+01 -1.62485E+01
  -1.62590E+01 -1.63327E+01 -1.63396E+01 -1.63733E+01 -1.63735E+01 -1.63639E+01 -1.63588E+01 -1.63204E+01 -1.63303E+01 -1.62680E+01
  -1.62700E+01 -1.62205E+01 -1.62275E+01 -1.62194E+01 -1.62276E+01 -1.62564E+01 -1.62437E+01 -1.63017E+01 -1.62486E+01 -1.63262E+01
  -1.62275E+01 -1.63146E+01 -1.61868E+01 -1.62821E+01 -1.61258E+01 -1.61941E+01 -1.59865E+01 -1.60447E+01 -1.58001E+01 -1.58534E+01
  -1.55740E+01 -1.56247E+01 -1.53225E+01 -1.53709E+01 -1.50563E+01 -1.51026E+01 -1.47912E+01 -1.48380E+01 -1.45499E+01 -1.46002E+01
  -1.43557E+01 -1.44121E+01 -1.42270E+01 -1.42913E+01 -1.41709E+01 -1.42412E+01 -1.41813E+01 -1.42505E+01 -1.42335E+01 -1.42811E+01
  -1.42507E+01 -1.42796E+01 -1.42474E+01 -1.42621E+01 -1.42301E+01 -1.42293E+01 -1.41931E+01 -1.41863E+01 -1.41607E+01 -1.41558E+01
  -1.41454E+01 -1.41440E+01 -1.41398E+01 -1.41378E+01 -1.41295E+01 -1.41255E+01 -1.41124E+01 -1.41082E+01 -1.40922E+01 -1.40894E+01
  -1.40732E+01 -1.40740E+01 -1.40573E+01 -1.40595E+01 -1.40349E+01 -1.40318E+01 -1.39996E+01 -1.39861E+01 -1.39517E+01 -1.39369E+01
  -1.39175E+01 -1.39101E+01 -1.39200E+01 -1.39197E+01 -1.39512E+01 -1.39444E+01 -1.39969E+01 -1.39651E+01 -1.40282E+01 -1.39555E+01
  -1.40211E+01 -1.38950E+01 -1.40113E+01 -1.38523E+01 -1.40279E+01 -1.38413E+01 -1.40777E+01 -1.38681E+01 -1.41517E+01 -1.38894E+01
  -1.42141E+01 -1.38911E+01 -1.42508E+01 -1.38678E+01 -1.42576E+01 -1.38477E+01 -1.42702E+01 -1.38423E+01 -1.42804E+01 -1.38330E+01
  -1.42719E+01 -1.38099E+01 -1.42311E+01 -1.37686E+01 -1.41701E+01 -1.37310E+01 -1.41136E+01 -1.37152E+01 -1.40981E+01 -1.37571E+01
  -1.41294E+01 -1.38326E+01 -1.41590E+01 -1.38704E+01 -1.41055E+01 -1.38236E+01 -1.39831E+01 -1.37166E+01 -1.38126E+01 -1.35864E+01
  -1.36585E+01 -1.35003E+01 -1.35992E+01 -1.35356E+01 -1.36174E+01 -1.36174E+01 -1.36670E+01 -1.36963E+01 -1.36951E+01 -1.37120E+01
  -1.36675E+01 -1.37040E+01 -1.36342E+01 -1.37179E+01 -1.36444E+01 -1.38104E+01 -1.37478E+01 -1.39656E+01 -1.38959E+01 -1.41495E+01
  -1.40698E+01 -1.43426E+01 -1.42627E+01 -1.45444E+01 -1.44885E+01 -1.47680E+01 -1.47405E+01 -1.50006E+01 -1.50223E+01 -1.52585E+01
  -1.52965E+01 -1.55018E+01 -1.55484E+01 -1.57257E+01 -1.57809E+01 -1.59720E+01 -1.60679E+01 -1.62771E+01 -1.64199E+01 -1.66502E+01
  -1.68439E+01 -1.70912E+01 -1.73343E+01 -1.75925E+01 -1.78739E+01 -1.81361E+01 -1.84316E+01 -1.86836E+01 -1.89655E+01 -1.91927E+01
  -1.94266E+01 -1.96068E+01 -1.97531E+01 -1.98345E+01 -1.98439E+01 -1.97764E+01 -1.96090E+01 -1.93499E+01 -1.89826E+01 -1.85162E+01
  -1.79425E+01 -1.72772E+01 -1.65209E+01 -1.56940E+01 -1.48061E+01 -1.38799E+01 -1.29295E+01 -1.19785E+01 -1.10447E+01 -1.01490E+01
  -9.30803E+00 -8.53776E+00 -7.85006E+00 -7.25525E+00 -6.75820E+00 -6.36273E+00 -6.06844E+00 -5.87320E+00 -5.73826E+00 -5.55988E+00
  -5.52349E+00 -5.31544E+00 -5.35482E+00 -5.09511E+00 -5.19748E+00 -4.89770E+00 -5.16752E+00 -4.80303E+00 -5.16791E+00 -4.68999E+00
  -5.09647E+00 -4.49934E+00 -4.93287E+00 -4.25352E+00 -4.72513E+00 -4.01036E+00 -4.51965E+00 -3.78438E+00 -4.30661E+00 -3.57247E+00
  -4.08065E+00 -3.39897E+00 -3.88024E+00 -3.30335E+00 -3.76687E+00 -3.34332E+00 -3.77298E+00 -3.51672E+00 -3.86855E+00 -3.77318E+00
  -4.01550E+00 -4.05117E+00 -4.15273E+00 -4.26451E+00 -4.21543E+00 -4.33744E+00 -4.14303E+00 -4.19485E+00 -3.87371E+00 -3.75256E+00
  -3.39955E+00 -3.29482E+00 -3.02781E+00 -2.98830E+00 -2.87511E+00 -2.92440E+00 -3.00689E+00 -3.08572E+00 -3.15807E+00 -3.22299E+00
  -3.28158E+00 -3.33361E+00 -3.38033E+00 -3.42155E+00 -3.45851E+00 -3.49101E+00 -3.52026E+00 -3.54602E+00 -3.56948E+00 -3.59034E+00
  -3.60970E+00 -3.62722E+00 -3.64390E+00 -3.65932E+00 -3.67441E+00 -3.68865E+00 -3.70288E+00 -3.71651E+00 -3.73028E+00 -3.74356E+00
  -3.75701E+00 -3.76994E+00 -3.78298E+00 -3.79538E+00 -3.80772E+00 -3.81922E+00 -3.83042E+00 -3.84051E+00 -3.85000E+00 -3.85803E+00
  -3.86510E+00 -3.87034E+00 -3.87421E+00 -3.87587E+00 -3.87579E+00 -3.87317E+00 -3.86854E+00 -3.86116E+00 -3.85167E+00 -3.83945E+00
  -3.82525E+00 -3.80857E+00 -3.79029E+00 -3.77005E+00 -3.74881E+00 -3.72628E+00 -3.70347E+00 -3.68013E+00 -3.65726E+00 -3.63454E+00
  -3.61289E+00 -3.59193E+00 -3.57245E+00 -3.55396E+00 -3.53713E+00 -3.52134E+00 -3.50716E+00 -3.49389E+00 -3.48203E+00 -3.47082E+00
  -3.46073E+00 -3.45099E+00 -3.44205E+00 -3.43317E+00 -3.42482E+00 -3.41629E+00 -3.40809E+00 -3.39952E+00 -3.39113E+00 -3.38228E+00
  -3.37351E+00 -3.36421E+00 -3.35496E+00 -3.34516E+00 -3.33539E+00 -3.32507E+00 -3.31479E+00 -3.30397E+00 -3.29321E+00 -3.28192E+00
  -3.27071E+00 -3.25901E+00 -3.24740E+00 -3.23531E+00 -3.22334E+00 -3.21091E+00 -3.19862E+00 -3.18589E+00 -3.17331E+00 -3.16032E+00
  -3.14749E+00 -3.13426E+00 -3.12120E+00 -3.10777E+00 -3.09453E+00 -3.08092E+00 -3.06750E+00 -3.05374E+00 -3.04019E+00 -3.02630E+00
  -3.01264E+00 -2.99865E+00 -2.98489E+00 -2.97082E+00 -2.95700E+00 -2.94288E+00 -2.92901E+00 -2.91486E+00 -2.90097E+00 -2.88682E+00
  -2.87294E+00 -2.85881E+00 -2.84496E+00 -2.83088E+00 -2.81709E+00 -2.80309E+00 -2.78941E+00 -2.77552E+00 -2.76197E+00 -2.74824E+00
  -2.73487E+00 -2.72134E+00 -2.70819E+00 -2.69492E+00 -2.68206E+00 -2.66912E+00 -2.65662E+00 -2.64409E+00 -2.63204E+00 -2.62002E+00
  -2.60856E+00 -2.59719E+00 -2.58647E+00 -2.57596E+00 -2.56622E+00 -2.55683E+00 -2.54841E+00 -2.54058E+00
 NY background values follow
    -2.122E+01   -2.117E+01   -2.113E+01   -2.108E+01   -2.103E+01   -2.098E+01   -2.094E+01   -2.089E+01   -2.084E+01   -2.079E+01
    -2.075E+01   -2.070E+01   -2.065E+01   -2.061E+01   -2.056E+01   -2.051E+01   -2.046E+01   -2.042E+01   -2.037E+01   -2.032E+01
    -2.028E+01   -2.023E+01   -2.018E+01   -2.014E+01   -2.009E+01   -2.004E+01   -2.000E+01   -1.995E+01   -1.990E+01   -1.986E+01
    -1.981E+01   -1.976E+01   -1.972E+01   -1.967E+01   -1.962E+01   -1.958E+01   -1.953E+01   -1.949E+01   -1.944E+01   -1.939E+01
    -1.935E+01   -1.930E+01   -1.926E+01   -1.921E+01   -1.916E+01   -1.912E+01   -1.907E+01   -1.903E+01   -1.898E+01   -1.894E+01
    -1.889E+01   -1.884E+01   -1.880E+01   -1.875E+01   -1.871E+01   -1.866E+01   -1.862E+01   -1.857E+01   -1.853E+01   -1.848E+01
    -1.844E+01   -1.839E+01   -1.835E+01   -1.830E+01   -1.826E+01   -1.821E+01   -1.817E+01   -1.812E+01   -1.808E+01   -1.803E+01
    -1.799E+01   -1.794E+01   -1.790E+01   -1.785E+01   -1.781E+01   -1.777E+01   -1.772E+01   -1.768E+01   -1.763E+01   -1.759E+01
    -1.754E+01   -1.750E+01   -1.746E+01   -1.741E+01   -1.737E+01   -1.732E+01   -1.728E+01   -1.724E+01   -1.719E+01   -1.715E+01
    -1.711E+01   -1.706E+01   -1.702E+01   -1.697E+01   -1.693E+01   -1.689E+01   -1.684E+01   -1.680E+01   -1.676E+01   -1.671E+01
    -1.667E+01   -1.663E+01   -1.658E+01   -1.654E+01   -1.650E+01   -1.645E+01   -1.641E+01   -1.637E+01   -1.633E+01   -1.628E+01
    -1.624E+01   -1.620E+01   -1.615E+01   -1.611E+01   -1.607E+01   -1.603E+01   -1.598E+01   -1.594E+01   -1.590E+01   -1.586E+01
    -1.582E+01   -1.577E+01   -1.573E+01   -1.569E+01   -1.565E+01   -1.560E+01   -1.556E+01   -1.552E+01   -1.548E+01   -1.544E+01
    -1.539E+01   -1.535E+01   -1.531E+01   -1.527E+01   -1.523E+01   -1.519E+01   -1.514E+01   -1.510E+01   -1.506E+01   -1.502E+01
    -1.498E+01   -1.494E+01   -1.490E+01   -1.485E+01   -1.481E+01   -1.477E+01   -1.473E+01   -1.469E+01   -1.465E+01   -1.461E+01
    -1.457E+01   -1.453E+01   -1.449E+01   -1.445E+01   -1.440E+01   -1.436E+01   -1.432E+01   -1.428E+01   -1.424E+01   -1.420E+01
    -1.416E+01   -1.412E+01   -1.408E+01   -1.404E+01   -1.400E+01   -1.396E+01   -1.392E+01   -1.388E+01   -1.384E+01   -1.380E+01
    -1.376E+01   -1.372E+01   -1.368E+01   -1.364E+01   -1.360E+01   -1.356E+01   -1.352E+01   -1.348E+01   -1.344E+01   -1.340E+01
    -1.336E+01   -1.332E+01   -1.328E+01   -1.325E+01   -1.321E+01   -1.317E+01   -1.313E+01   -1.309E+01   -1.305E+01   -1.301E+01
    -1.297E+01   -1.293E+01   -1.289E+01   -1.285E+01   -1.282E+01   -1.278E+01   -1.274E+01   -1.270E+01   -1.266E+01   -1.262E+01
    -1.258E+01   -1.255E+01   -1.251E+01   -1.247E+01   -1.243E+01   -1.239E+01   -1.235E+01   -1.232E+01   -1.228E+01   -1.224E+01
    -1.220E+01   -1.216E+01   -1.213E+01   -1.209E+01   -1.205E+01   -1.201E+01   -1.198E+01   -1.194E+01   -1.190E+01   -1.186E+01
    -1.183E+01   -1.179E+01   -1.175E+01   -1.171E+01   -1.168E+01   -1.164E+01   -1.160E+01   -1.156E+01   -1.153E+01   -1.149E+01
    -1.145E+01   -1.142E+01   -1.138E+01   -1.134E+01   -1.131E+01   -1.127E+01   -1.123E+01   -1.120E+01   -1.116E+01   -1.112E+01
    -1.109E+01   -1.105E+01   -1.101E+01   -1.098E+01   -1.094E+01   -1.090E+01   -1.087E+01   -1.083E+01   -1.080E+01   -1.076E+01
    -1.072E+01   -1.069E+01   -1.065E+01   -1.062E+01   -1.058E+01   -1.054E+01   -1.051E+01   -1.047E+01   -1.044E+01   -1.040E+01
    -1.037E+01   -1.033E+01   -1.030E+01   -1.026E+01   -1.022E+01   -1.019E+01   -1.015E+01   -1.012E+01   -1.008E+01   -1.005E+01
    -1.001E+01   -9.979E+00   -9.944E+00   -9.909E+00   -9.875E+00   -9.840E+00   -9.805E+00   -9.770E+00   -9.736E+00   -9.701E+00
    -9.667E+00   -9.632E+00   -9.598E+00   -9.564E+00   -9.529E+00   -9.495E+00   -9.461E+00   -9.427E+00   -9.393E+00   -9.359E+00
    -9.325E+00   -9.291E+00   -9.257E+00   -9.223E+00   -9.189E+00   -9.156E+00   -9.122E+00   -9.088E+00   -9.055E+00   -9.021E+00
    -8.988E+00   -8.954E+00   -8.921E+00   -8.888E+00   -8.854E+00   -8.821E+00   -8.788E+00   -8.755E+00   -8.722E+00   -8.689E+00
    -8.656E+00   -8.623E+00   -8.590E+00   -8.557E+00   -8.524E+00   -8.492E+00   -8.459E+00   -8.426E+00   -8.394E+00   -8.361E+00
    -8.329E+00   -8.297E+00   -8.264E+00   -8.232E+00   -8.200E+00   -8.168E+00   -8.135E+00   -8.103E+00   -8.071E+00   -8.039E+00
    -8.007E+00   -7.975E+00   -7.944E+00   -7.912E+00   -7.880E+00   -7.848E+00   -7.817E+00   -7.785E+00   -7.754E+00   -7.722E+00
    -7.691E+00   -7.659E+00   -7.628E+00   -7.597E+00   -7.566E+00   -7.535E+00   -7.503E+00   -7.472E+00   -7.441E+00   -7.410E+00
    -7.379E+00   -7.349E+00   -7.318E+00   -7.287E+00   -7.256E+00   -7.226E+00   -7.195E+00   -7.165E+00   -7.134E+00   -7.104E+00
    -7.073E+00   -7.043E+00   -7.013E+00   -6.982E+00   -6.952E+00   -6.922E+00   -6.892E+00   -6.862E+00   -6.832E+00   -6.802E+00
    -6.772E+00   -6.743E+00   -6.713E+00   -6.683E+00   -6.653E+00   -6.624E+00   -6.594E+00   -6.565E+00   -6.535E+00   -6.506E+00
    -6.477E+00   -6.447E+00   -6.418E+00   -6.389E+00   -6.360E+00   -6.331E+00   -6.302E+00   -6.273E+00   -6.244E+00   -6.215E+00
    -6.186E+00   -6.157E+00   -6.129E+00   -6.100E+00   -6.071E+00   -6.043E+00   -6.014E+00   -5.986E+00   -5.958E+00   -5.929E+00
    -5.901E+00   -5.873E+00   -5.845E+00   -5.816E+00   -5.788E+00   -5.760E+00   -5.732E+00   -5.704E+00   -5.677E+00   -5.649E+00
    -5.621E+00   -5.593E+00   -5.566E+00   -5.538E+00   -5.510E+00   -5.483E+00   -5.456E+00   -5.428E+00   -5.401E+00   -5.374E+00
    -5.346E+00   -5.319E+00   -5.292E+00   -5.265E+00   -5.238E+00   -5.211E+00   -5.184E+00   -5.157E+00   -5.130E+00   -5.104E+00
    -5.077E+00   -5.050E+00   -5.024E+00   -4.997E+00   -4.971E+00   -4.944E+00   -4.918E+00   -4.891E+00   -4.865E+00   -4.839E+00
    -4.813E+00   -4.787E+00   -4.761E+00   -4.735E+00   -4.709E+00   -4.683E+00   -4.657E+00   -4.631E+00   -4.605E+00   -4.580E+00
    -4.554E+00   -4.528E+00   -4.503E+00   -4.477E+00   -4.452E+00   -4.427E+00   -4.401E+00   -4.376E+00   -4.351E+00   -4.326E+00
    -4.301E+00   -4.276E+00   -4.251E+00   -4.226E+00   -4.201E+00   -4.176E+00   -4.151E+00   -4.126E+00   -4.102E+00   -4.077E+00
    -4.053E+00   -4.028E+00   -4.004E+00   -3.979E+00   -3.955E+00   -3.931E+00   -3.906E+00   -3.882E+00   -3.858E+00   -3.834E+00
    -3.810E+00   -3.786E+00   -3.762E+00   -3.738E+00   -3.714E+00   -3.691E+00   -3.667E+00   -3.643E+00   -3.620E+00   -3.596E+00
    -3.573E+00   -3.549E+00   -3.526E+00   -3.502E+00   -3.479E+00   -3.456E+00   -3.433E+00   -3.410E+00
 Ala      Conc. = 8.47E+02
