 LCModel (Version 6.3-1L) Copyright: S.W. Provencher.          Ref.: Magn. Reson. Med. 30:672-679 (1993).                
 Slice#3 Row#6 Col#2  K_02_press_1_raw_act
 36 lines in following concentration table = NCONC+1
    Conc.  %SD /Cr+PCr  Metabolite                                         
    0.000 999%   0.000 Ala                                                 
   79.866  74%   0.176 Asp                                                 
  395.726  59%   0.874 Cr                                                  
   57.251 412%   0.126 PCr                                                 
   20.115 180% 4.4E-02 GABA                                                
   27.537 132% 6.1E-02 Glc                                                 
    0.000 999%   0.000 Gln                                                 
  762.073  44%   1.682 Glu                                                 
  148.142  14%   0.327 GPC                                                 
    0.000 999%   0.000 PCh                                                 
  159.310  48%   0.352 GSH                                                 
  289.375  95%   0.639 Ins                                                 
  342.200  50%   0.755 Lac                                                 
  559.498   9%   1.235 NAA                                                 
    0.000 999%   0.000 NAAG                                                
   26.375  44% 5.8E-02 Scyllo                                              
   48.697 123%   0.108 Tau                                                 
    5.762 999% 1.3E-02 -CrCH2                                              
  148.142  14%   0.327 GPC+PCh                                             
  559.498   9%   1.235 NAA+NAAG                                            
  452.977  12%   1.000 Cr+PCr                                              
  762.073  44%   1.682 Glu+Gln                                             
    0.000 999%   0.000 Lip13a                                              
  298.649  21%   0.659 Lip13b                                              
    0.000 999%   0.000 Lip09                                               
   12.304 337% 2.7E-02 MM09                                                
    0.000 999%   0.000 Lip20                                               
    0.000 999%   0.000 MM20                                                
    3.423 637% 7.6E-03 MM12                                                
   71.744 111%   0.158 MM14                                                
   16.970 312% 3.7E-02 MM17                                                
  298.649  21%   0.659 Lip13a+Lip13b                                       
  373.816  28%   0.825 MM14+Lip13a+Lip13b+MM12                             
   12.304 337% 2.7E-02 MM09+Lip09                                          
    0.000 999%   0.000 MM20+Lip20                                          
   6 lines in following misc. output table
  FWHM = 0.122 ppm    S/N =   2                                            
  Data shift =-0.046 ppm                                                   
  Ph: -36 deg     -12.4 deg/ppm                                            
  alphaB,S = 2.6E-01,   7.7E+01                                            
   14 spline knots.   Ns = 8(2)                                            
  (10) 6 infls.   (11) 1 extrs.                                            
  498 points on ppm-axis = NY
      4.000000     3.992357     3.984714     3.977070     3.969427     3.961784     3.954141     3.946497     3.938854     3.931211
      3.923568     3.915925     3.908281     3.900638     3.892995     3.885352     3.877708     3.870065     3.862422     3.854779
      3.847136     3.839492     3.831849     3.824206     3.816563     3.808919     3.801276     3.793633     3.785990     3.778347
      3.770703     3.763060     3.755417     3.747774     3.740130     3.732487     3.724844     3.717201     3.709558     3.701914
      3.694271     3.686628     3.678985     3.671341     3.663698     3.656055     3.648412     3.640769     3.633125     3.625482
      3.617839     3.610196     3.602552     3.594909     3.587266     3.579623     3.571980     3.564336     3.556693     3.549050
      3.541407     3.533763     3.526120     3.518477     3.510834     3.503191     3.495547     3.487904     3.480261     3.472618
      3.464974     3.457331     3.449688     3.442045     3.434402     3.426758     3.419115     3.411472     3.403829     3.396185
      3.388542     3.380899     3.373256     3.365613     3.357969     3.350326     3.342683     3.335040     3.327396     3.319753
      3.312110     3.304467     3.296824     3.289180     3.281537     3.273894     3.266251     3.258607     3.250964     3.243321
      3.235678     3.228034     3.220391     3.212748     3.205105     3.197462     3.189818     3.182175     3.174532     3.166889
      3.159245     3.151602     3.143959     3.136316     3.128673     3.121029     3.113386     3.105743     3.098100     3.090456
      3.082813     3.075170     3.067527     3.059884     3.052240     3.044597     3.036954     3.029311     3.021667     3.014024
      3.006381     2.998738     2.991095     2.983451     2.975808     2.968165     2.960522     2.952878     2.945235     2.937592
      2.929949     2.922306     2.914662     2.907019     2.899376     2.891733     2.884089     2.876446     2.868803     2.861160
      2.853517     2.845873     2.838230     2.830587     2.822944     2.815300     2.807657     2.800014     2.792371     2.784728
      2.777084     2.769441     2.761798     2.754155     2.746511     2.738868     2.731225     2.723582     2.715939     2.708295
      2.700652     2.693009     2.685366     2.677722     2.670079     2.662436     2.654793     2.647150     2.639506     2.631863
      2.624220     2.616577     2.608933     2.601290     2.593647     2.586004     2.578361     2.570717     2.563074     2.555431
      2.547788     2.540144     2.532501     2.524858     2.517215     2.509572     2.501928     2.494285     2.486642     2.478999
      2.471355     2.463712     2.456069     2.448426     2.440783     2.433139     2.425496     2.417853     2.410210     2.402566
      2.394923     2.387280     2.379637     2.371994     2.364350     2.356707     2.349064     2.341421     2.333777     2.326134
      2.318491     2.310848     2.303205     2.295561     2.287918     2.280275     2.272632     2.264988     2.257345     2.249702
      2.242059     2.234416     2.226772     2.219129     2.211486     2.203843     2.196199     2.188556     2.180913     2.173270
      2.165627     2.157983     2.150340     2.142697     2.135054     2.127410     2.119767     2.112124     2.104481     2.096838
      2.089194     2.081551     2.073908     2.066265     2.058621     2.050978     2.043335     2.035692     2.028049     2.020405
      2.012762     2.005119     1.997476     1.989833     1.982190     1.974546     1.966903     1.959260     1.951617     1.943974
      1.936331     1.928688     1.921045     1.913402     1.905759     1.898115     1.890472     1.882829     1.875186     1.867543
      1.859900     1.852257     1.844614     1.836971     1.829327     1.821684     1.814041     1.806398     1.798755     1.791112
      1.783469     1.775826     1.768183     1.760540     1.752896     1.745253     1.737610     1.729967     1.722324     1.714681
      1.707038     1.699395     1.691752     1.684108     1.676465     1.668822     1.661179     1.653536     1.645893     1.638250
      1.630607     1.622964     1.615321     1.607677     1.600034     1.592391     1.584748     1.577105     1.569462     1.561819
      1.554176     1.546533     1.538890     1.531246     1.523603     1.515960     1.508317     1.500674     1.493031     1.485388
      1.477745     1.470102     1.462458     1.454815     1.447172     1.439529     1.431886     1.424243     1.416600     1.408957
      1.401314     1.393671     1.386027     1.378384     1.370741     1.363098     1.355455     1.347812     1.340169     1.332526
      1.324883     1.317240     1.309596     1.301953     1.294310     1.286667     1.279024     1.271381     1.263738     1.256095
      1.248452     1.240808     1.233165     1.225522     1.217879     1.210236     1.202593     1.194950     1.187307     1.179664
      1.172021     1.164377     1.156734     1.149091     1.141448     1.133805     1.126162     1.118519     1.110876     1.103233
      1.095590     1.087946     1.080303     1.072660     1.065017     1.057374     1.049731     1.042088     1.034445     1.026802
      1.019158     1.011515     1.003872     0.996229     0.988586     0.980943     0.973300     0.965657     0.958014     0.950371
      0.942727     0.935084     0.927441     0.919798     0.912155     0.904512     0.896869     0.889226     0.881583     0.873940
      0.866296     0.858653     0.851010     0.843367     0.835724     0.828081     0.820438     0.812795     0.805152     0.797508
      0.789865     0.782222     0.774579     0.766936     0.759293     0.751650     0.744007     0.736364     0.728721     0.721077
      0.713434     0.705791     0.698148     0.690505     0.682862     0.675219     0.667576     0.659933     0.652290     0.644646
      0.637003     0.629360     0.621717     0.614074     0.606431     0.598788     0.591145     0.583502     0.575858     0.568215
      0.560572     0.552929     0.545286     0.537643     0.530000     0.522357     0.514714     0.507071     0.499427     0.491784
      0.484141     0.476498     0.468855     0.461212     0.453569     0.445925     0.438282     0.430639     0.422996     0.415353
      0.407710     0.400067     0.392424     0.384780     0.377137     0.369494     0.361851     0.354208     0.346565     0.338922
      0.331278     0.323635     0.315992     0.308349     0.300706     0.293063     0.285420     0.277777     0.270133     0.262490
      0.254847     0.247204     0.239561     0.231918     0.224275     0.216631     0.208988     0.201345
 NY phased data points follow
  -5.27206E+01 -4.90950E+01 -5.12901E+01 -4.81296E+01 -4.63609E+01 -4.55137E+01 -4.50255E+01 -4.47463E+01 -4.01583E+01 -3.80347E+01
  -3.94887E+01 -3.94284E+01 -3.92228E+01 -3.88755E+01 -3.82554E+01 -3.73865E+01 -3.77830E+01 -3.76394E+01 -3.97772E+01 -4.02383E+01
  -3.76892E+01 -3.97563E+01 -3.93412E+01 -3.66008E+01 -3.26479E+01 -3.66363E+01 -3.76570E+01 -3.64044E+01 -3.59067E+01 -3.86950E+01
  -3.57000E+01 -3.35248E+01 -3.28186E+01 -3.45322E+01 -3.40249E+01 -3.20296E+01 -3.24167E+01 -2.64467E+01 -2.90496E+01 -2.96464E+01
  -3.01652E+01 -2.88541E+01 -2.76189E+01 -2.90278E+01 -2.53679E+01 -3.06300E+01 -2.58851E+01 -2.78766E+01 -2.43989E+01 -2.38852E+01
  -2.50621E+01 -2.47985E+01 -2.60834E+01 -2.39547E+01 -2.50266E+01 -2.70271E+01 -2.24942E+01 -2.36512E+01 -2.49788E+01 -2.68595E+01
  -2.37423E+01 -2.22756E+01 -2.61601E+01 -1.93835E+01 -2.29474E+01 -2.06608E+01 -2.16353E+01 -1.99800E+01 -2.13215E+01 -2.36297E+01
  -2.30590E+01 -1.70240E+01 -2.01701E+01 -1.96118E+01 -1.76888E+01 -1.66858E+01 -1.62017E+01 -1.71745E+01 -1.84755E+01 -1.71222E+01
  -1.82408E+01 -1.53779E+01 -1.54171E+01 -1.40286E+01 -1.42484E+01 -1.24797E+01 -1.03700E+01 -1.03151E+01 -1.06162E+01 -1.41285E+01
  -1.05287E+01 -1.09548E+01 -8.16479E+00 -8.39285E+00 -8.77702E+00 -7.17194E+00 -4.90941E+00 -6.72505E+00 -4.55194E+00 -6.44119E+00
  -3.90230E+00 -2.45073E+00 -3.14839E+00 -4.47432E+00 -5.68720E+00 -1.87466E+00 -1.06504E+00  6.19924E-01  2.42304E+00  8.91933E-04
  -1.24752E+00 -4.19291E+00 -3.03357E+00 -6.30056E+00 -4.35056E+00 -4.09561E+00 -4.23597E+00  1.09272E+00 -1.26537E+00  8.20175E-01
  -2.78719E+00  3.07347E+00  2.27452E+00  1.10750E+00  3.06061E+00  6.18926E+00  4.39333E+00  5.22215E+00  4.80227E+00  8.03492E+00
   6.32677E+00  8.40399E+00  1.32903E+01  8.66413E+00  7.56003E+00  3.00838E+00  4.28856E+00 -1.90826E-01  8.59404E-01  3.29114E+00
   2.81440E+00  3.44757E+00  3.08771E+00  4.87637E+00  6.87657E+00  5.57319E+00  5.08564E+00  1.72651E+00  7.23901E+00  4.39685E+00
   7.38818E+00  8.27876E+00  8.90507E+00  6.96627E+00  9.36304E+00  8.95078E+00  7.31888E+00  1.01336E+01  9.39843E+00  1.19837E+01
   1.11146E+01  1.28506E+01  1.20854E+01  9.11441E+00  1.36167E+01  1.27661E+01  1.29657E+01  1.21060E+01  1.17856E+01  1.29383E+01
   1.22755E+01  1.49811E+01  1.38402E+01  1.30208E+01  1.46246E+01  1.33101E+01  1.21721E+01  1.67362E+01  1.49032E+01  1.53329E+01
   1.50975E+01  1.46742E+01  1.89985E+01  1.69598E+01  1.62273E+01  1.75978E+01  1.78111E+01  2.03324E+01  1.88360E+01  1.74519E+01
   2.06542E+01  2.16597E+01  2.21517E+01  2.17273E+01  2.29321E+01  2.23644E+01  2.28148E+01  2.04310E+01  2.19044E+01  1.97412E+01
   2.11316E+01  2.14534E+01  1.98427E+01  2.08941E+01  2.05886E+01  2.02586E+01  2.07327E+01  2.09706E+01  1.89446E+01  1.92987E+01
   1.45690E+01  1.90709E+01  1.87977E+01  1.50885E+01  1.80661E+01  1.29474E+01  1.35924E+01  1.26345E+01  1.20041E+01  1.30785E+01
   1.09518E+01  1.34743E+01  1.40563E+01  9.36979E+00  6.83928E+00  8.83339E+00  6.29796E+00  9.17322E+00  3.32768E+00  8.62310E+00
   4.33407E+00  7.54799E+00  5.35518E+00  6.43656E+00  1.74299E+00  3.34832E+00  2.09562E+00 -2.02532E+00  2.34019E-01 -4.31706E-01
  -1.31866E+00 -3.45291E+00 -3.81255E-01 -3.70738E+00 -4.46593E+00 -6.79904E+00 -6.64619E+00 -2.29225E+00 -4.13654E+00 -1.42607E-01
  -2.83564E+00 -3.92423E+00 -2.92905E+00 -3.39567E+00 -1.42998E+00 -2.98505E+00 -2.86148E+00 -4.25147E+00 -5.06083E+00 -1.13452E+00
  -7.66569E-01 -3.73158E+00 -3.18023E+00 -4.84806E+00 -1.31962E+00 -3.77751E+00 -6.48606E+00 -6.35595E+00 -1.47356E+01 -1.69216E+01
  -2.12435E+01 -1.89981E+01 -1.89646E+01 -1.99101E+01 -1.94164E+01 -1.79237E+01 -2.15660E+01 -2.07033E+01 -2.11456E+01 -2.16578E+01
  -2.24609E+01 -2.20041E+01 -2.37254E+01 -2.22208E+01 -2.12704E+01 -2.43406E+01 -2.22737E+01 -2.37533E+01 -2.16347E+01 -2.43225E+01
  -2.11522E+01 -1.97196E+01 -2.36712E+01 -2.42517E+01 -2.13219E+01 -2.23579E+01 -2.34528E+01 -2.04612E+01 -2.14927E+01 -2.02202E+01
  -2.41877E+01 -2.26481E+01 -1.99927E+01 -2.33806E+01 -2.38318E+01 -1.99761E+01 -2.07597E+01 -2.15803E+01 -2.14254E+01 -2.19606E+01
  -2.46107E+01 -2.18059E+01 -2.12909E+01 -2.41898E+01 -2.13259E+01 -2.20184E+01 -2.33290E+01 -2.10000E+01 -2.09870E+01 -2.14824E+01
  -2.34229E+01 -1.94970E+01 -1.92532E+01 -1.98349E+01 -2.26185E+01 -2.22644E+01 -2.24892E+01 -2.18116E+01 -2.05864E+01 -1.96601E+01
  -2.09494E+01 -2.08136E+01 -2.23380E+01 -2.14332E+01 -1.80179E+01 -2.00198E+01 -1.38457E+01 -1.73842E+01 -1.74342E+01 -1.85016E+01
  -1.74150E+01 -1.83451E+01 -2.03099E+01 -1.95613E+01 -1.90055E+01 -2.01871E+01 -1.82550E+01 -1.88497E+01 -1.93977E+01 -1.60571E+01
  -1.68688E+01 -1.28298E+01 -1.48811E+01 -1.28700E+01 -1.18818E+01 -1.54015E+01 -1.39644E+01 -2.05149E+01 -1.86444E+01 -1.89114E+01
  -2.03162E+01 -1.69637E+01 -1.80209E+01 -1.65387E+01 -1.66295E+01 -1.75467E+01 -1.83945E+01 -1.79300E+01 -1.57294E+01 -1.56512E+01
  -1.93396E+01 -1.71820E+01 -1.92056E+01 -1.74611E+01 -2.05065E+01 -1.58992E+01 -1.52722E+01 -1.65729E+01 -1.74517E+01 -1.41118E+01
  -1.80704E+01 -1.49651E+01 -1.52678E+01 -1.54391E+01 -1.58249E+01 -1.70098E+01 -1.47719E+01 -1.85905E+01 -1.63218E+01 -1.77323E+01
  -1.69571E+01 -1.60290E+01 -1.68956E+01 -1.86347E+01 -1.59078E+01 -1.69408E+01 -1.61884E+01 -1.56968E+01 -1.42021E+01 -1.08348E+01
  -1.46185E+01 -1.62316E+01 -1.38702E+01 -1.47541E+01 -1.45726E+01 -1.44400E+01 -1.58077E+01 -1.50198E+01 -1.66495E+01 -1.45581E+01
  -1.52375E+01 -1.45384E+01 -1.41558E+01 -1.28213E+01 -1.18113E+01 -1.58513E+01 -1.21603E+01 -1.39093E+01 -1.38024E+01 -1.56938E+01
  -1.41065E+01 -1.23249E+01 -1.38862E+01 -1.33248E+01 -1.29144E+01 -1.68690E+01 -1.57560E+01 -1.48825E+01 -1.36884E+01 -1.50388E+01
  -1.12734E+01 -1.29034E+01 -9.62012E+00 -1.34011E+01 -9.32225E+00 -1.07154E+01 -1.04673E+01 -1.11781E+01 -1.15539E+01 -8.35587E+00
  -1.14063E+01 -9.43274E+00 -9.80762E+00 -1.07871E+01 -1.10795E+01 -9.92746E+00 -1.11266E+01 -1.06976E+01 -1.00485E+01 -1.08774E+01
  -9.96881E+00 -9.71533E+00 -9.33503E+00 -1.36116E+01 -1.02976E+01 -1.41236E+01 -1.19548E+01 -1.29614E+01 -1.05716E+01 -9.77862E+00
  -9.54856E+00 -1.00062E+01 -1.16634E+01 -1.18262E+01 -1.02818E+01 -1.09517E+01 -9.35407E+00 -8.60341E+00 -8.11607E+00 -9.39679E+00
  -1.17629E+01 -1.01613E+01 -1.06464E+01 -8.45689E+00 -8.54805E+00 -1.02831E+01 -6.72115E+00 -1.03037E+01 -1.15487E+01 -8.17385E+00
  -8.64761E+00 -8.34132E+00 -9.09082E+00 -1.13181E+01 -1.16686E+01 -7.74846E+00 -7.70306E+00 -6.10497E+00 -8.97121E+00 -8.71237E+00
  -6.58701E+00 -1.02507E+01 -7.17695E+00 -7.31462E+00 -1.09915E+01 -9.18237E+00 -9.70901E+00 -1.10009E+01
 NY points of the fit to the data follow
  -4.92919E+01 -4.83795E+01 -4.77191E+01 -4.68617E+01 -4.61562E+01 -4.52513E+01 -4.45043E+01 -4.35612E+01 -4.28189E+01 -4.18319E+01
  -4.11389E+01 -4.02090E+01 -3.96018E+01 -3.87614E+01 -3.83463E+01 -3.78664E+01 -3.76977E+01 -3.79197E+01 -3.79177E+01 -3.85511E+01
  -3.85004E+01 -3.88196E+01 -3.85477E+01 -3.82415E+01 -3.77967E+01 -3.71779E+01 -3.66811E+01 -3.60030E+01 -3.54300E+01 -3.47771E+01
  -3.42183E+01 -3.37218E+01 -3.31153E+01 -3.26371E+01 -3.19452E+01 -3.15248E+01 -3.09580E+01 -3.07146E+01 -3.04304E+01 -3.03582E+01
  -3.02170E+01 -3.01625E+01 -2.98258E+01 -2.96699E+01 -2.90387E+01 -2.87140E+01 -2.79895E+01 -2.75475E+01 -2.69122E+01 -2.64461E+01
  -2.60232E+01 -2.56239E+01 -2.53589E+01 -2.50971E+01 -2.49574E+01 -2.47673E+01 -2.46334E+01 -2.43734E+01 -2.41214E+01 -2.37249E+01
  -2.33750E+01 -2.28994E+01 -2.25088E+01 -2.20297E+01 -2.16504E+01 -2.12143E+01 -2.08885E+01 -2.05372E+01 -2.02424E+01 -1.99004E+01
  -1.95943E+01 -1.91864E+01 -1.88066E+01 -1.83529E+01 -1.79095E+01 -1.75099E+01 -1.70591E+01 -1.67454E+01 -1.63052E+01 -1.60569E+01
  -1.56388E+01 -1.54223E+01 -1.50235E+01 -1.48076E+01 -1.43865E+01 -1.41587E+01 -1.37444E+01 -1.36023E+01 -1.31108E+01 -1.26139E+01
  -1.19452E+01 -1.10272E+01 -1.03048E+01 -9.31041E+00 -8.62910E+00 -7.70158E+00 -7.01294E+00 -6.15453E+00 -5.44192E+00 -4.73539E+00
  -4.03899E+00 -3.36908E+00 -2.71141E+00 -2.13982E+00 -1.51835E+00 -9.68811E-01 -4.69528E-01 -3.46361E-01 -2.06061E-01 -1.15008E+00
  -1.52220E+00 -3.34339E+00 -3.72997E+00 -4.73476E+00 -4.62519E+00 -4.02851E+00 -3.54343E+00 -2.13937E+00 -1.62044E+00 -7.59018E-03
   4.20054E-01  2.08345E+00  2.32626E+00  3.72017E+00  3.79167E+00  5.20541E+00  5.15941E+00  6.54165E+00  6.44188E+00  7.86053E+00
   7.57240E+00  8.55557E+00  7.83501E+00  7.59521E+00  6.59675E+00  5.29671E+00  4.60793E+00  3.39929E+00  3.36354E+00  2.96927E+00
   3.37784E+00  3.52478E+00  4.12738E+00  4.53789E+00  5.25156E+00  5.80291E+00  6.44054E+00  6.78273E+00  7.28063E+00  7.54999E+00
   7.94706E+00  8.22832E+00  8.58063E+00  8.90463E+00  9.24024E+00  9.60195E+00  9.94632E+00  1.03250E+01  1.06796E+01  1.10567E+01
   1.14067E+01  1.17667E+01  1.20729E+01  1.24141E+01  1.26837E+01  1.30276E+01  1.32923E+01  1.36540E+01  1.39025E+01  1.42628E+01
   1.44743E+01  1.47760E+01  1.49561E+01  1.51433E+01  1.53469E+01  1.54583E+01  1.57338E+01  1.58338E+01  1.61568E+01  1.62542E+01
   1.66175E+01  1.67104E+01  1.71149E+01  1.71597E+01  1.75297E+01  1.75308E+01  1.78163E+01  1.78343E+01  1.80171E+01  1.80985E+01
   1.82192E+01  1.83639E+01  1.84531E+01  1.86085E+01  1.86474E+01  1.87295E+01  1.86146E+01  1.85644E+01  1.82375E+01  1.80698E+01
   1.76334E+01  1.75293E+01  1.72459E+01  1.72126E+01  1.71714E+01  1.70414E+01  1.71527E+01  1.67545E+01  1.67481E+01  1.59913E+01
   1.57948E+01  1.48296E+01  1.45474E+01  1.36502E+01  1.34274E+01  1.26975E+01  1.26319E+01  1.19907E+01  1.20932E+01  1.13464E+01
   1.12865E+01  1.03560E+01  9.85367E+00  8.93747E+00  8.09125E+00  7.51317E+00  6.79659E+00  6.72112E+00  6.38554E+00  6.55570E+00
   6.36959E+00  6.38381E+00  6.01386E+00  5.60520E+00  5.00866E+00  4.23551E+00  3.57466E+00  2.70934E+00  2.12701E+00  1.29156E+00
   7.85673E-01 -6.47524E-02 -5.28345E-01 -1.47841E+00 -2.13156E+00 -2.96787E+00 -3.03981E+00 -3.45258E+00 -2.74868E+00 -2.83783E+00
  -1.99149E+00 -2.06246E+00 -1.52421E+00 -1.74794E+00 -1.55062E+00 -1.87691E+00 -1.92171E+00 -2.21806E+00 -2.21065E+00 -2.49605E+00
  -2.55294E+00 -2.90949E+00 -2.95054E+00 -3.54061E+00 -4.09333E+00 -5.22023E+00 -7.15281E+00 -8.80522E+00 -1.18152E+01 -1.34289E+01
  -1.59846E+01 -1.69974E+01 -1.82276E+01 -1.86877E+01 -1.91243E+01 -1.93384E+01 -1.94858E+01 -1.96200E+01 -1.96190E+01 -1.98031E+01
  -2.00092E+01 -2.02502E+01 -2.04687E+01 -2.07191E+01 -2.09385E+01 -2.11616E+01 -2.13480E+01 -2.15303E+01 -2.16767E+01 -2.18155E+01
  -2.19325E+01 -2.20374E+01 -2.21333E+01 -2.22185E+01 -2.22989E+01 -2.23672E+01 -2.24301E+01 -2.24804E+01 -2.25255E+01 -2.25584E+01
  -2.25853E+01 -2.26018E+01 -2.26129E+01 -2.26157E+01 -2.26129E+01 -2.26035E+01 -2.25889E+01 -2.25684E+01 -2.25430E+01 -2.25126E+01
  -2.24774E+01 -2.24378E+01 -2.23934E+01 -2.23447E+01 -2.22915E+01 -2.22339E+01 -2.21722E+01 -2.21064E+01 -2.20367E+01 -2.19628E+01
  -2.18850E+01 -2.18029E+01 -2.17168E+01 -2.16264E+01 -2.15320E+01 -2.14332E+01 -2.13302E+01 -2.12224E+01 -2.11099E+01 -2.09920E+01
  -2.08690E+01 -2.07433E+01 -2.06058E+01 -2.03706E+01 -2.01071E+01 -1.98635E+01 -1.95266E+01 -1.94324E+01 -1.91403E+01 -1.92160E+01
  -1.90542E+01 -1.92212E+01 -1.89622E+01 -1.91036E+01 -1.85370E+01 -1.85639E+01 -1.76750E+01 -1.76480E+01 -1.65692E+01 -1.65683E+01
  -1.54541E+01 -1.57316E+01 -1.49230E+01 -1.56273E+01 -1.52822E+01 -1.61642E+01 -1.60918E+01 -1.67552E+01 -1.64741E+01 -1.68343E+01
  -1.62866E+01 -1.65751E+01 -1.62419E+01 -1.65810E+01 -1.67250E+01 -1.70573E+01 -1.74201E+01 -1.76638E+01 -1.79202E+01 -1.79806E+01
  -1.80443E+01 -1.80006E+01 -1.79596E+01 -1.78671E+01 -1.77449E+01 -1.76430E+01 -1.75479E+01 -1.74543E+01 -1.73611E+01 -1.72675E+01
  -1.71737E+01 -1.70792E+01 -1.69843E+01 -1.68888E+01 -1.67928E+01 -1.66963E+01 -1.65993E+01 -1.65018E+01 -1.64039E+01 -1.63055E+01
  -1.62068E+01 -1.61077E+01 -1.60084E+01 -1.59088E+01 -1.58093E+01 -1.57097E+01 -1.56103E+01 -1.55111E+01 -1.54123E+01 -1.53140E+01
  -1.52163E+01 -1.51193E+01 -1.50232E+01 -1.49278E+01 -1.48333E+01 -1.47396E+01 -1.46468E+01 -1.45547E+01 -1.44634E+01 -1.43726E+01
  -1.42825E+01 -1.41927E+01 -1.41033E+01 -1.40141E+01 -1.39251E+01 -1.38361E+01 -1.37473E+01 -1.36583E+01 -1.35694E+01 -1.34804E+01
  -1.33913E+01 -1.33022E+01 -1.32132E+01 -1.31241E+01 -1.30353E+01 -1.29465E+01 -1.28580E+01 -1.27696E+01 -1.26817E+01 -1.25941E+01
  -1.25070E+01 -1.24203E+01 -1.23342E+01 -1.22486E+01 -1.21637E+01 -1.20794E+01 -1.19959E+01 -1.19131E+01 -1.18311E+01 -1.17498E+01
  -1.16695E+01 -1.15899E+01 -1.15114E+01 -1.14336E+01 -1.13570E+01 -1.12812E+01 -1.12066E+01 -1.11329E+01 -1.10604E+01 -1.09889E+01
  -1.09187E+01 -1.08495E+01 -1.07816E+01 -1.07149E+01 -1.06494E+01 -1.05849E+01 -1.05217E+01 -1.04596E+01 -1.03986E+01 -1.03385E+01
  -1.02796E+01 -1.02216E+01 -1.01647E+01 -1.01086E+01 -1.00536E+01 -9.99936E+00 -9.94611E+00 -9.89361E+00 -9.84204E+00 -9.79117E+00
  -9.74117E+00 -9.69181E+00 -9.64329E+00 -9.59534E+00 -9.54818E+00 -9.50154E+00 -9.45563E+00 -9.41020E+00 -9.36543E+00 -9.32109E+00
  -9.27736E+00 -9.23400E+00 -9.19121E+00 -9.14872E+00 -9.10674E+00 -9.06501E+00 -9.02373E+00 -8.98264E+00 -8.94194E+00 -8.90138E+00
  -8.86113E+00 -8.82096E+00 -8.78105E+00 -8.74113E+00 -8.70140E+00 -8.66159E+00 -8.62188E+00 -8.58201E+00
 NY background values follow
    -5.212E+01   -5.161E+01   -5.110E+01   -5.059E+01   -5.008E+01   -4.957E+01   -4.907E+01   -4.856E+01   -4.805E+01   -4.755E+01
    -4.705E+01   -4.655E+01   -4.605E+01   -4.555E+01   -4.505E+01   -4.456E+01   -4.406E+01   -4.357E+01   -4.308E+01   -4.259E+01
    -4.210E+01   -4.161E+01   -4.113E+01   -4.064E+01   -4.016E+01   -3.968E+01   -3.920E+01   -3.873E+01   -3.825E+01   -3.778E+01
    -3.731E+01   -3.684E+01   -3.638E+01   -3.591E+01   -3.545E+01   -3.499E+01   -3.454E+01   -3.408E+01   -3.363E+01   -3.318E+01
    -3.273E+01   -3.229E+01   -3.185E+01   -3.141E+01   -3.097E+01   -3.054E+01   -3.010E+01   -2.968E+01   -2.925E+01   -2.883E+01
    -2.841E+01   -2.799E+01   -2.757E+01   -2.716E+01   -2.675E+01   -2.634E+01   -2.594E+01   -2.553E+01   -2.513E+01   -2.474E+01
    -2.434E+01   -2.395E+01   -2.356E+01   -2.317E+01   -2.278E+01   -2.240E+01   -2.202E+01   -2.164E+01   -2.126E+01   -2.089E+01
    -2.052E+01   -2.015E+01   -1.978E+01   -1.942E+01   -1.905E+01   -1.869E+01   -1.833E+01   -1.798E+01   -1.762E+01   -1.727E+01
    -1.692E+01   -1.657E+01   -1.622E+01   -1.588E+01   -1.554E+01   -1.520E+01   -1.486E+01   -1.452E+01   -1.419E+01   -1.385E+01
    -1.352E+01   -1.319E+01   -1.286E+01   -1.254E+01   -1.221E+01   -1.189E+01   -1.157E+01   -1.125E+01   -1.093E+01   -1.061E+01
    -1.029E+01   -9.968E+00   -9.649E+00   -9.331E+00   -9.012E+00   -8.694E+00   -8.374E+00   -8.055E+00   -7.735E+00   -7.414E+00
    -7.092E+00   -6.769E+00   -6.444E+00   -6.119E+00   -5.792E+00   -5.463E+00   -5.132E+00   -4.800E+00   -4.465E+00   -4.128E+00
    -3.789E+00   -3.447E+00   -3.103E+00   -2.755E+00   -2.405E+00   -2.052E+00   -1.695E+00   -1.335E+00   -9.710E-01   -6.036E-01
    -2.323E-01    1.430E-01    5.225E-01    9.062E-01    1.294E+00    1.687E+00    2.085E+00    2.487E+00    2.893E+00    3.303E+00
     3.716E+00    4.132E+00    4.550E+00    4.970E+00    5.391E+00    5.813E+00    6.235E+00    6.657E+00    7.079E+00    7.499E+00
     7.918E+00    8.335E+00    8.750E+00    9.162E+00    9.570E+00    9.974E+00    1.037E+01    1.077E+01    1.116E+01    1.154E+01
     1.192E+01    1.229E+01    1.266E+01    1.301E+01    1.336E+01    1.370E+01    1.403E+01    1.435E+01    1.466E+01    1.497E+01
     1.525E+01    1.553E+01    1.580E+01    1.605E+01    1.630E+01    1.652E+01    1.674E+01    1.694E+01    1.712E+01    1.729E+01
     1.745E+01    1.759E+01    1.771E+01    1.782E+01    1.790E+01    1.798E+01    1.804E+01    1.808E+01    1.810E+01    1.811E+01
     1.811E+01    1.809E+01    1.805E+01    1.800E+01    1.793E+01    1.785E+01    1.775E+01    1.764E+01    1.751E+01    1.736E+01
     1.721E+01    1.703E+01    1.685E+01    1.665E+01    1.643E+01    1.620E+01    1.596E+01    1.570E+01    1.543E+01    1.514E+01
     1.484E+01    1.452E+01    1.420E+01    1.386E+01    1.350E+01    1.313E+01    1.275E+01    1.236E+01    1.195E+01    1.153E+01
     1.109E+01    1.065E+01    1.019E+01    9.714E+00    9.230E+00    8.732E+00    8.222E+00    7.700E+00    7.167E+00    6.622E+00
     6.068E+00    5.503E+00    4.930E+00    4.348E+00    3.759E+00    3.163E+00    2.560E+00    1.952E+00    1.339E+00    7.218E-01
     1.008E-01   -5.231E-01   -1.149E+00   -1.777E+00   -2.406E+00   -3.035E+00   -3.664E+00   -4.292E+00   -4.918E+00   -5.542E+00
    -6.163E+00   -6.780E+00   -7.393E+00   -8.001E+00   -8.603E+00   -9.199E+00   -9.788E+00   -1.037E+01   -1.094E+01   -1.151E+01
    -1.206E+01   -1.260E+01   -1.314E+01   -1.366E+01   -1.417E+01   -1.466E+01   -1.515E+01   -1.562E+01   -1.607E+01   -1.651E+01
    -1.693E+01   -1.734E+01   -1.772E+01   -1.809E+01   -1.845E+01   -1.878E+01   -1.910E+01   -1.941E+01   -1.970E+01   -1.997E+01
    -2.023E+01   -2.047E+01   -2.070E+01   -2.092E+01   -2.112E+01   -2.131E+01   -2.149E+01   -2.166E+01   -2.181E+01   -2.195E+01
    -2.208E+01   -2.219E+01   -2.230E+01   -2.240E+01   -2.249E+01   -2.256E+01   -2.263E+01   -2.269E+01   -2.274E+01   -2.278E+01
    -2.281E+01   -2.284E+01   -2.286E+01   -2.287E+01   -2.287E+01   -2.287E+01   -2.286E+01   -2.285E+01   -2.283E+01   -2.281E+01
    -2.278E+01   -2.275E+01   -2.271E+01   -2.267E+01   -2.263E+01   -2.258E+01   -2.253E+01   -2.248E+01   -2.243E+01   -2.237E+01
    -2.232E+01   -2.226E+01   -2.220E+01   -2.214E+01   -2.207E+01   -2.200E+01   -2.194E+01   -2.187E+01   -2.180E+01   -2.172E+01
    -2.165E+01   -2.157E+01   -2.150E+01   -2.142E+01   -2.134E+01   -2.126E+01   -2.117E+01   -2.109E+01   -2.101E+01   -2.092E+01
    -2.083E+01   -2.075E+01   -2.066E+01   -2.057E+01   -2.048E+01   -2.039E+01   -2.030E+01   -2.021E+01   -2.011E+01   -2.002E+01
    -1.992E+01   -1.983E+01   -1.974E+01   -1.964E+01   -1.954E+01   -1.945E+01   -1.935E+01   -1.926E+01   -1.916E+01   -1.906E+01
    -1.897E+01   -1.887E+01   -1.877E+01   -1.868E+01   -1.858E+01   -1.849E+01   -1.839E+01   -1.829E+01   -1.820E+01   -1.810E+01
    -1.801E+01   -1.791E+01   -1.782E+01   -1.772E+01   -1.762E+01   -1.753E+01   -1.743E+01   -1.734E+01   -1.724E+01   -1.715E+01
    -1.705E+01   -1.696E+01   -1.686E+01   -1.677E+01   -1.667E+01   -1.658E+01   -1.648E+01   -1.639E+01   -1.629E+01   -1.620E+01
    -1.610E+01   -1.601E+01   -1.591E+01   -1.582E+01   -1.572E+01   -1.563E+01   -1.554E+01   -1.544E+01   -1.535E+01   -1.525E+01
    -1.516E+01   -1.506E+01   -1.497E+01   -1.487E+01   -1.478E+01   -1.468E+01   -1.459E+01   -1.449E+01   -1.440E+01   -1.431E+01
    -1.421E+01   -1.412E+01   -1.402E+01   -1.393E+01   -1.383E+01   -1.374E+01   -1.365E+01   -1.355E+01   -1.346E+01   -1.337E+01
    -1.327E+01   -1.318E+01   -1.309E+01   -1.300E+01   -1.291E+01   -1.282E+01   -1.273E+01   -1.264E+01   -1.255E+01   -1.246E+01
    -1.237E+01   -1.229E+01   -1.220E+01   -1.211E+01   -1.203E+01   -1.194E+01   -1.186E+01   -1.178E+01   -1.170E+01   -1.162E+01
    -1.154E+01   -1.146E+01   -1.138E+01   -1.130E+01   -1.122E+01   -1.115E+01   -1.107E+01   -1.100E+01   -1.093E+01   -1.086E+01
    -1.079E+01   -1.072E+01   -1.065E+01   -1.059E+01   -1.052E+01   -1.046E+01   -1.039E+01   -1.033E+01   -1.027E+01   -1.021E+01
    -1.015E+01   -1.010E+01   -1.004E+01   -9.983E+00   -9.929E+00   -9.875E+00   -9.822E+00   -9.770E+00   -9.719E+00   -9.669E+00
    -9.620E+00   -9.571E+00   -9.523E+00   -9.475E+00   -9.429E+00   -9.383E+00   -9.338E+00   -9.293E+00   -9.249E+00   -9.205E+00
    -9.162E+00   -9.120E+00   -9.077E+00   -9.036E+00   -8.995E+00   -8.954E+00   -8.914E+00   -8.873E+00   -8.834E+00   -8.794E+00
    -8.755E+00   -8.716E+00   -8.678E+00   -8.639E+00   -8.601E+00   -8.563E+00   -8.525E+00   -8.487E+00
 Asp      Conc. = 7.99E+01
