 LCModel (Version 6.3-1L) Copyright: S.W. Provencher.          Ref.: Magn. Reson. Med. 30:672-679 (1993).                
 Slice#1 Row#8 Col#5  K_02_press_1_raw_act
 36 lines in following concentration table = NCONC+1
    Conc.  %SD /Cr+PCr  Metabolite                                         
    0.000 999%   0.000 Ala                                                 
    0.000 999%   0.000 Asp                                                 
    0.000 999%   0.000 Cr                                                  
 1.03E+03   7%   1.000 PCr                                                 
    0.000 999%   0.000 GABA                                                
  173.081  84%   0.168 Glc                                                 
  345.405  67%   0.336 Gln                                                 
 1.05E+03  25%   1.018 Glu                                                 
  313.100  35%   0.304 GPC                                                 
  126.595  89%   0.123 PCh                                                 
  220.754  38%   0.215 GSH                                                 
 1.10E+03  26%   1.065 Ins                                                 
   90.659 138% 8.8E-02 Lac                                                 
 2.15E+03   6%   2.086 NAA                                                 
  608.052  20%   0.591 NAAG                                                
   61.595  50% 6.0E-02 Scyllo                                              
  590.920  35%   0.574 Tau                                                 
  528.312  22%   0.514 -CrCH2                                              
  439.695   7%   0.427 GPC+PCh                                             
 2.75E+03   4%   2.677 NAA+NAAG                                            
 1.03E+03   7%   1.000 Cr+PCr                                              
 1.39E+03  25%   1.353 Glu+Gln                                             
 1.91E+03  40%   1.852 Lip13a                                              
    0.000 999%   0.000 Lip13b                                              
  460.561  60%   0.448 Lip09                                               
 1.42E+03  24%   1.384 MM09                                                
  315.354  56%   0.307 Lip20                                               
 2.30E+03  22%   2.237 MM20                                                
  451.636  48%   0.439 MM12                                                
 1.47E+03  34%   1.434 MM14                                                
  597.836  46%   0.581 MM17                                                
 1.91E+03  40%   1.852 Lip13a+Lip13b                                       
 3.83E+03  13%   3.725 MM14+Lip13a+Lip13b+MM12                             
 1.88E+03  13%   1.832 MM09+Lip09                                          
 2.62E+03  19%   2.544 MM20+Lip20                                          
   6 lines in following misc. output table
  FWHM = 0.031 ppm    S/N =  10                                            
  Data shift = 0.008 ppm                                                   
  Ph: -66 deg     -16.1 deg/ppm                                            
  alphaB,S = 1.7E+00,   5.3E+01                                            
   14 spline knots.   Ns = 6(1)                                            
  ( 6) 3 infls.   ( 5) 1 extrs.                                            
  498 points on ppm-axis = NY
      4.000000     3.992357     3.984714     3.977070     3.969427     3.961784     3.954141     3.946497     3.938854     3.931211
      3.923568     3.915925     3.908281     3.900638     3.892995     3.885352     3.877708     3.870065     3.862422     3.854779
      3.847136     3.839492     3.831849     3.824206     3.816563     3.808919     3.801276     3.793633     3.785990     3.778347
      3.770703     3.763060     3.755417     3.747774     3.740130     3.732487     3.724844     3.717201     3.709558     3.701914
      3.694271     3.686628     3.678985     3.671341     3.663698     3.656055     3.648412     3.640769     3.633125     3.625482
      3.617839     3.610196     3.602552     3.594909     3.587266     3.579623     3.571980     3.564336     3.556693     3.549050
      3.541407     3.533763     3.526120     3.518477     3.510834     3.503191     3.495547     3.487904     3.480261     3.472618
      3.464974     3.457331     3.449688     3.442045     3.434402     3.426758     3.419115     3.411472     3.403829     3.396185
      3.388542     3.380899     3.373256     3.365613     3.357969     3.350326     3.342683     3.335040     3.327396     3.319753
      3.312110     3.304467     3.296824     3.289180     3.281537     3.273894     3.266251     3.258607     3.250964     3.243321
      3.235678     3.228034     3.220391     3.212748     3.205105     3.197462     3.189818     3.182175     3.174532     3.166889
      3.159245     3.151602     3.143959     3.136316     3.128673     3.121029     3.113386     3.105743     3.098100     3.090456
      3.082813     3.075170     3.067527     3.059884     3.052240     3.044597     3.036954     3.029311     3.021667     3.014024
      3.006381     2.998738     2.991095     2.983451     2.975808     2.968165     2.960522     2.952878     2.945235     2.937592
      2.929949     2.922306     2.914662     2.907019     2.899376     2.891733     2.884089     2.876446     2.868803     2.861160
      2.853517     2.845873     2.838230     2.830587     2.822944     2.815300     2.807657     2.800014     2.792371     2.784728
      2.777084     2.769441     2.761798     2.754155     2.746511     2.738868     2.731225     2.723582     2.715939     2.708295
      2.700652     2.693009     2.685366     2.677722     2.670079     2.662436     2.654793     2.647150     2.639506     2.631863
      2.624220     2.616577     2.608933     2.601290     2.593647     2.586004     2.578361     2.570717     2.563074     2.555431
      2.547788     2.540144     2.532501     2.524858     2.517215     2.509572     2.501928     2.494285     2.486642     2.478999
      2.471355     2.463712     2.456069     2.448426     2.440783     2.433139     2.425496     2.417853     2.410210     2.402566
      2.394923     2.387280     2.379637     2.371994     2.364350     2.356707     2.349064     2.341421     2.333777     2.326134
      2.318491     2.310848     2.303205     2.295561     2.287918     2.280275     2.272632     2.264988     2.257345     2.249702
      2.242059     2.234416     2.226772     2.219129     2.211486     2.203843     2.196199     2.188556     2.180913     2.173270
      2.165627     2.157983     2.150340     2.142697     2.135054     2.127410     2.119767     2.112124     2.104481     2.096838
      2.089194     2.081551     2.073908     2.066265     2.058621     2.050978     2.043335     2.035692     2.028049     2.020405
      2.012762     2.005119     1.997476     1.989833     1.982190     1.974546     1.966903     1.959260     1.951617     1.943974
      1.936331     1.928688     1.921045     1.913402     1.905759     1.898115     1.890472     1.882829     1.875186     1.867543
      1.859900     1.852257     1.844614     1.836971     1.829327     1.821684     1.814041     1.806398     1.798755     1.791112
      1.783469     1.775826     1.768183     1.760540     1.752896     1.745253     1.737610     1.729967     1.722324     1.714681
      1.707038     1.699395     1.691752     1.684108     1.676465     1.668822     1.661179     1.653536     1.645893     1.638250
      1.630607     1.622964     1.615321     1.607677     1.600034     1.592391     1.584748     1.577105     1.569462     1.561819
      1.554176     1.546533     1.538890     1.531246     1.523603     1.515960     1.508317     1.500674     1.493031     1.485388
      1.477745     1.470102     1.462458     1.454815     1.447172     1.439529     1.431886     1.424243     1.416600     1.408957
      1.401314     1.393671     1.386027     1.378384     1.370741     1.363098     1.355455     1.347812     1.340169     1.332526
      1.324883     1.317240     1.309596     1.301953     1.294310     1.286667     1.279024     1.271381     1.263738     1.256095
      1.248452     1.240808     1.233165     1.225522     1.217879     1.210236     1.202593     1.194950     1.187307     1.179664
      1.172021     1.164377     1.156734     1.149091     1.141448     1.133805     1.126162     1.118519     1.110876     1.103233
      1.095590     1.087946     1.080303     1.072660     1.065017     1.057374     1.049731     1.042088     1.034445     1.026802
      1.019158     1.011515     1.003872     0.996229     0.988586     0.980943     0.973300     0.965657     0.958014     0.950371
      0.942727     0.935084     0.927441     0.919798     0.912155     0.904512     0.896869     0.889226     0.881583     0.873940
      0.866296     0.858653     0.851010     0.843367     0.835724     0.828081     0.820438     0.812795     0.805152     0.797508
      0.789865     0.782222     0.774579     0.766936     0.759293     0.751650     0.744007     0.736364     0.728721     0.721077
      0.713434     0.705791     0.698148     0.690505     0.682862     0.675219     0.667576     0.659933     0.652290     0.644646
      0.637003     0.629360     0.621717     0.614074     0.606431     0.598788     0.591145     0.583502     0.575858     0.568215
      0.560572     0.552929     0.545286     0.537643     0.530000     0.522357     0.514714     0.507071     0.499427     0.491784
      0.484141     0.476498     0.468855     0.461212     0.453569     0.445925     0.438282     0.430639     0.422996     0.415353
      0.407710     0.400067     0.392424     0.384780     0.377137     0.369494     0.361851     0.354208     0.346565     0.338922
      0.331278     0.323635     0.315992     0.308349     0.300706     0.293063     0.285420     0.277777     0.270133     0.262490
      0.254847     0.247204     0.239561     0.231918     0.224275     0.216631     0.208988     0.201345
 NY phased data points follow
  -3.65797E+01 -3.65004E+01 -4.26489E+01 -3.54703E+01 -2.97466E+01 -2.81662E+01 -1.97915E+01 -1.98062E+01 -1.64766E+01 -1.40954E+01
  -1.73320E+01 -2.28928E+01 -2.63827E+01 -3.08095E+01 -3.28104E+01 -3.41131E+01 -3.17938E+01 -3.74038E+01 -3.51194E+01 -3.58165E+01
  -3.96469E+01 -3.74993E+01 -3.09903E+01 -3.42749E+01 -3.00073E+01 -2.99314E+01 -2.26244E+01 -3.09869E+01 -2.59623E+01 -2.68868E+01
  -2.25233E+01 -1.96012E+01 -1.97028E+01 -2.04841E+01 -2.30302E+01 -2.71744E+01 -1.62456E+01 -2.51319E+01 -2.71992E+01 -1.47509E+01
  -2.01823E+01 -1.99532E+01 -1.74503E+01 -1.59583E+01 -2.13149E+01 -1.57202E+01 -1.08276E+01 -8.51551E+00 -1.77218E+01 -1.11543E+01
  -1.25867E+01 -1.68286E+01 -2.24923E+01 -2.03785E+01 -2.26047E+01 -1.81303E+01 -1.43356E+01 -1.29937E+01 -1.79068E+01 -1.28112E+01
  -1.80958E+01 -2.31141E+01 -2.14285E+01 -1.70406E+01 -1.94641E+01 -2.24567E+01 -2.62710E+01 -1.80749E+01 -2.48723E+01 -2.21599E+01
  -1.61545E+01 -2.02550E+01 -1.53750E+01 -1.48534E+01 -1.15879E+01 -1.36384E+01 -9.74417E+00 -1.32333E+01 -1.41109E+01 -1.84204E+01
  -1.61501E+01 -1.65375E+01 -1.64306E+01 -1.38076E+01 -1.35592E+01 -2.60573E+01 -1.91558E+01 -8.82861E+00 -1.84163E+01 -7.93336E+00
  -7.90834E+00 -1.44500E+01 -1.29570E+01 -5.01682E+00 -4.61578E+00 -1.17705E+01 -5.23473E+00 -7.07845E+00  3.89106E+00  6.10196E+00
   1.89062E+01  3.22707E+01  3.64722E+01  3.25138E+01  2.31857E+01  1.16166E+01  4.61110E+00  9.75719E-01 -6.51383E+00 -6.35870E+00
  -8.52173E+00 -1.50401E+01 -3.73818E+00 -6.66546E+00 -1.17390E+01 -4.51124E+00 -1.11669E+01 -4.20591E+00 -1.10518E+01  4.03605E-01
  -5.76397E+00 -1.08447E+00 -2.76132E+00  3.90178E+00  8.49930E+00  2.00253E+01  3.29076E+01  4.07721E+01  2.40160E+01  1.17264E+01
   7.60924E+00 -2.19103E+00  1.90931E+00 -3.21198E+00 -7.33015E+00 -4.68916E+00 -9.89855E+00 -1.02498E+01 -9.28290E+00 -6.43785E-01
  -1.12671E+01 -3.76512E+00 -5.90748E+00 -4.40945E+00 -1.03062E+01 -4.55129E+00 -5.24061E+00 -9.09730E+00 -8.08070E+00 -1.11418E+01
  -8.48303E+00 -6.25470E-01 -6.97516E+00 -3.27260E+00 -2.55142E+00 -1.81051E+00 -1.01149E+01 -8.60189E+00 -4.64231E+00 -2.01956E+00
  -5.54083E+00 -3.08049E+00 -9.61379E+00 -9.20268E+00 -4.17426E+00 -9.16384E+00 -4.80004E+00 -8.82941E+00 -1.16341E+01 -2.00075E+01
  -2.02579E+01 -1.60214E+01 -1.42225E+01 -1.54963E+01 -1.84863E+01 -2.32487E+01 -1.40067E+01 -1.62822E+01 -1.42927E+01 -9.62771E+00
  -1.83129E+01 -7.00362E+00 -1.18087E+01 -1.00412E+01 -5.90819E+00 -1.15420E+01 -7.51021E+00  8.80934E-01  6.09415E-01 -4.91681E+00
  -6.27425E+00 -4.23369E+00 -9.24042E-01 -7.37323E+00 -8.74133E+00 -3.12210E+00 -1.37359E+01 -1.69277E+01 -1.30965E+01 -1.17968E+01
  -7.16392E+00 -1.17840E+01  3.36657E+00  4.94483E-03 -2.44373E+00 -2.97234E+00  9.54789E-01 -1.96326E+00 -8.00575E+00 -4.69712E+00
  -7.58008E-02 -5.12307E+00  1.73816E+00  6.22426E+00  5.43253E+00  7.28743E+00  1.00659E+01  1.30935E+01  7.18641E+00 -1.88806E+00
  -4.53110E-01 -1.50452E+00 -1.24520E+01 -5.82536E+00 -2.52839E+00  7.64658E+00 -4.78459E+00  5.68446E+00  1.40557E+00  1.86419E+00
   1.16520E+01  8.24219E+00  5.48392E+00 -2.38840E+00  2.31679E+00  7.38288E+00  7.12390E+00  4.50829E+00  1.80142E+00  6.13671E+00
   7.72996E+00 -8.27524E+00 -4.94739E+00 -5.30064E+00  1.12560E+00  1.77325E+00  4.22224E+00  1.04928E+01  1.16771E+01  1.11726E+01
   1.11170E+01  1.24695E+01  1.46710E+01  2.75309E+01  4.72816E+01  5.67440E+01  5.12549E+01  5.21711E+01  7.18305E+01  9.88417E+01
   1.11731E+02  1.01173E+02  7.33797E+01  4.84224E+01  2.80504E+01  1.47275E+01  1.39051E+01  6.19736E+00  1.12631E+01  9.18500E+00
   5.84313E+00  7.59067E+00  1.05593E+01  1.07175E+01 -6.57063E-01  1.29513E-01  8.22401E+00  8.85425E+00  8.26658E+00  7.29508E+00
  -3.60194E+00  4.37744E+00  3.75234E+00 -1.45174E+00  1.34267E+00  4.57721E+00 -4.46913E+00  6.89445E+00 -7.21986E-01  6.97764E+00
   5.32562E+00  6.83723E+00  5.00787E+00  6.22485E-01  2.78435E+00  6.55256E+00  5.55020E+00  2.76865E+00  6.77836E-01  2.08858E+00
   6.76075E+00  5.12446E+00  8.17288E+00  1.56629E+00  1.01518E+01  6.16007E+00  1.57267E+00  6.76901E+00 -2.28765E-01  8.17487E+00
   2.45092E+00  4.91188E+00  1.12080E+01  2.79759E+00  1.55226E+01  4.93513E+00  2.26508E+00 -2.00028E+00  4.70446E+00  6.78006E+00
   7.76449E+00  8.48690E+00  2.53984E+00  3.09163E+00  9.05526E-01  6.94226E+00  9.38440E+00  4.64439E+00  1.93694E+00  5.80065E+00
   7.83419E+00  1.14330E+01  8.16094E+00  5.35607E+00  5.15326E+00  6.79784E+00  6.46566E+00  2.98412E+00  7.03821E+00  1.52332E+01
   1.26893E+01  1.33527E+01  1.80311E+01  2.08486E+01  2.55911E+01  3.07539E+01  2.77702E+01  2.63316E+01  2.37259E+01  2.25246E+01
   1.51034E+01  1.49280E+01  1.08862E+01  1.80026E+01  1.30923E+01  1.61629E+01  9.29527E+00  8.45832E+00  9.75624E+00  4.35439E+00
   8.15578E+00  1.13764E+01  2.00947E+00  1.07692E+01  4.31485E+00  1.03522E+01  1.55015E+01  1.59189E+01  1.06133E+01  1.90310E+01
   1.85639E+01  1.40574E+01  1.24398E+01  1.30470E+01  1.31048E+01  1.20713E+01  1.16440E+01  7.55724E+00  9.78639E+00  5.88638E+00
   6.05477E+00  7.13647E+00  9.14375E+00  3.99121E+00  5.45987E+00 -1.04533E+00  1.15101E+01  8.12962E+00  4.68476E+00  6.42435E+00
   1.05744E+01  8.93048E+00  1.41907E+01  6.08603E+00  2.07222E+01  9.88222E+00  1.73965E+01  1.01351E+01  1.59634E+01  1.50872E+01
   2.13931E+01  1.86718E+01  1.36974E+01  8.63570E+00  1.26858E+01  1.45523E+01  1.87792E+01  1.71268E+01  1.88535E+01  1.68150E+01
   1.69479E+01  1.37913E+01  1.60046E+01  7.04418E+00  1.42827E+01  8.55403E+00  1.48688E+01  1.11323E+01  9.45756E+00  8.41990E+00
   7.26085E+00  6.14833E+00  3.77504E+00  7.30402E+00  5.09287E+00  3.46427E+00  6.47530E+00 -2.51101E-01 -2.80510E-01  1.00956E+01
   4.70618E+00  8.84519E+00  2.89814E+00 -1.07883E+00  8.68608E+00  7.09526E-01 -1.33224E+00 -1.50956E+00  4.04300E+00  1.54282E+00
  -6.92220E+00 -1.93770E-02  3.53221E+00  3.14661E+00  5.63487E+00 -4.36099E+00  6.59618E+00  5.97600E+00 -6.76645E-02  1.61775E+00
  -1.74076E+00 -1.02944E-01  5.35649E+00 -2.83827E+00  5.16688E+00  3.72052E+00  2.98868E+00  3.76026E+00  2.37360E+00  3.02974E+00
   3.43707E+00 -1.25406E+00  4.62253E+00  1.93001E+00  5.53056E-01 -2.05797E+00 -3.26508E+00  2.73588E-01  3.94510E+00  4.37822E+00
   4.67671E+00 -8.04875E-01  2.18324E+00  2.49541E+00  3.70799E+00  6.65752E+00  1.33235E+01  7.75066E+00  4.29223E+00  8.09095E-01
   3.32788E-01 -1.78597E+00  6.49508E+00  4.81688E+00  2.00762E+00  6.06475E+00 -1.09299E+00  4.14031E+00  8.01626E+00  4.76614E+00
   1.41542E+00  1.25864E+00 -4.25355E+00  5.67703E+00 -3.92768E+00  3.98765E+00 -7.26829E-01  1.20087E+01
 NY points of the fit to the data follow
  -3.24729E+01 -3.23790E+01 -3.16263E+01 -2.99195E+01 -2.84418E+01 -2.65542E+01 -2.30809E+01 -1.86676E+01 -1.56027E+01 -1.55948E+01
  -1.83320E+01 -2.19669E+01 -2.48945E+01 -2.65600E+01 -2.72712E+01 -2.76612E+01 -2.79909E+01 -2.81799E+01 -2.82755E+01 -2.81917E+01
  -2.79419E+01 -2.76015E+01 -2.74579E+01 -2.74262E+01 -2.70452E+01 -2.65973E+01 -2.64289E+01 -2.58930E+01 -2.43095E+01 -2.17828E+01
  -1.93513E+01 -1.78072E+01 -1.73664E+01 -1.80853E+01 -1.95910E+01 -2.12142E+01 -2.27306E+01 -2.41675E+01 -2.52251E+01 -2.54492E+01
  -2.47904E+01 -2.35228E+01 -2.21665E+01 -2.09122E+01 -1.93094E+01 -1.68546E+01 -1.41367E+01 -1.26232E+01 -1.33149E+01 -1.58277E+01
  -1.88170E+01 -2.11478E+01 -2.23913E+01 -2.25932E+01 -2.22261E+01 -2.16672E+01 -2.09558E+01 -2.00050E+01 -1.88218E+01 -1.77308E+01
  -1.71789E+01 -1.73437E+01 -1.81439E+01 -1.89434E+01 -1.93367E+01 -1.92078E+01 -1.86195E+01 -1.79713E+01 -1.75892E+01 -1.71994E+01
  -1.65497E+01 -1.59577E+01 -1.54086E+01 -1.46255E+01 -1.37001E+01 -1.31724E+01 -1.35108E+01 -1.47390E+01 -1.63584E+01 -1.75529E+01
  -1.77112E+01 -1.68977E+01 -1.59742E+01 -1.52316E+01 -1.45113E+01 -1.39536E+01 -1.39287E+01 -1.46266E+01 -1.57085E+01 -1.64568E+01
  -1.65006E+01 -1.62769E+01 -1.62365E+01 -1.63521E+01 -1.64736E+01 -1.54895E+01 -1.16374E+01 -6.74945E+00 -1.20415E+00  7.00283E+00
   1.88715E+01  3.08562E+01  3.71076E+01  3.43485E+01  2.46429E+01  1.29504E+01  3.30832E+00 -2.91351E+00 -6.61886E+00 -8.93875E+00
  -1.03334E+01 -1.11260E+01 -1.15530E+01 -1.17915E+01 -1.19424E+01 -1.20393E+01 -1.20767E+01 -1.20630E+01 -1.19768E+01 -1.16429E+01
  -1.00134E+01 -6.07022E+00 -2.64397E+00  1.81227E+00  1.08610E+01  2.32682E+01  3.26773E+01  3.35561E+01  2.60764E+01  1.51386E+01
   5.67421E+00 -2.69302E-01 -3.32424E+00 -5.27115E+00 -6.92271E+00 -8.19567E+00 -9.07038E+00 -9.47191E+00 -9.33289E+00 -8.75616E+00
  -8.02371E+00 -7.44074E+00 -7.17442E+00 -7.21442E+00 -7.42931E+00 -7.66306E+00 -7.82970E+00 -7.92302E+00 -8.00992E+00 -8.08846E+00
  -8.15970E+00 -8.27882E+00 -8.43974E+00 -8.55278E+00 -8.54127E+00 -8.44383E+00 -8.18331E+00 -7.91017E+00 -8.06272E+00 -8.72750E+00
  -9.68471E+00 -1.02659E+01 -9.89295E+00 -8.87567E+00 -8.10029E+00 -8.12472E+00 -8.93419E+00 -1.00111E+01 -1.08072E+01 -1.11544E+01
  -1.11778E+01 -1.10978E+01 -1.10615E+01 -1.14677E+01 -1.22848E+01 -1.29655E+01 -1.27985E+01 -1.17480E+01 -1.07067E+01 -1.04909E+01
  -1.09466E+01 -1.13299E+01 -1.09575E+01 -9.99891E+00 -9.29770E+00 -9.01806E+00 -8.53913E+00 -7.35070E+00 -5.49651E+00 -3.50678E+00
  -2.05467E+00 -1.46043E+00 -1.85673E+00 -2.68157E+00 -3.33927E+00 -3.77557E+00 -4.11549E+00 -4.26740E+00 -3.94879E+00 -3.23179E+00
  -2.23359E+00 -1.04142E+00  1.22970E-01  9.21874E-01  8.06559E-01 -2.48365E-01 -2.11564E+00 -4.61706E+00 -6.88109E+00 -8.08019E+00
  -7.98945E+00 -6.95743E+00 -5.35914E+00 -2.81824E+00  5.53326E-01  3.50102E+00  4.48403E+00  3.07549E+00  2.75888E-01 -2.76286E+00
  -5.69303E+00 -7.99152E+00 -8.67424E+00 -7.19845E+00 -4.10268E+00 -7.23609E-01  1.83936E+00  3.34607E+00  3.93909E+00  3.77342E+00
   3.11558E+00  2.55005E+00  2.53732E+00  3.02334E+00  3.73623E+00  4.49440E+00  5.17418E+00  5.55260E+00  5.52998E+00  5.02236E+00
   4.12940E+00  3.20849E+00  2.87688E+00  3.50646E+00  4.87085E+00  6.41320E+00  7.68305E+00  8.53428E+00  9.12136E+00  1.03710E+01
   1.26496E+01  1.47925E+01  1.84090E+01  2.56298E+01  3.81956E+01  5.09621E+01  5.59861E+01  6.14537E+01  7.65902E+01  9.66335E+01
   1.06930E+02  9.83905E+01  7.53271E+01  4.98358E+01  3.05892E+01  1.92441E+01  1.31996E+01  9.33265E+00  7.01283E+00  6.07178E+00
   5.55222E+00  5.20719E+00  5.03812E+00  4.95600E+00  4.78608E+00  4.44752E+00  4.02516E+00  3.65656E+00  3.37420E+00  3.17549E+00
   3.06532E+00  3.04020E+00  3.06729E+00  3.09090E+00  3.06190E+00  2.99846E+00  2.93542E+00  2.88131E+00  2.85893E+00  2.90955E+00
   3.05906E+00  3.28717E+00  3.52921E+00  3.73790E+00  3.91362E+00  4.05707E+00  4.17035E+00  4.27063E+00  4.38246E+00  4.52517E+00
   4.69467E+00  4.86806E+00  5.02211E+00  5.14442E+00  5.23058E+00  5.28313E+00  5.30374E+00  5.29651E+00  5.26757E+00  5.22312E+00
   5.16673E+00  5.10241E+00  5.03414E+00  4.96881E+00  4.91324E+00  4.87450E+00  4.85706E+00  4.86579E+00  4.90487E+00  4.97981E+00
   5.09428E+00  5.25136E+00  5.45184E+00  5.69741E+00  5.98900E+00  6.32805E+00  6.71349E+00  7.14349E+00  7.61424E+00  8.12287E+00
   8.66529E+00  9.23748E+00  9.83275E+00  1.04442E+01  1.10639E+01  1.16857E+01  1.23027E+01  1.29095E+01  1.35004E+01  1.40739E+01
   1.46373E+01  1.52167E+01  1.57463E+01  1.61576E+01  1.65779E+01  1.69806E+01  1.71215E+01  1.68028E+01  1.61072E+01  1.54136E+01
   1.49594E+01  1.46966E+01  1.46510E+01  1.48987E+01  1.53656E+01  1.58037E+01  1.59422E+01  1.56958E+01  1.51930E+01  1.46051E+01
   1.40368E+01  1.35072E+01  1.29930E+01  1.24950E+01  1.20176E+01  1.15540E+01  1.11012E+01  1.06602E+01  1.02328E+01  9.82229E+00
   9.43163E+00  9.06406E+00  8.72159E+00  8.40721E+00  8.12337E+00  7.87358E+00  7.66005E+00  7.48539E+00  7.35112E+00  7.26002E+00
   7.21439E+00  7.21745E+00  7.27111E+00  7.37776E+00  7.53886E+00  7.75691E+00  8.03334E+00  8.36961E+00  8.76492E+00  9.21802E+00
   9.72558E+00  1.02838E+01  1.08863E+01  1.15248E+01  1.21879E+01  1.28632E+01  1.35356E+01  1.41899E+01  1.48091E+01  1.53760E+01
   1.58730E+01  1.62847E+01  1.65971E+01  1.68000E+01  1.68850E+01  1.68482E+01  1.66884E+01  1.64099E+01  1.60198E+01  1.55294E+01
   1.49516E+01  1.43017E+01  1.35957E+01  1.28512E+01  1.20848E+01  1.13128E+01  1.05488E+01  9.80515E+00  9.09167E+00  8.41698E+00
   7.78661E+00  7.20453E+00  6.67176E+00  6.18866E+00  5.75376E+00  5.36565E+00  5.02116E+00  4.71714E+00  4.44930E+00  4.21434E+00
   4.00850E+00  3.82910E+00  3.67254E+00  3.53610E+00  3.41652E+00  3.31203E+00  3.22050E+00  3.14078E+00  3.07080E+00  3.00940E+00
   2.95493E+00  2.90707E+00  2.86489E+00  2.82812E+00  2.79554E+00  2.76679E+00  2.74106E+00  2.71866E+00  2.69906E+00  2.68227E+00
   2.66737E+00  2.65441E+00  2.64296E+00  2.63354E+00  2.62568E+00  2.61943E+00  2.61404E+00  2.60978E+00  2.60640E+00  2.60443E+00
   2.60335E+00  2.60322E+00  2.60342E+00  2.60441E+00  2.60602E+00  2.60869E+00  2.61183E+00  2.61553E+00  2.61932E+00  2.62377E+00
   2.62869E+00  2.63443E+00  2.64034E+00  2.64660E+00  2.65288E+00  2.65979E+00  2.66708E+00  2.67498E+00  2.68284E+00  2.69094E+00
   2.69907E+00  2.70785E+00  2.71690E+00  2.72639E+00  2.73572E+00  2.74529E+00  2.75497E+00  2.76529E+00  2.77579E+00  2.78660E+00
   2.79721E+00  2.80816E+00  2.81930E+00  2.83110E+00  2.84300E+00  2.85517E+00  2.86722E+00  2.87978E+00
 NY background values follow
    -3.391E+01   -3.373E+01   -3.354E+01   -3.336E+01   -3.317E+01   -3.299E+01   -3.280E+01   -3.262E+01   -3.243E+01   -3.225E+01
    -3.206E+01   -3.188E+01   -3.170E+01   -3.151E+01   -3.133E+01   -3.114E+01   -3.096E+01   -3.077E+01   -3.059E+01   -3.040E+01
    -3.022E+01   -3.003E+01   -2.985E+01   -2.966E+01   -2.948E+01   -2.929E+01   -2.911E+01   -2.893E+01   -2.874E+01   -2.856E+01
    -2.837E+01   -2.819E+01   -2.801E+01   -2.782E+01   -2.764E+01   -2.746E+01   -2.728E+01   -2.709E+01   -2.691E+01   -2.673E+01
    -2.655E+01   -2.637E+01   -2.619E+01   -2.601E+01   -2.583E+01   -2.565E+01   -2.547E+01   -2.529E+01   -2.511E+01   -2.493E+01
    -2.475E+01   -2.457E+01   -2.439E+01   -2.421E+01   -2.404E+01   -2.386E+01   -2.368E+01   -2.351E+01   -2.333E+01   -2.316E+01
    -2.298E+01   -2.281E+01   -2.263E+01   -2.246E+01   -2.229E+01   -2.211E+01   -2.194E+01   -2.177E+01   -2.160E+01   -2.143E+01
    -2.126E+01   -2.109E+01   -2.092E+01   -2.075E+01   -2.059E+01   -2.042E+01   -2.025E+01   -2.009E+01   -1.992E+01   -1.976E+01
    -1.959E+01   -1.943E+01   -1.926E+01   -1.910E+01   -1.894E+01   -1.878E+01   -1.862E+01   -1.846E+01   -1.830E+01   -1.814E+01
    -1.799E+01   -1.783E+01   -1.767E+01   -1.752E+01   -1.736E+01   -1.721E+01   -1.706E+01   -1.691E+01   -1.675E+01   -1.660E+01
    -1.645E+01   -1.630E+01   -1.616E+01   -1.601E+01   -1.586E+01   -1.572E+01   -1.557E+01   -1.543E+01   -1.528E+01   -1.514E+01
    -1.500E+01   -1.486E+01   -1.472E+01   -1.458E+01   -1.444E+01   -1.430E+01   -1.416E+01   -1.402E+01   -1.389E+01   -1.375E+01
    -1.362E+01   -1.349E+01   -1.335E+01   -1.322E+01   -1.309E+01   -1.296E+01   -1.283E+01   -1.270E+01   -1.258E+01   -1.245E+01
    -1.232E+01   -1.220E+01   -1.207E+01   -1.195E+01   -1.183E+01   -1.171E+01   -1.159E+01   -1.147E+01   -1.135E+01   -1.123E+01
    -1.111E+01   -1.100E+01   -1.088E+01   -1.076E+01   -1.065E+01   -1.054E+01   -1.042E+01   -1.031E+01   -1.020E+01   -1.009E+01
    -9.982E+00   -9.873E+00   -9.765E+00   -9.658E+00   -9.552E+00   -9.446E+00   -9.341E+00   -9.237E+00   -9.134E+00   -9.031E+00
    -8.929E+00   -8.828E+00   -8.727E+00   -8.627E+00   -8.528E+00   -8.429E+00   -8.332E+00   -8.234E+00   -8.138E+00   -8.042E+00
    -7.947E+00   -7.852E+00   -7.758E+00   -7.665E+00   -7.573E+00   -7.481E+00   -7.389E+00   -7.298E+00   -7.208E+00   -7.119E+00
    -7.030E+00   -6.941E+00   -6.854E+00   -6.767E+00   -6.680E+00   -6.594E+00   -6.508E+00   -6.424E+00   -6.339E+00   -6.256E+00
    -6.173E+00   -6.090E+00   -6.008E+00   -5.927E+00   -5.846E+00   -5.766E+00   -5.686E+00   -5.607E+00   -5.528E+00   -5.450E+00
    -5.373E+00   -5.296E+00   -5.220E+00   -5.144E+00   -5.069E+00   -4.994E+00   -4.920E+00   -4.847E+00   -4.774E+00   -4.702E+00
    -4.630E+00   -4.559E+00   -4.488E+00   -4.418E+00   -4.349E+00   -4.280E+00   -4.211E+00   -4.143E+00   -4.076E+00   -4.009E+00
    -3.943E+00   -3.877E+00   -3.812E+00   -3.747E+00   -3.683E+00   -3.620E+00   -3.557E+00   -3.494E+00   -3.432E+00   -3.371E+00
    -3.310E+00   -3.250E+00   -3.190E+00   -3.131E+00   -3.072E+00   -3.014E+00   -2.956E+00   -2.899E+00   -2.842E+00   -2.786E+00
    -2.730E+00   -2.675E+00   -2.620E+00   -2.565E+00   -2.512E+00   -2.458E+00   -2.406E+00   -2.353E+00   -2.301E+00   -2.250E+00
    -2.199E+00   -2.148E+00   -2.098E+00   -2.049E+00   -2.000E+00   -1.951E+00   -1.903E+00   -1.855E+00   -1.807E+00   -1.760E+00
    -1.714E+00   -1.668E+00   -1.622E+00   -1.577E+00   -1.532E+00   -1.488E+00   -1.444E+00   -1.400E+00   -1.357E+00   -1.314E+00
    -1.272E+00   -1.230E+00   -1.188E+00   -1.147E+00   -1.106E+00   -1.066E+00   -1.026E+00   -9.860E-01   -9.467E-01   -9.077E-01
    -8.692E-01   -8.309E-01   -7.931E-01   -7.556E-01   -7.184E-01   -6.816E-01   -6.452E-01   -6.091E-01   -5.733E-01   -5.379E-01
    -5.029E-01   -4.681E-01   -4.337E-01   -3.996E-01   -3.658E-01   -3.324E-01   -2.993E-01   -2.664E-01   -2.339E-01   -2.018E-01
    -1.699E-01   -1.383E-01   -1.070E-01   -7.601E-02   -4.531E-02   -1.491E-02    1.521E-02    4.504E-02    7.459E-02    1.039E-01
     1.329E-01    1.616E-01    1.901E-01    2.182E-01    2.462E-01    2.738E-01    3.013E-01    3.284E-01    3.553E-01    3.820E-01
     4.084E-01    4.346E-01    4.605E-01    4.862E-01    5.116E-01    5.368E-01    5.618E-01    5.865E-01    6.110E-01    6.353E-01
     6.593E-01    6.831E-01    7.067E-01    7.301E-01    7.532E-01    7.761E-01    7.988E-01    8.213E-01    8.436E-01    8.656E-01
     8.875E-01    9.091E-01    9.305E-01    9.518E-01    9.728E-01    9.936E-01    1.014E+00    1.035E+00    1.055E+00    1.075E+00
     1.095E+00    1.114E+00    1.134E+00    1.153E+00    1.172E+00    1.191E+00    1.210E+00    1.228E+00    1.247E+00    1.265E+00
     1.283E+00    1.301E+00    1.318E+00    1.336E+00    1.353E+00    1.371E+00    1.388E+00    1.404E+00    1.421E+00    1.438E+00
     1.454E+00    1.470E+00    1.486E+00    1.502E+00    1.518E+00    1.534E+00    1.550E+00    1.565E+00    1.580E+00    1.595E+00
     1.611E+00    1.625E+00    1.640E+00    1.655E+00    1.670E+00    1.684E+00    1.699E+00    1.713E+00    1.727E+00    1.741E+00
     1.755E+00    1.769E+00    1.783E+00    1.796E+00    1.810E+00    1.824E+00    1.837E+00    1.851E+00    1.864E+00    1.877E+00
     1.890E+00    1.903E+00    1.917E+00    1.930E+00    1.942E+00    1.955E+00    1.968E+00    1.981E+00    1.994E+00    2.006E+00
     2.019E+00    2.032E+00    2.044E+00    2.057E+00    2.069E+00    2.082E+00    2.094E+00    2.106E+00    2.119E+00    2.131E+00
     2.143E+00    2.156E+00    2.168E+00    2.180E+00    2.193E+00    2.205E+00    2.217E+00    2.229E+00    2.241E+00    2.253E+00
     2.266E+00    2.278E+00    2.290E+00    2.302E+00    2.314E+00    2.326E+00    2.339E+00    2.351E+00    2.363E+00    2.375E+00
     2.387E+00    2.400E+00    2.412E+00    2.424E+00    2.436E+00    2.449E+00    2.461E+00    2.473E+00    2.486E+00    2.498E+00
     2.510E+00    2.523E+00    2.535E+00    2.548E+00    2.560E+00    2.573E+00    2.586E+00    2.598E+00    2.611E+00    2.624E+00
     2.637E+00    2.649E+00    2.662E+00    2.675E+00    2.688E+00    2.701E+00    2.714E+00    2.726E+00    2.739E+00    2.752E+00
     2.765E+00    2.778E+00    2.791E+00    2.804E+00    2.817E+00    2.830E+00    2.843E+00    2.856E+00    2.869E+00    2.883E+00
     2.896E+00    2.909E+00    2.922E+00    2.935E+00    2.948E+00    2.961E+00    2.974E+00    2.987E+00    3.000E+00    3.013E+00
     3.026E+00    3.039E+00    3.052E+00    3.065E+00    3.079E+00    3.092E+00    3.105E+00    3.118E+00
 PCr      Conc. = 1.03E+03
