 LCModel (Version 6.3-1L) Copyright: S.W. Provencher.          Ref.: Magn. Reson. Med. 30:672-679 (1993).                
 Slice#1 Row#8 Col#12  K_02_press_1_raw_act
 36 lines in following concentration table = NCONC+1
    Conc.  %SD /Cr+PCr  Metabolite                                         
  142.318  49%   0.601 Ala                                                 
    0.000 999%   0.000 Asp                                                 
    0.000 999%   0.000 Cr                                                  
  236.917  15%   1.000 PCr                                                 
   32.391 236%   0.137 GABA                                                
  151.351  51%   0.639 Glc                                                 
   35.039 361%   0.148 Gln                                                 
 1.04E+03  17%   4.382 Glu                                                 
   83.169  15%   0.351 GPC                                                 
    0.000 999%   0.000 PCh                                                 
  103.562  43%   0.437 GSH                                                 
  332.727  42%   1.404 Ins                                                 
    2.599 999% 1.1E-02 Lac                                                 
 1.41E+03  10%   5.965 NAA                                                 
  721.380  17%   3.045 NAAG                                                
   29.046  53%   0.123 Scyllo                                              
  237.514  45%   1.003 Tau                                                 
   58.369  86%   0.246 -CrCH2                                              
   83.169  15%   0.351 GPC+PCh                                             
 2.13E+03   4%   9.010 NAA+NAAG                                            
  236.917  15%   1.000 Cr+PCr                                              
 1.07E+03  20%   4.530 Glu+Gln                                             
 3.63E+03  19%  15.341 Lip13a                                              
    0.000 999%   0.000 Lip13b                                              
  842.263  25%   3.555 Lip09                                               
  989.687  26%   4.177 MM09                                                
  587.091  21%   2.478 Lip20                                               
 2.10E+03  15%   8.848 MM20                                                
  317.788  52%   1.341 MM12                                                
 3.22E+03  15%  13.591+MM14                                                
 1.34E+03  21%   5.640 MM17                                                
 3.63E+03  19%  15.341 Lip13a+Lip13b                                       
 7.17E+03   6%  30.273 MM14+Lip13a+Lip13b+MM12                             
 1.83E+03   8%   7.732 MM09+Lip09                                          
 2.68E+03  11%  11.326 MM20+Lip20                                          
   6 lines in following misc. output table
  FWHM = 0.046 ppm    S/N =  15                                            
  Data shift =-0.008 ppm                                                   
  Ph: -35 deg     -13.4 deg/ppm                                            
  alphaB,S = 8.5E+01,   4.5E+01                                            
   14 spline knots.   Ns = 8(1)                                            
   2 inflections.     1 extrema                                            
  498 points on ppm-axis = NY
      4.000000     3.992357     3.984714     3.977070     3.969427     3.961784     3.954141     3.946497     3.938854     3.931211
      3.923568     3.915925     3.908281     3.900638     3.892995     3.885352     3.877708     3.870065     3.862422     3.854779
      3.847136     3.839492     3.831849     3.824206     3.816563     3.808919     3.801276     3.793633     3.785990     3.778347
      3.770703     3.763060     3.755417     3.747774     3.740130     3.732487     3.724844     3.717201     3.709558     3.701914
      3.694271     3.686628     3.678985     3.671341     3.663698     3.656055     3.648412     3.640769     3.633125     3.625482
      3.617839     3.610196     3.602552     3.594909     3.587266     3.579623     3.571980     3.564336     3.556693     3.549050
      3.541407     3.533763     3.526120     3.518477     3.510834     3.503191     3.495547     3.487904     3.480261     3.472618
      3.464974     3.457331     3.449688     3.442045     3.434402     3.426758     3.419115     3.411472     3.403829     3.396185
      3.388542     3.380899     3.373256     3.365613     3.357969     3.350326     3.342683     3.335040     3.327396     3.319753
      3.312110     3.304467     3.296824     3.289180     3.281537     3.273894     3.266251     3.258607     3.250964     3.243321
      3.235678     3.228034     3.220391     3.212748     3.205105     3.197462     3.189818     3.182175     3.174532     3.166889
      3.159245     3.151602     3.143959     3.136316     3.128673     3.121029     3.113386     3.105743     3.098100     3.090456
      3.082813     3.075170     3.067527     3.059884     3.052240     3.044597     3.036954     3.029311     3.021667     3.014024
      3.006381     2.998738     2.991095     2.983451     2.975808     2.968165     2.960522     2.952878     2.945235     2.937592
      2.929949     2.922306     2.914662     2.907019     2.899376     2.891733     2.884089     2.876446     2.868803     2.861160
      2.853517     2.845873     2.838230     2.830587     2.822944     2.815300     2.807657     2.800014     2.792371     2.784728
      2.777084     2.769441     2.761798     2.754155     2.746511     2.738868     2.731225     2.723582     2.715939     2.708295
      2.700652     2.693009     2.685366     2.677722     2.670079     2.662436     2.654793     2.647150     2.639506     2.631863
      2.624220     2.616577     2.608933     2.601290     2.593647     2.586004     2.578361     2.570717     2.563074     2.555431
      2.547788     2.540144     2.532501     2.524858     2.517215     2.509572     2.501928     2.494285     2.486642     2.478999
      2.471355     2.463712     2.456069     2.448426     2.440783     2.433139     2.425496     2.417853     2.410210     2.402566
      2.394923     2.387280     2.379637     2.371994     2.364350     2.356707     2.349064     2.341421     2.333777     2.326134
      2.318491     2.310848     2.303205     2.295561     2.287918     2.280275     2.272632     2.264988     2.257345     2.249702
      2.242059     2.234416     2.226772     2.219129     2.211486     2.203843     2.196199     2.188556     2.180913     2.173270
      2.165627     2.157983     2.150340     2.142697     2.135054     2.127410     2.119767     2.112124     2.104481     2.096838
      2.089194     2.081551     2.073908     2.066265     2.058621     2.050978     2.043335     2.035692     2.028049     2.020405
      2.012762     2.005119     1.997476     1.989833     1.982190     1.974546     1.966903     1.959260     1.951617     1.943974
      1.936331     1.928688     1.921045     1.913402     1.905759     1.898115     1.890472     1.882829     1.875186     1.867543
      1.859900     1.852257     1.844614     1.836971     1.829327     1.821684     1.814041     1.806398     1.798755     1.791112
      1.783469     1.775826     1.768183     1.760540     1.752896     1.745253     1.737610     1.729967     1.722324     1.714681
      1.707038     1.699395     1.691752     1.684108     1.676465     1.668822     1.661179     1.653536     1.645893     1.638250
      1.630607     1.622964     1.615321     1.607677     1.600034     1.592391     1.584748     1.577105     1.569462     1.561819
      1.554176     1.546533     1.538890     1.531246     1.523603     1.515960     1.508317     1.500674     1.493031     1.485388
      1.477745     1.470102     1.462458     1.454815     1.447172     1.439529     1.431886     1.424243     1.416600     1.408957
      1.401314     1.393671     1.386027     1.378384     1.370741     1.363098     1.355455     1.347812     1.340169     1.332526
      1.324883     1.317240     1.309596     1.301953     1.294310     1.286667     1.279024     1.271381     1.263738     1.256095
      1.248452     1.240808     1.233165     1.225522     1.217879     1.210236     1.202593     1.194950     1.187307     1.179664
      1.172021     1.164377     1.156734     1.149091     1.141448     1.133805     1.126162     1.118519     1.110876     1.103233
      1.095590     1.087946     1.080303     1.072660     1.065017     1.057374     1.049731     1.042088     1.034445     1.026802
      1.019158     1.011515     1.003872     0.996229     0.988586     0.980943     0.973300     0.965657     0.958014     0.950371
      0.942727     0.935084     0.927441     0.919798     0.912155     0.904512     0.896869     0.889226     0.881583     0.873940
      0.866296     0.858653     0.851010     0.843367     0.835724     0.828081     0.820438     0.812795     0.805152     0.797508
      0.789865     0.782222     0.774579     0.766936     0.759293     0.751650     0.744007     0.736364     0.728721     0.721077
      0.713434     0.705791     0.698148     0.690505     0.682862     0.675219     0.667576     0.659933     0.652290     0.644646
      0.637003     0.629360     0.621717     0.614074     0.606431     0.598788     0.591145     0.583502     0.575858     0.568215
      0.560572     0.552929     0.545286     0.537643     0.530000     0.522357     0.514714     0.507071     0.499427     0.491784
      0.484141     0.476498     0.468855     0.461212     0.453569     0.445925     0.438282     0.430639     0.422996     0.415353
      0.407710     0.400067     0.392424     0.384780     0.377137     0.369494     0.361851     0.354208     0.346565     0.338922
      0.331278     0.323635     0.315992     0.308349     0.300706     0.293063     0.285420     0.277777     0.270133     0.262490
      0.254847     0.247204     0.239561     0.231918     0.224275     0.216631     0.208988     0.201345
 NY phased data points follow
   2.62046E+00  2.74369E+00  2.96156E+00  2.94939E+00  1.82855E+00  2.93688E+00  3.26149E+00  4.76147E+00  6.90301E+00  4.93937E+00
   5.97525E+00  4.65610E+00  4.10649E+00  3.58253E+00  1.86769E+00  2.06465E+00  2.44221E+00 -2.38695E+00  5.44905E+00  4.84179E-01
   2.18442E+00  1.50835E+00  1.34397E+00  6.98316E+00  4.16743E+00  8.01145E+00  3.14649E+00  6.41541E+00  1.43963E+00  4.96161E+00
   2.78376E+00  6.28701E+00  1.26457E+00  4.06288E+00  5.91686E+00  1.85765E+00  2.87551E+00  2.59880E+00  3.93084E+00  5.08683E+00
   2.29941E+00  2.48769E+00 -2.34353E-01  2.57953E+00  3.26063E+00  4.79082E+00  2.13095E+00  4.23374E+00  2.18302E+00  3.88899E+00
   7.97048E-01  3.90866E+00  2.91689E+00  2.74936E+00  9.94208E-02  3.98387E+00  2.67804E+00  3.61829E+00  2.83043E+00  1.99270E+00
   5.45690E+00  2.46814E+00  4.55803E+00  1.75932E+00  7.49714E+00  4.18312E+00  3.12241E+00  4.60787E+00  6.58287E+00  8.15828E-01
   2.04509E+00  3.60223E+00  1.13487E+00  9.19310E-01  5.40276E+00  6.07307E+00  2.79155E+00  4.44750E+00  1.54434E+00  3.52251E+00
  -9.56404E-03  4.48290E+00  6.33099E+00  3.44433E+00  4.42057E+00  3.92188E+00  2.25564E+00  6.96679E-01  2.65749E+00  2.29957E+00
   4.04037E+00  5.01439E+00  4.69131E+00  3.12153E+00  3.07245E+00  4.85458E+00  7.43457E+00  4.42090E+00  2.12814E+00  3.77339E+00
   5.04605E+00  8.25624E+00  1.06713E+01  1.16621E+01  1.19328E+01  1.05934E+01  7.62354E+00  1.11152E+00  2.18777E+00 -3.39355E-01
   2.07877E+00  1.36151E+00  3.44923E+00  9.06460E-02  4.14627E+00  4.44455E+00  2.49812E+00  3.78144E+00  4.89734E+00  4.03876E+00
   5.48876E+00  4.21272E+00  6.37593E+00 -7.29074E-01  7.20298E+00  9.63770E+00  1.50328E+01  1.30196E+01  1.15663E+01  1.13619E+01
   7.04960E+00  5.31113E-01  4.97754E+00  3.67741E+00 -4.28077E-01  4.99636E+00  3.77335E+00  5.17268E+00  5.01962E+00  4.45965E+00
   3.80995E+00  4.28264E+00  4.59109E+00 -1.97610E-01  5.27452E+00  4.47303E+00  4.77296E+00  3.45443E+00  5.11896E+00  4.44091E+00
   3.81021E+00  3.22132E+00  4.22606E+00 -3.53070E-01  2.96427E+00  2.63793E+00  2.65092E+00  4.51553E+00  5.31384E+00  5.90997E+00
   6.54368E+00  5.62878E+00  1.82440E-01  1.19574E+00  1.20754E+00  6.60845E-01 -8.66433E-01  2.11525E-01  3.19342E+00 -4.12769E+00
  -4.25475E+00 -3.60569E+00 -3.89421E+00 -5.20105E+00 -3.06222E+00 -1.36517E+00 -4.28752E+00 -5.41709E+00 -9.16951E-01 -6.39212E+00
  -3.16967E+00 -1.22314E+00  5.06820E-01 -3.07171E+00 -4.05549E+00  1.39388E+00 -2.58547E+00 -3.90039E+00 -1.56390E+00  2.10730E+00
  -2.87924E-03  1.39905E+00  3.40688E+00  6.35414E-01  4.65028E-01  1.23971E+00 -5.43724E-01 -2.12131E-01 -4.31996E+00 -6.22887E+00
  -2.12433E+00 -1.96355E+00 -1.07986E-01  2.05858E+00  1.70713E+00  2.90947E+00  6.50347E+00  2.27338E+00  4.41942E-01 -1.82245E+00
   1.95703E+00  1.23366E+00  2.06550E+00  6.57029E+00  8.28871E+00  1.00149E+01  1.32483E+01  1.14834E+01  8.70023E+00  3.67586E+00
   2.15550E+00 -2.25165E+00 -1.86978E+00  1.81729E+00  2.51378E+00  3.68019E+00  8.84953E+00  5.46649E+00  4.87312E+00  1.15105E+01
   8.92753E+00  8.77128E+00  8.81239E+00  9.92591E+00  1.01968E+01  8.47318E+00  1.03900E+01  9.48757E+00  9.03885E+00  9.57538E+00
   7.11468E+00  8.61139E+00  5.74369E+00  4.65222E+00  9.93234E+00  1.13134E+01  1.68372E+01  1.59506E+01  1.28241E+01  1.74367E+01
   1.59549E+01  1.83768E+01  1.93549E+01  2.49140E+01  3.39121E+01  3.99045E+01  4.97244E+01  5.96916E+01  7.16325E+01  7.63182E+01
   7.85280E+01  7.37924E+01  6.05500E+01  4.67515E+01  3.74926E+01  2.99641E+01  1.91302E+01  1.12973E+01  8.74705E+00  7.10168E+00
   1.05862E+01  7.15069E+00  7.66561E+00  4.95296E+00  5.75282E+00  6.95456E+00  6.78204E+00  2.73511E+00  5.10258E+00  3.90293E+00
   3.74616E+00  7.64837E+00  4.23532E+00  5.88579E+00  6.36923E+00  4.46643E+00  3.26101E+00  5.17799E+00  8.11542E+00  5.09983E+00
   6.08440E+00  8.84320E+00  7.19872E+00  6.58488E+00  9.80241E+00  7.12591E+00  6.14884E+00  3.66482E+00  6.36619E+00  7.12669E+00
   7.15616E+00  1.07970E+01  6.76290E+00  6.37555E+00  5.99155E+00  1.01301E+01  7.15261E+00  6.68362E+00  9.53775E+00  1.14244E+01
   1.16340E+01  1.02681E+01  1.55824E+01  1.27440E+01  1.34097E+01  1.50895E+01  1.21861E+01  1.43550E+01  1.25118E+01  1.19120E+01
   1.62998E+01  1.79216E+01  2.03221E+01  1.66863E+01  1.66546E+01  1.86682E+01  1.90978E+01  2.06806E+01  2.15864E+01  2.16604E+01
   2.26682E+01  2.38759E+01  2.45478E+01  2.44948E+01  2.76230E+01  2.83875E+01  3.17571E+01  3.17077E+01  3.12992E+01  3.09997E+01
   3.58034E+01  3.46852E+01  3.65934E+01  3.96565E+01  3.78869E+01  3.72445E+01  3.60820E+01  3.40608E+01  3.16669E+01  3.05188E+01
   3.13392E+01  3.05572E+01  2.77625E+01  2.78689E+01  2.48622E+01  2.47356E+01  1.83931E+01  1.71757E+01  2.01440E+01  2.08216E+01
   1.97196E+01  2.15987E+01  1.74750E+01  1.97150E+01  1.76781E+01  1.89783E+01  1.64625E+01  1.38407E+01  1.38676E+01  1.55649E+01
   1.24457E+01  1.39077E+01  1.36893E+01  9.93400E+00  1.10724E+01  1.31313E+01  1.06911E+01  9.27427E+00  8.23416E+00  1.06743E+01
   5.59864E+00  6.56672E+00  9.41576E+00  5.27888E+00  1.10626E+01  4.19879E+00  9.45195E+00  8.04636E+00  5.55409E+00  9.39746E+00
   1.03205E+01  1.37905E+01  9.18515E+00  1.01313E+01  1.14300E+01  1.38202E+01  1.52298E+01  1.52135E+01  1.57012E+01  1.04454E+01
   1.39405E+01  1.08306E+01  1.53330E+01  1.60713E+01  1.61582E+01  1.99717E+01  1.57982E+01  1.37885E+01  1.12163E+01  1.51698E+01
   1.59608E+01  1.47574E+01  1.53999E+01  1.42124E+01  1.25010E+01  9.60623E+00  1.20785E+01  8.96115E+00  9.71538E+00  5.72866E+00
   9.01767E+00  4.40246E+00  8.06555E+00  3.02738E+00  5.40640E+00  7.06854E+00  4.23056E+00  5.81341E+00  4.80576E+00  5.61924E+00
   7.15073E+00  3.22266E+00  2.07647E+00  7.53007E+00  4.14234E+00  6.09747E+00  2.02471E+00  2.40083E+00  3.83917E-01  4.92764E+00
   3.13133E+00  2.68412E-01  5.17374E+00  2.38248E+00  7.23950E+00  4.65867E+00  2.55422E+00  1.61795E+00  3.39174E+00  1.44746E+00
   3.23026E+00  3.55043E+00  2.41875E+00  4.60023E+00  2.60159E+00  3.95241E+00  1.22844E+00  3.60262E+00  3.94373E+00  3.30763E+00
   6.20831E+00  7.45563E-01  2.73848E+00  4.75587E+00  4.28777E+00  2.39217E+00  4.06132E+00  2.06270E+00  2.46167E+00  4.50990E+00
   2.09649E-01  3.31627E+00  2.31728E+00  5.56774E+00  3.58171E+00  2.93690E+00  2.18857E+00  1.91721E+00  1.43140E+00  3.13234E+00
   2.73979E-01  3.84820E+00  2.21584E+00  6.00467E+00  4.46634E+00  4.13651E+00  6.38427E+00 -1.53322E-01  3.53217E+00  3.24043E+00
   3.77482E+00 -3.87746E-01  6.64019E+00  9.00810E-01  2.61679E+00  3.44744E+00  3.63555E+00  3.42107E+00
 NY points of the fit to the data follow
   1.90874E+00  1.94289E+00  1.96268E+00  2.00398E+00  2.31128E+00  3.07057E+00  4.20125E+00  5.34407E+00  6.10467E+00  6.24876E+00
   5.75831E+00  4.89057E+00  4.01533E+00  3.26829E+00  2.57010E+00  1.96167E+00  1.62341E+00  1.57758E+00  1.68238E+00  1.83773E+00
   1.98909E+00  2.23381E+00  2.66539E+00  3.10819E+00  3.34651E+00  3.31023E+00  3.11081E+00  2.89911E+00  2.84130E+00  3.17841E+00
   3.94760E+00  4.84731E+00  5.58287E+00  5.96454E+00  5.79017E+00  4.90347E+00  3.56340E+00  2.37345E+00  1.66165E+00  1.37721E+00
   1.42327E+00  1.69248E+00  2.05908E+00  2.49753E+00  3.07726E+00  3.76054E+00  4.35721E+00  4.68993E+00  4.65865E+00  4.25431E+00
   3.62789E+00  3.00052E+00  2.47956E+00  2.07017E+00  1.79072E+00  1.68829E+00  1.78217E+00  2.02426E+00  2.34191E+00  2.65214E+00
   2.84450E+00  2.86846E+00  2.74367E+00  2.57864E+00  2.47610E+00  2.42813E+00  2.39921E+00  2.41096E+00  2.46639E+00  2.52490E+00
   2.59520E+00  2.74959E+00  3.06108E+00  3.49830E+00  3.91096E+00  4.12038E+00  4.01678E+00  3.61138E+00  3.09850E+00  2.68747E+00
   2.42918E+00  2.32364E+00  2.45083E+00  2.84496E+00  3.32419E+00  3.61902E+00  3.60099E+00  3.29695E+00  2.85352E+00  2.46545E+00
   2.21712E+00  2.00224E+00  1.69539E+00  1.42090E+00  1.46061E+00  1.93182E+00  2.42747E+00  2.79154E+00  3.37270E+00  4.66150E+00
   6.71179E+00  8.93359E+00  1.05826E+01  1.11219E+01  1.03990E+01  8.86068E+00  7.23960E+00  5.82398E+00  4.45904E+00  3.24098E+00
   2.54867E+00  2.38908E+00  2.39979E+00  2.39862E+00  2.39317E+00  2.40614E+00  2.44103E+00  2.50075E+00  2.68669E+00  3.01653E+00
   3.18819E+00  3.28406E+00  3.81186E+00  5.24539E+00  7.50587E+00  9.90671E+00  1.16342E+01  1.21429E+01  1.13913E+01  9.91285E+00
   8.39034E+00  7.03074E+00  5.65871E+00  4.38351E+00  3.54831E+00  3.12835E+00  2.87496E+00  2.75397E+00  2.80318E+00  2.98064E+00
   3.21767E+00  3.44333E+00  3.58703E+00  3.62186E+00  3.57363E+00  3.47930E+00  3.36086E+00  3.23463E+00  3.14613E+00  3.10475E+00
   3.06081E+00  2.95449E+00  2.74170E+00  2.45106E+00  2.25723E+00  2.28903E+00  2.49799E+00  2.65846E+00  2.50168E+00  2.04780E+00
   1.56401E+00  1.29880E+00  1.30613E+00  1.44249E+00  1.49032E+00  1.28194E+00  8.35575E-01  2.66654E-01 -3.25633E-01 -7.63396E-01
  -9.46649E-01 -9.92706E-01 -1.10061E+00 -1.42515E+00 -1.84787E+00 -2.08633E+00 -1.98961E+00 -1.70240E+00 -1.51262E+00 -1.56299E+00
  -1.67250E+00 -1.58772E+00 -1.28494E+00 -9.70163E-01 -7.33827E-01 -4.03537E-01  1.84758E-01  1.06977E+00  2.16964E+00  3.26501E+00
   4.06643E+00  4.50169E+00  4.69183E+00  4.66273E+00  4.35681E+00  3.89121E+00  3.48658E+00  3.19427E+00  3.01871E+00  3.04661E+00
   3.38128E+00  3.92981E+00  4.47380E+00  4.93499E+00  5.17628E+00  4.95112E+00  4.24134E+00  3.24494E+00  2.21265E+00  1.13246E+00
   2.10576E-01  3.38072E-02  1.03496E+00  3.06220E+00  5.39864E+00  7.27916E+00  8.19423E+00  7.79085E+00  6.02490E+00  3.37617E+00
   5.48702E-01 -1.69926E+00 -2.63214E+00 -1.86430E+00  3.19732E-01  3.02934E+00  5.44456E+00  7.27678E+00  8.47550E+00  8.93661E+00
   8.68746E+00  8.17963E+00  7.95801E+00  8.21372E+00  8.77736E+00  9.35450E+00  9.79843E+00  9.99867E+00  9.80858E+00  9.21521E+00
   8.50789E+00  8.07561E+00  8.18421E+00  8.92195E+00  1.01864E+01  1.16704E+01  1.29383E+01  1.38149E+01  1.47285E+01  1.55094E+01
   1.55940E+01  1.61506E+01  1.98238E+01  2.65967E+01  3.40441E+01  4.13275E+01  4.96110E+01  5.95772E+01  6.94838E+01  7.65645E+01
   7.84592E+01  7.32672E+01  6.16288E+01  4.81297E+01  3.68776E+01  2.74925E+01  1.87296E+01  1.22266E+01  9.36177E+00  8.57256E+00
   8.11444E+00  7.77060E+00  7.62613E+00  7.54420E+00  7.40507E+00  7.15806E+00  6.79614E+00  6.34863E+00  5.88654E+00  5.47917E+00
   5.16940E+00  4.97810E+00  4.90716E+00  4.92258E+00  4.96172E+00  4.96434E+00  4.91643E+00  4.83782E+00  4.75096E+00  4.68919E+00
   4.69524E+00  4.79024E+00  4.96394E+00  5.18727E+00  5.42596E+00  5.65733E+00  5.87832E+00  6.09582E+00  6.31945E+00  6.57307E+00
   6.88823E+00  7.27262E+00  7.70711E+00  8.16956E+00  8.64842E+00  9.13565E+00  9.61608E+00  1.00754E+01  1.05107E+01  1.09228E+01
   1.13093E+01  1.16679E+01  1.19975E+01  1.22997E+01  1.25799E+01  1.28471E+01  1.31138E+01  1.33963E+01  1.37159E+01  1.41048E+01
   1.45624E+01  1.50394E+01  1.56222E+01  1.64428E+01  1.75191E+01  1.86891E+01  1.97112E+01  2.04722E+01  2.10563E+01  2.15413E+01
   2.20493E+01  2.27563E+01  2.37990E+01  2.52608E+01  2.71587E+01  2.93465E+01  3.14693E+01  3.31677E+01  3.43286E+01  3.50592E+01
   3.54785E+01  3.55890E+01  3.53942E+01  3.50221E+01  3.45875E+01  3.40730E+01  3.34391E+01  3.26912E+01  3.18498E+01  3.09360E+01
   2.99727E+01  2.89813E+01  2.79790E+01  2.69788E+01  2.59892E+01  2.50133E+01  2.40494E+01  2.30966E+01  2.21579E+01  2.12373E+01
   2.03360E+01  1.94538E+01  1.85926E+01  1.77551E+01  1.69428E+01  1.61560E+01  1.53964E+01  1.46659E+01  1.39669E+01  1.33020E+01
   1.26737E+01  1.20847E+01  1.15369E+01  1.10323E+01  1.05727E+01  1.01596E+01  9.79438E+00  9.47828E+00  9.21216E+00  8.99684E+00
   8.83320E+00  8.72220E+00  8.66476E+00  8.66164E+00  8.71339E+00  8.82048E+00  8.98312E+00  9.20114E+00  9.47357E+00  9.79846E+00
   1.01728E+01  1.05923E+01  1.10514E+01  1.15430E+01  1.20584E+01  1.25870E+01  1.31172E+01  1.36364E+01  1.41311E+01  1.45879E+01
   1.49932E+01  1.53345E+01  1.56008E+01  1.57828E+01  1.58740E+01  1.58704E+01  1.57707E+01  1.55767E+01  1.52930E+01  1.49268E+01
   1.44874E+01  1.39858E+01  1.34338E+01  1.28439E+01  1.22288E+01  1.16006E+01  1.09705E+01  1.03484E+01  9.74249E+00  9.15986E+00
   8.60590E+00  8.08448E+00  7.59798E+00  7.14747E+00  6.73305E+00  6.35404E+00  6.00914E+00  5.69650E+00  5.41389E+00  5.15890E+00
   4.92913E+00  4.72229E+00  4.53615E+00  4.36856E+00  4.21742E+00  4.08090E+00  3.95737E+00  3.84546E+00  3.74389E+00  3.65145E+00
   3.56706E+00  3.48981E+00  3.41899E+00  3.35399E+00  3.29417E+00  3.23896E+00  3.18782E+00  3.14039E+00  3.09639E+00  3.05552E+00
   3.01747E+00  2.98191E+00  2.94860E+00  2.91742E+00  2.88825E+00  2.86093E+00  2.83526E+00  2.81104E+00  2.78819E+00  2.76667E+00
   2.74642E+00  2.72733E+00  2.70925E+00  2.69207E+00  2.67579E+00  2.66042E+00  2.64591E+00  2.63214E+00  2.61901E+00  2.60649E+00
   2.59461E+00  2.58338E+00  2.57274E+00  2.56259E+00  2.55287E+00  2.54361E+00  2.53483E+00  2.52653E+00  2.51863E+00  2.51106E+00
   2.50379E+00  2.49687E+00  2.49034E+00  2.48417E+00  2.47827E+00  2.47259E+00  2.46715E+00  2.46202E+00  2.45720E+00  2.45264E+00
   2.44825E+00  2.44404E+00  2.44005E+00  2.43633E+00  2.43286E+00  2.42957E+00  2.42642E+00  2.42343E+00
 NY background values follow
     6.097E-01    6.126E-01    6.154E-01    6.183E-01    6.212E-01    6.241E-01    6.270E-01    6.299E-01    6.328E-01    6.357E-01
     6.386E-01    6.415E-01    6.444E-01    6.472E-01    6.501E-01    6.530E-01    6.559E-01    6.588E-01    6.617E-01    6.646E-01
     6.675E-01    6.704E-01    6.733E-01    6.762E-01    6.790E-01    6.819E-01    6.848E-01    6.877E-01    6.906E-01    6.935E-01
     6.964E-01    6.993E-01    7.022E-01    7.051E-01    7.080E-01    7.108E-01    7.137E-01    7.166E-01    7.195E-01    7.224E-01
     7.253E-01    7.282E-01    7.311E-01    7.340E-01    7.369E-01    7.397E-01    7.426E-01    7.455E-01    7.484E-01    7.513E-01
     7.542E-01    7.571E-01    7.600E-01    7.629E-01    7.658E-01    7.687E-01    7.715E-01    7.744E-01    7.773E-01    7.802E-01
     7.831E-01    7.860E-01    7.889E-01    7.918E-01    7.947E-01    7.976E-01    8.005E-01    8.033E-01    8.062E-01    8.091E-01
     8.120E-01    8.149E-01    8.178E-01    8.207E-01    8.236E-01    8.265E-01    8.294E-01    8.323E-01    8.352E-01    8.380E-01
     8.409E-01    8.438E-01    8.467E-01    8.496E-01    8.525E-01    8.554E-01    8.583E-01    8.612E-01    8.641E-01    8.670E-01
     8.698E-01    8.727E-01    8.756E-01    8.785E-01    8.814E-01    8.843E-01    8.872E-01    8.901E-01    8.930E-01    8.959E-01
     8.988E-01    9.017E-01    9.045E-01    9.074E-01    9.103E-01    9.132E-01    9.161E-01    9.190E-01    9.219E-01    9.248E-01
     9.277E-01    9.306E-01    9.335E-01    9.364E-01    9.392E-01    9.421E-01    9.450E-01    9.479E-01    9.508E-01    9.537E-01
     9.566E-01    9.595E-01    9.624E-01    9.653E-01    9.682E-01    9.711E-01    9.740E-01    9.768E-01    9.797E-01    9.826E-01
     9.855E-01    9.884E-01    9.913E-01    9.942E-01    9.971E-01    1.000E+00    1.003E+00    1.006E+00    1.009E+00    1.012E+00
     1.014E+00    1.017E+00    1.020E+00    1.023E+00    1.026E+00    1.029E+00    1.032E+00    1.035E+00    1.038E+00    1.040E+00
     1.043E+00    1.046E+00    1.049E+00    1.052E+00    1.055E+00    1.058E+00    1.061E+00    1.064E+00    1.067E+00    1.069E+00
     1.072E+00    1.075E+00    1.078E+00    1.081E+00    1.084E+00    1.087E+00    1.090E+00    1.093E+00    1.096E+00    1.098E+00
     1.101E+00    1.104E+00    1.107E+00    1.110E+00    1.113E+00    1.116E+00    1.119E+00    1.122E+00    1.124E+00    1.127E+00
     1.130E+00    1.133E+00    1.136E+00    1.139E+00    1.142E+00    1.145E+00    1.148E+00    1.151E+00    1.153E+00    1.156E+00
     1.159E+00    1.162E+00    1.165E+00    1.168E+00    1.171E+00    1.174E+00    1.177E+00    1.180E+00    1.182E+00    1.185E+00
     1.188E+00    1.191E+00    1.194E+00    1.197E+00    1.200E+00    1.203E+00    1.206E+00    1.209E+00    1.211E+00    1.214E+00
     1.217E+00    1.220E+00    1.223E+00    1.226E+00    1.229E+00    1.232E+00    1.235E+00    1.238E+00    1.240E+00    1.243E+00
     1.246E+00    1.249E+00    1.252E+00    1.255E+00    1.258E+00    1.261E+00    1.264E+00    1.267E+00    1.269E+00    1.272E+00
     1.275E+00    1.278E+00    1.281E+00    1.284E+00    1.287E+00    1.290E+00    1.293E+00    1.296E+00    1.298E+00    1.301E+00
     1.304E+00    1.307E+00    1.310E+00    1.313E+00    1.316E+00    1.319E+00    1.322E+00    1.325E+00    1.328E+00    1.330E+00
     1.333E+00    1.336E+00    1.339E+00    1.342E+00    1.345E+00    1.348E+00    1.351E+00    1.354E+00    1.357E+00    1.359E+00
     1.362E+00    1.365E+00    1.368E+00    1.371E+00    1.374E+00    1.377E+00    1.380E+00    1.383E+00    1.386E+00    1.389E+00
     1.391E+00    1.394E+00    1.397E+00    1.400E+00    1.403E+00    1.406E+00    1.409E+00    1.412E+00    1.415E+00    1.418E+00
     1.421E+00    1.423E+00    1.426E+00    1.429E+00    1.432E+00    1.435E+00    1.438E+00    1.441E+00    1.444E+00    1.447E+00
     1.450E+00    1.452E+00    1.455E+00    1.458E+00    1.461E+00    1.464E+00    1.467E+00    1.470E+00    1.473E+00    1.476E+00
     1.479E+00    1.482E+00    1.484E+00    1.487E+00    1.490E+00    1.493E+00    1.496E+00    1.499E+00    1.502E+00    1.505E+00
     1.508E+00    1.511E+00    1.514E+00    1.516E+00    1.519E+00    1.522E+00    1.525E+00    1.528E+00    1.531E+00    1.534E+00
     1.537E+00    1.540E+00    1.543E+00    1.546E+00    1.548E+00    1.551E+00    1.554E+00    1.557E+00    1.560E+00    1.563E+00
     1.566E+00    1.569E+00    1.572E+00    1.575E+00    1.578E+00    1.580E+00    1.583E+00    1.586E+00    1.589E+00    1.592E+00
     1.595E+00    1.598E+00    1.601E+00    1.604E+00    1.607E+00    1.610E+00    1.612E+00    1.615E+00    1.618E+00    1.621E+00
     1.624E+00    1.627E+00    1.630E+00    1.633E+00    1.636E+00    1.639E+00    1.642E+00    1.644E+00    1.647E+00    1.650E+00
     1.653E+00    1.656E+00    1.659E+00    1.662E+00    1.665E+00    1.668E+00    1.671E+00    1.674E+00    1.677E+00    1.679E+00
     1.682E+00    1.685E+00    1.688E+00    1.691E+00    1.694E+00    1.697E+00    1.700E+00    1.703E+00    1.706E+00    1.709E+00
     1.711E+00    1.714E+00    1.717E+00    1.720E+00    1.723E+00    1.726E+00    1.729E+00    1.732E+00    1.735E+00    1.738E+00
     1.741E+00    1.743E+00    1.746E+00    1.749E+00    1.752E+00    1.755E+00    1.758E+00    1.761E+00    1.764E+00    1.767E+00
     1.770E+00    1.773E+00    1.776E+00    1.778E+00    1.781E+00    1.784E+00    1.787E+00    1.790E+00    1.793E+00    1.796E+00
     1.799E+00    1.802E+00    1.805E+00    1.808E+00    1.810E+00    1.813E+00    1.816E+00    1.819E+00    1.822E+00    1.825E+00
     1.828E+00    1.831E+00    1.834E+00    1.837E+00    1.840E+00    1.843E+00    1.845E+00    1.848E+00    1.851E+00    1.854E+00
     1.857E+00    1.860E+00    1.863E+00    1.866E+00    1.869E+00    1.872E+00    1.875E+00    1.877E+00    1.880E+00    1.883E+00
     1.886E+00    1.889E+00    1.892E+00    1.895E+00    1.898E+00    1.901E+00    1.904E+00    1.907E+00    1.910E+00    1.912E+00
     1.915E+00    1.918E+00    1.921E+00    1.924E+00    1.927E+00    1.930E+00    1.933E+00    1.936E+00    1.939E+00    1.942E+00
     1.945E+00    1.947E+00    1.950E+00    1.953E+00    1.956E+00    1.959E+00    1.962E+00    1.965E+00    1.968E+00    1.971E+00
     1.974E+00    1.977E+00    1.979E+00    1.982E+00    1.985E+00    1.988E+00    1.991E+00    1.994E+00    1.997E+00    2.000E+00
     2.003E+00    2.006E+00    2.009E+00    2.012E+00    2.014E+00    2.017E+00    2.020E+00    2.023E+00    2.026E+00    2.029E+00
     2.032E+00    2.035E+00    2.038E+00    2.041E+00    2.044E+00    2.047E+00    2.049E+00    2.052E+00
 Ala      Conc. = 1.42E+02
