 LCModel (Version 6.3-1L) Copyright: S.W. Provencher.          Ref.: Magn. Reson. Med. 30:672-679 (1993).                
 Slice#1 Row#14 Col#4  K_02_press_1_raw_act
 36 lines in following concentration table = NCONC+1
    Conc.  %SD /Cr+PCr  Metabolite                                         
   13.500 312%   0.116 Ala                                                 
   17.319 100%   0.149 Asp                                                 
   39.340 141%   0.338 Cr                                                  
   77.179  73%   0.662 PCr                                                 
   10.276 102% 8.8E-02 GABA                                                
    8.331 126% 7.1E-02 Glc                                                 
   52.567 164%   0.451 Gln                                                 
  178.662  56%   1.533 Glu                                                 
   32.498  22%   0.279 GPC                                                 
    0.000 999%   0.000 PCh                                                 
   33.133  82%   0.284 GSH                                                 
   64.026 135%   0.549 Ins                                                 
   30.646 154%   0.263 Lac                                                 
  116.564  18%   1.000 NAA                                                 
    0.000 999%   0.000 NAAG                                                
    0.382 881% 3.3E-03 Scyllo                                              
    1.271 999% 1.1E-02 Tau                                                 
    0.000 999%   0.000 -CrCH2                                              
   32.498  22%   0.279 GPC+PCh                                             
  116.564  18%   1.000 NAA+NAAG                                            
  116.519  16%   1.000 Cr+PCr                                              
  231.229  61%   1.984 Glu+Gln                                             
  705.842  22%   6.058 Lip13a                                              
    0.000 999%   0.000 Lip13b                                              
  160.654  50%   1.379 Lip09                                               
   81.276  92%   0.698 MM09                                                
   98.547  59%   0.846 Lip20                                               
    0.000 999%   0.000 MM20                                                
   53.969  98%   0.463 MM12                                                
  182.630  51%   1.567 MM14                                                
  250.382  29%   2.149 MM17                                                
  705.842  22%   6.058 Lip13a+Lip13b                                       
  942.440  14%   8.088 MM14+Lip13a+Lip13b+MM12                             
  241.929  22%   2.076 MM09+Lip09                                          
   98.547  59%   0.846 MM20+Lip20                                          
   6 lines in following misc. output table
  FWHM = 0.046 ppm    S/N =   2                                            
  Data shift = 0.023 ppm                                                   
  Ph:  51 deg       1.7 deg/ppm                                            
  alphaB,S = 5.3E+00,   1.4E+01                                            
   14 spline knots.   Ns = 6(1)                                            
  ( 7) 5 infls.   ( 7) 1 extrs.                                            
  498 points on ppm-axis = NY
      4.000000     3.992357     3.984714     3.977070     3.969427     3.961784     3.954141     3.946497     3.938854     3.931211
      3.923568     3.915925     3.908281     3.900638     3.892995     3.885352     3.877708     3.870065     3.862422     3.854779
      3.847136     3.839492     3.831849     3.824206     3.816563     3.808919     3.801276     3.793633     3.785990     3.778347
      3.770703     3.763060     3.755417     3.747774     3.740130     3.732487     3.724844     3.717201     3.709558     3.701914
      3.694271     3.686628     3.678985     3.671341     3.663698     3.656055     3.648412     3.640769     3.633125     3.625482
      3.617839     3.610196     3.602552     3.594909     3.587266     3.579623     3.571980     3.564336     3.556693     3.549050
      3.541407     3.533763     3.526120     3.518477     3.510834     3.503191     3.495547     3.487904     3.480261     3.472618
      3.464974     3.457331     3.449688     3.442045     3.434402     3.426758     3.419115     3.411472     3.403829     3.396185
      3.388542     3.380899     3.373256     3.365613     3.357969     3.350326     3.342683     3.335040     3.327396     3.319753
      3.312110     3.304467     3.296824     3.289180     3.281537     3.273894     3.266251     3.258607     3.250964     3.243321
      3.235678     3.228034     3.220391     3.212748     3.205105     3.197462     3.189818     3.182175     3.174532     3.166889
      3.159245     3.151602     3.143959     3.136316     3.128673     3.121029     3.113386     3.105743     3.098100     3.090456
      3.082813     3.075170     3.067527     3.059884     3.052240     3.044597     3.036954     3.029311     3.021667     3.014024
      3.006381     2.998738     2.991095     2.983451     2.975808     2.968165     2.960522     2.952878     2.945235     2.937592
      2.929949     2.922306     2.914662     2.907019     2.899376     2.891733     2.884089     2.876446     2.868803     2.861160
      2.853517     2.845873     2.838230     2.830587     2.822944     2.815300     2.807657     2.800014     2.792371     2.784728
      2.777084     2.769441     2.761798     2.754155     2.746511     2.738868     2.731225     2.723582     2.715939     2.708295
      2.700652     2.693009     2.685366     2.677722     2.670079     2.662436     2.654793     2.647150     2.639506     2.631863
      2.624220     2.616577     2.608933     2.601290     2.593647     2.586004     2.578361     2.570717     2.563074     2.555431
      2.547788     2.540144     2.532501     2.524858     2.517215     2.509572     2.501928     2.494285     2.486642     2.478999
      2.471355     2.463712     2.456069     2.448426     2.440783     2.433139     2.425496     2.417853     2.410210     2.402566
      2.394923     2.387280     2.379637     2.371994     2.364350     2.356707     2.349064     2.341421     2.333777     2.326134
      2.318491     2.310848     2.303205     2.295561     2.287918     2.280275     2.272632     2.264988     2.257345     2.249702
      2.242059     2.234416     2.226772     2.219129     2.211486     2.203843     2.196199     2.188556     2.180913     2.173270
      2.165627     2.157983     2.150340     2.142697     2.135054     2.127410     2.119767     2.112124     2.104481     2.096838
      2.089194     2.081551     2.073908     2.066265     2.058621     2.050978     2.043335     2.035692     2.028049     2.020405
      2.012762     2.005119     1.997476     1.989833     1.982190     1.974546     1.966903     1.959260     1.951617     1.943974
      1.936331     1.928688     1.921045     1.913402     1.905759     1.898115     1.890472     1.882829     1.875186     1.867543
      1.859900     1.852257     1.844614     1.836971     1.829327     1.821684     1.814041     1.806398     1.798755     1.791112
      1.783469     1.775826     1.768183     1.760540     1.752896     1.745253     1.737610     1.729967     1.722324     1.714681
      1.707038     1.699395     1.691752     1.684108     1.676465     1.668822     1.661179     1.653536     1.645893     1.638250
      1.630607     1.622964     1.615321     1.607677     1.600034     1.592391     1.584748     1.577105     1.569462     1.561819
      1.554176     1.546533     1.538890     1.531246     1.523603     1.515960     1.508317     1.500674     1.493031     1.485388
      1.477745     1.470102     1.462458     1.454815     1.447172     1.439529     1.431886     1.424243     1.416600     1.408957
      1.401314     1.393671     1.386027     1.378384     1.370741     1.363098     1.355455     1.347812     1.340169     1.332526
      1.324883     1.317240     1.309596     1.301953     1.294310     1.286667     1.279024     1.271381     1.263738     1.256095
      1.248452     1.240808     1.233165     1.225522     1.217879     1.210236     1.202593     1.194950     1.187307     1.179664
      1.172021     1.164377     1.156734     1.149091     1.141448     1.133805     1.126162     1.118519     1.110876     1.103233
      1.095590     1.087946     1.080303     1.072660     1.065017     1.057374     1.049731     1.042088     1.034445     1.026802
      1.019158     1.011515     1.003872     0.996229     0.988586     0.980943     0.973300     0.965657     0.958014     0.950371
      0.942727     0.935084     0.927441     0.919798     0.912155     0.904512     0.896869     0.889226     0.881583     0.873940
      0.866296     0.858653     0.851010     0.843367     0.835724     0.828081     0.820438     0.812795     0.805152     0.797508
      0.789865     0.782222     0.774579     0.766936     0.759293     0.751650     0.744007     0.736364     0.728721     0.721077
      0.713434     0.705791     0.698148     0.690505     0.682862     0.675219     0.667576     0.659933     0.652290     0.644646
      0.637003     0.629360     0.621717     0.614074     0.606431     0.598788     0.591145     0.583502     0.575858     0.568215
      0.560572     0.552929     0.545286     0.537643     0.530000     0.522357     0.514714     0.507071     0.499427     0.491784
      0.484141     0.476498     0.468855     0.461212     0.453569     0.445925     0.438282     0.430639     0.422996     0.415353
      0.407710     0.400067     0.392424     0.384780     0.377137     0.369494     0.361851     0.354208     0.346565     0.338922
      0.331278     0.323635     0.315992     0.308349     0.300706     0.293063     0.285420     0.277777     0.270133     0.262490
      0.254847     0.247204     0.239561     0.231918     0.224275     0.216631     0.208988     0.201345
 NY phased data points follow
   8.50384E+00  8.19499E+00  9.50068E+00  9.54162E+00  1.21396E+01  1.00482E+01  1.00651E+01  1.10849E+01  8.72910E+00  1.03882E+01
   1.07496E+01  8.58223E+00  1.10951E+01  1.14781E+01  9.40125E+00  1.02477E+01  8.82483E+00  8.69859E+00  8.42136E+00  9.56916E+00
   8.64695E+00  5.72359E+00  6.62916E+00  9.42807E+00  8.01186E+00  1.15715E+01  7.44672E+00  7.20095E+00  7.10470E+00  8.62996E+00
   8.80220E+00  7.13961E+00  8.82890E+00  8.69964E+00  1.06402E+01  9.08994E+00  7.08094E+00  9.48493E+00  9.06174E+00  7.23001E+00
   1.05245E+01  6.53291E+00  9.38972E+00  6.26876E+00  8.65646E+00  8.60941E+00  8.31536E+00  8.57413E+00  7.11480E+00  7.63569E+00
   9.18484E+00  7.78772E+00  8.03107E+00  8.04489E+00  6.56835E+00  6.51881E+00  6.89771E+00  7.51651E+00  7.63401E+00  7.09918E+00
   7.61120E+00  3.97731E+00  8.31627E+00  5.21629E+00  5.61498E+00  5.50226E+00  6.53502E+00  4.21747E+00  6.28090E+00  4.79752E+00
   5.23544E+00  6.28089E+00  4.48202E+00  7.33034E+00  6.46998E+00  7.39224E+00  4.14456E+00  7.09038E+00  7.98780E+00  5.53695E+00
   3.73454E+00  4.25300E+00  5.04764E+00  4.21271E+00  6.31106E+00  7.17524E+00  5.97862E+00  3.24760E+00  4.31652E+00  6.81158E+00
   7.09107E+00  4.55214E+00  5.29573E+00  5.53838E+00  4.00097E+00  4.79651E+00  6.95670E+00  5.26731E+00  5.34954E+00  6.79457E+00
   6.85549E+00  9.82240E+00  8.04475E+00  9.43654E+00  1.04434E+01  9.12001E+00  6.71471E+00  6.01319E+00  7.41619E+00  6.51802E+00
   5.23776E+00  5.70770E+00  4.70507E+00  6.36717E+00  6.91608E+00  4.96345E+00  6.49258E+00  6.97314E+00  6.76460E+00  6.43643E+00
   4.38029E+00  5.96094E+00  9.73936E+00  7.10702E+00  7.59208E+00  7.19164E+00  9.33262E+00  9.62170E+00  9.75399E+00  9.41189E+00
   6.97237E+00  7.83823E+00  5.26822E+00  4.69568E+00  5.75447E+00  5.35688E+00  4.85493E+00  7.85855E+00  6.20819E+00  4.32180E+00
   7.11254E+00  5.70696E+00  5.59790E+00  3.00608E+00  7.84424E+00  5.91746E+00  5.52495E+00  5.13672E+00  4.44372E+00  5.91581E+00
   5.53589E+00  4.34373E+00  5.59758E+00  4.17798E+00  3.91589E+00  2.72485E+00  4.76743E+00  2.99253E+00  6.53933E+00  6.76274E+00
   5.00277E+00  6.03168E+00  5.09710E+00  6.51541E+00  7.43400E+00  5.24252E+00  3.12088E+00  8.30938E+00  6.55104E+00  6.01833E+00
   5.77996E+00  4.11637E+00  6.01011E+00  4.23476E+00  3.97777E+00  4.49205E+00  4.11471E+00  3.61545E+00  2.92180E+00  2.76256E+00
   4.17627E+00  4.64521E+00  5.30495E+00  5.24455E+00  4.00117E+00  6.04964E+00  3.90852E+00  4.49019E+00  6.38523E+00  4.73352E+00
   5.05262E+00  4.15078E+00  5.07701E+00  4.35861E+00  5.42321E+00  7.37921E+00  7.63405E+00  4.78634E+00  4.76671E+00  4.21384E+00
   4.27016E+00  4.30348E+00  4.02543E+00  6.62009E+00  5.78840E+00  5.64604E+00  5.39789E+00  3.73708E+00  5.52389E+00  3.91231E+00
   4.92208E+00  5.64293E+00  3.04558E+00  6.44184E+00  5.76238E+00  3.80618E+00  4.21301E+00  4.29322E+00  5.74376E+00  2.45517E+00
   4.40430E+00  4.11011E+00  4.56698E+00  6.34699E+00  3.19987E+00  3.49855E+00  3.80034E+00  3.97827E+00  6.12282E+00  5.51105E+00
   4.69687E+00  3.52254E+00  5.81661E+00  2.58008E+00  3.76585E+00  6.06628E+00  3.98906E+00  6.39047E+00  3.58610E+00  7.02230E+00
   5.82999E+00  4.28348E+00  4.63674E+00  5.71965E+00  2.71249E+00  6.87643E+00  4.01673E+00  4.15998E+00  2.82020E+00  4.71743E+00
   1.61208E+00  2.64720E+00  1.45590E+00  2.48892E+00  4.44944E+00  4.64333E+00  4.13467E+00  4.50522E+00  6.34943E+00  8.41914E+00
   6.49928E+00  9.54734E+00  7.78046E+00  7.85270E+00  5.03737E+00  6.12239E+00  6.51404E+00  5.28548E+00  2.96295E+00  3.28982E+00
   4.71303E+00  6.73085E+00  5.29891E+00  5.20518E+00  6.06555E+00  4.36437E+00  3.08133E+00  5.64694E+00  4.98457E+00  4.98725E+00
   5.38974E+00  2.11878E+00  4.49402E+00  3.05013E+00  5.19534E+00  4.79152E+00  3.53817E+00  4.38754E+00  4.99411E+00  4.14075E+00
   5.57420E+00  6.35184E+00  6.03867E+00  2.67725E+00  5.66351E+00  4.73323E+00  3.71195E+00  6.45128E+00  4.02702E+00  5.72610E+00
   3.83027E+00  7.77971E+00  2.74582E+00  3.01548E+00  5.48847E+00  3.45271E+00  3.49239E+00  3.80740E+00  3.59840E+00  2.83848E+00
   4.94379E+00  2.82151E+00  5.67868E+00  6.09471E+00  5.04479E+00  4.79241E+00  5.99187E+00  4.69659E+00  5.46023E+00  4.49413E+00
   6.94768E+00  4.90521E+00  3.75069E+00  4.49613E+00  4.60989E+00  5.49429E+00  5.23514E+00  5.56428E+00  3.94236E+00  6.65396E+00
   3.61444E+00  3.38720E+00  4.27923E+00  5.81680E+00  4.97643E+00  5.72414E+00  2.70065E+00  2.94055E+00  4.76566E+00  5.13287E+00
   4.79428E+00  4.58372E+00  3.33758E+00  5.45704E+00  5.23386E+00  5.77144E+00  3.51098E+00  5.03502E+00  4.78384E+00  5.51044E+00
   2.19151E+00  3.99893E+00  3.98542E+00  3.61969E+00  6.41951E+00  4.91739E+00  4.86162E+00  7.61316E+00  5.07141E+00  2.53849E+00
   4.56571E+00  3.64521E+00  4.58954E+00  4.79030E+00  5.55500E+00  3.29711E+00  6.97522E+00  4.86236E+00  3.75214E+00  4.13164E+00
   5.02788E+00  5.48704E+00  3.02816E+00  5.58049E+00  6.41134E+00  5.85649E+00  3.97655E+00  7.44691E+00  4.59006E+00  5.60763E+00
   4.27685E+00  6.36507E+00  5.96036E+00  3.75166E+00  4.48524E+00  1.41431E+00  4.78791E+00  3.08161E+00  4.25309E+00  4.12727E+00
   4.08280E+00  3.55690E+00  3.98187E+00  1.69493E+00 -1.35775E-01  4.86994E-01  1.64553E+00  2.31821E+00  5.47017E+00  3.06169E+00
   4.07546E+00  3.40957E+00  3.24784E+00  5.04375E+00  4.34854E+00  2.45463E+00  4.60885E+00  2.36369E+00  4.17052E+00  3.30774E+00
   4.00073E+00  5.81431E+00  1.71197E+00  5.95810E+00  3.60687E+00  2.61485E+00  2.97072E+00  1.43073E+00  4.98477E+00  3.49267E+00
   3.29325E+00  1.36566E+00  9.46175E-01  8.20802E-01  1.98002E+00  3.04530E+00 -7.98437E-01  1.93381E+00  1.07354E+00  1.92373E+00
   1.31569E+00  1.98892E+00  1.11064E+00  4.98088E-01  2.47672E+00  2.13256E+00 -1.33017E-01  9.65775E-01  1.45049E+00  8.89886E-01
  -2.59720E-02  1.76183E+00 -4.81511E-01  1.09679E+00  2.06875E+00 -2.61629E-03  1.85997E+00  3.02721E-01  1.11162E+00  3.03493E+00
  -7.00963E-01 -8.60014E-01  1.82532E+00 -4.18759E-02  6.55347E-01  1.51865E+00  2.86629E+00 -7.14589E-01  9.64760E-01 -1.15484E-01
   9.65749E-01  1.01974E-01  8.12591E-01 -8.79645E-01  1.18422E+00 -7.82344E-01 -7.90726E-01 -1.30401E-01  1.47630E+00  7.68985E-02
  -9.86726E-03 -1.18915E-01  1.32831E+00  4.44997E-01  1.64720E+00 -1.21741E+00  1.25801E+00  8.89470E-02 -1.60174E+00  8.28650E-01
   1.75832E+00 -7.79315E-01 -1.01969E+00  1.74667E+00  2.05764E+00 -6.66517E-01  7.67349E-01  4.71655E-01  1.16196E+00 -1.00753E+00
   1.38361E+00  1.00574E+00 -9.28546E-01  8.63729E-01  1.02506E+00  2.49278E+00  2.46529E+00  1.73349E+00
 NY points of the fit to the data follow
   8.06803E+00  8.07390E+00  8.15883E+00  8.38171E+00  8.61594E+00  8.87648E+00  9.26396E+00  9.65749E+00  9.99039E+00  1.03039E+01
   1.04159E+01  1.02054E+01  9.83712E+00  9.46479E+00  9.04447E+00  8.63007E+00  8.34088E+00  8.16805E+00  8.02413E+00  7.93363E+00
   7.90808E+00  7.89306E+00  7.85206E+00  7.81810E+00  7.83745E+00  7.85885E+00  7.85832E+00  7.90299E+00  7.99289E+00  8.11454E+00
   8.31187E+00  8.51994E+00  8.57274E+00  8.46420E+00  8.31521E+00  8.10576E+00  7.80947E+00  7.55017E+00  7.40711E+00  7.34823E+00
   7.36884E+00  7.45340E+00  7.54039E+00  7.60779E+00  7.67426E+00  7.72590E+00  7.75502E+00  7.77799E+00  7.77503E+00  7.69903E+00
   7.56363E+00  7.42090E+00  7.29841E+00  7.20117E+00  7.13325E+00  7.09228E+00  7.07789E+00  7.07871E+00  7.08078E+00  7.08243E+00
   7.08267E+00  7.06663E+00  7.02170E+00  6.95747E+00  6.89384E+00  6.84225E+00  6.81115E+00  6.79749E+00  6.79407E+00  6.79965E+00
   6.80951E+00  6.81428E+00  6.81391E+00  6.80670E+00  6.78526E+00  6.75199E+00  6.71946E+00  6.68950E+00  6.65612E+00  6.62081E+00
   6.58938E+00  6.55418E+00  6.51154E+00  6.46637E+00  6.42063E+00  6.37103E+00  6.31799E+00  6.26423E+00  6.21718E+00  6.18765E+00
   6.18510E+00  6.20194E+00  6.22033E+00  6.23573E+00  6.25386E+00  6.28044E+00  6.39008E+00  6.74569E+00  7.12264E+00  7.38907E+00
   7.80334E+00  8.36425E+00  8.84459E+00  9.23056E+00  9.31566E+00  8.82786E+00  8.02921E+00  7.43903E+00  7.04406E+00  6.62828E+00
   6.25795E+00  6.08617E+00  6.02885E+00  5.99616E+00  5.96875E+00  5.94475E+00  5.92566E+00  5.90796E+00  5.89636E+00  5.91770E+00
   6.09373E+00  6.54917E+00  7.00920E+00  7.39666E+00  7.96915E+00  8.66284E+00  9.25799E+00  9.71714E+00  9.75403E+00  9.11934E+00
   8.20137E+00  7.54269E+00  7.05890E+00  6.53798E+00  6.09727E+00  5.86190E+00  5.72656E+00  5.63788E+00  5.60505E+00  5.61704E+00
   5.65499E+00  5.69965E+00  5.73419E+00  5.74725E+00  5.73945E+00  5.71527E+00  5.68465E+00  5.64921E+00  5.60818E+00  5.56755E+00
   5.53692E+00  5.51194E+00  5.48683E+00  5.46346E+00  5.44251E+00  5.41570E+00  5.38600E+00  5.36220E+00  5.33674E+00  5.30709E+00
   5.27354E+00  5.23711E+00  5.21322E+00  5.21174E+00  5.22074E+00  5.22340E+00  5.20948E+00  5.17890E+00  5.14117E+00  5.10478E+00
   5.06242E+00  5.01174E+00  4.97157E+00  4.94011E+00  4.90168E+00  4.85767E+00  4.81812E+00  4.79182E+00  4.78548E+00  4.78635E+00
   4.76955E+00  4.72864E+00  4.69527E+00  4.69423E+00  4.70815E+00  4.71610E+00  4.72558E+00  4.74737E+00  4.78995E+00  4.85499E+00
   4.91674E+00  4.94131E+00  4.91717E+00  4.86665E+00  4.80441E+00  4.73486E+00  4.67929E+00  4.65586E+00  4.66445E+00  4.71613E+00
   4.81604E+00  4.92485E+00  5.00890E+00  5.05628E+00  5.02460E+00  4.92788E+00  4.80303E+00  4.61864E+00  4.40880E+00  4.27734E+00
   4.27186E+00  4.33107E+00  4.47479E+00  4.73898E+00  5.00862E+00  5.16903E+00  5.20430E+00  5.06587E+00  4.74566E+00  4.34724E+00
   3.99334E+00  3.73265E+00  3.57275E+00  3.56011E+00  3.77365E+00  4.12700E+00  4.42190E+00  4.59054E+00  4.69308E+00  4.74707E+00
   4.71157E+00  4.61996E+00  4.54751E+00  4.51641E+00  4.51388E+00  4.53224E+00  4.54184E+00  4.51374E+00  4.48858E+00  4.46436E+00
   4.37597E+00  4.24855E+00  4.17327E+00  4.13712E+00  4.10152E+00  4.10956E+00  4.17108E+00  4.21088E+00  4.21096E+00  4.20707E+00
   4.20046E+00  4.17836E+00  4.17227E+00  4.23730E+00  4.52696E+00  5.05822E+00  5.47565E+00  5.85733E+00  6.48239E+00  7.17151E+00
   7.75919E+00  8.22518E+00  8.15634E+00  7.38734E+00  6.48199E+00  5.88913E+00  5.37437E+00  4.80856E+00  4.40054E+00  4.22766E+00
   4.13177E+00  4.07444E+00  4.05208E+00  4.04958E+00  4.05850E+00  4.06993E+00  4.07113E+00  4.06177E+00  4.04692E+00  4.02826E+00
   4.00740E+00  3.98977E+00  3.98136E+00  3.98488E+00  3.99885E+00  4.01993E+00  4.04769E+00  4.08204E+00  4.11962E+00  4.15889E+00
   4.20180E+00  4.24811E+00  4.29578E+00  4.34460E+00  4.39494E+00  4.44549E+00  4.49461E+00  4.54154E+00  4.58508E+00  4.62358E+00
   4.65593E+00  4.68132E+00  4.69888E+00  4.70817E+00  4.70900E+00  4.70130E+00  4.68537E+00  4.66209E+00  4.63252E+00  4.59779E+00
   4.55920E+00  4.51823E+00  4.47634E+00  4.43499E+00  4.39563E+00  4.35961E+00  4.32816E+00  4.30245E+00  4.28366E+00  4.27334E+00
   4.27469E+00  4.29258E+00  4.31303E+00  4.32466E+00  4.34264E+00  4.36626E+00  4.37673E+00  4.37126E+00  4.34462E+00  4.30141E+00
   4.27555E+00  4.28266E+00  4.31470E+00  4.36677E+00  4.43941E+00  4.53725E+00  4.65446E+00  4.75813E+00  4.82328E+00  4.86770E+00
   4.92592E+00  5.00782E+00  5.07410E+00  5.10478E+00  5.14488E+00  5.19333E+00  5.20419E+00  5.16907E+00  5.08153E+00  4.95964E+00
   4.85476E+00  4.80869E+00  4.83009E+00  4.89459E+00  4.98891E+00  5.13549E+00  5.30432E+00  5.40463E+00  5.40332E+00  5.35995E+00
   5.31477E+00  5.24827E+00  5.15296E+00  5.05608E+00  4.96718E+00  4.87896E+00  4.78848E+00  4.69501E+00  4.59870E+00  4.50008E+00
   4.39989E+00  4.29897E+00  4.19822E+00  4.09853E+00  4.00080E+00  3.90587E+00  3.81451E+00  3.72743E+00  3.64530E+00  3.56873E+00
   3.49825E+00  3.43437E+00  3.37754E+00  3.32815E+00  3.28657E+00  3.25311E+00  3.22804E+00  3.21156E+00  3.20376E+00  3.20464E+00
   3.21405E+00  3.23171E+00  3.25712E+00  3.28958E+00  3.32818E+00  3.37173E+00  3.41886E+00  3.46798E+00  3.51733E+00  3.56502E+00
   3.60907E+00  3.64755E+00  3.67860E+00  3.70054E+00  3.71192E+00  3.71158E+00  3.69876E+00  3.67306E+00  3.63451E+00  3.58352E+00
   3.52087E+00  3.44768E+00  3.36529E+00  3.27525E+00  3.17924E+00  3.07894E+00  2.97601E+00  2.87202E+00  2.76837E+00  2.66632E+00
   2.56690E+00  2.47095E+00  2.37906E+00  2.29167E+00  2.20901E+00  2.13118E+00  2.05815E+00  1.98978E+00  1.92584E+00  1.86608E+00
   1.81019E+00  1.75787E+00  1.70880E+00  1.66267E+00  1.61919E+00  1.57807E+00  1.53908E+00  1.50198E+00  1.46657E+00  1.43267E+00
   1.40010E+00  1.36873E+00  1.33844E+00  1.30911E+00  1.28065E+00  1.25297E+00  1.22599E+00  1.19965E+00  1.17389E+00  1.14867E+00
   1.12393E+00  1.09963E+00  1.07574E+00  1.05223E+00  1.02907E+00  1.00624E+00  9.83704E-01  9.61443E-01  9.39441E-01  9.17683E-01
   8.96154E-01  8.74838E-01  8.53716E-01  8.32776E-01  8.12013E-01  7.91418E-01  7.70983E-01  7.50692E-01  7.30535E-01  7.10507E-01
   6.90605E-01  6.70825E-01  6.51159E-01  6.31595E-01  6.12128E-01  5.92756E-01  5.73480E-01  5.54295E-01  5.35191E-01  5.16160E-01
   4.97202E-01  4.78316E-01  4.59502E-01  4.40756E-01  4.22069E-01  4.03435E-01  3.84856E-01  3.66333E-01  3.47866E-01  3.29446E-01
   3.11068E-01  2.92729E-01  2.74430E-01  2.56174E-01  2.37958E-01  2.19773E-01  2.01614E-01  1.83480E-01
 NY background values follow
     7.836E+00    7.818E+00    7.800E+00    7.783E+00    7.765E+00    7.747E+00    7.729E+00    7.712E+00    7.694E+00    7.676E+00
     7.659E+00    7.641E+00    7.623E+00    7.605E+00    7.588E+00    7.570E+00    7.552E+00    7.535E+00    7.517E+00    7.499E+00
     7.482E+00    7.464E+00    7.446E+00    7.428E+00    7.411E+00    7.393E+00    7.375E+00    7.358E+00    7.340E+00    7.323E+00
     7.305E+00    7.287E+00    7.270E+00    7.252E+00    7.234E+00    7.217E+00    7.199E+00    7.182E+00    7.164E+00    7.147E+00
     7.129E+00    7.112E+00    7.094E+00    7.077E+00    7.059E+00    7.042E+00    7.024E+00    7.007E+00    6.989E+00    6.972E+00
     6.954E+00    6.937E+00    6.920E+00    6.902E+00    6.885E+00    6.868E+00    6.850E+00    6.833E+00    6.816E+00    6.799E+00
     6.781E+00    6.764E+00    6.747E+00    6.730E+00    6.713E+00    6.696E+00    6.679E+00    6.661E+00    6.644E+00    6.627E+00
     6.610E+00    6.593E+00    6.576E+00    6.560E+00    6.543E+00    6.526E+00    6.509E+00    6.492E+00    6.475E+00    6.459E+00
     6.442E+00    6.425E+00    6.408E+00    6.392E+00    6.375E+00    6.359E+00    6.342E+00    6.326E+00    6.309E+00    6.293E+00
     6.276E+00    6.260E+00    6.244E+00    6.227E+00    6.211E+00    6.195E+00    6.179E+00    6.162E+00    6.146E+00    6.130E+00
     6.114E+00    6.098E+00    6.082E+00    6.066E+00    6.050E+00    6.034E+00    6.018E+00    6.002E+00    5.987E+00    5.971E+00
     5.955E+00    5.939E+00    5.924E+00    5.908E+00    5.892E+00    5.877E+00    5.861E+00    5.846E+00    5.830E+00    5.815E+00
     5.799E+00    5.784E+00    5.768E+00    5.753E+00    5.738E+00    5.722E+00    5.707E+00    5.692E+00    5.676E+00    5.661E+00
     5.646E+00    5.631E+00    5.616E+00    5.601E+00    5.586E+00    5.570E+00    5.555E+00    5.540E+00    5.525E+00    5.510E+00
     5.496E+00    5.481E+00    5.466E+00    5.451E+00    5.436E+00    5.421E+00    5.406E+00    5.392E+00    5.377E+00    5.362E+00
     5.347E+00    5.333E+00    5.318E+00    5.303E+00    5.289E+00    5.274E+00    5.260E+00    5.245E+00    5.230E+00    5.216E+00
     5.201E+00    5.187E+00    5.172E+00    5.158E+00    5.143E+00    5.129E+00    5.114E+00    5.100E+00    5.086E+00    5.071E+00
     5.057E+00    5.043E+00    5.028E+00    5.014E+00    4.999E+00    4.985E+00    4.971E+00    4.957E+00    4.942E+00    4.928E+00
     4.914E+00    4.899E+00    4.885E+00    4.871E+00    4.857E+00    4.843E+00    4.828E+00    4.814E+00    4.800E+00    4.786E+00
     4.772E+00    4.757E+00    4.743E+00    4.729E+00    4.715E+00    4.701E+00    4.687E+00    4.672E+00    4.658E+00    4.644E+00
     4.630E+00    4.616E+00    4.602E+00    4.588E+00    4.573E+00    4.559E+00    4.545E+00    4.531E+00    4.517E+00    4.503E+00
     4.489E+00    4.475E+00    4.461E+00    4.446E+00    4.432E+00    4.418E+00    4.404E+00    4.390E+00    4.376E+00    4.362E+00
     4.348E+00    4.333E+00    4.319E+00    4.305E+00    4.291E+00    4.277E+00    4.263E+00    4.249E+00    4.234E+00    4.220E+00
     4.206E+00    4.192E+00    4.178E+00    4.164E+00    4.149E+00    4.135E+00    4.121E+00    4.107E+00    4.093E+00    4.078E+00
     4.064E+00    4.050E+00    4.036E+00    4.021E+00    4.007E+00    3.993E+00    3.979E+00    3.964E+00    3.950E+00    3.936E+00
     3.921E+00    3.907E+00    3.893E+00    3.878E+00    3.864E+00    3.850E+00    3.835E+00    3.821E+00    3.806E+00    3.792E+00
     3.778E+00    3.763E+00    3.749E+00    3.734E+00    3.720E+00    3.705E+00    3.691E+00    3.676E+00    3.662E+00    3.647E+00
     3.633E+00    3.618E+00    3.603E+00    3.589E+00    3.574E+00    3.560E+00    3.545E+00    3.530E+00    3.516E+00    3.501E+00
     3.486E+00    3.472E+00    3.457E+00    3.442E+00    3.427E+00    3.413E+00    3.398E+00    3.383E+00    3.368E+00    3.353E+00
     3.338E+00    3.324E+00    3.309E+00    3.294E+00    3.279E+00    3.264E+00    3.249E+00    3.234E+00    3.219E+00    3.204E+00
     3.189E+00    3.174E+00    3.159E+00    3.144E+00    3.129E+00    3.114E+00    3.099E+00    3.084E+00    3.068E+00    3.053E+00
     3.038E+00    3.023E+00    3.008E+00    2.992E+00    2.977E+00    2.962E+00    2.947E+00    2.931E+00    2.916E+00    2.901E+00
     2.885E+00    2.870E+00    2.855E+00    2.839E+00    2.824E+00    2.808E+00    2.793E+00    2.777E+00    2.762E+00    2.746E+00
     2.731E+00    2.715E+00    2.700E+00    2.684E+00    2.669E+00    2.653E+00    2.637E+00    2.622E+00    2.606E+00    2.590E+00
     2.575E+00    2.559E+00    2.543E+00    2.528E+00    2.512E+00    2.496E+00    2.480E+00    2.465E+00    2.449E+00    2.433E+00
     2.417E+00    2.401E+00    2.385E+00    2.370E+00    2.354E+00    2.338E+00    2.322E+00    2.306E+00    2.290E+00    2.274E+00
     2.258E+00    2.242E+00    2.226E+00    2.210E+00    2.194E+00    2.178E+00    2.162E+00    2.146E+00    2.130E+00    2.114E+00
     2.098E+00    2.082E+00    2.065E+00    2.049E+00    2.033E+00    2.017E+00    2.001E+00    1.985E+00    1.968E+00    1.952E+00
     1.936E+00    1.920E+00    1.904E+00    1.887E+00    1.871E+00    1.855E+00    1.838E+00    1.822E+00    1.806E+00    1.790E+00
     1.773E+00    1.757E+00    1.741E+00    1.724E+00    1.708E+00    1.692E+00    1.675E+00    1.659E+00    1.643E+00    1.626E+00
     1.610E+00    1.593E+00    1.577E+00    1.561E+00    1.544E+00    1.528E+00    1.511E+00    1.495E+00    1.478E+00    1.462E+00
     1.446E+00    1.429E+00    1.413E+00    1.396E+00    1.380E+00    1.363E+00    1.347E+00    1.330E+00    1.314E+00    1.297E+00
     1.281E+00    1.264E+00    1.248E+00    1.232E+00    1.215E+00    1.199E+00    1.182E+00    1.166E+00    1.149E+00    1.133E+00
     1.116E+00    1.100E+00    1.083E+00    1.067E+00    1.050E+00    1.034E+00    1.017E+00    1.001E+00    9.843E-01    9.678E-01
     9.514E-01    9.349E-01    9.185E-01    9.020E-01    8.856E-01    8.691E-01    8.527E-01    8.363E-01    8.198E-01    8.034E-01
     7.870E-01    7.706E-01    7.542E-01    7.378E-01    7.214E-01    7.050E-01    6.886E-01    6.722E-01    6.559E-01    6.395E-01
     6.232E-01    6.068E-01    5.905E-01    5.741E-01    5.578E-01    5.415E-01    5.251E-01    5.088E-01    4.925E-01    4.762E-01
     4.599E-01    4.436E-01    4.273E-01    4.110E-01    3.947E-01    3.784E-01    3.622E-01    3.459E-01    3.296E-01    3.133E-01
     2.971E-01    2.808E-01    2.646E-01    2.483E-01    2.321E-01    2.158E-01    1.996E-01    1.833E-01    1.671E-01    1.508E-01
     1.346E-01    1.184E-01    1.021E-01    8.591E-02    6.969E-02    5.346E-02    3.724E-02    2.102E-02
 Ala      Conc. = 1.35E+01
