 LCModel (Version 6.3-1L) Copyright: S.W. Provencher.          Ref.: Magn. Reson. Med. 30:672-679 (1993).                
 Slice#1 Row#12 Col#12  K_02_press_1_raw_act
 36 lines in following concentration table = NCONC+1
    Conc.  %SD /Cr+PCr  Metabolite                                         
    2.472 532% 7.5E-02 Ala                                                 
    5.976  91%   0.182 Asp                                                 
    0.000 999%   0.000 Cr                                                  
   32.885  35%   1.000 PCr                                                 
    3.992  81%   0.121 GABA                                                
    4.035  81%   0.123 Glc                                                 
    1.072 999% 3.3E-02 Gln                                                 
   60.430  55%   1.838 Glu                                                 
    6.764  53%   0.206 GPC                                                 
    0.000 999%   0.000 PCh                                                 
    9.606 115%   0.292 GSH                                                 
    2.920 999% 8.9E-02 Ins                                                 
    6.986 203%   0.212 Lac                                                 
   82.587  27%   2.511 NAA                                                 
    0.000 999%   0.000 NAAG                                                
    1.361  79% 4.1E-02 Scyllo                                              
    7.566  72%   0.230 Tau                                                 
    4.815 117%   0.146 -CrCH2                                              
    6.764  53%   0.206 GPC+PCh                                             
   82.587  27%   2.511 NAA+NAAG                                            
   32.885  35%   1.000 Cr+PCr                                              
   61.502  62%   1.870 Glu+Gln                                             
 2.87E+03  11%  87.390 Lip13a                                              
    0.000 999%   0.000 Lip13b                                              
  713.074  15%  21.684 Lip09                                               
   44.070 179%   1.340 MM09                                                
  269.870  27%   8.206 Lip20                                               
    0.000 999%   0.000 MM20                                                
   17.094 285%   0.520 MM12                                                
  972.935  10%  29.586+MM14                                                
  364.561  25%  11.086 MM17                                                
 2.87E+03  11%  87.390 Lip13a+Lip13b                                       
 3.86E+03   7% 117.495 MM14+Lip13a+Lip13b+MM12                             
  757.144  13%  23.024 MM09+Lip09                                          
  269.870  27%   8.206 MM20+Lip20                                          
   6 lines in following misc. output table
  FWHM = 0.054 ppm    S/N =   4                                            
  Data shift = 0.008 ppm                                                   
  Ph:  30 deg     -34.1 deg/ppm                                            
  alphaB,S = 2.8E+01,   8.4E+00                                            
   14 spline knots.   Ns = 6(1)                                            
   4 inflections.     4 extrema                                            
  498 points on ppm-axis = NY
      4.000000     3.992357     3.984714     3.977070     3.969427     3.961784     3.954141     3.946497     3.938854     3.931211
      3.923568     3.915925     3.908281     3.900638     3.892995     3.885352     3.877708     3.870065     3.862422     3.854779
      3.847136     3.839492     3.831849     3.824206     3.816563     3.808919     3.801276     3.793633     3.785990     3.778347
      3.770703     3.763060     3.755417     3.747774     3.740130     3.732487     3.724844     3.717201     3.709558     3.701914
      3.694271     3.686628     3.678985     3.671341     3.663698     3.656055     3.648412     3.640769     3.633125     3.625482
      3.617839     3.610196     3.602552     3.594909     3.587266     3.579623     3.571980     3.564336     3.556693     3.549050
      3.541407     3.533763     3.526120     3.518477     3.510834     3.503191     3.495547     3.487904     3.480261     3.472618
      3.464974     3.457331     3.449688     3.442045     3.434402     3.426758     3.419115     3.411472     3.403829     3.396185
      3.388542     3.380899     3.373256     3.365613     3.357969     3.350326     3.342683     3.335040     3.327396     3.319753
      3.312110     3.304467     3.296824     3.289180     3.281537     3.273894     3.266251     3.258607     3.250964     3.243321
      3.235678     3.228034     3.220391     3.212748     3.205105     3.197462     3.189818     3.182175     3.174532     3.166889
      3.159245     3.151602     3.143959     3.136316     3.128673     3.121029     3.113386     3.105743     3.098100     3.090456
      3.082813     3.075170     3.067527     3.059884     3.052240     3.044597     3.036954     3.029311     3.021667     3.014024
      3.006381     2.998738     2.991095     2.983451     2.975808     2.968165     2.960522     2.952878     2.945235     2.937592
      2.929949     2.922306     2.914662     2.907019     2.899376     2.891733     2.884089     2.876446     2.868803     2.861160
      2.853517     2.845873     2.838230     2.830587     2.822944     2.815300     2.807657     2.800014     2.792371     2.784728
      2.777084     2.769441     2.761798     2.754155     2.746511     2.738868     2.731225     2.723582     2.715939     2.708295
      2.700652     2.693009     2.685366     2.677722     2.670079     2.662436     2.654793     2.647150     2.639506     2.631863
      2.624220     2.616577     2.608933     2.601290     2.593647     2.586004     2.578361     2.570717     2.563074     2.555431
      2.547788     2.540144     2.532501     2.524858     2.517215     2.509572     2.501928     2.494285     2.486642     2.478999
      2.471355     2.463712     2.456069     2.448426     2.440783     2.433139     2.425496     2.417853     2.410210     2.402566
      2.394923     2.387280     2.379637     2.371994     2.364350     2.356707     2.349064     2.341421     2.333777     2.326134
      2.318491     2.310848     2.303205     2.295561     2.287918     2.280275     2.272632     2.264988     2.257345     2.249702
      2.242059     2.234416     2.226772     2.219129     2.211486     2.203843     2.196199     2.188556     2.180913     2.173270
      2.165627     2.157983     2.150340     2.142697     2.135054     2.127410     2.119767     2.112124     2.104481     2.096838
      2.089194     2.081551     2.073908     2.066265     2.058621     2.050978     2.043335     2.035692     2.028049     2.020405
      2.012762     2.005119     1.997476     1.989833     1.982190     1.974546     1.966903     1.959260     1.951617     1.943974
      1.936331     1.928688     1.921045     1.913402     1.905759     1.898115     1.890472     1.882829     1.875186     1.867543
      1.859900     1.852257     1.844614     1.836971     1.829327     1.821684     1.814041     1.806398     1.798755     1.791112
      1.783469     1.775826     1.768183     1.760540     1.752896     1.745253     1.737610     1.729967     1.722324     1.714681
      1.707038     1.699395     1.691752     1.684108     1.676465     1.668822     1.661179     1.653536     1.645893     1.638250
      1.630607     1.622964     1.615321     1.607677     1.600034     1.592391     1.584748     1.577105     1.569462     1.561819
      1.554176     1.546533     1.538890     1.531246     1.523603     1.515960     1.508317     1.500674     1.493031     1.485388
      1.477745     1.470102     1.462458     1.454815     1.447172     1.439529     1.431886     1.424243     1.416600     1.408957
      1.401314     1.393671     1.386027     1.378384     1.370741     1.363098     1.355455     1.347812     1.340169     1.332526
      1.324883     1.317240     1.309596     1.301953     1.294310     1.286667     1.279024     1.271381     1.263738     1.256095
      1.248452     1.240808     1.233165     1.225522     1.217879     1.210236     1.202593     1.194950     1.187307     1.179664
      1.172021     1.164377     1.156734     1.149091     1.141448     1.133805     1.126162     1.118519     1.110876     1.103233
      1.095590     1.087946     1.080303     1.072660     1.065017     1.057374     1.049731     1.042088     1.034445     1.026802
      1.019158     1.011515     1.003872     0.996229     0.988586     0.980943     0.973300     0.965657     0.958014     0.950371
      0.942727     0.935084     0.927441     0.919798     0.912155     0.904512     0.896869     0.889226     0.881583     0.873940
      0.866296     0.858653     0.851010     0.843367     0.835724     0.828081     0.820438     0.812795     0.805152     0.797508
      0.789865     0.782222     0.774579     0.766936     0.759293     0.751650     0.744007     0.736364     0.728721     0.721077
      0.713434     0.705791     0.698148     0.690505     0.682862     0.675219     0.667576     0.659933     0.652290     0.644646
      0.637003     0.629360     0.621717     0.614074     0.606431     0.598788     0.591145     0.583502     0.575858     0.568215
      0.560572     0.552929     0.545286     0.537643     0.530000     0.522357     0.514714     0.507071     0.499427     0.491784
      0.484141     0.476498     0.468855     0.461212     0.453569     0.445925     0.438282     0.430639     0.422996     0.415353
      0.407710     0.400067     0.392424     0.384780     0.377137     0.369494     0.361851     0.354208     0.346565     0.338922
      0.331278     0.323635     0.315992     0.308349     0.300706     0.293063     0.285420     0.277777     0.270133     0.262490
      0.254847     0.247204     0.239561     0.231918     0.224275     0.216631     0.208988     0.201345
 NY phased data points follow
   9.55314E-01  1.28184E+00  1.36798E-01 -1.49927E+00  3.10297E+00  2.72427E+00  8.76222E-01  1.72954E+00  2.37545E+00  1.82495E+00
   2.20717E+00  2.34450E+00 -7.97351E-01  1.77112E+00  1.58362E+00  6.34317E-01 -1.37093E+00 -4.01597E-01  2.26270E-01 -6.78955E-01
   1.10486E+00  8.71603E-01 -6.21217E-02  7.42105E-01  5.79198E-01  6.25720E-01  3.70064E-01  1.38194E+00  8.39052E-02 -6.48372E-01
   2.03841E+00  1.91301E+00  3.78173E-01 -7.69589E-01 -1.09620E+00 -6.16648E-01  5.30831E-01  1.41029E+00 -9.62916E-01  1.71839E+00
  -2.14974E-02 -7.76122E-01 -1.79869E+00 -6.06883E-01 -3.34616E-01  9.48415E-01 -2.67899E-01  5.61160E-01 -6.94785E-01  1.53957E+00
  -2.18621E+00  1.22829E+00  3.23517E+00 -9.04881E-01 -3.16023E-01  5.07821E-01  1.01042E+00  5.25516E-01 -7.70166E-01  1.14708E+00
   2.85279E-01 -2.36983E+00  7.76780E-02 -5.17732E-02  2.89645E-01 -2.39369E-01  3.66639E+00 -6.17885E-01  5.21520E-01 -1.05603E+00
   1.72393E+00  3.28577E+00  1.17997E+00  5.71031E-01  9.35636E-01  8.03377E-01  1.77538E+00  1.26950E+00  3.34060E-01 -2.04578E+00
  -7.71880E-01 -1.29659E+00 -2.24321E+00  1.13260E+00 -1.14362E+00 -1.33568E+00 -8.97652E-01 -7.26620E-01  1.27230E+00 -1.09049E+00
   3.75701E-01  1.66568E+00  2.17638E+00 -6.48519E-02  2.97632E-01 -2.68255E-01  6.16106E-01 -1.14518E+00  6.59050E-01  8.79201E-01
  -2.50890E-01  1.45091E+00  2.59745E+00  2.37417E+00  2.68650E+00  1.83842E+00 -3.22874E-02  4.86209E-01  9.74171E-01  1.44357E+00
  -6.34640E-02  4.77200E-01  4.41915E-01  5.07375E-01 -5.82248E-01 -1.56275E+00  1.02451E-01  4.59354E-01 -7.65338E-02 -1.56112E+00
   3.64767E-01 -1.89188E+00  1.32346E+00 -1.54648E+00 -3.07645E-01  4.53054E-01  2.96908E+00  3.71667E+00  1.87601E+00  1.96240E+00
   2.55576E+00  2.56812E+00  4.11947E+00  8.41372E-02  4.42090E-01  1.67355E+00 -1.48420E-01  7.38602E-01 -2.12723E+00 -1.50953E+00
  -1.85681E+00  2.24204E+00  8.15990E-01  1.69156E+00  1.43992E+00  8.03297E-01  1.46584E+00  7.38065E-01  1.18021E+00 -9.91774E-02
  -3.09830E-01  4.74307E-01  1.81050E+00  8.15753E-01  8.28090E-01 -6.20203E-02  1.23608E+00 -6.86507E-02 -1.02689E+00  2.18389E+00
   1.20250E+00  1.61412E+00  1.26777E+00  9.30381E-01  1.08546E+00  2.50464E+00  2.59222E+00  2.70097E+00  7.56871E-01  3.33056E+00
   2.00518E+00 -6.89320E-01  1.62122E+00 -9.56149E-03  5.64882E-01  4.82883E-01 -5.31607E-01 -1.64104E+00  1.84383E+00  1.32011E-01
  -1.64352E+00 -2.63603E-01  2.59149E-01 -7.68551E-01  4.09032E-01  4.48918E-01 -5.35771E-01  5.51283E-01  2.11519E-01 -4.76464E-01
   1.99509E+00  5.85176E-01  2.75446E+00 -3.77663E-01  1.45845E+00  1.19534E+00  3.11271E-01  2.62397E+00  9.36704E-01 -7.42220E-02
   6.53906E-01 -1.36579E+00 -1.45147E+00 -2.59592E-01  3.88085E-01 -1.23272E+00  2.36326E+00  7.64340E-01  9.25962E-01  1.46500E+00
   1.01414E+00 -1.38964E+00 -1.11476E+00  1.02400E+00 -2.35854E+00  3.68674E-01  1.09626E+00  3.82185E+00  1.94887E+00  2.35004E+00
   1.33052E+00  1.15900E+00 -2.30929E+00  2.23992E+00 -4.67917E-01  3.95082E-01  9.73729E-01  1.71684E+00  8.10228E-04 -6.27181E-01
   1.39736E+00 -6.77005E-01 -6.88346E-02  2.12098E+00  9.87793E-02  1.53734E+00  4.63936E-01  1.89612E+00  6.66265E-01  9.49729E-01
  -1.30811E-01  1.29444E-01 -1.45662E+00  1.33361E-01 -1.47976E+00  1.59343E+00  2.28928E+00 -1.30781E-01 -3.99351E+00  1.14908E-01
  -3.82428E-01 -1.63143E+00 -1.35585E-01 -1.34899E+00  3.97038E-01 -1.69925E+00 -1.40580E+00 -5.36732E+00 -1.10334E+00  4.49568E+00
   6.48386E+00  6.30532E+00  6.95135E+00  5.04888E+00  6.81465E+00  5.03923E+00  5.34225E+00  3.66094E+00  3.73384E+00  2.15331E+00
   1.19039E+00  3.35708E+00  3.86878E+00  4.79255E+00  2.16822E+00  3.72963E+00  1.10877E+00  1.17142E+00  1.62550E+00  3.27296E+00
   6.39832E+00  4.60864E+00  3.27126E+00  3.84786E+00  5.11590E+00  2.45946E+00  2.30182E+00  4.40291E+00  3.05938E+00  3.49649E+00
   1.92533E+00  1.43715E+00  2.28131E+00  3.69571E+00  4.04594E+00  4.53131E+00  3.56740E+00  5.31314E+00  3.03329E+00  4.68041E+00
   4.14952E+00  1.79481E+00  3.48684E+00  2.56786E+00  4.21694E+00  2.20255E+00  6.16167E+00  6.65124E+00  4.85500E+00  3.84766E+00
   5.50066E+00  6.12009E+00  6.96595E+00  3.81770E+00  5.59390E+00  3.97589E+00  4.58593E+00  6.55710E+00  6.99646E+00  4.88232E+00
   6.22561E+00  8.24354E+00  8.42906E+00  8.18168E+00  5.46084E+00  1.10820E+01  6.97252E+00  1.04290E+01  1.29178E+01  1.19459E+01
   1.21139E+01  1.12195E+01  1.21847E+01  1.36459E+01  1.39126E+01  1.41440E+01  1.36727E+01  1.46194E+01  1.27855E+01  1.25706E+01
   1.43203E+01  1.50761E+01  1.16303E+01  1.51109E+01  1.50470E+01  1.25013E+01  1.24287E+01  1.20138E+01  1.17098E+01  9.76555E+00
   1.09462E+01  1.06452E+01  1.01951E+01  9.88455E+00  7.36333E+00  9.21854E+00  6.56946E+00  6.10677E+00  8.40786E+00  7.81277E+00
   6.37309E+00  8.19422E+00  7.07337E+00  5.41477E+00  6.04070E+00  5.08112E+00  4.99226E+00  4.44090E+00  5.99377E+00  5.73846E+00
   5.77672E+00  5.22460E+00  5.20552E+00  6.49663E+00  6.21847E+00  4.78702E+00  1.96498E+00  3.89324E+00  4.80234E+00  4.17721E+00
   4.07857E+00  5.45871E+00  3.73409E+00  2.90247E+00  3.01817E+00  3.14088E+00  1.27391E+00  3.35986E+00  3.34100E+00  2.40382E+00
   3.81300E+00  3.40974E+00  2.51629E+00  2.29761E+00  6.32803E+00  3.07836E+00  4.34785E+00  2.66141E+00  3.35672E+00  2.72668E+00
   2.71957E+00  1.62260E+00  1.35442E+00  1.43391E+00  2.34941E+00  4.07287E+00  1.47460E+00  2.32475E+00  3.68421E+00  2.34029E+00
   3.02994E+00  3.14692E+00  2.16771E+00  2.79098E+00  4.10794E+00  2.09400E+00  3.18765E+00  3.23182E+00  3.84870E+00  3.82718E+00
   2.26878E+00 -1.72052E-01  2.55014E+00  2.34726E+00  1.40526E+00  2.08366E+00  1.40526E+00  1.66789E+00  2.31596E+00  1.79321E+00
   1.09798E+00  1.03657E-01  1.41369E+00 -1.82101E-01  3.00571E-01  5.24258E-01  2.91664E+00  8.43091E-01  2.54879E+00  1.94237E+00
   1.44499E+00  2.34643E+00  3.87800E+00 -1.36445E-01 -2.05604E+00  9.82031E-01  3.53286E-01 -7.46656E-01 -7.57731E-01  1.55699E-01
   2.15561E+00  1.23703E+00  8.86776E-01  6.02082E-01 -3.70512E-01  1.85105E+00  2.00455E+00 -1.29437E+00 -4.82360E-01 -9.59135E-01
   2.50412E+00 -5.02147E-01 -5.63259E-01 -5.89816E-01 -4.14884E-02 -8.53281E-01 -1.44090E+00 -1.52600E+00  1.22033E+00 -3.16795E-02
   1.49717E+00  1.40047E+00 -8.60357E-01 -8.89436E-01  6.67669E-01 -8.84066E-02 -9.87150E-01  3.33559E-01 -8.21974E-01  1.65641E+00
  -1.41959E+00  4.96686E-01 -2.51015E-01 -1.81564E+00  3.11822E-01  6.70218E-01 -1.75253E+00 -1.73036E+00  1.30529E+00 -1.24159E+00
  -1.12309E+00 -1.08317E+00 -4.10318E-02  2.12379E-01 -6.55951E-01 -1.18902E+00 -1.56194E+00  1.92209E-01
 NY points of the fit to the data follow
   1.10878E-01  5.54798E-02 -1.07664E-01 -4.16762E-01 -6.30239E-01 -5.62777E-01 -1.05711E-01  6.13850E-01  1.23762E+00  1.51568E+00
   1.47796E+00  1.32214E+00  1.21581E+00  1.14525E+00  9.73464E-01  6.33776E-01  3.15366E-01  2.07282E-01  1.67070E-01  1.49830E-01
   1.55022E-01  1.64656E-01  2.00088E-01  2.40900E-01  2.28384E-01  1.75956E-01  8.81918E-02  1.72325E-02  3.72537E-02  1.48232E-01
   3.24847E-01  5.23116E-01  7.12011E-01  8.68108E-01  9.32430E-01  8.56781E-01  6.09915E-01  3.26620E-01  1.90073E-01  1.47906E-01
   1.22664E-01  1.17414E-01  1.40345E-01  1.89010E-01  2.43860E-01  3.07256E-01  3.48714E-01  3.49272E-01  3.40771E-01  3.32479E-01
   3.24953E-01  3.21162E-01  3.11488E-01  2.98710E-01  2.91896E-01  2.81809E-01  2.62972E-01  2.46675E-01  2.44174E-01  2.50085E-01
   2.54100E-01  2.49691E-01  2.44352E-01  2.43892E-01  2.56570E-01  2.75792E-01  2.86676E-01  2.86391E-01  2.76956E-01  2.53808E-01
   2.22989E-01  2.04487E-01  2.12772E-01  2.56582E-01  3.25995E-01  3.84911E-01  3.99984E-01  3.77531E-01  3.35153E-01  2.94046E-01
   2.52517E-01  2.09660E-01  1.80470E-01  2.01036E-01  2.87798E-01  3.94100E-01  4.65130E-01  4.85811E-01  4.76407E-01  4.69158E-01
   4.76169E-01  4.67519E-01  4.02712E-01  2.90615E-01  2.01376E-01  1.43659E-01  1.02491E-02 -2.86851E-01 -5.31914E-01 -5.12912E-01
  -6.31578E-02  7.12453E-01  1.42060E+00  1.75990E+00  1.73319E+00  1.55363E+00  1.43155E+00  1.36778E+00  1.18831E+00  8.13025E-01
   4.57068E-01  3.53886E-01  3.43832E-01  3.46131E-01  3.51581E-01  3.55864E-01  3.59399E-01  3.53173E-01  3.22493E-01  2.28266E-01
  -1.01281E-01 -6.86792E-01 -1.09730E+00 -9.77731E-01 -1.28313E-01  1.16652E+00  2.24742E+00  2.69123E+00  2.59491E+00  2.35862E+00
   2.26209E+00  2.22116E+00  1.93970E+00  1.31374E+00  7.41559E-01  5.23098E-01  4.19592E-01  3.73917E-01  3.82691E-01  4.22511E-01
   4.67250E-01  5.17774E-01  5.78186E-01  6.36188E-01  6.92919E-01  7.37117E-01  7.53484E-01  7.50334E-01  7.40056E-01  7.34332E-01
   7.34699E-01  7.30777E-01  7.22648E-01  7.17030E-01  7.27486E-01  7.69809E-01  8.28351E-01  8.66367E-01  8.45339E-01  7.42334E-01
   6.14949E-01  5.44950E-01  5.67272E-01  6.55619E-01  7.36607E-01  7.57058E-01  7.31656E-01  7.12547E-01  7.25344E-01  7.38964E-01
   7.38877E-01  7.20941E-01  6.59765E-01  5.77037E-01  4.74614E-01  3.98450E-01  4.00950E-01  4.56594E-01  4.97418E-01  4.75964E-01
   4.20427E-01  4.13825E-01  4.71599E-01  5.15771E-01  4.57385E-01  2.98578E-01  1.78139E-01  1.96696E-01  3.40230E-01  5.04644E-01
   6.13044E-01  6.64066E-01  7.11927E-01  7.84350E-01  8.63878E-01  8.94357E-01  8.61167E-01  7.92533E-01  6.95217E-01  6.10426E-01
   5.69979E-01  6.01866E-01  7.13840E-01  8.61144E-01  1.01920E+00  1.14426E+00  1.19948E+00  1.20978E+00  1.15165E+00  9.80353E-01
   6.57728E-01  3.09176E-01  1.66104E-01  3.37818E-01  7.92864E-01  1.32707E+00  1.74969E+00  1.99249E+00  1.99749E+00  1.77348E+00
   1.36185E+00  8.15812E-01  3.24482E-01  8.65586E-02  1.79853E-01  4.58756E-01  7.36500E-01  9.75118E-01  1.20392E+00  1.40166E+00
   1.47817E+00  1.41215E+00  1.32431E+00  1.31674E+00  1.37575E+00  1.48526E+00  1.60797E+00  1.71562E+00  1.75336E+00  1.67738E+00
   1.51375E+00  1.34794E+00  1.23633E+00  1.21237E+00  1.28099E+00  1.42295E+00  1.59150E+00  1.72027E+00  1.76620E+00  1.73075E+00
   1.65715E+00  1.55939E+00  1.46982E+00  1.30130E+00  5.54168E-01 -9.18526E-01 -2.01977E+00 -1.80598E+00  2.74857E-01  3.53292E+00
   6.29582E+00  7.47091E+00  7.26292E+00  6.60150E+00  6.19605E+00  5.89269E+00  5.00195E+00  3.34129E+00  1.94849E+00  1.55691E+00
   1.45355E+00  1.40500E+00  1.41408E+00  1.46502E+00  1.52296E+00  1.58784E+00  1.65299E+00  1.71415E+00  1.77008E+00  1.81860E+00
   1.85439E+00  1.88533E+00  1.92531E+00  1.97905E+00  2.04643E+00  2.12711E+00  2.21924E+00  2.32200E+00  2.43396E+00  2.55088E+00
   2.67270E+00  2.79824E+00  2.92498E+00  3.05244E+00  3.18091E+00  3.30888E+00  3.43382E+00  3.55365E+00  3.66687E+00  3.77146E+00
   3.86599E+00  3.95006E+00  4.02298E+00  4.08458E+00  4.13530E+00  4.17643E+00  4.21027E+00  4.23998E+00  4.26918E+00  4.30179E+00
   4.34216E+00  4.39534E+00  4.46677E+00  4.56179E+00  4.68559E+00  4.84298E+00  5.03828E+00  5.27521E+00  5.55653E+00  5.88352E+00
   6.25500E+00  6.66833E+00  7.13365E+00  7.65793E+00  8.23386E+00  8.84094E+00  9.44681E+00  1.00286E+01  1.05836E+01  1.11082E+01
   1.15943E+01  1.20364E+01  1.24296E+01  1.27808E+01  1.30980E+01  1.33720E+01  1.35690E+01  1.36689E+01  1.36810E+01  1.36199E+01
   1.34894E+01  1.32811E+01  1.30282E+01  1.27900E+01  1.25883E+01  1.23954E+01  1.21500E+01  1.18156E+01  1.14125E+01  1.09625E+01
   1.05010E+01  1.00564E+01  9.64931E+00  9.31282E+00  9.06619E+00  8.89262E+00  8.71697E+00  8.49114E+00  8.24145E+00  7.99553E+00
   7.74832E+00  7.46738E+00  7.14143E+00  6.81930E+00  6.51997E+00  6.23212E+00  5.95242E+00  5.68080E+00  5.41809E+00  5.16542E+00
   4.92392E+00  4.69463E+00  4.47852E+00  4.27639E+00  4.08890E+00  3.91650E+00  3.75941E+00  3.61772E+00  3.49141E+00  3.38040E+00
   3.28444E+00  3.20320E+00  3.13622E+00  3.08302E+00  3.04309E+00  3.01586E+00  3.00068E+00  2.99681E+00  3.00341E+00  3.01960E+00
   3.04443E+00  3.07687E+00  3.11573E+00  3.15968E+00  3.20733E+00  3.25722E+00  3.30782E+00  3.35756E+00  3.40479E+00  3.44786E+00
   3.48521E+00  3.51539E+00  3.53709E+00  3.54914E+00  3.55055E+00  3.54055E+00  3.51868E+00  3.48472E+00  3.43875E+00  3.38103E+00
   3.31205E+00  3.23253E+00  3.14340E+00  3.04575E+00  2.94074E+00  2.82958E+00  2.71350E+00  2.59376E+00  2.47162E+00  2.34827E+00
   2.22478E+00  2.10212E+00  1.98117E+00  1.86272E+00  1.74745E+00  1.63591E+00  1.52853E+00  1.42559E+00  1.32733E+00  1.23393E+00
   1.14547E+00  1.06194E+00  9.83262E-01  9.09316E-01  8.39972E-01  7.75088E-01  7.14484E-01  6.57935E-01  6.05198E-01  5.56049E-01
   5.10291E-01  4.67732E-01  4.28160E-01  3.91349E-01  3.57085E-01  3.25192E-01  2.95524E-01  2.67933E-01  2.42255E-01  2.18322E-01
   1.95994E-01  1.75168E-01  1.55757E-01  1.37661E-01  1.20762E-01  1.04952E-01  9.01539E-02  7.63180E-02  6.33927E-02  5.13049E-02
   3.99719E-02  2.93283E-02  1.93402E-02  9.98602E-03  1.23087E-03 -6.98197E-03 -1.47110E-02 -2.19893E-02 -2.88256E-02 -3.52291E-02
  -4.12308E-02 -4.68785E-02 -5.22091E-02 -5.72325E-02 -6.19431E-02 -6.63492E-02 -7.04829E-02 -7.43830E-02 -7.80683E-02 -8.15332E-02
  -8.47690E-02 -8.77893E-02 -9.06268E-02 -9.33091E-02 -9.58389E-02 -9.82018E-02 -1.00393E-01 -1.02432E-01 -1.04350E-01 -1.06162E-01
  -1.07858E-01 -1.09423E-01 -1.10859E-01 -1.12192E-01 -1.13445E-01 -1.14624E-01 -1.15708E-01 -1.16688E-01
 NY background values follow
    -1.510E-01   -1.508E-01   -1.505E-01   -1.503E-01   -1.500E-01   -1.498E-01   -1.495E-01   -1.492E-01   -1.490E-01   -1.487E-01
    -1.485E-01   -1.482E-01   -1.480E-01   -1.477E-01   -1.475E-01   -1.472E-01   -1.469E-01   -1.467E-01   -1.464E-01   -1.462E-01
    -1.459E-01   -1.457E-01   -1.454E-01   -1.452E-01   -1.449E-01   -1.446E-01   -1.444E-01   -1.441E-01   -1.439E-01   -1.436E-01
    -1.434E-01   -1.431E-01   -1.429E-01   -1.426E-01   -1.423E-01   -1.421E-01   -1.418E-01   -1.416E-01   -1.413E-01   -1.411E-01
    -1.408E-01   -1.406E-01   -1.403E-01   -1.400E-01   -1.398E-01   -1.395E-01   -1.393E-01   -1.390E-01   -1.388E-01   -1.385E-01
    -1.382E-01   -1.380E-01   -1.377E-01   -1.375E-01   -1.372E-01   -1.370E-01   -1.367E-01   -1.365E-01   -1.362E-01   -1.359E-01
    -1.357E-01   -1.354E-01   -1.352E-01   -1.349E-01   -1.347E-01   -1.344E-01   -1.341E-01   -1.339E-01   -1.336E-01   -1.334E-01
    -1.331E-01   -1.329E-01   -1.326E-01   -1.323E-01   -1.321E-01   -1.318E-01   -1.316E-01   -1.313E-01   -1.311E-01   -1.308E-01
    -1.305E-01   -1.303E-01   -1.300E-01   -1.298E-01   -1.295E-01   -1.293E-01   -1.290E-01   -1.287E-01   -1.285E-01   -1.282E-01
    -1.280E-01   -1.277E-01   -1.274E-01   -1.272E-01   -1.269E-01   -1.267E-01   -1.264E-01   -1.262E-01   -1.259E-01   -1.256E-01
    -1.254E-01   -1.251E-01   -1.249E-01   -1.246E-01   -1.243E-01   -1.241E-01   -1.238E-01   -1.236E-01   -1.233E-01   -1.230E-01
    -1.228E-01   -1.225E-01   -1.223E-01   -1.220E-01   -1.217E-01   -1.215E-01   -1.212E-01   -1.210E-01   -1.207E-01   -1.204E-01
    -1.202E-01   -1.199E-01   -1.197E-01   -1.194E-01   -1.191E-01   -1.189E-01   -1.186E-01   -1.184E-01   -1.181E-01   -1.178E-01
    -1.176E-01   -1.173E-01   -1.171E-01   -1.168E-01   -1.165E-01   -1.163E-01   -1.160E-01   -1.157E-01   -1.155E-01   -1.152E-01
    -1.150E-01   -1.147E-01   -1.144E-01   -1.142E-01   -1.139E-01   -1.137E-01   -1.134E-01   -1.131E-01   -1.129E-01   -1.126E-01
    -1.123E-01   -1.121E-01   -1.118E-01   -1.116E-01   -1.113E-01   -1.110E-01   -1.108E-01   -1.105E-01   -1.102E-01   -1.100E-01
    -1.097E-01   -1.094E-01   -1.092E-01   -1.089E-01   -1.087E-01   -1.084E-01   -1.081E-01   -1.079E-01   -1.076E-01   -1.073E-01
    -1.071E-01   -1.068E-01   -1.065E-01   -1.063E-01   -1.060E-01   -1.057E-01   -1.055E-01   -1.052E-01   -1.049E-01   -1.047E-01
    -1.044E-01   -1.042E-01   -1.039E-01   -1.036E-01   -1.034E-01   -1.031E-01   -1.028E-01   -1.026E-01   -1.023E-01   -1.020E-01
    -1.018E-01   -1.015E-01   -1.012E-01   -1.010E-01   -1.007E-01   -1.004E-01   -1.002E-01   -9.989E-02   -9.962E-02   -9.935E-02
    -9.908E-02   -9.882E-02   -9.855E-02   -9.828E-02   -9.801E-02   -9.774E-02   -9.747E-02   -9.721E-02   -9.694E-02   -9.667E-02
    -9.640E-02   -9.613E-02   -9.586E-02   -9.559E-02   -9.532E-02   -9.505E-02   -9.478E-02   -9.451E-02   -9.424E-02   -9.397E-02
    -9.370E-02   -9.343E-02   -9.316E-02   -9.289E-02   -9.262E-02   -9.235E-02   -9.208E-02   -9.181E-02   -9.154E-02   -9.127E-02
    -9.100E-02   -9.072E-02   -9.045E-02   -9.018E-02   -8.991E-02   -8.964E-02   -8.937E-02   -8.909E-02   -8.882E-02   -8.855E-02
    -8.828E-02   -8.800E-02   -8.773E-02   -8.746E-02   -8.718E-02   -8.691E-02   -8.664E-02   -8.636E-02   -8.609E-02   -8.582E-02
    -8.554E-02   -8.527E-02   -8.500E-02   -8.472E-02   -8.445E-02   -8.418E-02   -8.390E-02   -8.363E-02   -8.335E-02   -8.308E-02
    -8.280E-02   -8.253E-02   -8.226E-02   -8.198E-02   -8.171E-02   -8.143E-02   -8.116E-02   -8.088E-02   -8.061E-02   -8.033E-02
    -8.006E-02   -7.978E-02   -7.951E-02   -7.923E-02   -7.896E-02   -7.868E-02   -7.841E-02   -7.813E-02   -7.786E-02   -7.758E-02
    -7.731E-02   -7.703E-02   -7.676E-02   -7.648E-02   -7.621E-02   -7.593E-02   -7.566E-02   -7.538E-02   -7.511E-02   -7.483E-02
    -7.455E-02   -7.428E-02   -7.400E-02   -7.373E-02   -7.345E-02   -7.318E-02   -7.290E-02   -7.263E-02   -7.235E-02   -7.207E-02
    -7.180E-02   -7.152E-02   -7.125E-02   -7.097E-02   -7.070E-02   -7.042E-02   -7.015E-02   -6.987E-02   -6.959E-02   -6.932E-02
    -6.904E-02   -6.877E-02   -6.849E-02   -6.822E-02   -6.794E-02   -6.767E-02   -6.739E-02   -6.712E-02   -6.684E-02   -6.657E-02
    -6.629E-02   -6.601E-02   -6.574E-02   -6.546E-02   -6.519E-02   -6.491E-02   -6.464E-02   -6.436E-02   -6.409E-02   -6.381E-02
    -6.354E-02   -6.326E-02   -6.299E-02   -6.271E-02   -6.244E-02   -6.216E-02   -6.189E-02   -6.161E-02   -6.134E-02   -6.106E-02
    -6.079E-02   -6.051E-02   -6.024E-02   -5.997E-02   -5.969E-02   -5.942E-02   -5.914E-02   -5.887E-02   -5.859E-02   -5.832E-02
    -5.804E-02   -5.777E-02   -5.749E-02   -5.722E-02   -5.695E-02   -5.667E-02   -5.640E-02   -5.612E-02   -5.585E-02   -5.557E-02
    -5.530E-02   -5.502E-02   -5.475E-02   -5.448E-02   -5.420E-02   -5.393E-02   -5.365E-02   -5.338E-02   -5.311E-02   -5.283E-02
    -5.256E-02   -5.228E-02   -5.201E-02   -5.174E-02   -5.146E-02   -5.119E-02   -5.091E-02   -5.064E-02   -5.037E-02   -5.009E-02
    -4.982E-02   -4.954E-02   -4.927E-02   -4.900E-02   -4.872E-02   -4.845E-02   -4.817E-02   -4.790E-02   -4.763E-02   -4.735E-02
    -4.708E-02   -4.681E-02   -4.653E-02   -4.626E-02   -4.599E-02   -4.571E-02   -4.544E-02   -4.517E-02   -4.489E-02   -4.462E-02
    -4.434E-02   -4.407E-02   -4.380E-02   -4.352E-02   -4.325E-02   -4.298E-02   -4.270E-02   -4.243E-02   -4.216E-02   -4.188E-02
    -4.161E-02   -4.134E-02   -4.107E-02   -4.079E-02   -4.052E-02   -4.025E-02   -3.997E-02   -3.970E-02   -3.943E-02   -3.915E-02
    -3.888E-02   -3.861E-02   -3.833E-02   -3.806E-02   -3.779E-02   -3.752E-02   -3.724E-02   -3.697E-02   -3.670E-02   -3.642E-02
    -3.615E-02   -3.588E-02   -3.561E-02   -3.533E-02   -3.506E-02   -3.479E-02   -3.451E-02   -3.424E-02   -3.397E-02   -3.370E-02
    -3.342E-02   -3.315E-02   -3.288E-02   -3.261E-02   -3.233E-02   -3.206E-02   -3.179E-02   -3.152E-02   -3.124E-02   -3.097E-02
    -3.070E-02   -3.043E-02   -3.015E-02   -2.988E-02   -2.961E-02   -2.934E-02   -2.906E-02   -2.879E-02   -2.852E-02   -2.825E-02
    -2.797E-02   -2.770E-02   -2.743E-02   -2.716E-02   -2.689E-02   -2.661E-02   -2.634E-02   -2.607E-02   -2.580E-02   -2.553E-02
    -2.525E-02   -2.498E-02   -2.471E-02   -2.444E-02   -2.416E-02   -2.389E-02   -2.362E-02   -2.335E-02   -2.308E-02   -2.280E-02
    -2.253E-02   -2.226E-02   -2.199E-02   -2.172E-02   -2.144E-02   -2.117E-02   -2.090E-02   -2.063E-02   -2.036E-02   -2.008E-02
    -1.981E-02   -1.954E-02   -1.927E-02   -1.900E-02   -1.872E-02   -1.845E-02   -1.818E-02   -1.791E-02
 Ala      Conc. = 2.47E+00
