 LCModel (Version 6.3-1L) Copyright: S.W. Provencher.          Ref.: Magn. Reson. Med. 30:672-679 (1993).                
 Slice#2 Row#13 Col#11  K_02_press_1_raw_act
 36 lines in following concentration table = NCONC+1
    Conc.  %SD /Cr+PCr  Metabolite                                         
   19.306 116%   0.242 Ala                                                 
   10.918 126%   0.137 Asp                                                 
   42.501  80%   0.532 Cr                                                  
   37.426  95%   0.468 PCr                                                 
    8.434  98%   0.106 GABA                                                
    7.337 113% 9.2E-02 Glc                                                 
   15.452 278%   0.193 Gln                                                 
   48.983  97%   0.613 Glu                                                 
    7.165  65% 9.0E-02 GPC                                                 
    0.000 999%   0.000 PCh                                                 
   14.642 111%   0.183 GSH                                                 
   18.441 271%   0.231 Ins                                                 
   15.046 159%   0.188 Lac                                                 
  143.500  16%   1.795 NAA                                                 
   31.755  74%   0.397 NAAG                                                
    1.558 167% 1.9E-02 Scyllo                                              
    5.347 252% 6.7E-02 Tau                                                 
    0.675 999% 8.4E-03 -CrCH2                                              
    7.165  65% 9.0E-02 GPC+PCh                                             
  175.255  12%   2.193 NAA+NAAG                                            
   79.927  18%   1.000 Cr+PCr                                              
   64.434  93%   0.806 Glu+Gln                                             
    0.000 999%   0.000 Lip13a                                              
   30.638 139%   0.383 Lip13b                                              
    8.476 141%   0.106 Lip09                                               
  195.570  22%   2.447 MM09                                                
    4.590 150% 5.7E-02 Lip20                                               
   62.640 137%   0.784 MM20                                                
   38.897  95%   0.487 MM12                                                
  246.169  28%   3.080 MM14                                                
    0.000 999%   0.000 MM17                                                
   30.638 139%   0.383 Lip13a+Lip13b                                       
  315.704  22%   3.950 MM14+Lip13a+Lip13b+MM12                             
  204.046  21%   2.553 MM09+Lip09                                          
   67.231 127%   0.841 MM20+Lip20                                          
   6 lines in following misc. output table
  FWHM = 0.038 ppm    S/N =   3                                            
  Data shift = 0.000 ppm                                                   
  Ph:  30 deg      17.9 deg/ppm                                            
  alphaB,S = 8.5E+01,   1.3E+01                                            
   14 spline knots.   Ns = 5(1)                                            
   2 inflections.     1 extrema                                            
  498 points on ppm-axis = NY
      4.000000     3.992357     3.984714     3.977070     3.969427     3.961784     3.954141     3.946497     3.938854     3.931211
      3.923568     3.915925     3.908281     3.900638     3.892995     3.885352     3.877708     3.870065     3.862422     3.854779
      3.847136     3.839492     3.831849     3.824206     3.816563     3.808919     3.801276     3.793633     3.785990     3.778347
      3.770703     3.763060     3.755417     3.747774     3.740130     3.732487     3.724844     3.717201     3.709558     3.701914
      3.694271     3.686628     3.678985     3.671341     3.663698     3.656055     3.648412     3.640769     3.633125     3.625482
      3.617839     3.610196     3.602552     3.594909     3.587266     3.579623     3.571980     3.564336     3.556693     3.549050
      3.541407     3.533763     3.526120     3.518477     3.510834     3.503191     3.495547     3.487904     3.480261     3.472618
      3.464974     3.457331     3.449688     3.442045     3.434402     3.426758     3.419115     3.411472     3.403829     3.396185
      3.388542     3.380899     3.373256     3.365613     3.357969     3.350326     3.342683     3.335040     3.327396     3.319753
      3.312110     3.304467     3.296824     3.289180     3.281537     3.273894     3.266251     3.258607     3.250964     3.243321
      3.235678     3.228034     3.220391     3.212748     3.205105     3.197462     3.189818     3.182175     3.174532     3.166889
      3.159245     3.151602     3.143959     3.136316     3.128673     3.121029     3.113386     3.105743     3.098100     3.090456
      3.082813     3.075170     3.067527     3.059884     3.052240     3.044597     3.036954     3.029311     3.021667     3.014024
      3.006381     2.998738     2.991095     2.983451     2.975808     2.968165     2.960522     2.952878     2.945235     2.937592
      2.929949     2.922306     2.914662     2.907019     2.899376     2.891733     2.884089     2.876446     2.868803     2.861160
      2.853517     2.845873     2.838230     2.830587     2.822944     2.815300     2.807657     2.800014     2.792371     2.784728
      2.777084     2.769441     2.761798     2.754155     2.746511     2.738868     2.731225     2.723582     2.715939     2.708295
      2.700652     2.693009     2.685366     2.677722     2.670079     2.662436     2.654793     2.647150     2.639506     2.631863
      2.624220     2.616577     2.608933     2.601290     2.593647     2.586004     2.578361     2.570717     2.563074     2.555431
      2.547788     2.540144     2.532501     2.524858     2.517215     2.509572     2.501928     2.494285     2.486642     2.478999
      2.471355     2.463712     2.456069     2.448426     2.440783     2.433139     2.425496     2.417853     2.410210     2.402566
      2.394923     2.387280     2.379637     2.371994     2.364350     2.356707     2.349064     2.341421     2.333777     2.326134
      2.318491     2.310848     2.303205     2.295561     2.287918     2.280275     2.272632     2.264988     2.257345     2.249702
      2.242059     2.234416     2.226772     2.219129     2.211486     2.203843     2.196199     2.188556     2.180913     2.173270
      2.165627     2.157983     2.150340     2.142697     2.135054     2.127410     2.119767     2.112124     2.104481     2.096838
      2.089194     2.081551     2.073908     2.066265     2.058621     2.050978     2.043335     2.035692     2.028049     2.020405
      2.012762     2.005119     1.997476     1.989833     1.982190     1.974546     1.966903     1.959260     1.951617     1.943974
      1.936331     1.928688     1.921045     1.913402     1.905759     1.898115     1.890472     1.882829     1.875186     1.867543
      1.859900     1.852257     1.844614     1.836971     1.829327     1.821684     1.814041     1.806398     1.798755     1.791112
      1.783469     1.775826     1.768183     1.760540     1.752896     1.745253     1.737610     1.729967     1.722324     1.714681
      1.707038     1.699395     1.691752     1.684108     1.676465     1.668822     1.661179     1.653536     1.645893     1.638250
      1.630607     1.622964     1.615321     1.607677     1.600034     1.592391     1.584748     1.577105     1.569462     1.561819
      1.554176     1.546533     1.538890     1.531246     1.523603     1.515960     1.508317     1.500674     1.493031     1.485388
      1.477745     1.470102     1.462458     1.454815     1.447172     1.439529     1.431886     1.424243     1.416600     1.408957
      1.401314     1.393671     1.386027     1.378384     1.370741     1.363098     1.355455     1.347812     1.340169     1.332526
      1.324883     1.317240     1.309596     1.301953     1.294310     1.286667     1.279024     1.271381     1.263738     1.256095
      1.248452     1.240808     1.233165     1.225522     1.217879     1.210236     1.202593     1.194950     1.187307     1.179664
      1.172021     1.164377     1.156734     1.149091     1.141448     1.133805     1.126162     1.118519     1.110876     1.103233
      1.095590     1.087946     1.080303     1.072660     1.065017     1.057374     1.049731     1.042088     1.034445     1.026802
      1.019158     1.011515     1.003872     0.996229     0.988586     0.980943     0.973300     0.965657     0.958014     0.950371
      0.942727     0.935084     0.927441     0.919798     0.912155     0.904512     0.896869     0.889226     0.881583     0.873940
      0.866296     0.858653     0.851010     0.843367     0.835724     0.828081     0.820438     0.812795     0.805152     0.797508
      0.789865     0.782222     0.774579     0.766936     0.759293     0.751650     0.744007     0.736364     0.728721     0.721077
      0.713434     0.705791     0.698148     0.690505     0.682862     0.675219     0.667576     0.659933     0.652290     0.644646
      0.637003     0.629360     0.621717     0.614074     0.606431     0.598788     0.591145     0.583502     0.575858     0.568215
      0.560572     0.552929     0.545286     0.537643     0.530000     0.522357     0.514714     0.507071     0.499427     0.491784
      0.484141     0.476498     0.468855     0.461212     0.453569     0.445925     0.438282     0.430639     0.422996     0.415353
      0.407710     0.400067     0.392424     0.384780     0.377137     0.369494     0.361851     0.354208     0.346565     0.338922
      0.331278     0.323635     0.315992     0.308349     0.300706     0.293063     0.285420     0.277777     0.270133     0.262490
      0.254847     0.247204     0.239561     0.231918     0.224275     0.216631     0.208988     0.201345
 NY phased data points follow
  -1.30280E+00  1.25583E+00 -1.83474E+00  2.75843E+00 -2.40332E-01 -3.86495E-01 -1.39683E+00  1.16489E+00  6.02603E-01  2.44933E+00
   2.36903E+00  1.48052E+00  1.36546E+00  1.31582E+00  7.22785E-01  5.92754E-01 -2.59804E-01 -2.50504E+00 -6.79077E-01 -1.19341E-01
  -6.53787E-01  9.97602E-01 -8.52645E-01  5.36986E-01  5.82068E-01 -4.61992E-01 -3.59576E-01 -1.36062E+00  2.00007E-01  7.85918E-01
  -2.19976E+00 -4.61697E-01  4.59453E-01 -5.47041E-01  2.98037E-01 -1.97888E+00 -3.02805E-02  1.22615E+00  1.87489E-01  1.04295E+00
  -5.53495E-01 -2.90991E-02  8.96511E-01  7.89691E-01 -9.37333E-01 -1.35620E-01  2.03945E+00 -1.11060E+00 -1.69171E+00  1.18184E+00
   1.55891E+00 -9.00414E-01  2.97399E-01  1.85410E-01 -8.94265E-01  4.53962E-01 -7.82242E-01 -3.49744E-01 -4.01435E-01 -1.24616E-01
   6.61267E-01 -3.94072E-01  8.54958E-01 -2.62194E-01 -8.42087E-01 -3.77206E-01  1.01645E+00 -1.70007E+00 -2.32651E+00 -1.77884E-01
  -1.09103E+00 -3.47484E-01 -4.37180E-01 -1.46247E+00 -1.99983E+00  4.52117E-01  1.20397E+00 -8.78858E-01 -2.06390E+00 -1.99398E+00
  -1.31023E-01  5.68687E-01 -2.31189E+00 -7.53608E-01  7.29396E-02 -7.40982E-01 -8.26131E-01 -1.67494E+00  1.45296E-01 -8.38901E-01
   3.25051E-01 -3.59561E-01  5.26726E-01 -5.27103E-01 -9.82139E-01 -8.97295E-01 -1.26930E+00  3.47244E-02 -2.51831E+00 -1.64310E+00
  -7.58968E-01 -1.04221E+00  6.11327E-01  1.67642E+00  1.05563E+00  5.77860E-01 -7.55520E-01 -1.86978E-01 -3.87653E-01 -1.09817E+00
  -5.50275E-01 -1.58659E+00 -6.69426E-01 -1.99814E+00 -8.50811E-01  2.41266E-01  1.18199E+00 -1.19868E+00  5.09276E-01 -2.05112E+00
  -1.84316E+00  2.03814E+00 -4.98185E-01  9.93963E-01  7.22298E-01  1.05487E+00  2.91499E+00  2.66810E+00  3.62763E+00  2.30584E+00
   3.28651E+00  7.48406E-01  3.88232E-01  1.27049E+00  6.25297E-01  1.18402E+00  8.07760E-01  3.88909E-01 -1.46208E+00  3.95699E-01
  -4.27298E-01  1.23202E+00  2.07953E-01  3.02239E-01  5.22429E-01 -3.11727E-01  1.70892E-02 -1.35124E+00 -8.18947E-01  1.03811E+00
   1.64974E+00 -3.51209E-01  1.44596E+00  2.58593E+00  1.63131E+00 -1.95379E+00 -1.72875E+00 -1.27502E+00 -1.99459E+00 -7.53978E-01
   2.31376E+00  1.14267E-01 -1.55731E+00 -2.30713E-01  3.77187E-01  1.96000E+00  2.60705E-01 -2.22028E+00  9.31173E-02  1.12463E+00
  -1.11086E+00 -1.33656E+00 -4.87756E-01 -9.81361E-01 -8.32819E-01 -6.30724E-01 -1.06822E+00 -1.93796E+00 -1.36317E+00 -6.82558E-01
   5.67370E-01 -3.81555E-01 -2.72490E+00  1.96681E-01  6.72201E-01 -2.23660E+00 -4.20672E-01  2.32464E-01 -2.13957E+00  2.35066E+00
   1.73658E+00 -2.10693E+00  8.16667E-01  9.94656E-02 -1.11436E+00  8.43453E-01  3.11471E-02 -1.03574E-01  1.31951E+00 -9.46890E-01
   1.50961E+00  7.42596E-01 -7.94528E-01  8.78301E-01  7.47880E-02  1.45476E-01 -4.18382E-01  3.91647E-01 -5.41108E-01  1.17020E+00
  -9.37811E-01 -1.63347E-01 -1.39131E+00  6.42716E-01  1.26810E+00  7.95972E-01  1.49653E+00  2.50904E+00  1.64660E+00  5.38691E-01
   2.60927E+00 -1.89080E-01 -4.83109E-01  1.03902E-01  2.12346E-01 -4.76679E-01  4.16777E-01  2.46939E+00 -5.00932E-01  7.01368E-01
  -1.41946E+00 -1.49309E+00 -6.08146E-01 -7.26878E-01  7.67795E-01  7.68413E-01  4.88409E-01 -6.37847E-01  9.49957E-01 -8.60970E-01
  -1.50128E-01  9.69491E-01 -6.98436E-01 -1.13388E-01 -1.66962E+00 -3.60631E-01 -6.09802E-01  3.94048E+00  6.93707E-01 -2.24307E+00
   1.66768E-01  2.28544E-02 -7.62993E-01  1.54541E+00  8.76198E-01  6.94310E-02  3.57080E+00  3.38703E+00  5.14255E+00  4.95509E+00
   5.92049E+00  8.59710E+00  6.88505E+00  2.51833E+00  3.19849E+00  7.15620E-01 -7.68974E-01 -1.96999E+00 -4.45611E-01 -1.34595E+00
   1.90844E-01 -2.27230E+00 -2.44025E-01 -6.75534E-01 -1.14230E+00 -1.67541E+00 -1.71141E-01 -8.24504E-01 -3.93882E-01 -1.27081E+00
   3.75986E-01 -4.00926E-01 -5.05930E-01  7.20439E-02 -2.44899E+00 -1.17794E+00 -1.46393E+00 -1.39408E+00 -1.13827E+00 -2.87368E-01
  -1.46407E+00  3.23686E-01 -8.22828E-01  3.61970E-01 -6.12501E-01  1.26763E+00 -1.13959E+00  3.28310E-02 -3.70480E+00  1.30240E+00
   9.25454E-01 -1.53939E+00 -1.59959E+00  5.99209E-02 -2.23524E+00 -5.12466E-01 -2.11949E+00 -2.39083E+00 -6.86396E-01  6.82388E-01
  -2.70463E+00  2.32871E-01 -4.21743E-01 -1.01737E+00  2.19762E-01 -1.54537E+00  5.76447E-01 -1.31747E+00 -5.65110E-01  3.09240E-03
   9.77499E-01 -6.88706E-01  1.15491E+00 -1.63708E+00  4.91781E-02 -4.94719E-01  9.35687E-01  1.10799E+00  4.72672E-01 -9.32887E-02
   2.18747E+00  2.68956E-01  1.17539E+00 -1.05342E+00  9.56829E-01  2.66149E+00  3.91407E+00  1.86903E+00  2.32355E+00  1.43530E+00
   9.75129E-01  1.45888E+00  2.26662E+00  4.66365E-02  2.49016E+00  1.84551E+00 -1.89250E-01  1.56983E+00  2.04826E+00  2.27305E+00
   7.78129E-01  7.39134E-01  4.58520E-01 -4.56797E-02  1.52796E+00  1.25751E+00  1.35641E+00  1.50610E+00  6.21199E-01  6.98102E-01
   2.01195E+00 -7.86066E-01 -5.54170E-01  1.50457E+00 -3.33810E-01 -3.97763E-01  5.07278E-01 -8.89578E-01  6.57323E-01 -1.91470E-01
  -1.19303E-01  1.54092E-01 -2.00859E-01  1.76204E+00 -6.35532E-01 -8.96052E-01 -3.95044E-01 -2.12631E+00  1.70680E+00  6.17724E-01
   1.20161E-01 -2.12397E+00 -1.01463E+00  1.51754E+00 -5.32138E-01  1.78619E+00  1.59686E+00  4.11795E-01  1.15822E+00  2.02435E+00
   1.91336E+00  1.09450E+00  2.60985E+00  3.11310E+00  1.60992E-01  9.20191E-01 -1.18227E+00  2.88116E+00  2.15426E+00  5.52640E-01
   2.16072E+00  7.95190E-01  1.11804E+00  1.89481E+00  1.32756E-02  1.68066E+00  2.13688E+00  1.71836E+00  2.45294E+00 -3.82932E-01
  -3.97056E-01  2.85869E+00  1.22932E+00  1.80374E+00  6.17060E-01  3.13098E+00  1.93243E+00  1.22115E+00  8.30431E-01  1.83242E-01
   1.54517E+00  1.81471E-01 -3.54581E-01  1.54984E-01  1.56901E+00  2.33805E+00  1.44455E+00 -3.16479E-01  1.19231E+00  2.63373E+00
  -5.91063E-01 -1.40079E+00  1.22775E+00  2.78449E+00  5.89990E-01  1.36845E+00  2.70971E-01  3.32270E-01  8.89828E-01  4.16585E-01
   1.03152E+00  1.23237E+00  6.53879E-02  7.41991E-01 -1.73610E-01 -2.09146E-01  1.70013E+00  1.77810E-02  2.58084E-01  1.42880E+00
  -1.90336E-01  3.03088E+00  1.26747E+00 -6.30106E-01 -5.35851E-01  2.37370E-01 -8.39458E-01  2.20403E+00  7.80096E-01 -9.63338E-01
   8.00856E-01 -8.89414E-01  4.81537E-01 -1.10644E+00 -5.26126E-01 -4.79114E-01  1.36396E+00  7.14723E-02  6.19864E-01  2.16494E-01
   4.75935E-01 -1.76127E-01 -4.62023E-01  3.03276E-01 -5.17020E-01 -7.85439E-01  8.66889E-01 -2.17212E+00 -6.22448E-01 -1.45399E+00
   6.27506E-01  1.19384E+00  6.59184E-01  8.29489E-01  2.71518E-01  8.12357E-01 -2.79763E-02  1.07237E+00 -1.58375E+00 -2.96577E-01
   3.43896E-01  1.17490E+00 -4.01136E-01 -3.41077E-01  2.59473E-01  2.72091E-02  7.09005E-01 -1.75943E-01
 NY points of the fit to the data follow
  -4.06635E-01 -3.99073E-01 -3.77835E-01 -3.44061E-01 -2.72540E-01 -1.32097E-01  9.36760E-02  4.30050E-01  8.82155E-01  1.36984E+00
   1.71772E+00  1.80853E+00  1.61371E+00  1.11622E+00  4.98073E-01  3.92022E-02 -2.44969E-01 -3.52120E-01 -3.32098E-01 -3.26353E-01
  -3.11195E-01 -2.73467E-01 -2.27283E-01 -2.00467E-01 -2.06510E-01 -2.26837E-01 -2.49275E-01 -2.63559E-01 -2.35433E-01 -1.23137E-01
   5.40057E-02  1.90961E-01  2.13635E-01  1.53052E-01  3.23841E-02 -1.17077E-01 -2.44318E-01 -3.51493E-01 -4.16625E-01 -4.17559E-01
  -3.75528E-01 -3.27385E-01 -2.92747E-01 -2.61722E-01 -2.36695E-01 -2.14331E-01 -1.79596E-01 -1.42624E-01 -1.24826E-01 -1.45160E-01
  -2.02838E-01 -2.73027E-01 -3.26397E-01 -3.50487E-01 -3.51116E-01 -3.41113E-01 -3.28053E-01 -3.16209E-01 -3.04404E-01 -2.89169E-01
  -2.73726E-01 -2.68274E-01 -2.78499E-01 -3.02393E-01 -3.29949E-01 -3.46290E-01 -3.47060E-01 -3.37181E-01 -3.23513E-01 -3.12384E-01
  -3.04023E-01 -2.94746E-01 -2.80251E-01 -2.64752E-01 -2.53994E-01 -2.45116E-01 -2.44755E-01 -2.59367E-01 -2.82717E-01 -3.07013E-01
  -3.24164E-01 -3.23959E-01 -3.05793E-01 -2.82145E-01 -2.60725E-01 -2.41558E-01 -2.30051E-01 -2.43563E-01 -2.86779E-01 -3.36536E-01
  -3.69263E-01 -3.77208E-01 -3.63221E-01 -3.49846E-01 -3.48266E-01 -3.48833E-01 -3.43471E-01 -3.24141E-01 -2.66947E-01 -1.57716E-01
  -6.21637E-03  1.87123E-01  4.30222E-01  6.50947E-01  6.81110E-01  4.62910E-01  1.37425E-01 -1.48450E-01 -3.11883E-01 -3.24921E-01
  -3.05077E-01 -3.04138E-01 -3.04384E-01 -3.03975E-01 -3.02129E-01 -3.01424E-01 -3.02069E-01 -3.03129E-01 -3.04857E-01 -3.07524E-01
  -3.04464E-01 -2.64796E-01 -9.62647E-02  2.82242E-01  8.61209E-01  1.61874E+00  2.55397E+00  3.44708E+00  3.70725E+00  3.01559E+00
   1.82149E+00  7.08419E-01  4.45124E-03 -1.46678E-01 -1.10648E-01 -1.73825E-01 -2.56972E-01 -3.09834E-01 -3.16775E-01 -2.74303E-01
  -2.04193E-01 -1.47215E-01 -1.19154E-01 -1.22894E-01 -1.47914E-01 -1.71682E-01 -1.88289E-01 -2.03210E-01 -2.17880E-01 -2.34623E-01
  -2.50404E-01 -2.64959E-01 -2.76690E-01 -2.88072E-01 -2.98101E-01 -2.99502E-01 -2.92891E-01 -2.88363E-01 -2.97417E-01 -3.30262E-01
  -3.92272E-01 -4.59576E-01 -4.79402E-01 -4.30840E-01 -3.45105E-01 -2.77366E-01 -2.84537E-01 -3.66093E-01 -4.53064E-01 -5.09406E-01
  -5.30077E-01 -5.20359E-01 -5.18390E-01 -5.36547E-01 -5.71447E-01 -6.20153E-01 -6.62650E-01 -6.53893E-01 -5.85151E-01 -5.17052E-01
  -5.03403E-01 -5.42313E-01 -5.91475E-01 -5.90930E-01 -5.32136E-01 -4.69768E-01 -4.33509E-01 -4.05459E-01 -3.25484E-01 -1.88416E-01
  -5.41010E-02  2.48693E-02  2.99667E-02 -3.42629E-02 -1.17404E-01 -1.76894E-01 -2.08835E-01 -2.25870E-01 -2.39556E-01 -2.32449E-01
  -1.83113E-01 -1.03971E-01 -1.32607E-02  7.48098E-02  1.18713E-01  9.34743E-02 -6.32126E-03 -1.58133E-01 -3.27706E-01 -4.74600E-01
  -5.61166E-01 -5.66564E-01 -4.88793E-01 -3.63210E-01 -1.97679E-01 -9.84067E-03  1.22120E-01  1.31876E-01 -3.08184E-03 -2.24236E-01
  -4.25821E-01 -5.59253E-01 -6.01458E-01 -5.49017E-01 -3.99640E-01 -1.94854E-01 -2.81272E-02  4.64474E-02  2.78802E-02 -4.57663E-02
  -1.22154E-01 -1.77938E-01 -1.98068E-01 -1.57214E-01 -7.46252E-02  9.62595E-03  6.65126E-02  8.08771E-02  5.47981E-02 -6.70592E-03
  -8.96740E-02 -1.66709E-01 -2.22220E-01 -2.33752E-01 -1.83517E-01 -9.00736E-02 -8.13701E-04  5.14549E-02  5.81738E-02  2.74387E-02
   4.29656E-03  5.26573E-02  2.15632E-01  4.83206E-01  8.61324E-01  1.46919E+00  2.37807E+00  3.35647E+00  4.27142E+00  5.39059E+00
   6.70272E+00  7.31775E+00  6.38796E+00  4.30609E+00  2.15163E+00  6.21489E-01  1.35462E-01  2.47623E-01  2.30644E-01  1.73247E-01
   1.29765E-01  1.05171E-01  9.69727E-02  1.03736E-01  1.14618E-01  1.17485E-01  1.03649E-01  7.53169E-02  4.05366E-02  9.43062E-03
  -1.24890E-02 -2.61430E-02 -3.25711E-02 -3.37341E-02 -3.27900E-02 -3.26044E-02 -3.44547E-02 -3.97967E-02 -4.72591E-02 -5.38021E-02
  -5.84111E-02 -6.04402E-02 -5.75018E-02 -5.27710E-02 -5.10012E-02 -5.30013E-02 -5.77456E-02 -6.39463E-02 -6.91490E-02 -7.29255E-02
  -7.43242E-02 -7.22010E-02 -6.76254E-02 -6.19666E-02 -5.63467E-02 -5.15924E-02 -4.65654E-02 -4.05154E-02 -3.32573E-02 -2.43048E-02
  -1.33431E-02 -1.20943E-04  1.56662E-02  3.43563E-02  5.63902E-02  8.23587E-02  1.12921E-01  1.48746E-01  1.90600E-01  2.39519E-01
   2.97178E-01  3.67186E-01  4.56387E-01  5.63520E-01  6.75433E-01  7.80957E-01  8.68972E-01  9.04926E-01  8.44252E-01  7.11344E-01
   6.04931E-01  5.90595E-01  6.73190E-01  8.31325E-01  1.02078E+00  1.24302E+00  1.47301E+00  1.61873E+00  1.64881E+00  1.59928E+00
   1.51570E+00  1.45926E+00  1.44612E+00  1.44363E+00  1.44119E+00  1.43200E+00  1.41141E+00  1.35937E+00  1.23890E+00  1.05381E+00
   8.80625E-01  7.85436E-01  7.76089E-01  8.38829E-01  9.39732E-01  1.05541E+00  1.15710E+00  1.17946E+00  1.11178E+00  9.87270E-01
   8.44943E-01  7.32456E-01  6.50537E-01  5.77498E-01  5.14001E-01  4.60994E-01  4.18058E-01  3.84069E-01  3.57558E-01  3.37019E-01
   3.21121E-01  3.08815E-01  2.99346E-01  2.92220E-01  2.87170E-01  2.84124E-01  2.83172E-01  2.84507E-01  2.88386E-01  2.95105E-01
   3.05005E-01  3.18475E-01  3.35942E-01  3.57836E-01  3.84562E-01  4.16499E-01  4.53987E-01  4.97318E-01  5.46683E-01  6.02128E-01
   6.63516E-01  7.30510E-01  8.02568E-01  8.78919E-01  9.58535E-01  1.04012E+00  1.12216E+00  1.20294E+00  1.28065E+00  1.35342E+00
   1.41936E+00  1.47669E+00  1.52380E+00  1.55935E+00  1.58239E+00  1.59229E+00  1.58886E+00  1.57232E+00  1.54327E+00  1.50273E+00
   1.45202E+00  1.39267E+00  1.32638E+00  1.25490E+00  1.17998E+00  1.10332E+00  1.02648E+00  9.50804E-01  8.77426E-01  8.07250E-01
   7.40970E-01  6.79071E-01  6.21832E-01  5.69346E-01  5.21558E-01  4.78314E-01  4.39391E-01  4.04513E-01  3.73356E-01  3.45567E-01
   3.20800E-01  2.98735E-01  2.79081E-01  2.61566E-01  2.45927E-01  2.31922E-01  2.19342E-01  2.08023E-01  1.97823E-01  1.88609E-01
   1.80254E-01  1.72644E-01  1.65695E-01  1.59347E-01  1.53544E-01  1.48225E-01  1.43326E-01  1.38798E-01  1.34612E-01  1.30750E-01
   1.27186E-01  1.23884E-01  1.20808E-01  1.17939E-01  1.15272E-01  1.12802E-01  1.10510E-01  1.08372E-01  1.06365E-01  1.04486E-01
   1.02740E-01  1.01123E-01  9.96176E-02  9.82037E-02  9.68725E-02  9.56304E-02  9.44829E-02  9.34236E-02  9.24340E-02  9.15003E-02
   9.06234E-02  8.98139E-02  8.90750E-02  8.83957E-02  8.77588E-02  8.71585E-02  8.66022E-02  8.61006E-02  8.56509E-02  8.52387E-02
   8.48508E-02  8.44889E-02  8.41647E-02  8.38852E-02  8.36418E-02  8.34192E-02  8.32101E-02  8.30232E-02  8.28700E-02  8.27516E-02
   8.26544E-02  8.25654E-02  8.24843E-02  8.24241E-02  8.23931E-02  8.23855E-02  8.23850E-02  8.23837E-02
 NY background values follow
    -4.316E-01   -4.307E-01   -4.298E-01   -4.289E-01   -4.280E-01   -4.271E-01   -4.262E-01   -4.253E-01   -4.244E-01   -4.235E-01
    -4.226E-01   -4.217E-01   -4.208E-01   -4.199E-01   -4.190E-01   -4.181E-01   -4.172E-01   -4.163E-01   -4.154E-01   -4.145E-01
    -4.136E-01   -4.127E-01   -4.118E-01   -4.109E-01   -4.101E-01   -4.092E-01   -4.083E-01   -4.074E-01   -4.065E-01   -4.056E-01
    -4.047E-01   -4.038E-01   -4.029E-01   -4.020E-01   -4.011E-01   -4.002E-01   -3.993E-01   -3.984E-01   -3.975E-01   -3.966E-01
    -3.957E-01   -3.948E-01   -3.939E-01   -3.930E-01   -3.921E-01   -3.912E-01   -3.903E-01   -3.894E-01   -3.885E-01   -3.876E-01
    -3.867E-01   -3.858E-01   -3.849E-01   -3.840E-01   -3.831E-01   -3.822E-01   -3.813E-01   -3.804E-01   -3.795E-01   -3.786E-01
    -3.777E-01   -3.768E-01   -3.759E-01   -3.750E-01   -3.741E-01   -3.732E-01   -3.723E-01   -3.714E-01   -3.705E-01   -3.696E-01
    -3.687E-01   -3.678E-01   -3.669E-01   -3.660E-01   -3.651E-01   -3.642E-01   -3.633E-01   -3.624E-01   -3.615E-01   -3.606E-01
    -3.597E-01   -3.588E-01   -3.579E-01   -3.570E-01   -3.561E-01   -3.552E-01   -3.544E-01   -3.535E-01   -3.526E-01   -3.517E-01
    -3.508E-01   -3.499E-01   -3.490E-01   -3.481E-01   -3.472E-01   -3.463E-01   -3.454E-01   -3.445E-01   -3.436E-01   -3.427E-01
    -3.418E-01   -3.409E-01   -3.400E-01   -3.391E-01   -3.382E-01   -3.373E-01   -3.364E-01   -3.355E-01   -3.346E-01   -3.337E-01
    -3.328E-01   -3.319E-01   -3.310E-01   -3.301E-01   -3.292E-01   -3.283E-01   -3.274E-01   -3.265E-01   -3.256E-01   -3.247E-01
    -3.238E-01   -3.229E-01   -3.220E-01   -3.211E-01   -3.202E-01   -3.193E-01   -3.184E-01   -3.175E-01   -3.166E-01   -3.157E-01
    -3.148E-01   -3.139E-01   -3.130E-01   -3.121E-01   -3.112E-01   -3.103E-01   -3.094E-01   -3.086E-01   -3.077E-01   -3.068E-01
    -3.059E-01   -3.050E-01   -3.041E-01   -3.032E-01   -3.023E-01   -3.014E-01   -3.005E-01   -2.996E-01   -2.987E-01   -2.978E-01
    -2.969E-01   -2.960E-01   -2.951E-01   -2.942E-01   -2.933E-01   -2.924E-01   -2.915E-01   -2.906E-01   -2.897E-01   -2.888E-01
    -2.879E-01   -2.870E-01   -2.861E-01   -2.852E-01   -2.843E-01   -2.834E-01   -2.825E-01   -2.816E-01   -2.807E-01   -2.798E-01
    -2.789E-01   -2.780E-01   -2.771E-01   -2.762E-01   -2.753E-01   -2.744E-01   -2.735E-01   -2.727E-01   -2.718E-01   -2.709E-01
    -2.700E-01   -2.691E-01   -2.682E-01   -2.673E-01   -2.664E-01   -2.655E-01   -2.646E-01   -2.637E-01   -2.628E-01   -2.619E-01
    -2.610E-01   -2.601E-01   -2.592E-01   -2.583E-01   -2.574E-01   -2.565E-01   -2.556E-01   -2.547E-01   -2.538E-01   -2.529E-01
    -2.520E-01   -2.511E-01   -2.502E-01   -2.493E-01   -2.484E-01   -2.475E-01   -2.466E-01   -2.457E-01   -2.448E-01   -2.439E-01
    -2.431E-01   -2.422E-01   -2.413E-01   -2.404E-01   -2.395E-01   -2.386E-01   -2.377E-01   -2.368E-01   -2.359E-01   -2.350E-01
    -2.341E-01   -2.332E-01   -2.323E-01   -2.314E-01   -2.305E-01   -2.296E-01   -2.287E-01   -2.278E-01   -2.269E-01   -2.260E-01
    -2.251E-01   -2.242E-01   -2.233E-01   -2.224E-01   -2.215E-01   -2.206E-01   -2.197E-01   -2.188E-01   -2.180E-01   -2.171E-01
    -2.162E-01   -2.153E-01   -2.144E-01   -2.135E-01   -2.126E-01   -2.117E-01   -2.108E-01   -2.099E-01   -2.090E-01   -2.081E-01
    -2.072E-01   -2.063E-01   -2.054E-01   -2.045E-01   -2.036E-01   -2.027E-01   -2.018E-01   -2.009E-01   -2.000E-01   -1.991E-01
    -1.982E-01   -1.973E-01   -1.965E-01   -1.956E-01   -1.947E-01   -1.938E-01   -1.929E-01   -1.920E-01   -1.911E-01   -1.902E-01
    -1.893E-01   -1.884E-01   -1.875E-01   -1.866E-01   -1.857E-01   -1.848E-01   -1.839E-01   -1.830E-01   -1.821E-01   -1.812E-01
    -1.803E-01   -1.794E-01   -1.785E-01   -1.776E-01   -1.768E-01   -1.759E-01   -1.750E-01   -1.741E-01   -1.732E-01   -1.723E-01
    -1.714E-01   -1.705E-01   -1.696E-01   -1.687E-01   -1.678E-01   -1.669E-01   -1.660E-01   -1.651E-01   -1.642E-01   -1.633E-01
    -1.624E-01   -1.615E-01   -1.606E-01   -1.597E-01   -1.589E-01   -1.580E-01   -1.571E-01   -1.562E-01   -1.553E-01   -1.544E-01
    -1.535E-01   -1.526E-01   -1.517E-01   -1.508E-01   -1.499E-01   -1.490E-01   -1.481E-01   -1.472E-01   -1.463E-01   -1.454E-01
    -1.445E-01   -1.436E-01   -1.428E-01   -1.419E-01   -1.410E-01   -1.401E-01   -1.392E-01   -1.383E-01   -1.374E-01   -1.365E-01
    -1.356E-01   -1.347E-01   -1.338E-01   -1.329E-01   -1.320E-01   -1.311E-01   -1.302E-01   -1.293E-01   -1.284E-01   -1.276E-01
    -1.267E-01   -1.258E-01   -1.249E-01   -1.240E-01   -1.231E-01   -1.222E-01   -1.213E-01   -1.204E-01   -1.195E-01   -1.186E-01
    -1.177E-01   -1.168E-01   -1.159E-01   -1.150E-01   -1.141E-01   -1.133E-01   -1.124E-01   -1.115E-01   -1.106E-01   -1.097E-01
    -1.088E-01   -1.079E-01   -1.070E-01   -1.061E-01   -1.052E-01   -1.043E-01   -1.034E-01   -1.025E-01   -1.016E-01   -1.007E-01
    -9.986E-02   -9.896E-02   -9.807E-02   -9.718E-02   -9.628E-02   -9.539E-02   -9.450E-02   -9.361E-02   -9.271E-02   -9.182E-02
    -9.093E-02   -9.004E-02   -8.914E-02   -8.825E-02   -8.736E-02   -8.647E-02   -8.557E-02   -8.468E-02   -8.379E-02   -8.290E-02
    -8.200E-02   -8.111E-02   -8.022E-02   -7.933E-02   -7.843E-02   -7.754E-02   -7.665E-02   -7.576E-02   -7.487E-02   -7.397E-02
    -7.308E-02   -7.219E-02   -7.130E-02   -7.041E-02   -6.951E-02   -6.862E-02   -6.773E-02   -6.684E-02   -6.595E-02   -6.506E-02
    -6.416E-02   -6.327E-02   -6.238E-02   -6.149E-02   -6.060E-02   -5.971E-02   -5.881E-02   -5.792E-02   -5.703E-02   -5.614E-02
    -5.525E-02   -5.436E-02   -5.347E-02   -5.258E-02   -5.168E-02   -5.079E-02   -4.990E-02   -4.901E-02   -4.812E-02   -4.723E-02
    -4.634E-02   -4.545E-02   -4.456E-02   -4.367E-02   -4.278E-02   -4.188E-02   -4.099E-02   -4.010E-02   -3.921E-02   -3.832E-02
    -3.743E-02   -3.654E-02   -3.565E-02   -3.476E-02   -3.387E-02   -3.298E-02   -3.209E-02   -3.120E-02   -3.031E-02   -2.942E-02
    -2.853E-02   -2.764E-02   -2.675E-02   -2.586E-02   -2.497E-02   -2.408E-02   -2.319E-02   -2.230E-02   -2.141E-02   -2.052E-02
    -1.963E-02   -1.874E-02   -1.785E-02   -1.696E-02   -1.607E-02   -1.518E-02   -1.429E-02   -1.340E-02   -1.251E-02   -1.162E-02
    -1.073E-02   -9.844E-03   -8.955E-03   -8.066E-03   -7.176E-03   -6.287E-03   -5.398E-03   -4.509E-03   -3.620E-03   -2.731E-03
    -1.842E-03   -9.532E-04   -6.437E-05    8.244E-04    1.713E-03    2.602E-03    3.491E-03    4.379E-03    5.268E-03    6.156E-03
     7.045E-03    7.933E-03    8.822E-03    9.710E-03    1.060E-02    1.149E-02    1.238E-02    1.326E-02
 Ala      Conc. = 1.93E+01
