 LCModel (Version 6.3-1L) Copyright: S.W. Provencher.          Ref.: Magn. Reson. Med. 30:672-679 (1993).                
 Slice#3 Row#10 Col#2  K_02_press_1_raw_act
 36 lines in following concentration table = NCONC+1
    Conc.  %SD /Cr+PCr  Metabolite                                         
  274.743  31%   1.346 Ala                                                 
    0.000 999%   0.000 Asp                                                 
   45.445 248%   0.223 Cr                                                  
  158.624  73%   0.777 PCr                                                 
   11.156 260% 5.5E-02 GABA                                                
    4.197 686% 2.1E-02 Glc                                                 
  310.029  56%   1.519 Gln                                                 
  352.561  56%   1.728 Glu                                                 
   69.922  17%   0.343 GPC                                                 
    0.000 999%   0.000 PCh                                                 
    0.000 999%   0.000 GSH                                                 
  222.904  69%   1.092 Ins                                                 
  168.289  53%   0.825 Lac                                                 
  267.286  13%   1.310 NAA                                                 
    0.000 999%   0.000 NAAG                                                
    2.988 292% 1.5E-02 Scyllo                                              
    0.000 999%   0.000 Tau                                                 
    0.000 999%   0.000 -CrCH2                                              
   69.922  17%   0.343 GPC+PCh                                             
  267.286  13%   1.310 NAA+NAAG                                            
  204.069  15%   1.000 Cr+PCr                                              
  662.589  48%   3.247 Glu+Gln                                             
    0.000 999%   0.000 Lip13a                                              
    0.000 999%   0.000 Lip13b                                              
    0.000 999%   0.000 Lip09                                               
  361.299  22%   1.770 MM09                                                
    0.671 999% 3.3E-03 Lip20                                               
  541.865  22%   2.655 MM20                                                
  108.387  22%   0.531 MM12                                                
  271.500  22%   1.330 MM14                                                
  135.601  22%   0.664 MM17                                                
    0.000 999%   0.000 Lip13a+Lip13b                                       
  379.886  22%   1.862 MM14+Lip13a+Lip13b+MM12                             
  361.299  22%   1.770 MM09+Lip09                                          
  542.536  22%   2.659 MM20+Lip20                                          
   6 lines in following misc. output table
  FWHM = 0.076 ppm    S/N =   3                                            
  Data shift = 0.015 ppm                                                   
  Ph:  33 deg       6.3 deg/ppm                                            
  alphaB,S = 1.5E+00,   5.1E+01                                            
   14 spline knots.   Ns =10(1)                                            
  (14) 5 infls.   (17) 1 extrs.                                            
  498 points on ppm-axis = NY
      4.000000     3.992357     3.984714     3.977070     3.969427     3.961784     3.954141     3.946497     3.938854     3.931211
      3.923568     3.915925     3.908281     3.900638     3.892995     3.885352     3.877708     3.870065     3.862422     3.854779
      3.847136     3.839492     3.831849     3.824206     3.816563     3.808919     3.801276     3.793633     3.785990     3.778347
      3.770703     3.763060     3.755417     3.747774     3.740130     3.732487     3.724844     3.717201     3.709558     3.701914
      3.694271     3.686628     3.678985     3.671341     3.663698     3.656055     3.648412     3.640769     3.633125     3.625482
      3.617839     3.610196     3.602552     3.594909     3.587266     3.579623     3.571980     3.564336     3.556693     3.549050
      3.541407     3.533763     3.526120     3.518477     3.510834     3.503191     3.495547     3.487904     3.480261     3.472618
      3.464974     3.457331     3.449688     3.442045     3.434402     3.426758     3.419115     3.411472     3.403829     3.396185
      3.388542     3.380899     3.373256     3.365613     3.357969     3.350326     3.342683     3.335040     3.327396     3.319753
      3.312110     3.304467     3.296824     3.289180     3.281537     3.273894     3.266251     3.258607     3.250964     3.243321
      3.235678     3.228034     3.220391     3.212748     3.205105     3.197462     3.189818     3.182175     3.174532     3.166889
      3.159245     3.151602     3.143959     3.136316     3.128673     3.121029     3.113386     3.105743     3.098100     3.090456
      3.082813     3.075170     3.067527     3.059884     3.052240     3.044597     3.036954     3.029311     3.021667     3.014024
      3.006381     2.998738     2.991095     2.983451     2.975808     2.968165     2.960522     2.952878     2.945235     2.937592
      2.929949     2.922306     2.914662     2.907019     2.899376     2.891733     2.884089     2.876446     2.868803     2.861160
      2.853517     2.845873     2.838230     2.830587     2.822944     2.815300     2.807657     2.800014     2.792371     2.784728
      2.777084     2.769441     2.761798     2.754155     2.746511     2.738868     2.731225     2.723582     2.715939     2.708295
      2.700652     2.693009     2.685366     2.677722     2.670079     2.662436     2.654793     2.647150     2.639506     2.631863
      2.624220     2.616577     2.608933     2.601290     2.593647     2.586004     2.578361     2.570717     2.563074     2.555431
      2.547788     2.540144     2.532501     2.524858     2.517215     2.509572     2.501928     2.494285     2.486642     2.478999
      2.471355     2.463712     2.456069     2.448426     2.440783     2.433139     2.425496     2.417853     2.410210     2.402566
      2.394923     2.387280     2.379637     2.371994     2.364350     2.356707     2.349064     2.341421     2.333777     2.326134
      2.318491     2.310848     2.303205     2.295561     2.287918     2.280275     2.272632     2.264988     2.257345     2.249702
      2.242059     2.234416     2.226772     2.219129     2.211486     2.203843     2.196199     2.188556     2.180913     2.173270
      2.165627     2.157983     2.150340     2.142697     2.135054     2.127410     2.119767     2.112124     2.104481     2.096838
      2.089194     2.081551     2.073908     2.066265     2.058621     2.050978     2.043335     2.035692     2.028049     2.020405
      2.012762     2.005119     1.997476     1.989833     1.982190     1.974546     1.966903     1.959260     1.951617     1.943974
      1.936331     1.928688     1.921045     1.913402     1.905759     1.898115     1.890472     1.882829     1.875186     1.867543
      1.859900     1.852257     1.844614     1.836971     1.829327     1.821684     1.814041     1.806398     1.798755     1.791112
      1.783469     1.775826     1.768183     1.760540     1.752896     1.745253     1.737610     1.729967     1.722324     1.714681
      1.707038     1.699395     1.691752     1.684108     1.676465     1.668822     1.661179     1.653536     1.645893     1.638250
      1.630607     1.622964     1.615321     1.607677     1.600034     1.592391     1.584748     1.577105     1.569462     1.561819
      1.554176     1.546533     1.538890     1.531246     1.523603     1.515960     1.508317     1.500674     1.493031     1.485388
      1.477745     1.470102     1.462458     1.454815     1.447172     1.439529     1.431886     1.424243     1.416600     1.408957
      1.401314     1.393671     1.386027     1.378384     1.370741     1.363098     1.355455     1.347812     1.340169     1.332526
      1.324883     1.317240     1.309596     1.301953     1.294310     1.286667     1.279024     1.271381     1.263738     1.256095
      1.248452     1.240808     1.233165     1.225522     1.217879     1.210236     1.202593     1.194950     1.187307     1.179664
      1.172021     1.164377     1.156734     1.149091     1.141448     1.133805     1.126162     1.118519     1.110876     1.103233
      1.095590     1.087946     1.080303     1.072660     1.065017     1.057374     1.049731     1.042088     1.034445     1.026802
      1.019158     1.011515     1.003872     0.996229     0.988586     0.980943     0.973300     0.965657     0.958014     0.950371
      0.942727     0.935084     0.927441     0.919798     0.912155     0.904512     0.896869     0.889226     0.881583     0.873940
      0.866296     0.858653     0.851010     0.843367     0.835724     0.828081     0.820438     0.812795     0.805152     0.797508
      0.789865     0.782222     0.774579     0.766936     0.759293     0.751650     0.744007     0.736364     0.728721     0.721077
      0.713434     0.705791     0.698148     0.690505     0.682862     0.675219     0.667576     0.659933     0.652290     0.644646
      0.637003     0.629360     0.621717     0.614074     0.606431     0.598788     0.591145     0.583502     0.575858     0.568215
      0.560572     0.552929     0.545286     0.537643     0.530000     0.522357     0.514714     0.507071     0.499427     0.491784
      0.484141     0.476498     0.468855     0.461212     0.453569     0.445925     0.438282     0.430639     0.422996     0.415353
      0.407710     0.400067     0.392424     0.384780     0.377137     0.369494     0.361851     0.354208     0.346565     0.338922
      0.331278     0.323635     0.315992     0.308349     0.300706     0.293063     0.285420     0.277777     0.270133     0.262490
      0.254847     0.247204     0.239561     0.231918     0.224275     0.216631     0.208988     0.201345
 NY phased data points follow
   3.57687E+01  3.44167E+01  3.53439E+01  3.48671E+01  3.32923E+01  3.38390E+01  3.19330E+01  3.27789E+01  3.18133E+01  3.35941E+01
   3.37829E+01  3.23853E+01  3.20114E+01  2.84708E+01  2.98053E+01  2.79620E+01  2.78251E+01  2.86323E+01  2.61871E+01  2.46938E+01
   2.59641E+01  2.44255E+01  2.26047E+01  2.52110E+01  1.90773E+01  2.10850E+01  2.44032E+01  2.36781E+01  2.23908E+01  2.12334E+01
   2.39671E+01  2.37991E+01  2.32080E+01  2.12998E+01  2.21533E+01  2.19411E+01  2.03133E+01  2.17327E+01  2.25092E+01  2.09949E+01
   2.12038E+01  2.05752E+01  1.88777E+01  2.19934E+01  1.93343E+01  2.13355E+01  2.28116E+01  1.87783E+01  1.69990E+01  1.94044E+01
   1.72569E+01  1.75650E+01  1.95569E+01  1.56820E+01  1.28467E+01  1.67988E+01  1.51731E+01  1.67681E+01  1.70524E+01  1.34550E+01
   1.22197E+01  1.44699E+01  1.28289E+01  1.29940E+01  1.30802E+01  1.10608E+01  1.16154E+01  1.10938E+01  1.31559E+01  1.14752E+01
   1.29750E+01  1.24112E+01  1.24663E+01  9.84052E+00  1.19253E+01  9.29552E+00  1.23900E+01  1.18968E+01  1.16371E+01  1.26931E+01
   1.10635E+01  1.06769E+01  1.04774E+01  1.11526E+01  1.02807E+01  1.01560E+01  1.01629E+01  1.06794E+01  1.09416E+01  8.96692E+00
   9.14371E+00  8.50093E+00  1.02087E+01  8.98033E+00  9.76186E+00  1.01286E+01  9.34505E+00  7.73473E+00  1.36198E+01  1.54668E+01
   1.39854E+01  1.50529E+01  1.10421E+01  1.42344E+01  1.32259E+01  1.24882E+01  1.20395E+01  1.52658E+01  1.05566E+01  1.24421E+01
   1.05034E+01  1.13807E+01  9.48930E+00  8.45854E+00  1.15695E+01  1.12674E+01  1.08337E+01  8.01175E+00  9.55074E+00  9.51587E+00
   7.01353E+00  8.39009E+00  1.31527E+01  1.22708E+01  1.27717E+01  1.35297E+01  1.47564E+01  1.50100E+01  1.17782E+01  1.24229E+01
   1.22161E+01  1.22857E+01  1.10676E+01  1.08542E+01  9.81572E+00  1.16289E+01  6.23104E+00  8.52615E+00  1.22129E+01  8.30326E+00
   6.84323E+00  8.40477E+00  1.00812E+01  7.81889E+00  7.89489E+00  8.04854E+00  6.41638E+00  8.95646E+00  7.70711E+00  8.63879E+00
   7.71759E+00  7.98787E+00  9.31089E+00  8.26492E+00  8.00802E+00  7.52041E+00  8.97153E+00  9.12525E+00  1.05071E+01  7.99755E+00
   9.53981E+00  7.84811E+00  1.02943E+01  1.13724E+01  8.03141E+00  9.71781E+00  5.10080E+00  6.28429E+00  7.96573E+00  1.02124E+01
   8.28448E+00  6.51315E+00  8.07858E+00  5.22577E+00  4.16772E+00  5.65601E+00  5.06390E+00  6.99123E+00  2.93885E+00  2.69416E+00
   2.49398E+00  3.74919E+00  6.06737E+00  4.39685E+00  4.19103E+00  2.41770E+00  2.45113E+00  1.84132E+00  2.81481E+00  3.67704E+00
   4.82847E+00  3.52102E+00  4.86934E+00  1.50502E+00  3.49206E+00  4.00380E+00  3.48406E+00  4.35368E+00  2.36101E+00  3.53662E+00
   5.00594E+00  2.90634E+00  1.38209E+00  4.20129E+00  3.32606E+00  3.03701E+00  1.58165E+00  1.96280E+00  8.24459E-01  1.97687E+00
   1.21032E+00  1.59264E+00  2.02445E+00  2.74195E+00  2.32104E+00  2.29094E+00  3.81124E+00  2.89940E+00  3.81714E-01  5.19319E-01
  -1.91018E+00  1.25875E+00  3.29537E-01 -8.61170E-01  2.23080E+00  2.85935E-01 -3.55918E-01  7.87090E-01  2.00013E-01  2.00336E+00
   1.00900E+00 -4.02872E-01 -6.27864E-01  9.88229E-01  2.32637E-01 -1.08458E+00 -1.52471E+00  1.53744E-01 -2.16506E+00 -2.09389E+00
  -2.43678E+00 -2.22248E+00 -2.93147E+00  6.19105E-01 -1.00240E+00 -2.26810E+00 -3.71004E-01 -2.32675E+00 -7.24372E-01  1.09528E-01
  -9.90624E-01  6.50428E-01 -1.31748E+00  2.38872E+00  2.94650E+00  8.89622E-01  2.55331E+00  5.98127E+00  9.44407E+00  8.69721E+00
   5.60023E+00  1.27730E+00  1.36621E+00  1.88461E+00  2.36131E+00  1.35963E+00  5.97452E-01  5.68435E-01 -2.80728E+00 -2.69340E+00
  -1.74675E+00 -3.08306E+00 -3.03570E+00 -3.09596E+00 -3.85388E+00 -2.41479E+00 -4.87049E+00 -4.66425E-01 -4.96666E-01 -3.83908E+00
  -2.18383E+00 -4.23758E+00 -4.82955E+00 -3.96788E+00 -3.26581E+00 -4.85636E+00 -1.54431E+00 -1.24089E+00 -5.07660E+00 -4.58855E+00
  -1.87382E+00 -3.63576E+00 -4.41204E+00 -5.56513E+00 -2.84747E+00 -3.96766E+00 -1.70827E+00 -2.40347E+00 -3.65697E+00 -4.47358E+00
  -2.01518E-01 -3.31232E+00 -1.40875E+00 -9.12013E-01 -2.40133E+00 -2.67823E+00 -7.95891E-01 -8.98736E-01 -3.36939E+00 -2.79471E+00
  -2.57159E+00  6.27562E-01  1.18548E-01 -4.61068E-01  1.19241E-01 -1.23379E+00  2.66460E+00 -8.74187E-01 -1.06028E+00 -1.83226E+00
  -2.02843E-01 -1.03256E+00  3.04053E+00  1.67309E+00  1.48385E+00 -5.50306E-01 -1.61577E-01  1.03501E+00 -7.40685E-01 -2.22441E+00
  -1.51739E+00 -5.48229E-01 -9.63971E-01 -1.72763E+00  3.17667E-01 -2.33576E+00  1.52504E+00 -1.26677E-01  1.39859E+00 -7.94409E-01
  -3.53422E-01  1.19216E+00 -3.27110E-02 -2.88421E+00 -3.33433E+00 -1.91000E+00 -5.36819E+00 -3.51897E+00 -5.35190E+00 -3.31160E+00
  -5.83083E+00 -8.19513E+00 -5.61786E+00 -3.08697E+00 -5.79322E+00 -5.30278E+00 -6.68407E+00 -7.20944E+00 -7.45467E+00 -4.45721E+00
  -7.87799E+00 -4.34150E+00 -6.59117E+00 -6.83706E+00 -7.62835E+00 -6.49164E+00 -9.74757E+00 -7.62682E+00 -7.00049E+00 -7.41158E+00
  -7.32942E+00 -9.71898E+00 -7.01816E+00 -5.68441E+00 -6.96590E+00 -7.52215E+00 -7.76699E+00 -9.41128E+00 -7.46760E+00 -8.31091E+00
  -7.91637E+00 -9.12694E+00 -7.79365E+00 -8.31943E+00 -5.89531E+00 -7.46285E+00 -8.74217E+00 -9.66701E+00 -7.65886E+00 -8.36134E+00
  -9.83082E+00 -9.94494E+00 -1.02105E+01 -1.04134E+01 -8.17248E+00 -9.11660E+00 -1.12249E+01 -1.08307E+01 -1.04323E+01 -1.02736E+01
  -1.09101E+01 -8.55317E+00 -1.16453E+01 -1.02127E+01 -9.52590E+00 -1.04312E+01 -1.00011E+01 -1.11049E+01 -1.09935E+01 -1.22912E+01
  -9.53160E+00 -9.86880E+00 -1.27115E+01 -1.09747E+01 -1.14392E+01 -9.60569E+00 -9.24912E+00 -1.28604E+01 -1.04678E+01 -9.31542E+00
  -9.78225E+00 -1.11505E+01 -1.22227E+01 -1.15965E+01 -1.19140E+01 -1.26279E+01 -1.07461E+01 -1.13593E+01 -1.21086E+01 -1.07740E+01
  -1.14872E+01 -1.31749E+01 -1.32141E+01 -1.24653E+01 -1.45060E+01 -1.10178E+01 -1.17283E+01 -1.03846E+01 -1.27301E+01 -1.00783E+01
  -1.22789E+01 -1.24901E+01 -1.21984E+01 -1.41711E+01 -1.32029E+01 -1.10423E+01 -1.11970E+01 -1.43581E+01 -1.04587E+01 -1.22371E+01
  -1.09298E+01 -9.59012E+00 -1.16645E+01 -1.23490E+01 -1.33192E+01 -1.38862E+01 -1.12911E+01 -1.13141E+01 -1.18205E+01 -1.13260E+01
  -1.34091E+01 -1.00598E+01 -1.29249E+01 -1.19577E+01 -9.83646E+00 -1.11324E+01 -1.34009E+01 -1.24035E+01 -1.12571E+01 -1.14754E+01
  -9.02845E+00 -1.07641E+01 -1.33011E+01 -1.12619E+01 -1.38118E+01 -1.09800E+01 -1.31873E+01 -1.04456E+01 -1.41692E+01 -1.27590E+01
  -1.09278E+01 -1.06120E+01 -1.16862E+01 -1.21880E+01 -9.12625E+00 -1.50508E+01 -1.16543E+01 -8.51540E+00 -8.74002E+00 -1.13633E+01
  -1.21786E+01 -1.09207E+01 -1.00875E+01 -1.10980E+01 -9.57321E+00 -7.90668E+00 -1.02593E+01 -9.71758E+00
 NY points of the fit to the data follow
   3.25360E+01  3.22894E+01  3.21008E+01  3.20835E+01  3.23184E+01  3.27319E+01  3.31172E+01  3.32371E+01  3.29608E+01  3.23820E+01
   3.17014E+01  3.10784E+01  3.05460E+01  3.00279E+01  2.94534E+01  2.88057E+01  2.80853E+01  2.73873E+01  2.68329E+01  2.64642E+01
   2.61880E+01  2.58605E+01  2.53967E+01  2.47684E+01  2.40489E+01  2.33886E+01  2.29495E+01  2.28247E+01  2.29553E+01  2.31622E+01
   2.32192E+01  2.29764E+01  2.24795E+01  2.19308E+01  2.15186E+01  2.12897E+01  2.11707E+01  2.10596E+01  2.08541E+01  2.05012E+01
   2.00696E+01  1.97183E+01  1.95724E+01  1.96116E+01  1.96923E+01  1.96496E+01  1.93945E+01  1.89592E+01  1.84616E+01  1.80196E+01
   1.76738E+01  1.73824E+01  1.70821E+01  1.67348E+01  1.63635E+01  1.60325E+01  1.57908E+01  1.56240E+01  1.54619E+01  1.52480E+01
   1.49776E+01  1.46898E+01  1.44354E+01  1.42292E+01  1.40551E+01  1.38874E+01  1.37108E+01  1.35286E+01  1.33525E+01  1.31911E+01
   1.30395E+01  1.28865E+01  1.27281E+01  1.25659E+01  1.24046E+01  1.22445E+01  1.20826E+01  1.19080E+01  1.17171E+01  1.15223E+01
   1.13439E+01  1.11836E+01  1.10180E+01  1.08243E+01  1.06065E+01  1.03927E+01  1.02209E+01  1.01103E+01  1.00498E+01  1.00145E+01
   9.98558E+00  9.96239E+00  9.99140E+00  1.01999E+01  1.04681E+01  1.06300E+01  1.08056E+01  1.13129E+01  1.23070E+01  1.35260E+01
   1.44927E+01  1.48069E+01  1.44014E+01  1.36168E+01  1.28971E+01  1.24889E+01  1.23111E+01  1.20911E+01  1.16335E+01  1.09333E+01
   1.01382E+01  9.49691E+00  9.16844E+00  9.09285E+00  9.09735E+00  9.11017E+00  9.17939E+00  9.43135E+00  9.76817E+00  1.00134E+01
   1.02567E+01  1.07980E+01  1.18065E+01  1.30567E+01  1.40926E+01  1.45131E+01  1.42196E+01  1.35091E+01  1.28090E+01  1.23772E+01
   1.21640E+01  1.19208E+01  1.14523E+01  1.07424E+01  9.92695E+00  9.24330E+00  8.85664E+00  8.72281E+00  8.67375E+00  8.62039E+00
   8.56183E+00  8.50327E+00  8.44454E+00  8.38462E+00  8.32297E+00  8.25953E+00  8.19429E+00  8.12757E+00  8.06024E+00  7.99290E+00
   7.92391E+00  7.84661E+00  7.76487E+00  7.68830E+00  7.61702E+00  7.54089E+00  7.44053E+00  7.31500E+00  7.19078E+00  7.10024E+00
   7.05204E+00  7.01856E+00  6.96119E+00  6.85696E+00  6.71313E+00  6.56067E+00  6.42447E+00  6.31379E+00  6.22547E+00  6.13073E+00
   6.00008E+00  5.82850E+00  5.65182E+00  5.51712E+00  5.43604E+00  5.38122E+00  5.30996E+00  5.20185E+00  5.07823E+00  4.97298E+00
   4.89673E+00  4.83171E+00  4.75748E+00  4.67256E+00  4.58664E+00  4.51840E+00  4.46806E+00  4.42162E+00  4.34868E+00  4.22427E+00
   4.05719E+00  3.89063E+00  3.76073E+00  3.66435E+00  3.59105E+00  3.55472E+00  3.56819E+00  3.62911E+00  3.72270E+00  3.80281E+00
   3.78976E+00  3.69256E+00  3.51464E+00  3.18775E+00  2.66497E+00  2.02469E+00  1.47031E+00  1.12446E+00  1.02007E+00  1.14753E+00
   1.43642E+00  1.76828E+00  1.99009E+00  2.04056E+00  1.96451E+00  1.79681E+00  1.53137E+00  1.17982E+00  7.90465E-01  4.51411E-01
   2.52828E-01  2.17997E-01  2.67150E-01  3.01912E-01  2.96089E-01  2.63544E-01  2.24477E-01  2.36434E-01  3.26680E-01  4.42369E-01
   4.78029E-01  3.79133E-01  1.83906E-01 -6.76874E-03 -6.32577E-02  3.88594E-02  1.89916E-01  2.41136E-01  1.20878E-01 -1.30969E-01
  -4.12760E-01 -6.12405E-01 -6.77977E-01 -6.49796E-01 -6.26282E-01 -6.71131E-01 -7.62741E-01 -8.26147E-01 -8.07392E-01 -6.62172E-01
  -2.61877E-01  3.31497E-01  7.45848E-01  9.50302E-01  1.35162E+00  2.36429E+00  3.90956E+00  5.43717E+00  6.31308E+00  6.17835E+00
   5.24447E+00  4.10950E+00  3.26926E+00  2.83175E+00  2.51634E+00  1.98095E+00  1.09148E+00 -4.61195E-02 -1.13298E+00 -1.84627E+00
  -2.13296E+00 -2.20341E+00 -2.25158E+00 -2.30891E+00 -2.37330E+00 -2.44234E+00 -2.50693E+00 -2.56036E+00 -2.60520E+00 -2.64564E+00
  -2.68532E+00 -2.72607E+00 -2.76578E+00 -2.80030E+00 -2.82739E+00 -2.84646E+00 -2.85724E+00 -2.86000E+00 -2.85626E+00 -2.84829E+00
  -2.83739E+00 -2.82334E+00 -2.80523E+00 -2.78250E+00 -2.75481E+00 -2.72192E+00 -2.68395E+00 -2.64120E+00 -2.59375E+00 -2.54164E+00
  -2.48529E+00 -2.42543E+00 -2.36285E+00 -2.29837E+00 -2.23273E+00 -2.16647E+00 -2.09999E+00 -2.03366E+00 -1.96767E+00 -1.90187E+00
  -1.83560E+00 -1.76747E+00 -1.69517E+00 -1.61516E+00 -1.52172E+00 -1.40390E+00 -1.23561E+00 -9.92468E-01 -7.91754E-01 -6.81120E-01
  -5.29242E-01 -2.19768E-01  1.46685E-01  2.69951E-01 -8.08346E-02 -8.17122E-01 -1.68337E+00 -2.48182E+00 -3.09190E+00 -3.41254E+00
  -3.37406E+00 -3.02471E+00 -2.50389E+00 -2.00015E+00 -1.68268E+00 -1.54032E+00 -1.43939E+00 -1.26021E+00 -1.03895E+00 -8.66732E-01
  -7.75717E-01 -7.85560E-01 -9.71282E-01 -1.42452E+00 -2.13078E+00 -2.94904E+00 -3.79596E+00 -4.60175E+00 -5.25466E+00 -5.64672E+00
  -5.74290E+00 -5.63036E+00 -5.44470E+00 -5.31954E+00 -5.33135E+00 -5.42318E+00 -5.48713E+00 -5.46838E+00 -5.39210E+00 -5.32103E+00
  -5.32317E+00 -5.45171E+00 -5.71295E+00 -6.03658E+00 -6.32636E+00 -6.54135E+00 -6.71148E+00 -6.86711E+00 -7.01592E+00 -7.15976E+00
  -7.29985E+00 -7.43686E+00 -7.57106E+00 -7.70247E+00 -7.83094E+00 -7.95615E+00 -8.07772E+00 -8.19515E+00 -8.30792E+00 -8.41550E+00
  -8.51737E+00 -8.61302E+00 -8.70195E+00 -8.78367E+00 -8.85774E+00 -8.92383E+00 -8.98168E+00 -9.03114E+00 -9.07217E+00 -9.10488E+00
  -9.12958E+00 -9.14678E+00 -9.15722E+00 -9.16185E+00 -9.16183E+00 -9.15857E+00 -9.15366E+00 -9.14885E+00 -9.14603E+00 -9.14712E+00
  -9.15398E+00 -9.16842E+00 -9.19207E+00 -9.22631E+00 -9.27223E+00 -9.33053E+00 -9.40148E+00 -9.48497E+00 -9.58054E+00 -9.68739E+00
  -9.80437E+00 -9.93003E+00 -1.00627E+01 -1.02006E+01 -1.03418E+01 -1.04845E+01 -1.06268E+01 -1.07671E+01 -1.09039E+01 -1.10359E+01
  -1.11620E+01 -1.12814E+01 -1.13935E+01 -1.14979E+01 -1.15944E+01 -1.16830E+01 -1.17637E+01 -1.18369E+01 -1.19026E+01 -1.19614E+01
  -1.20136E+01 -1.20597E+01 -1.20999E+01 -1.21349E+01 -1.21648E+01 -1.21901E+01 -1.22112E+01 -1.22284E+01 -1.22420E+01 -1.22522E+01
  -1.22593E+01 -1.22635E+01 -1.22650E+01 -1.22641E+01 -1.22609E+01 -1.22555E+01 -1.22481E+01 -1.22388E+01 -1.22277E+01 -1.22151E+01
  -1.22009E+01 -1.21852E+01 -1.21683E+01 -1.21500E+01 -1.21306E+01 -1.21101E+01 -1.20884E+01 -1.20656E+01 -1.20418E+01 -1.20171E+01
  -1.19913E+01 -1.19647E+01 -1.19371E+01 -1.19087E+01 -1.18794E+01 -1.18493E+01 -1.18184E+01 -1.17868E+01 -1.17544E+01 -1.17212E+01
  -1.16874E+01 -1.16529E+01 -1.16178E+01 -1.15820E+01 -1.15456E+01 -1.15086E+01 -1.14710E+01 -1.14328E+01 -1.13942E+01 -1.13550E+01
  -1.13152E+01 -1.12750E+01 -1.12343E+01 -1.11932E+01 -1.11517E+01 -1.11097E+01 -1.10672E+01 -1.10245E+01 -1.09813E+01 -1.09378E+01
  -1.08939E+01 -1.08497E+01 -1.08052E+01 -1.07604E+01 -1.07153E+01 -1.06699E+01 -1.06243E+01 -1.05784E+01
 NY background values follow
     3.143E+01    3.110E+01    3.077E+01    3.044E+01    3.011E+01    2.978E+01    2.945E+01    2.912E+01    2.879E+01    2.846E+01
     2.813E+01    2.781E+01    2.748E+01    2.715E+01    2.683E+01    2.651E+01    2.618E+01    2.586E+01    2.554E+01    2.523E+01
     2.491E+01    2.459E+01    2.428E+01    2.397E+01    2.366E+01    2.335E+01    2.304E+01    2.274E+01    2.243E+01    2.213E+01
     2.183E+01    2.154E+01    2.124E+01    2.095E+01    2.066E+01    2.038E+01    2.009E+01    1.981E+01    1.953E+01    1.926E+01
     1.899E+01    1.872E+01    1.845E+01    1.819E+01    1.793E+01    1.767E+01    1.742E+01    1.717E+01    1.692E+01    1.668E+01
     1.644E+01    1.620E+01    1.597E+01    1.574E+01    1.552E+01    1.530E+01    1.508E+01    1.487E+01    1.465E+01    1.445E+01
     1.424E+01    1.404E+01    1.385E+01    1.366E+01    1.347E+01    1.328E+01    1.310E+01    1.292E+01    1.275E+01    1.258E+01
     1.241E+01    1.225E+01    1.209E+01    1.194E+01    1.179E+01    1.164E+01    1.150E+01    1.136E+01    1.122E+01    1.109E+01
     1.097E+01    1.084E+01    1.072E+01    1.061E+01    1.050E+01    1.039E+01    1.029E+01    1.019E+01    1.009E+01    1.000E+01
     9.915E+00    9.832E+00    9.754E+00    9.679E+00    9.608E+00    9.541E+00    9.477E+00    9.417E+00    9.359E+00    9.305E+00
     9.255E+00    9.206E+00    9.161E+00    9.118E+00    9.078E+00    9.040E+00    9.005E+00    8.971E+00    8.939E+00    8.910E+00
     8.882E+00    8.855E+00    8.830E+00    8.807E+00    8.784E+00    8.763E+00    8.742E+00    8.723E+00    8.704E+00    8.685E+00
     8.667E+00    8.650E+00    8.632E+00    8.615E+00    8.597E+00    8.579E+00    8.561E+00    8.542E+00    8.523E+00    8.503E+00
     8.482E+00    8.460E+00    8.437E+00    8.413E+00    8.387E+00    8.360E+00    8.331E+00    8.300E+00    8.268E+00    8.234E+00
     8.198E+00    8.161E+00    8.121E+00    8.080E+00    8.038E+00    7.993E+00    7.947E+00    7.899E+00    7.849E+00    7.798E+00
     7.744E+00    7.689E+00    7.632E+00    7.574E+00    7.513E+00    7.451E+00    7.387E+00    7.322E+00    7.254E+00    7.185E+00
     7.114E+00    7.041E+00    6.966E+00    6.890E+00    6.811E+00    6.731E+00    6.649E+00    6.565E+00    6.480E+00    6.393E+00
     6.303E+00    6.212E+00    6.119E+00    6.025E+00    5.928E+00    5.830E+00    5.729E+00    5.627E+00    5.523E+00    5.418E+00
     5.310E+00    5.200E+00    5.089E+00    4.976E+00    4.861E+00    4.745E+00    4.627E+00    4.507E+00    4.387E+00    4.265E+00
     4.141E+00    4.017E+00    3.892E+00    3.765E+00    3.638E+00    3.510E+00    3.381E+00    3.251E+00    3.121E+00    2.990E+00
     2.859E+00    2.728E+00    2.596E+00    2.464E+00    2.332E+00    2.200E+00    2.068E+00    1.936E+00    1.804E+00    1.673E+00
     1.542E+00    1.411E+00    1.281E+00    1.152E+00    1.023E+00    8.945E-01    7.672E-01    6.407E-01    5.153E-01    3.909E-01
     2.676E-01    1.456E-01    2.484E-02   -9.455E-02   -2.125E-01   -3.289E-01   -4.437E-01   -5.568E-01   -6.682E-01   -7.779E-01
    -8.859E-01   -9.920E-01   -1.096E+00   -1.199E+00   -1.300E+00   -1.398E+00   -1.495E+00   -1.590E+00   -1.683E+00   -1.775E+00
    -1.864E+00   -1.951E+00   -2.036E+00   -2.119E+00   -2.200E+00   -2.278E+00   -2.355E+00   -2.430E+00   -2.502E+00   -2.572E+00
    -2.640E+00   -2.705E+00   -2.769E+00   -2.830E+00   -2.889E+00   -2.945E+00   -2.999E+00   -3.050E+00   -3.100E+00   -3.146E+00
    -3.191E+00   -3.232E+00   -3.271E+00   -3.308E+00   -3.342E+00   -3.374E+00   -3.403E+00   -3.429E+00   -3.452E+00   -3.473E+00
    -3.492E+00   -3.507E+00   -3.520E+00   -3.530E+00   -3.537E+00   -3.543E+00   -3.546E+00   -3.546E+00   -3.545E+00   -3.542E+00
    -3.538E+00   -3.532E+00   -3.524E+00   -3.515E+00   -3.506E+00   -3.495E+00   -3.483E+00   -3.470E+00   -3.457E+00   -3.444E+00
    -3.430E+00   -3.416E+00   -3.402E+00   -3.388E+00   -3.374E+00   -3.361E+00   -3.348E+00   -3.336E+00   -3.324E+00   -3.314E+00
    -3.304E+00   -3.296E+00   -3.289E+00   -3.283E+00   -3.279E+00   -3.277E+00   -3.277E+00   -3.279E+00   -3.283E+00   -3.289E+00
    -3.297E+00   -3.309E+00   -3.322E+00   -3.339E+00   -3.359E+00   -3.381E+00   -3.407E+00   -3.437E+00   -3.469E+00   -3.505E+00
    -3.545E+00   -3.587E+00   -3.633E+00   -3.681E+00   -3.733E+00   -3.787E+00   -3.845E+00   -3.905E+00   -3.968E+00   -4.033E+00
    -4.102E+00   -4.172E+00   -4.246E+00   -4.321E+00   -4.399E+00   -4.479E+00   -4.562E+00   -4.646E+00   -4.733E+00   -4.822E+00
    -4.913E+00   -5.005E+00   -5.100E+00   -5.196E+00   -5.294E+00   -5.393E+00   -5.495E+00   -5.597E+00   -5.701E+00   -5.807E+00
    -5.914E+00   -6.022E+00   -6.131E+00   -6.242E+00   -6.353E+00   -6.466E+00   -6.579E+00   -6.694E+00   -6.809E+00   -6.925E+00
    -7.042E+00   -7.159E+00   -7.277E+00   -7.395E+00   -7.514E+00   -7.633E+00   -7.752E+00   -7.872E+00   -7.992E+00   -8.111E+00
    -8.231E+00   -8.350E+00   -8.470E+00   -8.588E+00   -8.707E+00   -8.825E+00   -8.943E+00   -9.060E+00   -9.176E+00   -9.292E+00
    -9.406E+00   -9.520E+00   -9.633E+00   -9.745E+00   -9.855E+00   -9.965E+00   -1.007E+01   -1.018E+01   -1.028E+01   -1.039E+01
    -1.049E+01   -1.059E+01   -1.069E+01   -1.079E+01   -1.088E+01   -1.097E+01   -1.106E+01   -1.115E+01   -1.124E+01   -1.132E+01
    -1.140E+01   -1.148E+01   -1.156E+01   -1.163E+01   -1.170E+01   -1.177E+01   -1.184E+01   -1.190E+01   -1.196E+01   -1.202E+01
    -1.207E+01   -1.212E+01   -1.217E+01   -1.221E+01   -1.226E+01   -1.230E+01   -1.233E+01   -1.237E+01   -1.240E+01   -1.243E+01
    -1.246E+01   -1.248E+01   -1.251E+01   -1.253E+01   -1.254E+01   -1.256E+01   -1.257E+01   -1.259E+01   -1.260E+01   -1.260E+01
    -1.261E+01   -1.261E+01   -1.262E+01   -1.262E+01   -1.262E+01   -1.261E+01   -1.261E+01   -1.260E+01   -1.259E+01   -1.258E+01
    -1.257E+01   -1.256E+01   -1.255E+01   -1.253E+01   -1.252E+01   -1.250E+01   -1.248E+01   -1.246E+01   -1.244E+01   -1.242E+01
    -1.240E+01   -1.238E+01   -1.235E+01   -1.233E+01   -1.230E+01   -1.228E+01   -1.225E+01   -1.222E+01   -1.219E+01   -1.216E+01
    -1.213E+01   -1.210E+01   -1.207E+01   -1.204E+01   -1.200E+01   -1.197E+01   -1.194E+01   -1.190E+01   -1.187E+01   -1.183E+01
    -1.179E+01   -1.176E+01   -1.172E+01   -1.168E+01   -1.164E+01   -1.160E+01   -1.156E+01   -1.152E+01   -1.148E+01   -1.144E+01
    -1.140E+01   -1.136E+01   -1.132E+01   -1.127E+01   -1.123E+01   -1.119E+01   -1.114E+01   -1.110E+01   -1.105E+01   -1.101E+01
    -1.096E+01   -1.092E+01   -1.087E+01   -1.083E+01   -1.078E+01   -1.073E+01   -1.069E+01   -1.064E+01
 Ala      Conc. = 2.75E+02
