 LCModel (Version 6.3-1L) Copyright: S.W. Provencher.          Ref.: Magn. Reson. Med. 30:672-679 (1993).                
 Slice#3 Row#12 Col#2  K_02_press_1_raw_act
 36 lines in following concentration table = NCONC+1
    Conc.  %SD /Cr+PCr  Metabolite                                         
    3.295  77%   1.884 Ala                                                 
    0.000 999%   0.000 Asp                                                 
    0.000 999%   0.000 Cr                                                  
    1.749  36%   1.000 PCr                                                 
    9.907  34%   5.664 GABA                                                
    0.000 999%   0.000 Glc                                                 
    0.000 999%   0.000 Gln                                                 
   14.361  32%   8.210 Glu                                                 
    0.000 999%   0.000 GPC                                                 
    0.524  50%   0.300 PCh                                                 
    0.000 999%   0.000 GSH                                                 
   33.318  23%  19.047 Ins                                                 
    0.114 999% 6.5E-02 Lac                                                 
    0.298 237%   0.170 NAA                                                 
    1.015  73%   0.580 NAAG                                                
    2.630  24%   1.504 Scyllo                                              
   19.958  24%  11.409 Tau                                                 
   14.489  24%   8.283 -CrCH2                                              
    0.524  50%   0.300 GPC+PCh                                             
    1.314  43%   0.751 NAA+NAAG                                            
    1.749  36%   1.000 Cr+PCr                                              
   14.361  32%   8.210 Glu+Gln                                             
 5.93E+03  21% 3.4E+03 Lip13a                                              
    0.000 999%   0.000 Lip13b                                              
 1.58E+03  21% 905.368 Lip09                                               
 1.47E+03  12% 838.083 MM09                                                
  889.696  21% 508.618 Lip20                                               
 2.20E+03  12% 1.3E+03 MM20                                                
  439.848  12% 251.451 MM12                                                
 1.10E+03  12% 630.408 MM14                                                
  550.597  12% 314.763 MM17                                                
 5.93E+03  21% 3.4E+03 Lip13a+Lip13b                                       
 7.47E+03  15% 4.3E+03 MM14+Lip13a+Lip13b+MM12                             
 3.05E+03   9% 1.7E+03 MM09+Lip09                                          
 3.09E+03   7% 1.8E+03 MM20+Lip20                                          
   6 lines in following misc. output table
  FWHM = 0.092 ppm    S/N =   6                                            
  Data shift =-0.176 ppm                                                   
  Ph: -40 deg       2.1 deg/ppm                                            
  alphaB,S = 5.4E-01,   7.4E-01                                            
    9 spline knots.   Ns = 9(2)                                            
  ( 5) 3 infls.   ( 2) 2 extrs.                                            
  498 points on ppm-axis = NY
      4.000000     3.992357     3.984714     3.977070     3.969427     3.961784     3.954141     3.946497     3.938854     3.931211
      3.923568     3.915925     3.908281     3.900638     3.892995     3.885352     3.877708     3.870065     3.862422     3.854779
      3.847136     3.839492     3.831849     3.824206     3.816563     3.808919     3.801276     3.793633     3.785990     3.778347
      3.770703     3.763060     3.755417     3.747774     3.740130     3.732487     3.724844     3.717201     3.709558     3.701914
      3.694271     3.686628     3.678985     3.671341     3.663698     3.656055     3.648412     3.640769     3.633125     3.625482
      3.617839     3.610196     3.602552     3.594909     3.587266     3.579623     3.571980     3.564336     3.556693     3.549050
      3.541407     3.533763     3.526120     3.518477     3.510834     3.503191     3.495547     3.487904     3.480261     3.472618
      3.464974     3.457331     3.449688     3.442045     3.434402     3.426758     3.419115     3.411472     3.403829     3.396185
      3.388542     3.380899     3.373256     3.365613     3.357969     3.350326     3.342683     3.335040     3.327396     3.319753
      3.312110     3.304467     3.296824     3.289180     3.281537     3.273894     3.266251     3.258607     3.250964     3.243321
      3.235678     3.228034     3.220391     3.212748     3.205105     3.197462     3.189818     3.182175     3.174532     3.166889
      3.159245     3.151602     3.143959     3.136316     3.128673     3.121029     3.113386     3.105743     3.098100     3.090456
      3.082813     3.075170     3.067527     3.059884     3.052240     3.044597     3.036954     3.029311     3.021667     3.014024
      3.006381     2.998738     2.991095     2.983451     2.975808     2.968165     2.960522     2.952878     2.945235     2.937592
      2.929949     2.922306     2.914662     2.907019     2.899376     2.891733     2.884089     2.876446     2.868803     2.861160
      2.853517     2.845873     2.838230     2.830587     2.822944     2.815300     2.807657     2.800014     2.792371     2.784728
      2.777084     2.769441     2.761798     2.754155     2.746511     2.738868     2.731225     2.723582     2.715939     2.708295
      2.700652     2.693009     2.685366     2.677722     2.670079     2.662436     2.654793     2.647150     2.639506     2.631863
      2.624220     2.616577     2.608933     2.601290     2.593647     2.586004     2.578361     2.570717     2.563074     2.555431
      2.547788     2.540144     2.532501     2.524858     2.517215     2.509572     2.501928     2.494285     2.486642     2.478999
      2.471355     2.463712     2.456069     2.448426     2.440783     2.433139     2.425496     2.417853     2.410210     2.402566
      2.394923     2.387280     2.379637     2.371994     2.364350     2.356707     2.349064     2.341421     2.333777     2.326134
      2.318491     2.310848     2.303205     2.295561     2.287918     2.280275     2.272632     2.264988     2.257345     2.249702
      2.242059     2.234416     2.226772     2.219129     2.211486     2.203843     2.196199     2.188556     2.180913     2.173270
      2.165627     2.157983     2.150340     2.142697     2.135054     2.127410     2.119767     2.112124     2.104481     2.096838
      2.089194     2.081551     2.073908     2.066265     2.058621     2.050978     2.043335     2.035692     2.028049     2.020405
      2.012762     2.005119     1.997476     1.989833     1.982190     1.974546     1.966903     1.959260     1.951617     1.943974
      1.936331     1.928688     1.921045     1.913402     1.905759     1.898115     1.890472     1.882829     1.875186     1.867543
      1.859900     1.852257     1.844614     1.836971     1.829327     1.821684     1.814041     1.806398     1.798755     1.791112
      1.783469     1.775826     1.768183     1.760540     1.752896     1.745253     1.737610     1.729967     1.722324     1.714681
      1.707038     1.699395     1.691752     1.684108     1.676465     1.668822     1.661179     1.653536     1.645893     1.638250
      1.630607     1.622964     1.615321     1.607677     1.600034     1.592391     1.584748     1.577105     1.569462     1.561819
      1.554176     1.546533     1.538890     1.531246     1.523603     1.515960     1.508317     1.500674     1.493031     1.485388
      1.477745     1.470102     1.462458     1.454815     1.447172     1.439529     1.431886     1.424243     1.416600     1.408957
      1.401314     1.393671     1.386027     1.378384     1.370741     1.363098     1.355455     1.347812     1.340169     1.332526
      1.324883     1.317240     1.309596     1.301953     1.294310     1.286667     1.279024     1.271381     1.263738     1.256095
      1.248452     1.240808     1.233165     1.225522     1.217879     1.210236     1.202593     1.194950     1.187307     1.179664
      1.172021     1.164377     1.156734     1.149091     1.141448     1.133805     1.126162     1.118519     1.110876     1.103233
      1.095590     1.087946     1.080303     1.072660     1.065017     1.057374     1.049731     1.042088     1.034445     1.026802
      1.019158     1.011515     1.003872     0.996229     0.988586     0.980943     0.973300     0.965657     0.958014     0.950371
      0.942727     0.935084     0.927441     0.919798     0.912155     0.904512     0.896869     0.889226     0.881583     0.873940
      0.866296     0.858653     0.851010     0.843367     0.835724     0.828081     0.820438     0.812795     0.805152     0.797508
      0.789865     0.782222     0.774579     0.766936     0.759293     0.751650     0.744007     0.736364     0.728721     0.721077
      0.713434     0.705791     0.698148     0.690505     0.682862     0.675219     0.667576     0.659933     0.652290     0.644646
      0.637003     0.629360     0.621717     0.614074     0.606431     0.598788     0.591145     0.583502     0.575858     0.568215
      0.560572     0.552929     0.545286     0.537643     0.530000     0.522357     0.514714     0.507071     0.499427     0.491784
      0.484141     0.476498     0.468855     0.461212     0.453569     0.445925     0.438282     0.430639     0.422996     0.415353
      0.407710     0.400067     0.392424     0.384780     0.377137     0.369494     0.361851     0.354208     0.346565     0.338922
      0.331278     0.323635     0.315992     0.308349     0.300706     0.293063     0.285420     0.277777     0.270133     0.262490
      0.254847     0.247204     0.239561     0.231918     0.224275     0.216631     0.208988     0.201345
 NY phased data points follow
  -3.20191E+02 -3.11006E+02 -3.06536E+02 -3.01376E+02 -2.97750E+02 -2.89832E+02 -2.82951E+02 -2.79511E+02 -2.73436E+02 -2.69183E+02
  -2.60686E+02 -2.56845E+02 -2.52497E+02 -2.47536E+02 -2.44132E+02 -2.38531E+02 -2.35113E+02 -2.35113E+02 -2.27421E+02 -2.28402E+02
  -2.21827E+02 -2.19638E+02 -2.20652E+02 -2.13160E+02 -2.14577E+02 -2.09764E+02 -2.09192E+02 -2.05028E+02 -2.03245E+02 -1.99308E+02
  -1.98767E+02 -1.96922E+02 -1.93939E+02 -1.90396E+02 -1.89674E+02 -1.87175E+02 -1.85444E+02 -1.85674E+02 -1.82769E+02 -1.78115E+02
  -1.79946E+02 -1.79276E+02 -1.73520E+02 -1.70970E+02 -1.68837E+02 -1.71575E+02 -1.67483E+02 -1.63463E+02 -1.63508E+02 -1.62626E+02
  -1.59723E+02 -1.58578E+02 -1.51867E+02 -1.56691E+02 -1.54542E+02 -1.50940E+02 -1.50152E+02 -1.47345E+02 -1.48273E+02 -1.44375E+02
  -1.44168E+02 -1.40405E+02 -1.39685E+02 -1.36772E+02 -1.36869E+02 -1.35753E+02 -1.33617E+02 -1.32799E+02 -1.30475E+02 -1.29197E+02
  -1.28739E+02 -1.27074E+02 -1.27725E+02 -1.25769E+02 -1.23036E+02 -1.24642E+02 -1.23615E+02 -1.20608E+02 -1.19902E+02 -1.18101E+02
  -1.17089E+02 -1.17666E+02 -1.16432E+02 -1.16989E+02 -1.15784E+02 -1.16132E+02 -1.13515E+02 -1.11727E+02 -1.11486E+02 -1.09889E+02
  -1.08797E+02 -1.07097E+02 -1.07784E+02 -1.07599E+02 -1.03337E+02 -1.02864E+02 -1.01456E+02 -1.02855E+02 -9.96468E+01 -9.73972E+01
  -9.64877E+01 -9.97377E+01 -9.72197E+01 -9.62178E+01 -9.29502E+01 -9.45976E+01 -9.26530E+01 -9.16002E+01 -8.92464E+01 -8.94826E+01
  -8.87036E+01 -8.75589E+01 -8.78315E+01 -8.55992E+01 -8.29606E+01 -8.51599E+01 -8.19248E+01 -8.18813E+01 -8.11136E+01 -8.00482E+01
  -7.82960E+01 -7.93240E+01 -7.75119E+01 -7.90619E+01 -7.43190E+01 -7.64394E+01 -7.54071E+01 -7.24165E+01 -7.53958E+01 -7.34189E+01
  -6.97057E+01 -7.20143E+01 -7.39372E+01 -7.09978E+01 -6.96673E+01 -7.01965E+01 -6.74460E+01 -6.92334E+01 -6.63333E+01 -6.88516E+01
  -6.83682E+01 -6.67469E+01 -6.68322E+01 -6.75766E+01 -6.44952E+01 -6.61009E+01 -6.31334E+01 -6.20575E+01 -6.32769E+01 -6.50631E+01
  -6.23645E+01 -6.06552E+01 -6.14717E+01 -5.98939E+01 -6.05350E+01 -5.98460E+01 -5.96765E+01 -5.92744E+01 -5.81130E+01 -5.93266E+01
  -5.79179E+01 -5.93286E+01 -5.84997E+01 -5.68344E+01 -5.77450E+01 -5.84975E+01 -5.75318E+01 -5.61929E+01 -5.56119E+01 -5.80795E+01
  -5.58462E+01 -5.30743E+01 -5.27413E+01 -5.08346E+01 -5.20553E+01 -5.56403E+01 -5.25824E+01 -5.27617E+01 -5.28356E+01 -5.15435E+01
  -5.05398E+01 -5.05169E+01 -5.08158E+01 -4.98673E+01 -4.89898E+01 -4.81082E+01 -5.04806E+01 -5.04411E+01 -4.75718E+01 -4.93462E+01
  -4.81499E+01 -4.87685E+01 -4.91613E+01 -4.84016E+01 -4.90646E+01 -5.06710E+01 -4.94350E+01 -5.10392E+01 -4.94904E+01 -5.14197E+01
  -4.85257E+01 -4.76864E+01 -4.94140E+01 -5.05533E+01 -5.08575E+01 -4.97036E+01 -5.06710E+01 -4.79392E+01 -4.79045E+01 -4.94324E+01
  -5.06094E+01 -5.05551E+01 -4.99701E+01 -4.98399E+01 -5.15886E+01 -4.68687E+01 -4.79962E+01 -5.00061E+01 -4.72842E+01 -4.82852E+01
  -4.64282E+01 -4.56773E+01 -4.79475E+01 -4.72939E+01 -4.66014E+01 -4.47854E+01 -4.31261E+01 -4.47961E+01 -4.30680E+01 -4.50539E+01
  -4.48458E+01 -4.39908E+01 -4.50744E+01 -4.35922E+01 -4.47242E+01 -4.47835E+01 -4.54596E+01 -4.48546E+01 -4.48832E+01 -4.41670E+01
  -4.47827E+01 -4.67934E+01 -4.71179E+01 -4.38108E+01 -4.84161E+01 -4.49548E+01 -4.57609E+01 -4.76012E+01 -4.54244E+01 -4.76409E+01
  -4.76521E+01 -5.09522E+01 -5.16183E+01 -5.02852E+01 -4.87600E+01 -5.05664E+01 -5.03395E+01 -5.08250E+01 -5.13708E+01 -5.38528E+01
  -5.17460E+01 -5.28457E+01 -5.59462E+01 -5.70001E+01 -5.67725E+01 -5.70039E+01 -5.87603E+01 -5.71868E+01 -6.32381E+01 -6.17081E+01
  -6.40046E+01 -6.28685E+01 -6.46720E+01 -6.59813E+01 -6.65018E+01 -6.59168E+01 -6.63989E+01 -6.57552E+01 -6.88322E+01 -6.78000E+01
  -6.74478E+01 -6.85065E+01 -6.99459E+01 -6.99972E+01 -7.07362E+01 -7.13748E+01 -7.08578E+01 -7.37045E+01 -7.28704E+01 -7.30273E+01
  -7.48146E+01 -7.19854E+01 -7.24393E+01 -7.40828E+01 -7.43976E+01 -7.47435E+01 -7.70949E+01 -7.52450E+01 -7.75816E+01 -7.31557E+01
  -7.57311E+01 -7.61471E+01 -7.68168E+01 -7.67356E+01 -7.64038E+01 -7.60255E+01 -7.73196E+01 -7.55864E+01 -7.90897E+01 -7.58582E+01
  -7.68437E+01 -7.58221E+01 -7.38050E+01 -7.60728E+01 -7.68537E+01 -7.39147E+01 -7.29104E+01 -7.20614E+01 -7.47336E+01 -7.33498E+01
  -7.21449E+01 -7.40010E+01 -7.32813E+01 -7.15121E+01 -7.12595E+01 -7.18494E+01 -7.01112E+01 -6.89654E+01 -6.74829E+01 -6.66951E+01
  -6.61598E+01 -6.66539E+01 -6.73991E+01 -6.58622E+01 -6.58633E+01 -6.67685E+01 -6.50874E+01 -6.66282E+01 -6.80796E+01 -6.41244E+01
  -6.59465E+01 -6.69985E+01 -6.46251E+01 -6.58438E+01 -6.44914E+01 -6.26352E+01 -6.42866E+01 -6.18988E+01 -6.28882E+01 -6.19875E+01
  -6.21429E+01 -6.28069E+01 -6.01221E+01 -6.04071E+01 -6.12554E+01 -5.98187E+01 -6.04204E+01 -5.83274E+01 -5.90994E+01 -5.93584E+01
  -5.81687E+01 -5.74194E+01 -5.72120E+01 -5.57423E+01 -5.57231E+01 -5.62024E+01 -5.73407E+01 -5.74874E+01 -5.65959E+01 -5.52836E+01
  -5.47579E+01 -5.59067E+01 -5.46960E+01 -5.43024E+01 -5.41758E+01 -5.32001E+01 -5.31947E+01 -5.47112E+01 -5.50593E+01 -5.20125E+01
  -5.31539E+01 -5.23831E+01 -5.35079E+01 -5.11473E+01 -5.23033E+01 -5.24102E+01 -5.21538E+01 -5.39162E+01 -5.06219E+01 -5.26105E+01
  -4.94337E+01 -5.09739E+01 -5.01678E+01 -4.96500E+01 -4.79506E+01 -4.96652E+01 -4.79965E+01 -4.90828E+01 -4.77674E+01 -4.81383E+01
  -4.54845E+01 -4.90084E+01 -4.65071E+01 -4.84995E+01 -4.77092E+01 -4.44823E+01 -4.63293E+01 -4.49284E+01 -4.39751E+01 -4.31690E+01
  -4.51524E+01 -4.74609E+01 -4.47999E+01 -4.24422E+01 -4.51648E+01 -4.40503E+01 -4.45540E+01 -4.50521E+01 -4.46557E+01 -4.42176E+01
  -4.36703E+01 -4.18071E+01 -4.31182E+01 -4.26811E+01 -4.04120E+01 -4.24126E+01 -3.95666E+01 -4.20630E+01 -3.96842E+01 -3.90809E+01
  -3.82765E+01 -4.09710E+01 -4.15934E+01 -4.09014E+01 -3.92270E+01 -3.93863E+01 -4.00786E+01 -3.74455E+01 -3.53736E+01 -3.74848E+01
  -3.93538E+01 -3.88537E+01 -3.75491E+01 -3.90641E+01 -3.76933E+01 -3.90589E+01 -3.91020E+01 -3.75206E+01 -3.62771E+01 -3.71623E+01
  -3.89016E+01 -3.72013E+01 -3.62860E+01 -3.87235E+01 -3.46495E+01 -3.65103E+01 -3.61678E+01 -3.53852E+01 -3.60842E+01 -3.44070E+01
  -3.60325E+01 -3.34210E+01 -3.28920E+01 -3.49711E+01 -3.56884E+01 -3.34036E+01 -3.44870E+01 -3.53569E+01 -3.65067E+01 -3.29827E+01
  -3.12679E+01 -3.37307E+01 -3.37073E+01 -3.23546E+01 -3.03853E+01 -3.26615E+01 -3.24735E+01 -2.99055E+01 -3.10371E+01 -3.06819E+01
  -2.90289E+01 -2.96495E+01 -3.07292E+01 -3.07038E+01 -3.22801E+01 -3.26418E+01 -2.92136E+01 -3.03248E+01 -3.32595E+01 -3.13921E+01
  -2.93980E+01 -2.83147E+01 -2.88862E+01 -2.77178E+01 -2.75133E+01 -2.92564E+01 -3.04917E+01 -2.68769E+01
 NY points of the fit to the data follow
  -3.15238E+02 -3.11178E+02 -3.05682E+02 -3.01495E+02 -2.95094E+02 -2.90944E+02 -2.83807E+02 -2.79725E+02 -2.72642E+02 -2.68730E+02
  -2.61980E+02 -2.58303E+02 -2.51715E+02 -2.48923E+02 -2.42817E+02 -2.39817E+02 -2.34627E+02 -2.31822E+02 -2.27446E+02 -2.24779E+02
  -2.21650E+02 -2.19329E+02 -2.17029E+02 -2.14704E+02 -2.13156E+02 -2.10837E+02 -2.10074E+02 -2.07390E+02 -2.06133E+02 -2.02601E+02
  -1.99835E+02 -1.96767E+02 -1.94098E+02 -1.91596E+02 -1.89070E+02 -1.87036E+02 -1.84579E+02 -1.82808E+02 -1.80706E+02 -1.79441E+02
  -1.77613E+02 -1.76583E+02 -1.74533E+02 -1.73378E+02 -1.71514E+02 -1.70273E+02 -1.68432E+02 -1.66961E+02 -1.65081E+02 -1.63707E+02
  -1.61460E+02 -1.59856E+02 -1.58000E+02 -1.56019E+02 -1.54306E+02 -1.52304E+02 -1.50866E+02 -1.47993E+02 -1.46965E+02 -1.44350E+02
  -1.43489E+02 -1.40983E+02 -1.40522E+02 -1.37863E+02 -1.36921E+02 -1.34144E+02 -1.32729E+02 -1.30668E+02 -1.29833E+02 -1.28840E+02
  -1.28658E+02 -1.27365E+02 -1.27149E+02 -1.25379E+02 -1.24714E+02 -1.22955E+02 -1.22536E+02 -1.20927E+02 -1.20650E+02 -1.19082E+02
  -1.18751E+02 -1.17590E+02 -1.17437E+02 -1.16377E+02 -1.16054E+02 -1.15120E+02 -1.13905E+02 -1.12869E+02 -1.11737E+02 -1.10407E+02
  -1.09084E+02 -1.07665E+02 -1.06411E+02 -1.05381E+02 -1.03873E+02 -1.02734E+02 -1.01314E+02 -1.01216E+02 -9.98492E+01 -9.98628E+01
  -9.82080E+01 -9.81396E+01 -9.62398E+01 -9.62443E+01 -9.44828E+01 -9.45198E+01 -9.27543E+01 -9.23160E+01 -9.09698E+01 -9.02185E+01
  -8.88151E+01 -8.78923E+01 -8.64300E+01 -8.56177E+01 -8.45169E+01 -8.35115E+01 -8.24541E+01 -8.13842E+01 -7.99724E+01 -7.90813E+01
  -7.86976E+01 -7.80310E+01 -7.74498E+01 -7.68383E+01 -7.61386E+01 -7.55313E+01 -7.49586E+01 -7.42982E+01 -7.35537E+01 -7.30679E+01
  -7.24035E+01 -7.18836E+01 -7.12497E+01 -7.08260E+01 -7.02039E+01 -6.97761E+01 -6.91290E+01 -6.87336E+01 -6.81143E+01 -6.76898E+01
  -6.70699E+01 -6.65553E+01 -6.58283E+01 -6.53190E+01 -6.45036E+01 -6.37645E+01 -6.28358E+01 -6.19577E+01 -6.14600E+01 -6.09218E+01
  -6.04996E+01 -6.00917E+01 -5.98711E+01 -5.96549E+01 -5.94458E+01 -5.92657E+01 -5.88887E+01 -5.86854E+01 -5.83634E+01 -5.79862E+01
  -5.76392E+01 -5.72917E+01 -5.69722E+01 -5.66542E+01 -5.63575E+01 -5.60671E+01 -5.57758E+01 -5.55032E+01 -5.52205E+01 -5.49659E+01
  -5.46903E+01 -5.44484E+01 -5.41803E+01 -5.39487E+01 -5.36856E+01 -5.34669E+01 -5.32119E+01 -5.30016E+01 -5.27696E+01 -5.25676E+01
  -5.23612E+01 -5.21610E+01 -5.19648E+01 -5.17710E+01 -5.15849E+01 -5.13914E+01 -5.12076E+01 -5.09976E+01 -5.07850E+01 -5.06136E+01
  -5.05003E+01 -5.03082E+01 -5.04258E+01 -5.02623E+01 -5.04969E+01 -5.02763E+01 -5.04056E+01 -4.99681E+01 -4.96946E+01 -4.91931E+01
  -4.92656E+01 -4.88487E+01 -4.92328E+01 -4.90365E+01 -4.97489E+01 -4.96340E+01 -4.99369E+01 -4.94419E+01 -4.97000E+01 -4.91727E+01
  -4.96386E+01 -4.92959E+01 -4.98969E+01 -4.98368E+01 -5.00757E+01 -4.97302E+01 -4.93938E+01 -4.88992E+01 -4.85518E+01 -4.82456E+01
  -4.78214E+01 -4.76824E+01 -4.73017E+01 -4.73245E+01 -4.66131E+01 -4.66676E+01 -4.59164E+01 -4.61097E+01 -4.54145E+01 -4.57503E+01
  -4.51658E+01 -4.57059E+01 -4.50395E+01 -4.56202E+01 -4.48920E+01 -4.53417E+01 -4.46897E+01 -4.50711E+01 -4.48393E+01 -4.53910E+01
  -4.53768E+01 -4.60000E+01 -4.59546E+01 -4.62725E+01 -4.58312E+01 -4.57385E+01 -4.55283E+01 -4.57236E+01 -4.58802E+01 -4.62878E+01
  -4.68914E+01 -4.74589E+01 -4.81258E+01 -4.83789E+01 -4.93564E+01 -4.96743E+01 -5.07478E+01 -5.11193E+01 -5.23027E+01 -5.27334E+01
  -5.39664E+01 -5.45445E+01 -5.57239E+01 -5.63161E+01 -5.72764E+01 -5.78352E+01 -5.87526E+01 -5.94181E+01 -6.02836E+01 -6.10204E+01
  -6.19323E+01 -6.27209E+01 -6.34338E+01 -6.40964E+01 -6.45700E+01 -6.51667E+01 -6.54880E+01 -6.61799E+01 -6.66531E+01 -6.73322E+01
  -6.77052E+01 -6.82442E+01 -6.86311E+01 -6.91708E+01 -6.95946E+01 -7.01364E+01 -7.07236E+01 -7.12632E+01 -7.18543E+01 -7.24132E+01
  -7.30265E+01 -7.34423E+01 -7.38940E+01 -7.42062E+01 -7.44985E+01 -7.47523E+01 -7.50007E+01 -7.52568E+01 -7.55741E+01 -7.58959E+01
  -7.61582E+01 -7.64593E+01 -7.66573E+01 -7.68386E+01 -7.69119E+01 -7.69293E+01 -7.68100E+01 -7.66634E+01 -7.63377E+01 -7.58681E+01
  -7.56812E+01 -7.53679E+01 -7.52808E+01 -7.50521E+01 -7.50225E+01 -7.48886E+01 -7.49175E+01 -7.45164E+01 -7.41985E+01 -7.37776E+01
  -7.33316E+01 -7.30502E+01 -7.24077E+01 -7.20855E+01 -7.13229E+01 -7.09847E+01 -7.01070E+01 -6.97034E+01 -6.88241E+01 -6.86190E+01
  -6.79510E+01 -6.78354E+01 -6.73364E+01 -6.73001E+01 -6.69508E+01 -6.68328E+01 -6.65416E+01 -6.63800E+01 -6.61691E+01 -6.59468E+01
  -6.57527E+01 -6.54405E+01 -6.52607E+01 -6.47952E+01 -6.45670E+01 -6.39496E+01 -6.36961E+01 -6.30247E+01 -6.29494E+01 -6.25096E+01
  -6.22943E+01 -6.17268E+01 -6.14089E+01 -6.07644E+01 -6.03328E+01 -5.95595E+01 -5.89165E+01 -5.84131E+01 -5.79910E+01 -5.76433E+01
  -5.73510E+01 -5.71194E+01 -5.69303E+01 -5.67870E+01 -5.66732E+01 -5.65878E+01 -5.65184E+01 -5.64597E+01 -5.64060E+01 -5.63486E+01
  -5.62676E+01 -5.61650E+01 -5.60296E+01 -5.58586E+01 -5.56504E+01 -5.53948E+01 -5.51074E+01 -5.47850E+01 -5.44319E+01 -5.40497E+01
  -5.36460E+01 -5.32246E+01 -5.27947E+01 -5.23606E+01 -5.19316E+01 -5.15115E+01 -5.11083E+01 -5.07239E+01 -5.03640E+01 -5.00282E+01
  -4.97194E+01 -4.94346E+01 -4.91743E+01 -4.89333E+01 -4.87101E+01 -4.84984E+01 -4.82959E+01 -4.80961E+01 -4.78969E+01 -4.76924E+01
  -4.74818E+01 -4.72605E+01 -4.70293E+01 -4.67853E+01 -4.65308E+01 -4.62645E+01 -4.59899E+01 -4.57070E+01 -4.54201E+01 -4.51298E+01
  -4.48408E+01 -4.45536E+01 -4.42727E+01 -4.39984E+01 -4.37345E+01 -4.34806E+01 -4.32396E+01 -4.30099E+01 -4.27937E+01 -4.25886E+01
  -4.23960E+01 -4.22131E+01 -4.20407E+01 -4.18755E+01 -4.17182E+01 -4.15654E+01 -4.14176E+01 -4.12714E+01 -4.11274E+01 -4.09826E+01
  -4.08376E+01 -4.06898E+01 -4.05402E+01 -4.03862E+01 -4.02292E+01 -4.00670E+01 -3.99013E+01 -3.97300E+01 -3.95550E+01 -3.93745E+01
  -3.91906E+01 -3.90015E+01 -3.88094E+01 -3.86128E+01 -3.84137E+01 -3.82107E+01 -3.80060E+01 -3.77980E+01 -3.75889E+01 -3.73772E+01
  -3.71651E+01 -3.69510E+01 -3.67371E+01 -3.65218E+01 -3.63071E+01 -3.60916E+01 -3.58771E+01 -3.56622E+01 -3.54488E+01 -3.52354E+01
  -3.50238E+01 -3.48124E+01 -3.46032E+01 -3.43945E+01 -3.41881E+01 -3.39825E+01 -3.37794E+01 -3.35774E+01 -3.33779E+01 -3.31797E+01
  -3.29842E+01 -3.27900E+01 -3.25987E+01 -3.24088E+01 -3.22219E+01 -3.20364E+01 -3.18540E+01 -3.16731E+01 -3.14953E+01 -3.13191E+01
  -3.11460E+01 -3.09746E+01 -3.08062E+01 -3.06395E+01 -3.04760E+01 -3.03141E+01 -3.01553E+01 -2.99982E+01 -2.98442E+01 -2.96918E+01
  -2.95424E+01 -2.93947E+01 -2.92500E+01 -2.91068E+01 -2.89665E+01 -2.88276E+01 -2.86913E+01 -2.85562E+01
 NY background values follow
    -2.989E+02   -2.951E+02   -2.914E+02   -2.877E+02   -2.841E+02   -2.805E+02   -2.770E+02   -2.735E+02   -2.700E+02   -2.667E+02
    -2.633E+02   -2.600E+02   -2.568E+02   -2.535E+02   -2.504E+02   -2.472E+02   -2.442E+02   -2.411E+02   -2.381E+02   -2.352E+02
    -2.323E+02   -2.294E+02   -2.266E+02   -2.238E+02   -2.210E+02   -2.183E+02   -2.156E+02   -2.130E+02   -2.104E+02   -2.079E+02
    -2.053E+02   -2.029E+02   -2.004E+02   -1.980E+02   -1.956E+02   -1.933E+02   -1.910E+02   -1.887E+02   -1.865E+02   -1.843E+02
    -1.821E+02   -1.800E+02   -1.779E+02   -1.758E+02   -1.737E+02   -1.717E+02   -1.697E+02   -1.678E+02   -1.659E+02   -1.640E+02
    -1.621E+02   -1.603E+02   -1.585E+02   -1.567E+02   -1.549E+02   -1.532E+02   -1.515E+02   -1.498E+02   -1.482E+02   -1.465E+02
    -1.449E+02   -1.433E+02   -1.418E+02   -1.403E+02   -1.387E+02   -1.373E+02   -1.358E+02   -1.343E+02   -1.329E+02   -1.315E+02
    -1.301E+02   -1.288E+02   -1.274E+02   -1.261E+02   -1.248E+02   -1.235E+02   -1.222E+02   -1.209E+02   -1.197E+02   -1.185E+02
    -1.173E+02   -1.161E+02   -1.149E+02   -1.137E+02   -1.126E+02   -1.114E+02   -1.103E+02   -1.092E+02   -1.081E+02   -1.070E+02
    -1.060E+02   -1.049E+02   -1.039E+02   -1.028E+02   -1.018E+02   -1.008E+02   -9.981E+01   -9.883E+01   -9.786E+01   -9.691E+01
    -9.597E+01   -9.504E+01   -9.412E+01   -9.322E+01   -9.232E+01   -9.144E+01   -9.058E+01   -8.972E+01   -8.888E+01   -8.804E+01
    -8.722E+01   -8.641E+01   -8.562E+01   -8.483E+01   -8.406E+01   -8.329E+01   -8.254E+01   -8.180E+01   -8.107E+01   -8.035E+01
    -7.964E+01   -7.894E+01   -7.826E+01   -7.758E+01   -7.692E+01   -7.626E+01   -7.561E+01   -7.498E+01   -7.435E+01   -7.374E+01
    -7.314E+01   -7.254E+01   -7.196E+01   -7.138E+01   -7.081E+01   -7.026E+01   -6.971E+01   -6.918E+01   -6.865E+01   -6.813E+01
    -6.762E+01   -6.712E+01   -6.663E+01   -6.614E+01   -6.567E+01   -6.521E+01   -6.475E+01   -6.430E+01   -6.386E+01   -6.343E+01
    -6.301E+01   -6.259E+01   -6.219E+01   -6.179E+01   -6.140E+01   -6.102E+01   -6.064E+01   -6.027E+01   -5.991E+01   -5.956E+01
    -5.922E+01   -5.888E+01   -5.855E+01   -5.823E+01   -5.791E+01   -5.760E+01   -5.730E+01   -5.701E+01   -5.672E+01   -5.644E+01
    -5.616E+01   -5.590E+01   -5.564E+01   -5.538E+01   -5.514E+01   -5.490E+01   -5.467E+01   -5.444E+01   -5.422E+01   -5.401E+01
    -5.381E+01   -5.361E+01   -5.342E+01   -5.324E+01   -5.307E+01   -5.290E+01   -5.274E+01   -5.259E+01   -5.244E+01   -5.230E+01
    -5.217E+01   -5.205E+01   -5.193E+01   -5.182E+01   -5.172E+01   -5.163E+01   -5.154E+01   -5.146E+01   -5.139E+01   -5.132E+01
    -5.127E+01   -5.122E+01   -5.118E+01   -5.114E+01   -5.112E+01   -5.110E+01   -5.109E+01   -5.108E+01   -5.109E+01   -5.110E+01
    -5.112E+01   -5.115E+01   -5.118E+01   -5.123E+01   -5.128E+01   -5.134E+01   -5.140E+01   -5.148E+01   -5.156E+01   -5.165E+01
    -5.175E+01   -5.186E+01   -5.197E+01   -5.209E+01   -5.222E+01   -5.236E+01   -5.251E+01   -5.266E+01   -5.283E+01   -5.300E+01
    -5.317E+01   -5.336E+01   -5.356E+01   -5.376E+01   -5.397E+01   -5.419E+01   -5.442E+01   -5.466E+01   -5.490E+01   -5.515E+01
    -5.542E+01   -5.569E+01   -5.596E+01   -5.625E+01   -5.655E+01   -5.685E+01   -5.716E+01   -5.748E+01   -5.781E+01   -5.815E+01
    -5.849E+01   -5.885E+01   -5.921E+01   -5.958E+01   -5.995E+01   -6.034E+01   -6.073E+01   -6.112E+01   -6.152E+01   -6.193E+01
    -6.234E+01   -6.276E+01   -6.319E+01   -6.361E+01   -6.404E+01   -6.448E+01   -6.492E+01   -6.536E+01   -6.580E+01   -6.625E+01
    -6.670E+01   -6.715E+01   -6.760E+01   -6.806E+01   -6.851E+01   -6.897E+01   -6.942E+01   -6.988E+01   -7.034E+01   -7.079E+01
    -7.125E+01   -7.170E+01   -7.215E+01   -7.261E+01   -7.305E+01   -7.350E+01   -7.395E+01   -7.439E+01   -7.482E+01   -7.526E+01
    -7.569E+01   -7.612E+01   -7.654E+01   -7.695E+01   -7.737E+01   -7.777E+01   -7.817E+01   -7.857E+01   -7.896E+01   -7.934E+01
    -7.972E+01   -8.008E+01   -8.044E+01   -8.080E+01   -8.114E+01   -8.148E+01   -8.181E+01   -8.212E+01   -8.243E+01   -8.273E+01
    -8.302E+01   -8.330E+01   -8.357E+01   -8.383E+01   -8.408E+01   -8.431E+01   -8.453E+01   -8.475E+01   -8.495E+01   -8.513E+01
    -8.530E+01   -8.546E+01   -8.561E+01   -8.574E+01   -8.586E+01   -8.597E+01   -8.605E+01   -8.613E+01   -8.619E+01   -8.623E+01
    -8.626E+01   -8.627E+01   -8.626E+01   -8.624E+01   -8.620E+01   -8.614E+01   -8.607E+01   -8.598E+01   -8.588E+01   -8.577E+01
    -8.563E+01   -8.549E+01   -8.533E+01   -8.515E+01   -8.496E+01   -8.476E+01   -8.455E+01   -8.432E+01   -8.408E+01   -8.383E+01
    -8.357E+01   -8.329E+01   -8.300E+01   -8.270E+01   -8.239E+01   -8.207E+01   -8.174E+01   -8.140E+01   -8.105E+01   -8.069E+01
    -8.032E+01   -7.994E+01   -7.955E+01   -7.915E+01   -7.875E+01   -7.833E+01   -7.791E+01   -7.748E+01   -7.705E+01   -7.661E+01
    -7.616E+01   -7.570E+01   -7.524E+01   -7.477E+01   -7.430E+01   -7.382E+01   -7.333E+01   -7.284E+01   -7.235E+01   -7.185E+01
    -7.135E+01   -7.084E+01   -7.033E+01   -6.982E+01   -6.930E+01   -6.879E+01   -6.827E+01   -6.774E+01   -6.722E+01   -6.669E+01
    -6.616E+01   -6.563E+01   -6.510E+01   -6.457E+01   -6.404E+01   -6.351E+01   -6.298E+01   -6.245E+01   -6.192E+01   -6.139E+01
    -6.086E+01   -6.033E+01   -5.981E+01   -5.929E+01   -5.877E+01   -5.825E+01   -5.774E+01   -5.722E+01   -5.672E+01   -5.621E+01
    -5.571E+01   -5.522E+01   -5.472E+01   -5.424E+01   -5.376E+01   -5.328E+01   -5.281E+01   -5.234E+01   -5.188E+01   -5.142E+01
    -5.097E+01   -5.053E+01   -5.009E+01   -4.965E+01   -4.922E+01   -4.880E+01   -4.838E+01   -4.796E+01   -4.755E+01   -4.714E+01
    -4.674E+01   -4.635E+01   -4.596E+01   -4.557E+01   -4.519E+01   -4.481E+01   -4.444E+01   -4.407E+01   -4.371E+01   -4.335E+01
    -4.299E+01   -4.264E+01   -4.230E+01   -4.196E+01   -4.162E+01   -4.129E+01   -4.096E+01   -4.064E+01   -4.032E+01   -4.001E+01
    -3.970E+01   -3.939E+01   -3.909E+01   -3.879E+01   -3.850E+01   -3.821E+01   -3.792E+01   -3.764E+01   -3.736E+01   -3.709E+01
    -3.682E+01   -3.655E+01   -3.629E+01   -3.603E+01   -3.578E+01   -3.553E+01   -3.528E+01   -3.504E+01   -3.480E+01   -3.456E+01
    -3.433E+01   -3.410E+01   -3.387E+01   -3.365E+01   -3.343E+01   -3.322E+01   -3.301E+01   -3.280E+01   -3.260E+01   -3.239E+01
    -3.220E+01   -3.200E+01   -3.181E+01   -3.162E+01   -3.144E+01   -3.126E+01   -3.108E+01   -3.090E+01   -3.073E+01   -3.056E+01
    -3.039E+01   -3.023E+01   -3.007E+01   -2.991E+01   -2.976E+01   -2.960E+01   -2.945E+01   -2.931E+01
 Ala      Conc. = 3.30E+00
