 LCModel (Version 6.3-1L) Copyright: S.W. Provencher.          Ref.: Magn. Reson. Med. 30:672-679 (1993).                
 Slice#3 Row#7 Col#2  K_02_press_1_raw_act
 36 lines in following concentration table = NCONC+1
    Conc.  %SD /Cr+PCr  Metabolite                                         
    0.000 999%   0.000 Ala                                                 
   28.206 240% 7.9E-02 Asp                                                 
  355.281  11%   1.000 Cr                                                  
    0.000 999%   0.000 PCr                                                 
   35.282 119% 9.9E-02 GABA                                                
   22.103 189% 6.2E-02 Glc                                                 
   92.715 239%   0.261 Gln                                                 
  913.535  29%   2.571 Glu                                                 
  130.575  12%   0.368 GPC                                                 
    0.000 999%   0.000 PCh                                                 
  110.890  53%   0.312 GSH                                                 
  585.598  37%   1.648 Ins                                                 
    0.000 999%   0.000 Lac                                                 
  784.263   6%   2.207 NAA                                                 
    0.000 999%   0.000 NAAG                                                
   14.696  86% 4.1E-02 Scyllo                                              
    0.000 999%   0.000 Tau                                                 
   15.198 401% 4.3E-02 -CrCH2                                              
  130.575  12%   0.368 GPC+PCh                                             
  784.263   6%   2.207 NAA+NAAG                                            
  355.281  11%   1.000 Cr+PCr                                              
 1.01E+03  39%   2.832 Glu+Gln                                             
  776.163  28%   2.185 Lip13a                                              
    0.000 999%   0.000 Lip13b                                              
   72.602 138%   0.204 Lip09                                               
    0.000 999%   0.000 MM09                                                
   53.707 169%   0.151 Lip20                                               
    0.000 999%   0.000 MM20                                                
    0.234 999% 6.6E-04 MM12                                                
   12.379 358% 3.5E-02 MM14                                                
    3.032 987% 8.5E-03 MM17                                                
  776.163  28%   2.185 Lip13a+Lip13b                                       
  788.776  28%   2.220 MM14+Lip13a+Lip13b+MM12                             
   72.602 138%   0.204 MM09+Lip09                                          
   53.707 169%   0.151 MM20+Lip20                                          
   6 lines in following misc. output table
  FWHM = 0.092 ppm    S/N =   4                                            
  Data shift =-0.031 ppm                                                   
  Ph: -16 deg     -15.1 deg/ppm                                            
  alphaB,S = 4.1E-01,   4.8E+01                                            
   14 spline knots.   Ns = 6(2)                                            
  ( 6) 6 infls.   ( 6) 1 extrs.                                            
  498 points on ppm-axis = NY
      4.000000     3.992357     3.984714     3.977070     3.969427     3.961784     3.954141     3.946497     3.938854     3.931211
      3.923568     3.915925     3.908281     3.900638     3.892995     3.885352     3.877708     3.870065     3.862422     3.854779
      3.847136     3.839492     3.831849     3.824206     3.816563     3.808919     3.801276     3.793633     3.785990     3.778347
      3.770703     3.763060     3.755417     3.747774     3.740130     3.732487     3.724844     3.717201     3.709558     3.701914
      3.694271     3.686628     3.678985     3.671341     3.663698     3.656055     3.648412     3.640769     3.633125     3.625482
      3.617839     3.610196     3.602552     3.594909     3.587266     3.579623     3.571980     3.564336     3.556693     3.549050
      3.541407     3.533763     3.526120     3.518477     3.510834     3.503191     3.495547     3.487904     3.480261     3.472618
      3.464974     3.457331     3.449688     3.442045     3.434402     3.426758     3.419115     3.411472     3.403829     3.396185
      3.388542     3.380899     3.373256     3.365613     3.357969     3.350326     3.342683     3.335040     3.327396     3.319753
      3.312110     3.304467     3.296824     3.289180     3.281537     3.273894     3.266251     3.258607     3.250964     3.243321
      3.235678     3.228034     3.220391     3.212748     3.205105     3.197462     3.189818     3.182175     3.174532     3.166889
      3.159245     3.151602     3.143959     3.136316     3.128673     3.121029     3.113386     3.105743     3.098100     3.090456
      3.082813     3.075170     3.067527     3.059884     3.052240     3.044597     3.036954     3.029311     3.021667     3.014024
      3.006381     2.998738     2.991095     2.983451     2.975808     2.968165     2.960522     2.952878     2.945235     2.937592
      2.929949     2.922306     2.914662     2.907019     2.899376     2.891733     2.884089     2.876446     2.868803     2.861160
      2.853517     2.845873     2.838230     2.830587     2.822944     2.815300     2.807657     2.800014     2.792371     2.784728
      2.777084     2.769441     2.761798     2.754155     2.746511     2.738868     2.731225     2.723582     2.715939     2.708295
      2.700652     2.693009     2.685366     2.677722     2.670079     2.662436     2.654793     2.647150     2.639506     2.631863
      2.624220     2.616577     2.608933     2.601290     2.593647     2.586004     2.578361     2.570717     2.563074     2.555431
      2.547788     2.540144     2.532501     2.524858     2.517215     2.509572     2.501928     2.494285     2.486642     2.478999
      2.471355     2.463712     2.456069     2.448426     2.440783     2.433139     2.425496     2.417853     2.410210     2.402566
      2.394923     2.387280     2.379637     2.371994     2.364350     2.356707     2.349064     2.341421     2.333777     2.326134
      2.318491     2.310848     2.303205     2.295561     2.287918     2.280275     2.272632     2.264988     2.257345     2.249702
      2.242059     2.234416     2.226772     2.219129     2.211486     2.203843     2.196199     2.188556     2.180913     2.173270
      2.165627     2.157983     2.150340     2.142697     2.135054     2.127410     2.119767     2.112124     2.104481     2.096838
      2.089194     2.081551     2.073908     2.066265     2.058621     2.050978     2.043335     2.035692     2.028049     2.020405
      2.012762     2.005119     1.997476     1.989833     1.982190     1.974546     1.966903     1.959260     1.951617     1.943974
      1.936331     1.928688     1.921045     1.913402     1.905759     1.898115     1.890472     1.882829     1.875186     1.867543
      1.859900     1.852257     1.844614     1.836971     1.829327     1.821684     1.814041     1.806398     1.798755     1.791112
      1.783469     1.775826     1.768183     1.760540     1.752896     1.745253     1.737610     1.729967     1.722324     1.714681
      1.707038     1.699395     1.691752     1.684108     1.676465     1.668822     1.661179     1.653536     1.645893     1.638250
      1.630607     1.622964     1.615321     1.607677     1.600034     1.592391     1.584748     1.577105     1.569462     1.561819
      1.554176     1.546533     1.538890     1.531246     1.523603     1.515960     1.508317     1.500674     1.493031     1.485388
      1.477745     1.470102     1.462458     1.454815     1.447172     1.439529     1.431886     1.424243     1.416600     1.408957
      1.401314     1.393671     1.386027     1.378384     1.370741     1.363098     1.355455     1.347812     1.340169     1.332526
      1.324883     1.317240     1.309596     1.301953     1.294310     1.286667     1.279024     1.271381     1.263738     1.256095
      1.248452     1.240808     1.233165     1.225522     1.217879     1.210236     1.202593     1.194950     1.187307     1.179664
      1.172021     1.164377     1.156734     1.149091     1.141448     1.133805     1.126162     1.118519     1.110876     1.103233
      1.095590     1.087946     1.080303     1.072660     1.065017     1.057374     1.049731     1.042088     1.034445     1.026802
      1.019158     1.011515     1.003872     0.996229     0.988586     0.980943     0.973300     0.965657     0.958014     0.950371
      0.942727     0.935084     0.927441     0.919798     0.912155     0.904512     0.896869     0.889226     0.881583     0.873940
      0.866296     0.858653     0.851010     0.843367     0.835724     0.828081     0.820438     0.812795     0.805152     0.797508
      0.789865     0.782222     0.774579     0.766936     0.759293     0.751650     0.744007     0.736364     0.728721     0.721077
      0.713434     0.705791     0.698148     0.690505     0.682862     0.675219     0.667576     0.659933     0.652290     0.644646
      0.637003     0.629360     0.621717     0.614074     0.606431     0.598788     0.591145     0.583502     0.575858     0.568215
      0.560572     0.552929     0.545286     0.537643     0.530000     0.522357     0.514714     0.507071     0.499427     0.491784
      0.484141     0.476498     0.468855     0.461212     0.453569     0.445925     0.438282     0.430639     0.422996     0.415353
      0.407710     0.400067     0.392424     0.384780     0.377137     0.369494     0.361851     0.354208     0.346565     0.338922
      0.331278     0.323635     0.315992     0.308349     0.300706     0.293063     0.285420     0.277777     0.270133     0.262490
      0.254847     0.247204     0.239561     0.231918     0.224275     0.216631     0.208988     0.201345
 NY phased data points follow
  -3.12123E+01 -2.96806E+01 -2.77305E+01 -2.61801E+01 -2.30498E+01 -2.76713E+01 -2.53059E+01 -2.13760E+01 -1.99374E+01 -1.94833E+01
  -2.06974E+01 -2.01753E+01 -1.79941E+01 -1.87731E+01 -1.58873E+01 -1.64279E+01 -1.70944E+01 -2.07961E+01 -1.73348E+01 -1.89702E+01
  -2.23762E+01 -1.69199E+01 -1.59104E+01 -1.60758E+01 -1.57624E+01 -1.78676E+01 -1.62277E+01 -1.73238E+01 -1.76886E+01 -1.54490E+01
  -1.55887E+01 -1.61269E+01 -1.70359E+01 -1.36692E+01 -1.40256E+01 -1.05995E+01 -1.50516E+01 -1.09686E+01 -1.33722E+01 -1.33838E+01
  -1.11016E+01 -1.30301E+01 -1.14432E+01 -1.33766E+01 -1.14976E+01 -8.76725E+00 -8.70693E+00 -6.87927E+00 -8.73038E+00 -7.00577E+00
  -9.04116E+00 -8.16978E+00 -6.30599E+00 -6.82187E+00 -9.33824E+00 -1.05105E+01 -7.33121E+00 -8.95076E+00 -8.77273E+00 -7.37678E+00
  -1.11545E+01 -3.87939E+00 -4.80874E+00 -3.83338E+00 -5.87064E+00 -6.01870E+00 -5.44919E+00 -8.35112E+00 -9.78285E+00 -4.64742E+00
  -4.72987E+00 -4.66900E+00 -5.22659E+00 -4.11153E+00 -3.68704E+00 -6.20693E-01 -6.43994E-01 -3.00120E+00 -2.83702E+00 -2.35066E+00
  -3.60060E+00 -1.31540E+00 -1.67765E-01 -2.88312E+00  4.55061E-01  1.58877E+00  1.61442E+00  2.63781E+00  1.21980E+00 -9.89378E-01
   1.04994E+00 -7.30324E-02  4.07689E+00  4.27090E+00  8.27710E+00  6.66084E+00  7.83853E+00  1.08723E+01  8.63046E+00  1.21814E+01
   1.15958E+01  1.00308E+01  9.08937E+00  9.87732E+00  1.19545E+01  1.46248E+01  1.59458E+01  1.73397E+01  1.75623E+01  1.40310E+01
   1.32175E+01  6.27917E+00  9.87424E+00  1.17195E+01  8.71785E+00  1.08648E+01  1.18068E+01  1.43827E+01  1.23058E+01  1.52773E+01
   1.58426E+01  1.87585E+01  1.98949E+01  2.23719E+01  1.86195E+01  2.41378E+01  2.29670E+01  2.48298E+01  2.19548E+01  2.45769E+01
   2.73951E+01  2.78087E+01  2.85839E+01  2.16515E+01  2.28617E+01  1.91657E+01  1.74601E+01  1.94870E+01  2.27579E+01  2.14370E+01
   2.41082E+01  2.39527E+01  2.32308E+01  2.53499E+01  2.34417E+01  2.42483E+01  2.49703E+01  2.58120E+01  2.57459E+01  2.84484E+01
   2.84484E+01  2.92710E+01  2.95298E+01  3.03238E+01  3.05336E+01  2.79447E+01  2.91582E+01  3.19970E+01  3.22754E+01  3.22773E+01
   3.31524E+01  3.02641E+01  3.01805E+01  3.21399E+01  3.07306E+01  3.05569E+01  3.04095E+01  3.25574E+01  3.24553E+01  3.37384E+01
   3.09085E+01  3.27589E+01  3.29142E+01  3.34466E+01  3.14147E+01  3.34501E+01  3.53839E+01  3.25289E+01  3.14931E+01  3.50746E+01
   3.39817E+01  3.47209E+01  3.32471E+01  3.51472E+01  3.60384E+01  3.66248E+01  3.61901E+01  3.45582E+01  3.79088E+01  3.66008E+01
   3.68094E+01  3.42861E+01  3.50168E+01  3.75200E+01  3.71865E+01  3.50265E+01  3.53575E+01  3.53920E+01  3.56969E+01  3.48938E+01
   3.48367E+01  3.19332E+01  3.35385E+01  3.12111E+01  3.40545E+01  3.21579E+01  3.21663E+01  3.32674E+01  2.71995E+01  2.99260E+01
   2.92295E+01  2.67375E+01  2.85388E+01  2.64985E+01  2.58069E+01  2.65492E+01  2.78567E+01  2.83411E+01  2.49321E+01  2.61048E+01
   2.72442E+01  2.65600E+01  2.11138E+01  2.30438E+01  2.21397E+01  2.41879E+01  1.82912E+01  2.11153E+01  1.90298E+01  2.00723E+01
   2.21437E+01  2.44470E+01  2.09303E+01  1.86151E+01  2.03928E+01  2.04371E+01  2.18046E+01  1.67253E+01  1.77867E+01  1.71113E+01
   1.73592E+01  1.59527E+01  1.57161E+01  1.57866E+01  1.61651E+01  1.47351E+01  1.40754E+01  1.80997E+01  1.78262E+01  1.95362E+01
   2.04064E+01  1.91993E+01  2.32851E+01  2.36269E+01  2.30280E+01  2.21696E+01  2.32405E+01  2.65303E+01  2.93148E+01  2.63846E+01
   2.51125E+01  2.22919E+01  2.74498E+01  2.39768E+01  2.87267E+01  2.45898E+01  1.88490E+01  1.55466E+01  1.05509E+01  9.64871E+00
   9.50054E+00  8.73558E+00  9.39797E+00  9.79199E+00  7.24442E+00  5.66715E+00  9.58887E+00  8.85366E+00  7.37264E+00  5.80899E+00
   4.54378E+00  5.55928E+00  5.59273E+00  3.79484E+00  6.79532E+00  5.02654E+00  4.20158E+00  3.80654E+00  4.45119E+00  9.22126E+00
   6.57862E+00  2.82679E+00  3.01849E+00  6.52717E+00  3.37876E+00  5.71534E+00  6.52089E+00  5.75001E+00  3.98371E+00  9.45059E-01
   5.47564E+00  4.24779E+00  5.74193E+00  6.52683E+00  5.05103E+00  5.79838E+00  4.94669E+00  7.73388E+00  5.05051E+00  4.52795E+00
   6.51407E+00  5.70091E+00  4.83479E+00  4.17431E+00  2.49671E+00  9.72502E-01  3.88976E+00  3.35724E+00  3.30275E+00  2.75139E+00
   5.21754E+00  4.34857E+00  4.99656E+00  2.85607E+00  4.95560E+00  4.08120E+00  3.30902E+00  2.99538E+00  5.13801E+00  3.97929E+00
   6.29821E+00  3.71117E+00  6.65271E+00  3.99551E+00  4.99272E+00  7.48624E+00  7.34403E+00  6.38131E+00  5.56389E+00  5.31994E+00
   3.29192E+00  5.49921E+00  4.04681E+00  6.47514E+00  7.54575E+00  6.38636E+00  8.44317E+00  7.92050E+00  7.23842E+00  8.87762E+00
   8.55179E+00  8.91364E+00  1.02542E+01  7.36331E+00  1.10572E+01  6.14943E+00  5.95432E+00  4.44825E+00  3.53597E+00  6.64252E+00
   5.78467E+00  5.46480E+00  4.32337E+00  6.07804E+00  7.90059E+00  3.79145E+00  7.14422E+00  8.99821E+00  6.29903E+00  5.01554E+00
   7.07893E+00  6.59229E+00  5.09186E+00  3.27099E+00  4.57703E+00  6.27666E+00  8.47962E+00  7.08256E+00  5.30307E+00  7.47815E+00
   2.87718E+00  6.15326E+00  4.75834E+00  5.79919E+00  7.75154E+00  6.25588E+00  3.89281E+00  4.65836E+00  3.53231E+00  5.96201E+00
   2.99073E+00  5.14008E+00  4.69178E+00  2.22917E+00  2.94103E+00  4.81266E+00  4.78253E+00  4.38994E+00  1.31481E+00  2.49921E+00
   6.58078E+00  4.08858E+00  5.68607E+00  4.31922E+00  4.06412E+00  6.02503E+00  2.28342E+00  4.62318E+00  3.51431E+00  4.90595E+00
   5.46000E+00  5.16791E+00  4.63647E+00  2.84133E+00  4.22059E+00  4.63767E+00  2.97170E+00  5.86943E+00  1.28544E+00  1.49355E+00
   4.36949E+00  4.76297E+00  3.87096E+00  4.09809E+00  1.81280E+00  1.35563E+00  4.23111E-01  8.06344E-01  6.08514E+00  2.21827E+00
   5.98451E+00  1.40172E+00  4.82346E+00  5.94858E+00  5.50174E+00  6.34511E+00  3.74964E+00  5.80128E+00  4.14205E+00  4.59967E+00
   6.59406E+00  3.87589E+00  4.89092E+00  7.34429E+00  4.05560E+00  3.27595E+00  4.02253E+00  7.27511E+00  4.37802E+00  4.75291E+00
   3.52747E+00  4.25170E+00  5.67636E+00  3.17210E+00  2.40682E+00  4.59177E+00  3.21489E+00  4.89423E+00  5.58774E+00  5.20875E+00
   4.70705E+00  3.21637E+00  4.10842E+00  5.76622E+00  3.39461E+00  4.27671E+00  5.54749E+00  4.13996E+00  4.76440E+00  5.10139E+00
   5.15138E+00  3.81173E+00  7.34404E+00  4.00671E+00  5.07973E+00  5.38732E+00  3.58794E+00  4.86509E+00  2.93080E+00  5.97352E+00
   7.56411E+00  7.06250E+00  1.79974E+00  2.92336E+00  6.33096E+00  8.37120E+00  2.79187E+00  2.13507E+00  3.61805E+00  5.08993E+00
   5.79325E+00  6.05405E+00  3.79322E+00  5.63106E+00  5.00437E+00  5.88388E-01  6.80774E+00  5.17799E+00
 NY points of the fit to the data follow
  -2.71952E+01 -2.66221E+01 -2.60439E+01 -2.54650E+01 -2.47528E+01 -2.41719E+01 -2.33704E+01 -2.26559E+01 -2.17875E+01 -2.12000E+01
  -2.03774E+01 -2.00250E+01 -1.92668E+01 -1.87646E+01 -1.79929E+01 -1.79521E+01 -1.76521E+01 -1.87235E+01 -1.89294E+01 -1.98378E+01
  -1.99896E+01 -1.97101E+01 -1.94551E+01 -1.86685E+01 -1.83878E+01 -1.75130E+01 -1.73269E+01 -1.65837E+01 -1.64642E+01 -1.57542E+01
  -1.57449E+01 -1.50765E+01 -1.50013E+01 -1.43353E+01 -1.39780E+01 -1.31619E+01 -1.28730E+01 -1.22695E+01 -1.23737E+01 -1.22092E+01
  -1.23454E+01 -1.24165E+01 -1.20629E+01 -1.18470E+01 -1.10311E+01 -1.04995E+01 -9.89616E+00 -9.33114E+00 -8.96523E+00 -8.44153E+00
  -8.22963E+00 -7.95936E+00 -8.14379E+00 -8.38062E+00 -8.74085E+00 -8.88923E+00 -8.91220E+00 -8.53012E+00 -8.22672E+00 -7.64750E+00
  -7.27849E+00 -6.67695E+00 -6.40654E+00 -5.88310E+00 -5.76204E+00 -5.44135E+00 -5.40654E+00 -5.21274E+00 -5.07545E+00 -4.72262E+00
  -4.41322E+00 -3.89614E+00 -3.54525E+00 -3.04065E+00 -2.70645E+00 -2.40620E+00 -2.13152E+00 -2.02453E+00 -1.80334E+00 -1.70683E+00
  -1.48702E+00 -1.26746E+00 -9.88917E-01 -7.17963E-01 -4.10615E-01 -1.58576E-01  1.67591E-01  4.00706E-01  7.66211E-01  9.80466E-01
   1.48178E+00  2.34968E+00  3.06258E+00  4.34379E+00  5.21288E+00  6.56778E+00  7.41950E+00  8.52115E+00  9.25626E+00  1.03866E+01
   1.09696E+01  1.19145E+01  1.23040E+01  1.31129E+01  1.35423E+01  1.47658E+01  1.50914E+01  1.54983E+01  1.51634E+01  1.35452E+01
   1.28314E+01  1.11306E+01  1.08931E+01  1.07994E+01  1.12786E+01  1.24766E+01  1.32872E+01  1.48376E+01  1.56211E+01  1.69944E+01
   1.76456E+01  1.88618E+01  1.94831E+01  2.08499E+01  2.14161E+01  2.26047E+01  2.30383E+01  2.39516E+01  2.43802E+01  2.55639E+01
   2.58436E+01  2.61889E+01  2.58783E+01  2.42813E+01  2.37127E+01  2.20541E+01  2.19995E+01  2.17876E+01  2.22142E+01  2.25475E+01
   2.30810E+01  2.35458E+01  2.41298E+01  2.45517E+01  2.51952E+01  2.55883E+01  2.61341E+01  2.64529E+01  2.68128E+01  2.70806E+01
   2.73768E+01  2.76561E+01  2.80108E+01  2.83197E+01  2.86899E+01  2.89995E+01  2.93332E+01  2.96084E+01  2.99072E+01  3.01717E+01
   3.04569E+01  3.07218E+01  3.09284E+01  3.11139E+01  3.12500E+01  3.14491E+01  3.16317E+01  3.19714E+01  3.20492E+01  3.23516E+01
   3.22850E+01  3.23957E+01  3.23923E+01  3.24218E+01  3.25529E+01  3.25591E+01  3.27505E+01  3.27133E+01  3.29347E+01  3.29244E+01
   3.32580E+01  3.32657E+01  3.36740E+01  3.35482E+01  3.39249E+01  3.37344E+01  3.39882E+01  3.39195E+01  3.40357E+01  3.40187E+01
   3.40665E+01  3.41177E+01  3.42160E+01  3.43507E+01  3.42809E+01  3.43111E+01  3.39631E+01  3.38314E+01  3.32836E+01  3.31211E+01
   3.24620E+01  3.23367E+01  3.17727E+01  3.17410E+01  3.15798E+01  3.15747E+01  3.15004E+01  3.13323E+01  3.10090E+01  3.04877E+01
   2.97369E+01  2.90123E+01  2.81668E+01  2.76619E+01  2.70476E+01  2.67487E+01  2.66658E+01  2.64837E+01  2.66092E+01  2.62656E+01
   2.56863E+01  2.50514E+01  2.35845E+01  2.29231E+01  2.15958E+01  2.13815E+01  2.11628E+01  2.16580E+01  2.21435E+01  2.29405E+01
   2.31495E+01  2.32243E+01  2.27659E+01  2.20437E+01  2.14427E+01  2.06111E+01  2.01879E+01  1.95619E+01  1.93979E+01  1.88050E+01
   1.87245E+01  1.80017E+01  1.78871E+01  1.70423E+01  1.69567E+01  1.61537E+01  1.62616E+01  1.61717E+01  1.77713E+01  1.81728E+01
   2.03318E+01  2.04964E+01  2.24717E+01  2.20747E+01  2.36270E+01  2.31411E+01  2.52716E+01  2.46263E+01  2.66616E+01  2.55567E+01
   2.69698E+01  2.56770E+01  2.75953E+01  2.56642E+01  2.59384E+01  2.26663E+01  1.87664E+01  1.56646E+01  1.12267E+01  9.92509E+00
   8.38060E+00  8.23182E+00  8.02373E+00  8.05812E+00  8.14303E+00  8.02913E+00  7.89691E+00  7.75322E+00  7.65441E+00  7.48233E+00
   7.32474E+00  7.10236E+00  6.89174E+00  6.65324E+00  6.46543E+00  6.26514E+00  6.12416E+00  5.98348E+00  5.87036E+00  5.76298E+00
   5.65132E+00  5.54497E+00  5.43428E+00  5.32884E+00  5.22486E+00  5.12922E+00  5.03595E+00  4.95435E+00  4.87272E+00  4.80205E+00
   4.73395E+00  4.67169E+00  4.61414E+00  4.55991E+00  4.51088E+00  4.46499E+00  4.42393E+00  4.38593E+00  4.35262E+00  4.32175E+00
   4.29541E+00  4.27213E+00  4.25290E+00  4.23795E+00  4.22677E+00  4.22012E+00  4.21719E+00  4.21869E+00  4.22403E+00  4.23384E+00
   4.24778E+00  4.26647E+00  4.28954E+00  4.31761E+00  4.35039E+00  4.38860E+00  4.43200E+00  4.48135E+00  4.53636E+00  4.59784E+00
   4.66556E+00  4.74035E+00  4.82196E+00  4.91110E+00  5.00740E+00  5.11148E+00  5.22277E+00  5.34169E+00  5.46731E+00  5.59962E+00
   5.73730E+00  5.87990E+00  6.02563E+00  6.17354E+00  6.32129E+00  6.46745E+00  6.60928E+00  6.74509E+00  6.87197E+00  6.98812E+00
   7.09071E+00  7.17821E+00  7.24822E+00  7.29982E+00  7.33133E+00  7.34264E+00  7.33293E+00  7.30304E+00  7.25315E+00  7.18499E+00
   7.09955E+00  6.99922E+00  6.88552E+00  6.76134E+00  6.62858E+00  6.49024E+00  6.34812E+00  6.20494E+00  6.06213E+00  5.92203E+00
   5.78558E+00  5.65455E+00  5.52934E+00  5.41118E+00  5.29997E+00  5.19655E+00  5.10045E+00  5.01217E+00  4.93097E+00  4.85714E+00
   4.78984E+00  4.72931E+00  4.67463E+00  4.62603E+00  4.58257E+00  4.54451E+00  4.51100E+00  4.48233E+00  4.45765E+00  4.43724E+00
   4.42028E+00  4.40704E+00  4.39669E+00  4.38948E+00  4.38448E+00  4.38187E+00  4.38065E+00  4.38098E+00  4.38183E+00  4.38328E+00
   4.38429E+00  4.38496E+00  4.38429E+00  4.38250E+00  4.37873E+00  4.37332E+00  4.36556E+00  4.35599E+00  4.34409E+00  4.33055E+00
   4.31498E+00  4.29821E+00  4.27998E+00  4.26124E+00  4.24186E+00  4.22281E+00  4.20393E+00  4.18616E+00  4.16927E+00  4.15412E+00
   4.14040E+00  4.12887E+00  4.11907E+00  4.11162E+00  4.10600E+00  4.10274E+00  4.10125E+00  4.10199E+00  4.10430E+00  4.10860E+00
   4.11421E+00  4.12157E+00  4.13000E+00  4.13990E+00  4.15059E+00  4.16252E+00  4.17500E+00  4.18851E+00  4.20239E+00  4.21710E+00
   4.23198E+00  4.24754E+00  4.26312E+00  4.27926E+00  4.29530E+00  4.31174E+00  4.32797E+00  4.34450E+00  4.36072E+00  4.37716E+00
   4.39318E+00  4.40931E+00  4.42493E+00  4.44060E+00  4.45573E+00  4.47090E+00  4.48552E+00  4.50015E+00  4.51423E+00  4.52833E+00
   4.54189E+00  4.55546E+00  4.56848E+00  4.58150E+00  4.59398E+00  4.60648E+00  4.61844E+00  4.63041E+00  4.64183E+00  4.65328E+00
   4.66418E+00  4.67513E+00  4.68554E+00  4.69598E+00  4.70588E+00  4.71583E+00  4.72526E+00  4.73474E+00  4.74371E+00  4.75272E+00
   4.76122E+00  4.76979E+00  4.77787E+00  4.78602E+00  4.79368E+00  4.80141E+00  4.80867E+00  4.81603E+00  4.82294E+00  4.82995E+00
   4.83652E+00  4.84320E+00  4.84947E+00  4.85590E+00  4.86193E+00  4.86814E+00  4.87397E+00  4.88004E+00
 NY background values follow
    -2.928E+01   -2.890E+01   -2.852E+01   -2.815E+01   -2.777E+01   -2.740E+01   -2.703E+01   -2.666E+01   -2.629E+01   -2.592E+01
    -2.556E+01   -2.519E+01   -2.483E+01   -2.447E+01   -2.410E+01   -2.375E+01   -2.339E+01   -2.303E+01   -2.268E+01   -2.232E+01
    -2.197E+01   -2.162E+01   -2.127E+01   -2.092E+01   -2.057E+01   -2.023E+01   -1.988E+01   -1.954E+01   -1.920E+01   -1.886E+01
    -1.852E+01   -1.818E+01   -1.784E+01   -1.750E+01   -1.717E+01   -1.684E+01   -1.651E+01   -1.617E+01   -1.584E+01   -1.552E+01
    -1.519E+01   -1.486E+01   -1.454E+01   -1.421E+01   -1.389E+01   -1.357E+01   -1.325E+01   -1.293E+01   -1.261E+01   -1.230E+01
    -1.198E+01   -1.166E+01   -1.135E+01   -1.103E+01   -1.072E+01   -1.041E+01   -1.009E+01   -9.777E+00   -9.462E+00   -9.147E+00
    -8.832E+00   -8.517E+00   -8.200E+00   -7.883E+00   -7.565E+00   -7.247E+00   -6.927E+00   -6.606E+00   -6.283E+00   -5.960E+00
    -5.634E+00   -5.308E+00   -4.979E+00   -4.649E+00   -4.316E+00   -3.982E+00   -3.645E+00   -3.306E+00   -2.965E+00   -2.621E+00
    -2.275E+00   -1.926E+00   -1.574E+00   -1.219E+00   -8.605E-01   -4.992E-01   -1.346E-01    2.335E-01    6.050E-01    9.802E-01
     1.359E+00    1.742E+00    2.129E+00    2.519E+00    2.913E+00    3.311E+00    3.711E+00    4.116E+00    4.523E+00    4.933E+00
     5.347E+00    5.763E+00    6.182E+00    6.604E+00    7.028E+00    7.454E+00    7.883E+00    8.314E+00    8.747E+00    9.182E+00
     9.619E+00    1.006E+01    1.050E+01    1.094E+01    1.138E+01    1.183E+01    1.227E+01    1.272E+01    1.317E+01    1.362E+01
     1.406E+01    1.451E+01    1.496E+01    1.542E+01    1.587E+01    1.632E+01    1.677E+01    1.722E+01    1.767E+01    1.812E+01
     1.857E+01    1.902E+01    1.947E+01    1.992E+01    2.037E+01    2.081E+01    2.126E+01    2.170E+01    2.215E+01    2.259E+01
     2.303E+01    2.346E+01    2.389E+01    2.432E+01    2.475E+01    2.517E+01    2.559E+01    2.600E+01    2.640E+01    2.680E+01
     2.720E+01    2.759E+01    2.797E+01    2.834E+01    2.871E+01    2.907E+01    2.942E+01    2.976E+01    3.009E+01    3.042E+01
     3.073E+01    3.103E+01    3.133E+01    3.161E+01    3.188E+01    3.214E+01    3.239E+01    3.262E+01    3.284E+01    3.305E+01
     3.325E+01    3.343E+01    3.360E+01    3.375E+01    3.389E+01    3.402E+01    3.412E+01    3.422E+01    3.429E+01    3.435E+01
     3.439E+01    3.442E+01    3.442E+01    3.441E+01    3.439E+01    3.434E+01    3.428E+01    3.421E+01    3.412E+01    3.401E+01
     3.389E+01    3.376E+01    3.361E+01    3.345E+01    3.328E+01    3.309E+01    3.289E+01    3.268E+01    3.246E+01    3.223E+01
     3.198E+01    3.173E+01    3.147E+01    3.119E+01    3.091E+01    3.062E+01    3.032E+01    3.002E+01    2.970E+01    2.938E+01
     2.905E+01    2.872E+01    2.838E+01    2.804E+01    2.769E+01    2.733E+01    2.697E+01    2.661E+01    2.624E+01    2.587E+01
     2.550E+01    2.513E+01    2.475E+01    2.437E+01    2.399E+01    2.361E+01    2.323E+01    2.285E+01    2.247E+01    2.209E+01
     2.171E+01    2.133E+01    2.095E+01    2.057E+01    2.020E+01    1.982E+01    1.945E+01    1.907E+01    1.870E+01    1.833E+01
     1.797E+01    1.760E+01    1.724E+01    1.688E+01    1.652E+01    1.617E+01    1.582E+01    1.547E+01    1.512E+01    1.478E+01
     1.444E+01    1.411E+01    1.377E+01    1.345E+01    1.312E+01    1.281E+01    1.249E+01    1.218E+01    1.188E+01    1.158E+01
     1.128E+01    1.099E+01    1.071E+01    1.043E+01    1.015E+01    9.887E+00    9.626E+00    9.370E+00    9.121E+00    8.879E+00
     8.643E+00    8.413E+00    8.191E+00    7.975E+00    7.766E+00    7.564E+00    7.368E+00    7.179E+00    6.996E+00    6.819E+00
     6.648E+00    6.483E+00    6.324E+00    6.171E+00    6.024E+00    5.882E+00    5.746E+00    5.615E+00    5.490E+00    5.369E+00
     5.254E+00    5.144E+00    5.039E+00    4.938E+00    4.842E+00    4.751E+00    4.664E+00    4.582E+00    4.504E+00    4.430E+00
     4.360E+00    4.295E+00    4.233E+00    4.175E+00    4.120E+00    4.069E+00    4.022E+00    3.978E+00    3.937E+00    3.900E+00
     3.865E+00    3.834E+00    3.805E+00    3.780E+00    3.757E+00    3.736E+00    3.718E+00    3.702E+00    3.689E+00    3.677E+00
     3.668E+00    3.661E+00    3.656E+00    3.653E+00    3.651E+00    3.652E+00    3.654E+00    3.657E+00    3.662E+00    3.668E+00
     3.676E+00    3.684E+00    3.694E+00    3.705E+00    3.717E+00    3.730E+00    3.743E+00    3.758E+00    3.772E+00    3.788E+00
     3.804E+00    3.820E+00    3.837E+00    3.854E+00    3.871E+00    3.888E+00    3.905E+00    3.921E+00    3.938E+00    3.955E+00
     3.971E+00    3.986E+00    4.001E+00    4.016E+00    4.030E+00    4.043E+00    4.055E+00    4.066E+00    4.077E+00    4.086E+00
     4.094E+00    4.101E+00    4.106E+00    4.110E+00    4.113E+00    4.114E+00    4.115E+00    4.114E+00    4.112E+00    4.109E+00
     4.106E+00    4.101E+00    4.095E+00    4.089E+00    4.082E+00    4.074E+00    4.066E+00    4.057E+00    4.047E+00    4.038E+00
     4.027E+00    4.017E+00    4.006E+00    3.994E+00    3.983E+00    3.972E+00    3.960E+00    3.949E+00    3.937E+00    3.926E+00
     3.914E+00    3.903E+00    3.893E+00    3.882E+00    3.872E+00    3.863E+00    3.853E+00    3.845E+00    3.837E+00    3.829E+00
     3.823E+00    3.817E+00    3.812E+00    3.808E+00    3.805E+00    3.802E+00    3.801E+00    3.801E+00    3.802E+00    3.804E+00
     3.807E+00    3.812E+00    3.817E+00    3.823E+00    3.830E+00    3.838E+00    3.847E+00    3.856E+00    3.867E+00    3.878E+00
     3.890E+00    3.902E+00    3.916E+00    3.930E+00    3.944E+00    3.959E+00    3.975E+00    3.991E+00    4.007E+00    4.024E+00
     4.041E+00    4.059E+00    4.077E+00    4.095E+00    4.114E+00    4.133E+00    4.152E+00    4.171E+00    4.190E+00    4.210E+00
     4.229E+00    4.248E+00    4.268E+00    4.287E+00    4.307E+00    4.326E+00    4.345E+00    4.364E+00    4.383E+00    4.401E+00
     4.420E+00    4.438E+00    4.455E+00    4.473E+00    4.490E+00    4.506E+00    4.522E+00    4.538E+00    4.554E+00    4.569E+00
     4.584E+00    4.598E+00    4.613E+00    4.626E+00    4.640E+00    4.653E+00    4.666E+00    4.679E+00    4.691E+00    4.703E+00
     4.715E+00    4.726E+00    4.737E+00    4.748E+00    4.759E+00    4.769E+00    4.779E+00    4.789E+00    4.798E+00    4.807E+00
     4.816E+00    4.825E+00    4.833E+00    4.841E+00    4.849E+00    4.857E+00    4.864E+00    4.871E+00    4.878E+00    4.885E+00
     4.891E+00    4.897E+00    4.903E+00    4.909E+00    4.915E+00    4.920E+00    4.925E+00    4.930E+00
 Asp      Conc. = 2.82E+01
