 LCModel (Version 6.3-1L) Copyright: S.W. Provencher.          Ref.: Magn. Reson. Med. 30:672-679 (1993).                
 Slice#3 Row#5 Col#1  K_02_press_1_raw_act
 36 lines in following concentration table = NCONC+1
    Conc.  %SD /Cr+PCr  Metabolite                                         
    0.000 999%   0.000 Ala                                                 
    7.185  71%   0.190 Asp                                                 
    0.000 999%   0.000 Cr                                                  
   37.808  38%   1.000 PCr                                                 
    4.343  71%   0.115 GABA                                                
    4.279  72%   0.113 Glc                                                 
   23.831 125%   0.630 Gln                                                 
   56.259  63%   1.488 Glu                                                 
   14.979  37%   0.396 GPC                                                 
    0.000 999%   0.000 PCh                                                 
    0.000 999%   0.000 GSH                                                 
   46.785  88%   1.237 Ins                                                 
    0.000 999%   0.000 Lac                                                 
   57.286  32%   1.515 NAA                                                 
    2.221 588% 5.9E-02 NAAG                                                
    1.452  70% 3.8E-02 Scyllo                                              
    7.572  68%   0.200 Tau                                                 
    1.086 581% 2.9E-02 -CrCH2                                              
   14.979  37%   0.396 GPC+PCh                                             
   59.508  34%   1.574 NAA+NAAG                                            
   37.808  38%   1.000 Cr+PCr                                              
   80.090  55%   2.118 Glu+Gln                                             
    0.000 999%   0.000 Lip13a                                              
   54.617 106%   1.445 Lip13b                                              
    0.000 999%   0.000 Lip09                                               
 1.17E+03  13%  31.069 MM09                                                
   62.443  71%   1.652 Lip20                                               
 2.11E+03  10%  55.909 MM20                                                
  343.304  17%   9.080 MM12                                                
  965.582  16%  25.539 MM14                                                
  523.630  21%  13.850 MM17                                                
   54.617 106%   1.445 Lip13a+Lip13b                                       
 1.36E+03  15%  36.063 MM14+Lip13a+Lip13b+MM12                             
 1.17E+03  13%  31.069 MM09+Lip09                                          
 2.18E+03  10%  57.561 MM20+Lip20                                          
   6 lines in following misc. output table
  FWHM = 0.038 ppm    S/N =   3                                            
  Data shift = 0.015 ppm                                                   
  Ph:  85 deg     -22.4 deg/ppm                                            
  alphaB,S = 3.4E-01,   5.5E+00                                            
   14 spline knots.   Ns = 5(1)                                            
  ( 9) 2 infls.   ( 4) 2 extrs.                                            
  498 points on ppm-axis = NY
      4.000000     3.992357     3.984714     3.977070     3.969427     3.961784     3.954141     3.946497     3.938854     3.931211
      3.923568     3.915925     3.908281     3.900638     3.892995     3.885352     3.877708     3.870065     3.862422     3.854779
      3.847136     3.839492     3.831849     3.824206     3.816563     3.808919     3.801276     3.793633     3.785990     3.778347
      3.770703     3.763060     3.755417     3.747774     3.740130     3.732487     3.724844     3.717201     3.709558     3.701914
      3.694271     3.686628     3.678985     3.671341     3.663698     3.656055     3.648412     3.640769     3.633125     3.625482
      3.617839     3.610196     3.602552     3.594909     3.587266     3.579623     3.571980     3.564336     3.556693     3.549050
      3.541407     3.533763     3.526120     3.518477     3.510834     3.503191     3.495547     3.487904     3.480261     3.472618
      3.464974     3.457331     3.449688     3.442045     3.434402     3.426758     3.419115     3.411472     3.403829     3.396185
      3.388542     3.380899     3.373256     3.365613     3.357969     3.350326     3.342683     3.335040     3.327396     3.319753
      3.312110     3.304467     3.296824     3.289180     3.281537     3.273894     3.266251     3.258607     3.250964     3.243321
      3.235678     3.228034     3.220391     3.212748     3.205105     3.197462     3.189818     3.182175     3.174532     3.166889
      3.159245     3.151602     3.143959     3.136316     3.128673     3.121029     3.113386     3.105743     3.098100     3.090456
      3.082813     3.075170     3.067527     3.059884     3.052240     3.044597     3.036954     3.029311     3.021667     3.014024
      3.006381     2.998738     2.991095     2.983451     2.975808     2.968165     2.960522     2.952878     2.945235     2.937592
      2.929949     2.922306     2.914662     2.907019     2.899376     2.891733     2.884089     2.876446     2.868803     2.861160
      2.853517     2.845873     2.838230     2.830587     2.822944     2.815300     2.807657     2.800014     2.792371     2.784728
      2.777084     2.769441     2.761798     2.754155     2.746511     2.738868     2.731225     2.723582     2.715939     2.708295
      2.700652     2.693009     2.685366     2.677722     2.670079     2.662436     2.654793     2.647150     2.639506     2.631863
      2.624220     2.616577     2.608933     2.601290     2.593647     2.586004     2.578361     2.570717     2.563074     2.555431
      2.547788     2.540144     2.532501     2.524858     2.517215     2.509572     2.501928     2.494285     2.486642     2.478999
      2.471355     2.463712     2.456069     2.448426     2.440783     2.433139     2.425496     2.417853     2.410210     2.402566
      2.394923     2.387280     2.379637     2.371994     2.364350     2.356707     2.349064     2.341421     2.333777     2.326134
      2.318491     2.310848     2.303205     2.295561     2.287918     2.280275     2.272632     2.264988     2.257345     2.249702
      2.242059     2.234416     2.226772     2.219129     2.211486     2.203843     2.196199     2.188556     2.180913     2.173270
      2.165627     2.157983     2.150340     2.142697     2.135054     2.127410     2.119767     2.112124     2.104481     2.096838
      2.089194     2.081551     2.073908     2.066265     2.058621     2.050978     2.043335     2.035692     2.028049     2.020405
      2.012762     2.005119     1.997476     1.989833     1.982190     1.974546     1.966903     1.959260     1.951617     1.943974
      1.936331     1.928688     1.921045     1.913402     1.905759     1.898115     1.890472     1.882829     1.875186     1.867543
      1.859900     1.852257     1.844614     1.836971     1.829327     1.821684     1.814041     1.806398     1.798755     1.791112
      1.783469     1.775826     1.768183     1.760540     1.752896     1.745253     1.737610     1.729967     1.722324     1.714681
      1.707038     1.699395     1.691752     1.684108     1.676465     1.668822     1.661179     1.653536     1.645893     1.638250
      1.630607     1.622964     1.615321     1.607677     1.600034     1.592391     1.584748     1.577105     1.569462     1.561819
      1.554176     1.546533     1.538890     1.531246     1.523603     1.515960     1.508317     1.500674     1.493031     1.485388
      1.477745     1.470102     1.462458     1.454815     1.447172     1.439529     1.431886     1.424243     1.416600     1.408957
      1.401314     1.393671     1.386027     1.378384     1.370741     1.363098     1.355455     1.347812     1.340169     1.332526
      1.324883     1.317240     1.309596     1.301953     1.294310     1.286667     1.279024     1.271381     1.263738     1.256095
      1.248452     1.240808     1.233165     1.225522     1.217879     1.210236     1.202593     1.194950     1.187307     1.179664
      1.172021     1.164377     1.156734     1.149091     1.141448     1.133805     1.126162     1.118519     1.110876     1.103233
      1.095590     1.087946     1.080303     1.072660     1.065017     1.057374     1.049731     1.042088     1.034445     1.026802
      1.019158     1.011515     1.003872     0.996229     0.988586     0.980943     0.973300     0.965657     0.958014     0.950371
      0.942727     0.935084     0.927441     0.919798     0.912155     0.904512     0.896869     0.889226     0.881583     0.873940
      0.866296     0.858653     0.851010     0.843367     0.835724     0.828081     0.820438     0.812795     0.805152     0.797508
      0.789865     0.782222     0.774579     0.766936     0.759293     0.751650     0.744007     0.736364     0.728721     0.721077
      0.713434     0.705791     0.698148     0.690505     0.682862     0.675219     0.667576     0.659933     0.652290     0.644646
      0.637003     0.629360     0.621717     0.614074     0.606431     0.598788     0.591145     0.583502     0.575858     0.568215
      0.560572     0.552929     0.545286     0.537643     0.530000     0.522357     0.514714     0.507071     0.499427     0.491784
      0.484141     0.476498     0.468855     0.461212     0.453569     0.445925     0.438282     0.430639     0.422996     0.415353
      0.407710     0.400067     0.392424     0.384780     0.377137     0.369494     0.361851     0.354208     0.346565     0.338922
      0.331278     0.323635     0.315992     0.308349     0.300706     0.293063     0.285420     0.277777     0.270133     0.262490
      0.254847     0.247204     0.239561     0.231918     0.224275     0.216631     0.208988     0.201345
 NY phased data points follow
   4.58175E+01  3.81655E+01  4.43107E+01  4.26530E+01  4.02229E+01  3.98562E+01  4.00601E+01  3.78878E+01  3.79722E+01  4.19341E+01
   4.03190E+01  4.16645E+01  4.37757E+01  3.91927E+01  3.82342E+01  3.83456E+01  3.65960E+01  3.55144E+01  3.82871E+01  3.40393E+01
   3.56677E+01  3.26981E+01  3.28598E+01  3.18296E+01  3.35742E+01  3.40014E+01  3.36878E+01  3.20517E+01  3.34493E+01  3.26095E+01
   3.02994E+01  3.11154E+01  2.90447E+01  2.99659E+01  3.08396E+01  3.28744E+01  2.96585E+01  3.16567E+01  3.10146E+01  3.12846E+01
   3.10024E+01  2.59972E+01  2.81143E+01  2.86341E+01  2.74137E+01  2.56975E+01  2.72341E+01  2.95703E+01  2.62250E+01  2.59997E+01
   2.77956E+01  2.68325E+01  2.57362E+01  2.45028E+01  2.34741E+01  2.49804E+01  2.31836E+01  2.41907E+01  2.29717E+01  2.44188E+01
   2.63885E+01  2.37357E+01  2.27355E+01  2.31272E+01  2.38636E+01  2.03711E+01  1.97861E+01  1.94994E+01  2.37884E+01  2.28500E+01
   2.39079E+01  2.20212E+01  2.14200E+01  2.02230E+01  2.01501E+01  2.10781E+01  2.04379E+01  1.86112E+01  2.21214E+01  1.77269E+01
   1.97195E+01  2.11633E+01  1.96699E+01  1.73274E+01  1.75266E+01  1.96091E+01  1.91770E+01  1.56688E+01  1.72483E+01  1.75687E+01
   1.91510E+01  1.73157E+01  1.78895E+01  1.63568E+01  1.72536E+01  1.68902E+01  1.67095E+01  1.25666E+01  1.10540E+01  1.50626E+01
   1.29077E+01  1.67960E+01  1.77423E+01  1.52417E+01  1.74912E+01  2.02147E+01  1.55162E+01  1.74760E+01  1.60872E+01  1.45249E+01
   1.47453E+01  1.58444E+01  1.52641E+01  1.58261E+01  1.58961E+01  1.28068E+01  1.47739E+01  1.50666E+01  1.24608E+01  1.65331E+01
   1.26963E+01  1.09197E+01  1.20577E+01  8.66612E+00  8.87488E+00  1.24959E+01  1.37543E+01  1.56269E+01  1.15908E+01  1.53360E+01
   1.29436E+01  1.39505E+01  1.45989E+01  9.35566E+00  1.26219E+01  1.25821E+01  1.05489E+01  1.08191E+01  1.23636E+01  1.34849E+01
   1.34122E+01  1.21617E+01  9.55795E+00  8.38231E+00  1.03590E+01  1.18517E+01  1.14699E+01  9.88897E+00  9.97906E+00  1.11744E+01
   9.87646E+00  1.14673E+01  1.13960E+01  1.00490E+01  1.04021E+01  1.07265E+01  9.28921E+00  1.24464E+01  8.33175E+00  1.26299E+01
   9.40376E+00  9.67293E+00  7.49485E+00  6.93990E+00  6.49602E+00  8.32086E+00  9.38365E+00  8.03215E+00  8.56808E+00  8.85731E+00
   8.30003E+00  7.34567E+00  9.55339E+00  6.45158E+00  5.20964E+00  7.11168E+00  8.41706E+00  4.59261E+00  5.98149E+00  5.23639E+00
   5.57051E+00  8.07347E+00  6.06885E+00  4.49222E+00  4.14153E+00  3.84506E+00  5.72665E+00  5.30783E+00  5.74627E+00  4.04803E+00
   4.38551E+00  3.40368E+00  4.66763E+00  4.47784E+00  6.00762E+00  3.94484E+00  5.31128E+00  4.01510E+00  4.08983E+00  7.43890E+00
   4.33577E+00  2.38466E+00  6.33647E+00  7.96161E+00  6.14599E+00  6.16081E+00  6.56262E+00  7.87872E+00  5.13827E+00  7.43288E+00
   7.80135E+00  6.80294E+00  6.75228E+00  6.79850E+00  9.74050E+00  7.76111E+00  1.02190E+01  1.06732E+01  1.16773E+01  1.18643E+01
   1.31580E+01  1.14267E+01  1.25831E+01  1.10301E+01  1.16624E+01  1.27298E+01  1.25585E+01  1.42124E+01  1.72050E+01  1.76301E+01
   1.63003E+01  1.49404E+01  1.81337E+01  1.62747E+01  1.56068E+01  1.49867E+01  1.62758E+01  2.01942E+01  1.86998E+01  1.98090E+01
   2.04857E+01  1.81563E+01  1.85669E+01  2.09416E+01  1.91893E+01  2.22069E+01  1.75735E+01  1.83380E+01  1.79113E+01  2.34798E+01
   2.23528E+01  2.06686E+01  2.09020E+01  2.08535E+01  1.80167E+01  2.03771E+01  1.93511E+01  1.81791E+01  1.89702E+01  1.81989E+01
   2.32748E+01  2.22703E+01  2.43363E+01  2.58355E+01  2.29551E+01  2.25477E+01  2.02551E+01  2.19503E+01  1.86965E+01  1.99596E+01
   2.37636E+01  1.83101E+01  1.85865E+01  2.00870E+01  1.95385E+01  1.91856E+01  1.83891E+01  2.18507E+01  2.02390E+01  1.89123E+01
   1.63825E+01  1.86155E+01  1.62709E+01  1.77494E+01  1.79781E+01  1.60918E+01  1.75849E+01  1.77167E+01  1.78453E+01  1.83034E+01
   1.88223E+01  1.55886E+01  1.88825E+01  1.61807E+01  1.82173E+01  1.78099E+01  1.73672E+01  1.42742E+01  1.86644E+01  1.80473E+01
   1.97299E+01  1.76203E+01  2.00754E+01  1.35588E+01  1.42427E+01  1.66776E+01  1.39921E+01  1.50966E+01  1.65438E+01  1.58265E+01
   1.85188E+01  1.82851E+01  1.47397E+01  1.41674E+01  1.47066E+01  1.41286E+01  1.77860E+01  1.63821E+01  1.63891E+01  1.78683E+01
   1.81221E+01  1.69533E+01  1.48555E+01  1.73188E+01  1.77867E+01  1.63941E+01  1.70039E+01  1.48643E+01  1.17166E+01  1.53845E+01
   1.51016E+01  1.91496E+01  1.27472E+01  1.49377E+01  1.54743E+01  1.75467E+01  1.75841E+01  1.81288E+01  1.80848E+01  1.75735E+01
   1.65927E+01  1.44043E+01  1.39406E+01  1.57598E+01  1.14679E+01  1.51472E+01  1.22335E+01  1.46336E+01  1.08097E+01  1.64234E+01
   1.63595E+01  1.17934E+01  1.56996E+01  1.64133E+01  1.32805E+01  1.01908E+01  9.81373E+00  1.15428E+01  1.24779E+01  1.17201E+01
   1.09797E+01  1.02488E+01  1.10196E+01  1.09294E+01  1.07674E+01  8.97802E+00  1.03064E+01  7.17794E+00  8.23211E+00  9.36325E+00
   7.80493E+00  9.67543E+00  9.99896E+00  7.95967E+00  8.56523E+00  3.89637E+00  1.11465E+01  9.65674E+00  8.34772E+00  1.00196E+01
   1.15251E+01  8.57204E+00  7.20484E+00  8.59895E+00  7.15303E+00  8.00394E+00  9.57768E+00  1.01791E+01  9.40753E+00  8.71614E+00
   7.28366E+00  4.06250E+00  5.59549E+00  8.41261E+00  7.41804E+00  7.15936E+00  9.22992E+00  7.87435E+00  8.24424E+00  6.87878E+00
   4.46438E+00  7.95203E+00  8.38853E+00  7.65408E+00  8.42986E+00  6.28091E+00  6.51428E+00  8.45414E+00  8.18426E+00  8.47838E+00
   6.37926E+00  6.14224E+00  8.57444E+00  6.28660E+00  7.68727E+00  7.47455E+00  8.47274E+00  8.25208E+00  7.91156E+00  7.78250E+00
   8.11022E+00  7.65380E+00  7.73945E+00  6.46286E+00  6.54864E+00  6.94946E+00  5.28251E+00  7.34231E+00  7.13155E+00  5.81563E+00
   6.76517E+00  7.10488E+00  8.05725E+00  7.08633E+00  6.46334E+00  4.84272E+00  9.41923E+00  5.90253E+00  5.16820E+00  5.08879E+00
   7.46502E+00  7.16328E+00  2.93773E+00  5.16196E+00  7.01195E+00  6.96348E+00  3.85348E+00  6.41035E+00  5.51230E+00  3.28066E+00
   5.45498E+00  5.44324E+00  3.04081E+00  2.78572E+00  7.08702E+00  5.24485E+00  3.84618E+00  4.87906E+00  3.83622E+00  4.48493E+00
   3.86732E+00  6.24054E+00  3.33743E+00  7.68024E+00  4.90237E+00  4.49408E+00  3.79649E+00  6.19430E+00  8.07093E+00  3.76989E+00
   5.15333E+00  4.52078E+00  4.32986E+00  7.31657E+00  4.24481E+00  4.76663E+00  4.09212E+00  3.85773E+00  3.48067E+00  4.39179E+00
   6.18605E+00  7.25248E+00  2.18242E+00  4.93039E+00  3.69921E+00  4.31559E+00  6.52053E+00  3.80931E+00  4.02765E+00  3.30689E+00
   1.85329E+00  4.54067E+00  4.45059E+00  2.30854E+00  4.42927E+00  6.24163E+00  2.17078E+00  5.87648E+00
 NY points of the fit to the data follow
   4.15959E+01  4.11641E+01  4.07321E+01  4.02448E+01  3.94566E+01  3.86920E+01  3.84306E+01  3.87144E+01  3.92769E+01  3.97425E+01
   3.99859E+01  4.00207E+01  3.96846E+01  3.89642E+01  3.80803E+01  3.72702E+01  3.67224E+01  3.63306E+01  3.59630E+01  3.55978E+01
   3.52227E+01  3.48645E+01  3.45562E+01  3.43584E+01  3.42239E+01  3.40381E+01  3.37209E+01  3.32166E+01  3.25924E+01  3.20013E+01
   3.15540E+01  3.13464E+01  3.13414E+01  3.14198E+01  3.14843E+01  3.14008E+01  3.10984E+01  3.05994E+01  2.99987E+01  2.94728E+01
   2.90744E+01  2.87251E+01  2.83426E+01  2.79347E+01  2.76472E+01  2.75767E+01  2.76572E+01  2.77620E+01  2.77987E+01  2.77192E+01
   2.74816E+01  2.70447E+01  2.64702E+01  2.58927E+01  2.53883E+01  2.49756E+01  2.46494E+01  2.44061E+01  2.42584E+01  2.41684E+01
   2.40799E+01  2.39577E+01  2.37591E+01  2.34798E+01  2.31264E+01  2.27441E+01  2.23917E+01  2.20744E+01  2.18129E+01  2.16183E+01
   2.14506E+01  2.12722E+01  2.10805E+01  2.09005E+01  2.07458E+01  2.05829E+01  2.03871E+01  2.01512E+01  1.98880E+01  1.96158E+01
   1.93377E+01  1.90481E+01  1.87993E+01  1.86498E+01  1.85677E+01  1.84683E+01  1.82870E+01  1.80248E+01  1.77303E+01  1.74313E+01
   1.71448E+01  1.68883E+01  1.66918E+01  1.65645E+01  1.64526E+01  1.63090E+01  1.60348E+01  1.52080E+01  1.39784E+01  1.34131E+01
   1.39300E+01  1.52067E+01  1.65452E+01  1.75276E+01  1.82175E+01  1.84126E+01  1.78172E+01  1.66825E+01  1.54868E+01  1.47076E+01
   1.44072E+01  1.42423E+01  1.41127E+01  1.40026E+01  1.39042E+01  1.38195E+01  1.37392E+01  1.36543E+01  1.35666E+01  1.34734E+01
   1.33471E+01  1.29957E+01  1.20640E+01  1.12334E+01  1.12461E+01  1.21330E+01  1.34106E+01  1.45024E+01  1.52932E+01  1.57957E+01
   1.56765E+01  1.48912E+01  1.37988E+01  1.28319E+01  1.23138E+01  1.20403E+01  1.18173E+01  1.16209E+01  1.14465E+01  1.12748E+01
   1.10930E+01  1.08997E+01  1.07057E+01  1.05246E+01  1.03525E+01  1.01844E+01  1.00201E+01  9.85822E+00  9.69744E+00  9.53242E+00
   9.36338E+00  9.19711E+00  9.03866E+00  8.89102E+00  8.75398E+00  8.63421E+00  8.54907E+00  8.47839E+00  8.37931E+00  8.23285E+00
   8.04207E+00  7.86190E+00  7.73236E+00  7.64846E+00  7.60268E+00  7.58212E+00  7.57105E+00  7.55086E+00  7.49291E+00  7.40377E+00
   7.31607E+00  7.26054E+00  7.23665E+00  7.18030E+00  7.08108E+00  6.97940E+00  6.93055E+00  6.93384E+00  6.93333E+00  6.91326E+00
   6.89661E+00  6.90506E+00  6.94442E+00  6.96624E+00  6.93863E+00  6.90672E+00  6.90362E+00  6.94170E+00  7.00461E+00  7.07900E+00
   7.17117E+00  7.28034E+00  7.37175E+00  7.44020E+00  7.49723E+00  7.55006E+00  7.59377E+00  7.61497E+00  7.62722E+00  7.65043E+00
   7.69980E+00  7.80166E+00  8.00141E+00  8.30964E+00  8.67535E+00  9.08354E+00  9.39796E+00  9.48711E+00  9.38340E+00  9.14946E+00
   8.86419E+00  8.55346E+00  8.34852E+00  8.52453E+00  9.10075E+00  9.87684E+00  1.06536E+01  1.13368E+01  1.19069E+01  1.21570E+01
   1.19208E+01  1.14129E+01  1.09543E+01  1.07614E+01  1.08398E+01  1.11234E+01  1.16341E+01  1.23005E+01  1.29342E+01  1.34017E+01
   1.37064E+01  1.39676E+01  1.42265E+01  1.44482E+01  1.46487E+01  1.48890E+01  1.52133E+01  1.56185E+01  1.61323E+01  1.67019E+01
   1.72488E+01  1.77297E+01  1.81474E+01  1.85097E+01  1.88357E+01  1.91529E+01  1.95132E+01  1.99133E+01  2.02785E+01  2.05561E+01
   2.07343E+01  2.08417E+01  2.09297E+01  2.10425E+01  2.10931E+01  2.05141E+01  1.91649E+01  1.83588E+01  1.88443E+01  2.03644E+01
   2.20868E+01  2.34291E+01  2.44349E+01  2.49066E+01  2.43527E+01  2.29667E+01  2.13462E+01  2.01366E+01  1.95468E+01  1.91627E+01
   1.88324E+01  1.85426E+01  1.82962E+01  1.80890E+01  1.79236E+01  1.77942E+01  1.76931E+01  1.76006E+01  1.75014E+01  1.73902E+01
   1.72735E+01  1.71642E+01  1.70709E+01  1.69986E+01  1.69521E+01  1.69302E+01  1.69286E+01  1.69430E+01  1.69682E+01  1.70015E+01
   1.70399E+01  1.70807E+01  1.71218E+01  1.71612E+01  1.71963E+01  1.72243E+01  1.72418E+01  1.72471E+01  1.72383E+01  1.72141E+01
   1.71741E+01  1.71180E+01  1.70463E+01  1.69599E+01  1.68602E+01  1.67491E+01  1.66288E+01  1.65020E+01  1.63717E+01  1.62411E+01
   1.61136E+01  1.59924E+01  1.58803E+01  1.57800E+01  1.56939E+01  1.56238E+01  1.55712E+01  1.55371E+01  1.55219E+01  1.55257E+01
   1.55477E+01  1.55868E+01  1.56410E+01  1.57082E+01  1.57854E+01  1.58695E+01  1.59567E+01  1.60432E+01  1.61247E+01  1.61971E+01
   1.62563E+01  1.62984E+01  1.63199E+01  1.63176E+01  1.62892E+01  1.62327E+01  1.61473E+01  1.60326E+01  1.58894E+01  1.57193E+01
   1.55246E+01  1.53090E+01  1.50767E+01  1.48328E+01  1.45834E+01  1.43348E+01  1.40935E+01  1.38654E+01  1.36548E+01  1.34643E+01
   1.32935E+01  1.31391E+01  1.29952E+01  1.28538E+01  1.27065E+01  1.25459E+01  1.23666E+01  1.21668E+01  1.19480E+01  1.17148E+01
   1.14735E+01  1.12311E+01  1.09939E+01  1.07665E+01  1.05515E+01  1.03495E+01  1.01597E+01  9.98022E+00  9.80873E+00  9.64315E+00
   9.48177E+00  9.32347E+00  9.16773E+00  9.01458E+00  8.86443E+00  8.71804E+00  8.57631E+00  8.44029E+00  8.31108E+00  8.18977E+00
   8.07742E+00  7.97500E+00  7.88344E+00  7.80358E+00  7.73618E+00  7.68191E+00  7.64134E+00  7.61493E+00  7.60304E+00  7.60594E+00
   7.62372E+00  7.65636E+00  7.70362E+00  7.76509E+00  7.84013E+00  7.92787E+00  8.02717E+00  8.13662E+00  8.25451E+00  8.37886E+00
   8.50746E+00  8.63784E+00  8.76735E+00  8.89321E+00  9.01256E+00  9.12254E+00  9.22039E+00  9.30354E+00  9.36960E+00  9.41646E+00
   9.44240E+00  9.44617E+00  9.42701E+00  9.38467E+00  9.31940E+00  9.23196E+00  9.12356E+00  8.99581E+00  8.85067E+00  8.69035E+00
   8.51724E+00  8.33385E+00  8.14268E+00  7.94622E+00  7.74684E+00  7.54675E+00  7.34793E+00  7.15217E+00  6.96098E+00  6.77566E+00
   6.59722E+00  6.42646E+00  6.26393E+00  6.11001E+00  5.96489E+00  5.82864E+00  5.70116E+00  5.58226E+00  5.47169E+00  5.36911E+00
   5.27418E+00  5.18650E+00  5.10565E+00  5.03122E+00  4.96279E+00  4.89996E+00  4.84234E+00  4.78955E+00  4.74122E+00  4.69701E+00
   4.65659E+00  4.61966E+00  4.58593E+00  4.55514E+00  4.52707E+00  4.50155E+00  4.47838E+00  4.45742E+00  4.43851E+00  4.42150E+00
   4.40627E+00  4.39269E+00  4.38066E+00  4.37008E+00  4.36086E+00  4.35290E+00  4.34611E+00  4.34043E+00  4.33578E+00  4.33211E+00
   4.32934E+00  4.32741E+00  4.32627E+00  4.32586E+00  4.32616E+00  4.32710E+00  4.32864E+00  4.33075E+00  4.33337E+00  4.33649E+00
   4.34006E+00  4.34405E+00  4.34842E+00  4.35315E+00  4.35821E+00  4.36358E+00  4.36922E+00  4.37511E+00  4.38123E+00  4.38755E+00
   4.39405E+00  4.40071E+00  4.40751E+00  4.41443E+00  4.42144E+00  4.42853E+00  4.43569E+00  4.44289E+00
 NY background values follow
     4.139E+01    4.107E+01    4.076E+01    4.044E+01    4.013E+01    3.982E+01    3.950E+01    3.919E+01    3.887E+01    3.856E+01
     3.825E+01    3.793E+01    3.762E+01    3.731E+01    3.700E+01    3.668E+01    3.637E+01    3.606E+01    3.575E+01    3.545E+01
     3.514E+01    3.483E+01    3.452E+01    3.422E+01    3.391E+01    3.361E+01    3.331E+01    3.300E+01    3.270E+01    3.240E+01
     3.210E+01    3.181E+01    3.151E+01    3.121E+01    3.092E+01    3.063E+01    3.034E+01    3.005E+01    2.976E+01    2.947E+01
     2.919E+01    2.890E+01    2.862E+01    2.834E+01    2.806E+01    2.778E+01    2.751E+01    2.723E+01    2.696E+01    2.669E+01
     2.642E+01    2.616E+01    2.589E+01    2.563E+01    2.537E+01    2.511E+01    2.485E+01    2.460E+01    2.434E+01    2.409E+01
     2.384E+01    2.359E+01    2.335E+01    2.310E+01    2.286E+01    2.262E+01    2.238E+01    2.214E+01    2.190E+01    2.167E+01
     2.144E+01    2.121E+01    2.098E+01    2.075E+01    2.053E+01    2.030E+01    2.008E+01    1.986E+01    1.965E+01    1.943E+01
     1.922E+01    1.901E+01    1.880E+01    1.859E+01    1.838E+01    1.818E+01    1.797E+01    1.777E+01    1.758E+01    1.738E+01
     1.718E+01    1.699E+01    1.680E+01    1.661E+01    1.642E+01    1.624E+01    1.605E+01    1.587E+01    1.569E+01    1.551E+01
     1.533E+01    1.516E+01    1.499E+01    1.481E+01    1.464E+01    1.448E+01    1.431E+01    1.415E+01    1.398E+01    1.382E+01
     1.366E+01    1.350E+01    1.335E+01    1.319E+01    1.304E+01    1.289E+01    1.274E+01    1.259E+01    1.244E+01    1.229E+01
     1.215E+01    1.201E+01    1.187E+01    1.173E+01    1.159E+01    1.145E+01    1.132E+01    1.118E+01    1.105E+01    1.092E+01
     1.079E+01    1.066E+01    1.054E+01    1.041E+01    1.029E+01    1.016E+01    1.004E+01    9.922E+00    9.803E+00    9.686E+00
     9.571E+00    9.457E+00    9.344E+00    9.233E+00    9.125E+00    9.018E+00    8.913E+00    8.809E+00    8.708E+00    8.609E+00
     8.513E+00    8.418E+00    8.326E+00    8.236E+00    8.149E+00    8.064E+00    7.981E+00    7.902E+00    7.824E+00    7.750E+00
     7.679E+00    7.610E+00    7.544E+00    7.482E+00    7.422E+00    7.366E+00    7.312E+00    7.262E+00    7.216E+00    7.172E+00
     7.133E+00    7.096E+00    7.064E+00    7.035E+00    7.009E+00    6.988E+00    6.970E+00    6.956E+00    6.946E+00    6.940E+00
     6.938E+00    6.941E+00    6.947E+00    6.958E+00    6.973E+00    6.991E+00    7.014E+00    7.040E+00    7.070E+00    7.103E+00
     7.140E+00    7.180E+00    7.224E+00    7.271E+00    7.321E+00    7.374E+00    7.430E+00    7.489E+00    7.551E+00    7.615E+00
     7.682E+00    7.752E+00    7.824E+00    7.899E+00    7.976E+00    8.055E+00    8.136E+00    8.219E+00    8.305E+00    8.392E+00
     8.481E+00    8.571E+00    8.663E+00    8.757E+00    8.852E+00    8.949E+00    9.047E+00    9.146E+00    9.246E+00    9.347E+00
     9.450E+00    9.553E+00    9.656E+00    9.761E+00    9.866E+00    9.971E+00    1.008E+01    1.018E+01    1.029E+01    1.040E+01
     1.050E+01    1.061E+01    1.072E+01    1.082E+01    1.093E+01    1.104E+01    1.114E+01    1.125E+01    1.135E+01    1.146E+01
     1.156E+01    1.166E+01    1.176E+01    1.186E+01    1.196E+01    1.206E+01    1.216E+01    1.226E+01    1.235E+01    1.244E+01
     1.253E+01    1.262E+01    1.271E+01    1.280E+01    1.288E+01    1.297E+01    1.305E+01    1.312E+01    1.320E+01    1.327E+01
     1.334E+01    1.341E+01    1.348E+01    1.354E+01    1.360E+01    1.366E+01    1.372E+01    1.377E+01    1.382E+01    1.386E+01
     1.391E+01    1.395E+01    1.398E+01    1.402E+01    1.405E+01    1.407E+01    1.409E+01    1.411E+01    1.413E+01    1.414E+01
     1.415E+01    1.416E+01    1.416E+01    1.417E+01    1.416E+01    1.416E+01    1.415E+01    1.414E+01    1.413E+01    1.411E+01
     1.409E+01    1.407E+01    1.404E+01    1.401E+01    1.398E+01    1.395E+01    1.391E+01    1.388E+01    1.383E+01    1.379E+01
     1.374E+01    1.370E+01    1.365E+01    1.359E+01    1.354E+01    1.348E+01    1.342E+01    1.335E+01    1.329E+01    1.322E+01
     1.315E+01    1.308E+01    1.301E+01    1.293E+01    1.285E+01    1.277E+01    1.269E+01    1.260E+01    1.252E+01    1.243E+01
     1.234E+01    1.225E+01    1.216E+01    1.206E+01    1.196E+01    1.187E+01    1.177E+01    1.166E+01    1.156E+01    1.146E+01
     1.135E+01    1.124E+01    1.114E+01    1.103E+01    1.092E+01    1.081E+01    1.069E+01    1.058E+01    1.047E+01    1.035E+01
     1.024E+01    1.012E+01    1.000E+01    9.884E+00    9.765E+00    9.646E+00    9.527E+00    9.407E+00    9.286E+00    9.166E+00
     9.045E+00    8.923E+00    8.802E+00    8.681E+00    8.559E+00    8.437E+00    8.316E+00    8.194E+00    8.073E+00    7.952E+00
     7.831E+00    7.710E+00    7.590E+00    7.470E+00    7.350E+00    7.231E+00    7.113E+00    6.995E+00    6.878E+00    6.761E+00
     6.646E+00    6.531E+00    6.417E+00    6.304E+00    6.191E+00    6.080E+00    5.970E+00    5.861E+00    5.754E+00    5.647E+00
     5.542E+00    5.438E+00    5.335E+00    5.234E+00    5.135E+00    5.037E+00    4.940E+00    4.846E+00    4.753E+00    4.661E+00
     4.572E+00    4.484E+00    4.399E+00    4.315E+00    4.233E+00    4.154E+00    4.076E+00    4.001E+00    3.928E+00    3.857E+00
     3.789E+00    3.723E+00    3.659E+00    3.598E+00    3.539E+00    3.483E+00    3.430E+00    3.379E+00    3.331E+00    3.286E+00
     3.243E+00    3.203E+00    3.166E+00    3.130E+00    3.098E+00    3.067E+00    3.039E+00    3.013E+00    2.989E+00    2.967E+00
     2.947E+00    2.929E+00    2.914E+00    2.900E+00    2.887E+00    2.877E+00    2.868E+00    2.861E+00    2.856E+00    2.852E+00
     2.849E+00    2.848E+00    2.848E+00    2.850E+00    2.852E+00    2.856E+00    2.861E+00    2.868E+00    2.875E+00    2.883E+00
     2.892E+00    2.902E+00    2.912E+00    2.924E+00    2.936E+00    2.949E+00    2.962E+00    2.976E+00    2.990E+00    3.005E+00
     3.020E+00    3.035E+00    3.050E+00    3.066E+00    3.082E+00    3.098E+00    3.114E+00    3.130E+00    3.147E+00    3.163E+00
     3.180E+00    3.197E+00    3.214E+00    3.231E+00    3.248E+00    3.265E+00    3.283E+00    3.300E+00    3.317E+00    3.335E+00
     3.352E+00    3.370E+00    3.387E+00    3.405E+00    3.422E+00    3.440E+00    3.458E+00    3.475E+00    3.493E+00    3.510E+00
     3.528E+00    3.545E+00    3.562E+00    3.580E+00    3.597E+00    3.614E+00    3.631E+00    3.648E+00    3.665E+00    3.682E+00
     3.698E+00    3.715E+00    3.731E+00    3.747E+00    3.763E+00    3.779E+00    3.795E+00    3.810E+00
 Asp      Conc. = 7.18E+00
