 LCModel (Version 6.3-1L) Copyright: S.W. Provencher.          Ref.: Magn. Reson. Med. 30:672-679 (1993).                
 Slice#1 Row#6 Col#12  K_02_press_1_raw_act
 36 lines in following concentration table = NCONC+1
    Conc.  %SD /Cr+PCr  Metabolite                                         
  239.651  77%   0.831 Ala                                                 
  127.820 130%   0.443 Asp                                                 
    0.000 999%   0.000 Cr                                                  
  288.268  19%   1.000 PCr                                                 
   19.064 572% 6.6E-02 GABA                                                
   87.117 119%   0.302 Glc                                                 
  791.200  44%   2.745 Gln                                                 
 1.91E+03  21%   6.641 Glu                                                 
   46.695  41%   0.162 GPC                                                 
    0.000 999%   0.000 PCh                                                 
   54.904 150%   0.190 GSH                                                 
    0.000 999%   0.000 Ins                                                 
  380.672  65%   1.321 Lac                                                 
 2.55E+03   3%   8.853 NAA                                                 
    0.000 999%   0.000 NAAG                                                
   31.553  71%   0.109 Scyllo                                              
  346.381  46%   1.202 Tau                                                 
  202.132  45%   0.701 -CrCH2                                              
   46.695  41%   0.162 GPC+PCh                                             
 2.55E+03   3%   8.853 NAA+NAAG                                            
  288.268  19%   1.000 Cr+PCr                                              
 2.71E+03  23%   9.386 Glu+Gln                                             
    0.000 999%   0.000 Lip13a                                              
  997.440  16%   3.460 Lip13b                                              
  266.054  16%   0.923 Lip09                                               
  834.720  19%   2.896 MM09                                                
  149.643  16%   0.519 Lip20                                               
 2.23E+03  15%   7.751 MM20                                                
  225.008  52%   0.781 MM12                                                
 3.26E+03   6%  11.295+MM14                                                
 1.43E+03  19%   4.947+MM17                                                
  997.440  16%   3.460 Lip13a+Lip13b                                       
 4.48E+03   6%  15.536 MM14+Lip13a+Lip13b+MM12                             
 1.10E+03  15%   3.819 MM09+Lip09                                          
 2.38E+03  14%   8.270 MM20+Lip20                                          
   6 lines in following misc. output table
  FWHM = 0.076 ppm    S/N =  11                                            
  Data shift = 0.023 ppm                                                   
  Ph:-100 deg     -41.0 deg/ppm                                            
  alphaB,S = 5.3E-01,   3.6E+02                                            
   14 spline knots.   Ns =10(1)                                            
  (17) 2 infls.   ( 7) 1 extrs.                                            
  498 points on ppm-axis = NY
      4.000000     3.992357     3.984714     3.977070     3.969427     3.961784     3.954141     3.946497     3.938854     3.931211
      3.923568     3.915925     3.908281     3.900638     3.892995     3.885352     3.877708     3.870065     3.862422     3.854779
      3.847136     3.839492     3.831849     3.824206     3.816563     3.808919     3.801276     3.793633     3.785990     3.778347
      3.770703     3.763060     3.755417     3.747774     3.740130     3.732487     3.724844     3.717201     3.709558     3.701914
      3.694271     3.686628     3.678985     3.671341     3.663698     3.656055     3.648412     3.640769     3.633125     3.625482
      3.617839     3.610196     3.602552     3.594909     3.587266     3.579623     3.571980     3.564336     3.556693     3.549050
      3.541407     3.533763     3.526120     3.518477     3.510834     3.503191     3.495547     3.487904     3.480261     3.472618
      3.464974     3.457331     3.449688     3.442045     3.434402     3.426758     3.419115     3.411472     3.403829     3.396185
      3.388542     3.380899     3.373256     3.365613     3.357969     3.350326     3.342683     3.335040     3.327396     3.319753
      3.312110     3.304467     3.296824     3.289180     3.281537     3.273894     3.266251     3.258607     3.250964     3.243321
      3.235678     3.228034     3.220391     3.212748     3.205105     3.197462     3.189818     3.182175     3.174532     3.166889
      3.159245     3.151602     3.143959     3.136316     3.128673     3.121029     3.113386     3.105743     3.098100     3.090456
      3.082813     3.075170     3.067527     3.059884     3.052240     3.044597     3.036954     3.029311     3.021667     3.014024
      3.006381     2.998738     2.991095     2.983451     2.975808     2.968165     2.960522     2.952878     2.945235     2.937592
      2.929949     2.922306     2.914662     2.907019     2.899376     2.891733     2.884089     2.876446     2.868803     2.861160
      2.853517     2.845873     2.838230     2.830587     2.822944     2.815300     2.807657     2.800014     2.792371     2.784728
      2.777084     2.769441     2.761798     2.754155     2.746511     2.738868     2.731225     2.723582     2.715939     2.708295
      2.700652     2.693009     2.685366     2.677722     2.670079     2.662436     2.654793     2.647150     2.639506     2.631863
      2.624220     2.616577     2.608933     2.601290     2.593647     2.586004     2.578361     2.570717     2.563074     2.555431
      2.547788     2.540144     2.532501     2.524858     2.517215     2.509572     2.501928     2.494285     2.486642     2.478999
      2.471355     2.463712     2.456069     2.448426     2.440783     2.433139     2.425496     2.417853     2.410210     2.402566
      2.394923     2.387280     2.379637     2.371994     2.364350     2.356707     2.349064     2.341421     2.333777     2.326134
      2.318491     2.310848     2.303205     2.295561     2.287918     2.280275     2.272632     2.264988     2.257345     2.249702
      2.242059     2.234416     2.226772     2.219129     2.211486     2.203843     2.196199     2.188556     2.180913     2.173270
      2.165627     2.157983     2.150340     2.142697     2.135054     2.127410     2.119767     2.112124     2.104481     2.096838
      2.089194     2.081551     2.073908     2.066265     2.058621     2.050978     2.043335     2.035692     2.028049     2.020405
      2.012762     2.005119     1.997476     1.989833     1.982190     1.974546     1.966903     1.959260     1.951617     1.943974
      1.936331     1.928688     1.921045     1.913402     1.905759     1.898115     1.890472     1.882829     1.875186     1.867543
      1.859900     1.852257     1.844614     1.836971     1.829327     1.821684     1.814041     1.806398     1.798755     1.791112
      1.783469     1.775826     1.768183     1.760540     1.752896     1.745253     1.737610     1.729967     1.722324     1.714681
      1.707038     1.699395     1.691752     1.684108     1.676465     1.668822     1.661179     1.653536     1.645893     1.638250
      1.630607     1.622964     1.615321     1.607677     1.600034     1.592391     1.584748     1.577105     1.569462     1.561819
      1.554176     1.546533     1.538890     1.531246     1.523603     1.515960     1.508317     1.500674     1.493031     1.485388
      1.477745     1.470102     1.462458     1.454815     1.447172     1.439529     1.431886     1.424243     1.416600     1.408957
      1.401314     1.393671     1.386027     1.378384     1.370741     1.363098     1.355455     1.347812     1.340169     1.332526
      1.324883     1.317240     1.309596     1.301953     1.294310     1.286667     1.279024     1.271381     1.263738     1.256095
      1.248452     1.240808     1.233165     1.225522     1.217879     1.210236     1.202593     1.194950     1.187307     1.179664
      1.172021     1.164377     1.156734     1.149091     1.141448     1.133805     1.126162     1.118519     1.110876     1.103233
      1.095590     1.087946     1.080303     1.072660     1.065017     1.057374     1.049731     1.042088     1.034445     1.026802
      1.019158     1.011515     1.003872     0.996229     0.988586     0.980943     0.973300     0.965657     0.958014     0.950371
      0.942727     0.935084     0.927441     0.919798     0.912155     0.904512     0.896869     0.889226     0.881583     0.873940
      0.866296     0.858653     0.851010     0.843367     0.835724     0.828081     0.820438     0.812795     0.805152     0.797508
      0.789865     0.782222     0.774579     0.766936     0.759293     0.751650     0.744007     0.736364     0.728721     0.721077
      0.713434     0.705791     0.698148     0.690505     0.682862     0.675219     0.667576     0.659933     0.652290     0.644646
      0.637003     0.629360     0.621717     0.614074     0.606431     0.598788     0.591145     0.583502     0.575858     0.568215
      0.560572     0.552929     0.545286     0.537643     0.530000     0.522357     0.514714     0.507071     0.499427     0.491784
      0.484141     0.476498     0.468855     0.461212     0.453569     0.445925     0.438282     0.430639     0.422996     0.415353
      0.407710     0.400067     0.392424     0.384780     0.377137     0.369494     0.361851     0.354208     0.346565     0.338922
      0.331278     0.323635     0.315992     0.308349     0.300706     0.293063     0.285420     0.277777     0.270133     0.262490
      0.254847     0.247204     0.239561     0.231918     0.224275     0.216631     0.208988     0.201345
 NY phased data points follow
   6.95782E+00  6.09765E+00  9.14078E+00  8.71851E+00  8.79024E+00  7.83126E+00  1.05398E+01  7.75059E+00  4.67182E+00  8.69583E+00
   6.53881E+00  4.06158E+00  9.49578E+00  8.55233E+00  5.05402E+00  7.21099E+00  6.65434E+00  6.78812E+00  4.51698E+00  9.01423E+00
   9.14676E+00  1.24770E+01  8.00252E+00  8.20019E+00  1.05964E+01  6.27286E+00  1.01202E+01  9.24686E+00  5.43097E+00  8.27283E+00
   7.74732E+00  5.11721E+00  1.00900E+01  7.06413E+00  1.16621E+01  9.66733E+00  7.53984E+00  8.52305E+00  5.70501E+00  1.30193E+01
   7.45969E+00  8.07399E+00  6.83678E+00  7.03604E+00  7.50110E+00  5.93861E+00  3.65926E+00  6.52017E+00  8.37239E+00  6.16139E+00
   8.89014E+00  7.76871E+00  6.09773E+00  8.10741E+00  6.08228E+00  1.65458E+00  5.46077E+00  5.91639E+00  3.04919E+00  7.63240E+00
   8.04812E+00  6.01507E+00  7.85349E+00  4.65993E+00  4.90490E+00  7.31256E+00  7.62099E+00  7.58731E+00  4.65840E+00  6.56822E+00
   8.14162E+00  7.75579E+00  5.21661E+00  5.85308E+00  6.62557E+00  7.04623E+00  6.59829E+00  4.54257E+00  8.20766E+00  3.65724E+00
   6.21880E+00  6.82178E+00  2.41745E+00  7.33529E+00  7.58906E+00  6.63042E+00  7.39044E+00  7.36477E+00  7.54683E+00  6.48598E+00
   3.05608E+00  4.26593E+00  6.79714E+00  8.56370E+00  6.33296E+00  6.62954E+00  8.68539E+00  1.15091E+01  1.31502E+01  9.96972E+00
   1.23860E+01  8.48057E+00  2.98417E+00  3.61506E+00  1.04982E+01  5.57912E+00  5.85810E+00  7.51822E+00  6.85573E+00  8.40300E+00
   3.69903E+00  4.98612E+00  7.79307E+00  8.07544E+00  9.91591E+00  7.00335E+00  3.52120E+00  5.29937E+00  6.99584E+00  8.87377E+00
   9.61257E+00  9.31390E+00  1.54044E+01  1.38999E+01  1.51509E+01  1.07147E+01  1.10538E+01  1.20446E+01  9.87345E+00  7.13448E+00
   9.09528E+00  4.59296E+00  4.22252E+00  9.33408E-01  5.06940E+00  7.01537E+00  4.84971E+00  5.22726E+00  6.74935E+00  1.48084E+00
   4.79951E+00  8.21638E+00  6.19447E+00  3.57015E+00  2.78171E+00  1.80606E+00  1.95586E+00  3.96973E+00  2.06486E+00  1.14076E+00
   2.37265E+00  1.23728E+00  1.45024E+00  5.01302E+00  1.05279E+00  4.33216E+00  3.88406E+00  2.28927E+00  2.99499E+00  4.84588E+00
   4.50964E+00  4.81266E+00  1.02207E+00  2.96315E+00 -4.70442E-01  7.58941E-01  7.95020E-01 -1.47210E+00 -1.06198E+00 -1.96071E+00
  -3.07381E+00 -5.35407E-01 -5.84974E+00 -3.24100E+00 -4.22926E-01 -3.02428E+00 -3.47587E+00 -2.85200E+00 -2.24327E+00 -2.26453E+00
  -4.11159E+00  8.47752E-01 -2.34910E+00  3.10099E-01 -2.22783E+00 -2.08819E+00  5.18890E-01 -3.20492E-01  2.71269E+00  1.40576E+00
   6.47956E-01  7.13193E-01  1.69591E+00 -4.66590E-01 -2.40105E+00 -3.19823E+00 -6.02473E+00 -5.53536E+00 -4.06176E+00 -2.53188E+00
   9.65378E-01 -3.47608E+00  1.89800E+00  1.46948E+00  7.24417E+00  1.79710E+00  5.05238E+00  1.72321E+00  2.83500E+00  2.09405E+00
   3.50588E+00  3.95318E+00  8.86341E+00  9.16408E+00  1.23815E+01  1.05504E+01  9.52296E+00  1.10936E+01  8.04157E+00  3.83633E+00
   4.28039E+00  4.41521E-01  1.96421E+00  8.80654E-02  3.40196E+00  8.26838E+00  3.20843E+00  7.93925E+00  4.81703E+00  7.91737E+00
   8.13079E+00  9.49835E+00  6.89566E+00  8.37565E+00  9.62326E+00  9.70451E+00  6.89548E+00  9.40303E+00  6.66483E+00  5.06946E+00
   4.72791E+00  6.77472E+00  7.71208E+00  8.01095E+00  9.67409E+00  6.41294E+00  1.29844E+01  1.47648E+01  1.19971E+01  1.14112E+01
   1.25631E+01  1.66593E+01  1.72032E+01  2.09264E+01  2.34589E+01  3.13682E+01  4.45239E+01  5.56870E+01  6.75887E+01  7.41877E+01
   7.49862E+01  6.97318E+01  7.03184E+01  5.92339E+01  5.19238E+01  4.12625E+01  3.77611E+01  2.97332E+01  2.17496E+01  1.90195E+01
   1.59842E+01  1.04895E+01  1.30670E+01  1.01076E+01  8.60107E+00  7.03807E+00  5.48737E+00  6.58464E+00  8.34652E+00  6.43274E+00
   1.47778E+00  3.35302E+00  6.75342E+00  4.24406E+00  5.48823E+00  2.48463E+00  7.57326E+00  4.22147E+00  8.49164E+00  4.76896E+00
   5.20175E+00  6.66987E+00  5.37391E+00  3.25556E+00  8.16684E+00  5.04514E+00  5.59039E+00  3.40729E+00  2.70649E+00  8.33842E+00
   3.21177E+00  5.73870E+00  5.35114E+00  8.16689E+00  6.58235E+00  9.50416E+00  7.03992E+00  9.94789E+00  8.33075E+00  1.31942E+01
   1.39564E+01  1.71121E+01  1.36858E+01  1.50514E+01  1.29484E+01  9.07254E+00  1.68610E+01  1.50881E+01  1.73975E+01  1.47941E+01
   1.32490E+01  1.87505E+01  1.39696E+01  1.56446E+01  2.00330E+01  2.10785E+01  1.96260E+01  2.02727E+01  2.07605E+01  2.37051E+01
   2.39979E+01  2.61838E+01  2.27622E+01  2.50010E+01  2.72819E+01  2.46205E+01  2.43255E+01  2.64686E+01  2.33259E+01  2.51048E+01
   2.74425E+01  2.53699E+01  1.99655E+01  2.25280E+01  2.24636E+01  2.60904E+01  1.90015E+01  2.30769E+01  1.97595E+01  2.06655E+01
   1.78436E+01  1.94672E+01  1.36800E+01  1.75424E+01  1.18853E+01  1.17519E+01  8.60315E+00  9.39061E+00  3.79506E+00  5.50235E+00
   5.16488E+00  9.55134E-01 -1.75831E+00  9.68139E-01 -1.61859E+00  2.03706E+00  2.73861E+00  1.88600E+00  1.14255E+00  9.66777E-01
  -8.97730E-01  5.57498E-01  2.46168E+00 -2.15865E-01  5.05197E-01 -1.37394E+00  4.40823E-01 -3.91414E+00 -1.91751E+00 -1.00713E+00
  -6.50588E+00 -3.44592E+00 -5.93027E+00 -3.31108E+00 -1.14534E+01 -9.81964E+00 -4.56690E+00 -8.25218E+00 -6.32880E+00 -9.17527E+00
  -6.48594E+00 -1.73778E+00 -7.62657E+00 -7.93944E+00 -1.98960E+00 -3.52856E+00 -1.36240E+00 -3.77099E+00 -3.73799E+00 -2.64893E+00
  -1.13834E+00 -4.33019E+00 -1.03390E+00 -5.62328E+00  2.42712E+00 -1.40126E+00 -2.62114E+00  5.94215E+00  1.67313E+00  4.62832E+00
   7.04592E+00  4.17798E+00  5.19920E+00  2.46090E+00  3.29187E+00  5.08211E+00  5.32921E+00  4.14221E+00  1.64373E+00  5.72900E+00
   5.22152E+00  4.38225E+00  5.42310E+00  4.88658E+00  3.56848E+00  1.20518E-02 -1.01336E+00  2.28921E-02  3.05607E-01  4.62724E-01
   2.81518E-02 -2.70331E+00 -3.38038E+00  1.66736E+00 -6.58975E-01 -4.31249E+00 -2.24432E+00 -4.45404E+00 -3.28174E+00  2.26298E+00
  -2.76203E+00 -3.96803E+00  1.68079E+00 -1.71495E+00 -7.34345E-02 -2.40944E+00 -1.75226E+00 -2.64285E+00 -5.10631E+00 -2.44169E+00
  -8.51582E-01 -1.93500E+00 -2.57394E+00  6.40509E-01  7.15014E-01  2.51643E+00 -2.60169E+00 -5.41854E-01 -1.36491E+00 -1.08594E+00
  -3.41915E+00 -1.85904E+00 -2.65370E-01 -1.66628E-01  9.01746E-01 -9.48297E-02  6.26122E-01 -2.11052E+00 -1.32437E+00 -2.68272E-01
   3.78045E+00 -1.20131E+00  7.59192E-01 -1.19570E+00  1.52535E+00 -1.56142E+00  3.76756E-01 -1.66158E+00 -1.54114E+00  8.37781E-01
  -1.75002E+00  5.19476E-01  2.83744E+00  2.23032E-01 -9.42827E-01 -8.50485E-02  7.87995E-01 -7.28865E-02  9.38329E-03 -5.43566E-01
  -2.37567E+00  4.09492E-02 -1.32993E-01  1.58752E-01  1.22415E+00 -1.73349E-01  1.80308E+00  2.49691E+00
 NY points of the fit to the data follow
   7.22790E+00  7.49546E+00  7.82820E+00  8.18198E+00  8.47601E+00  8.63328E+00  8.62703E+00  8.48333E+00  8.25515E+00  7.99006E+00
   7.71946E+00  7.48280E+00  7.30816E+00  7.19645E+00  7.14148E+00  7.15254E+00  7.23141E+00  7.37681E+00  7.58779E+00  7.86483E+00
   8.17752E+00  8.36635E+00  8.36815E+00  8.20085E+00  7.91567E+00  7.62840E+00  7.47945E+00  7.59558E+00  8.02244E+00  8.68039E+00
   9.38794E+00  9.93487E+00  1.01408E+01  9.93651E+00  9.38690E+00  8.65862E+00  7.95248E+00  7.42754E+00  7.14243E+00  7.07380E+00
   7.12027E+00  7.17577E+00  7.19514E+00  7.15157E+00  7.07687E+00  7.01893E+00  6.99460E+00  6.99940E+00  6.98494E+00  6.92113E+00
   6.79711E+00  6.62517E+00  6.44249E+00  6.28727E+00  6.16121E+00  6.06125E+00  5.98663E+00  5.93975E+00  5.91887E+00  5.92346E+00
   5.94980E+00  5.99325E+00  6.04540E+00  6.09094E+00  6.11322E+00  6.11251E+00  6.10075E+00  6.08756E+00  6.09100E+00  6.13216E+00
   6.21837E+00  6.33456E+00  6.44696E+00  6.51078E+00  6.49017E+00  6.38303E+00  6.23017E+00  6.08485E+00  5.98976E+00  5.97786E+00
   6.06330E+00  6.24139E+00  6.46976E+00  6.69196E+00  6.85341E+00  6.91449E+00  6.86700E+00  6.73769E+00  6.54571E+00  6.29509E+00
   6.00591E+00  5.72369E+00  5.52128E+00  5.47040E+00  5.59344E+00  5.88475E+00  6.32127E+00  6.86904E+00  7.47987E+00  8.05941E+00
   8.50006E+00  8.73936E+00  8.77161E+00  8.63358E+00  8.36905E+00  8.00949E+00  7.59089E+00  7.15326E+00  6.72354E+00  6.32320E+00
   5.97826E+00  5.69193E+00  5.43730E+00  5.22371E+00  5.09881E+00  5.09939E+00  5.24212E+00  5.53350E+00  6.00187E+00  6.70301E+00
   7.66751E+00  8.83084E+00  1.00374E+01  1.10889E+01  1.18115E+01  1.21136E+01  1.20011E+01  1.15411E+01  1.08273E+01  9.97406E+00
   9.08864E+00  8.24094E+00  7.46237E+00  6.76556E+00  6.14536E+00  5.58392E+00  5.09277E+00  4.74028E+00  4.56703E+00  4.47072E+00
   4.39410E+00  4.32262E+00  4.24820E+00  4.16506E+00  4.07136E+00  3.96984E+00  3.86327E+00  3.75182E+00  3.63842E+00  3.52726E+00
   3.42054E+00  3.31062E+00  3.18592E+00  3.04132E+00  2.86282E+00  2.63996E+00  2.37112E+00  2.07012E+00  1.78601E+00  1.57331E+00
   1.46040E+00  1.43280E+00  1.44067E+00  1.42778E+00  1.35240E+00  1.19294E+00  9.41556E-01  6.01325E-01  2.06555E-01 -2.11232E-01
  -6.31790E-01 -1.04046E+00 -1.41986E+00 -1.74567E+00 -1.99392E+00 -2.14322E+00 -2.20279E+00 -2.19034E+00 -2.13384E+00 -2.04604E+00
  -1.92926E+00 -1.79054E+00 -1.61942E+00 -1.37988E+00 -1.03172E+00 -5.53506E-01  3.68788E-02  6.84264E-01  1.30519E+00  1.83955E+00
   2.30018E+00  2.69033E+00  3.00160E+00  3.22732E+00  3.40470E+00  3.61410E+00  3.91601E+00  4.34664E+00  4.88920E+00  5.48295E+00
   6.02493E+00  6.41957E+00  6.53695E+00  6.23600E+00  5.45555E+00  4.27807E+00  2.91386E+00  1.66112E+00  7.72468E-01  4.79834E-01
   9.00379E-01  1.97679E+00  3.47241E+00  4.99157E+00  6.12610E+00  6.58812E+00  6.25848E+00  5.18344E+00  3.58939E+00  1.85273E+00
   3.92115E-01 -4.69501E-01 -6.33789E-01 -1.22308E-01  9.18941E-01  2.20687E+00  3.48136E+00  4.61495E+00  5.58012E+00  6.38118E+00
   6.95840E+00  7.36983E+00  7.72135E+00  8.06612E+00  8.38175E+00  8.61850E+00  8.78736E+00  8.90579E+00  8.93635E+00  8.86678E+00
   8.74370E+00  8.63137E+00  8.59143E+00  8.65418E+00  8.82056E+00  9.08789E+00  9.43655E+00  9.82571E+00  1.02420E+01  1.07675E+01
   1.17331E+01  1.37043E+01  1.68020E+01  2.12664E+01  2.75557E+01  3.58802E+01  4.57733E+01  5.59855E+01  6.48274E+01  7.07692E+01
   7.30086E+01  7.15901E+01  6.70803E+01  6.03083E+01  5.23315E+01  4.41924E+01  3.65954E+01  2.98505E+01  2.40453E+01  1.90553E+01
   1.46272E+01  1.07698E+01  8.07005E+00  6.90666E+00  6.39321E+00  6.03190E+00  5.72359E+00  5.43558E+00  5.14120E+00  4.85010E+00
   4.57758E+00  4.32808E+00  4.10395E+00  3.90449E+00  3.72426E+00  3.56361E+00  3.43195E+00  3.33520E+00  3.27275E+00  3.24476E+00
   3.25366E+00  3.30291E+00  3.39475E+00  3.52960E+00  3.71111E+00  3.94377E+00  4.22972E+00  4.56992E+00  4.96394E+00  5.40935E+00
   5.90118E+00  6.43212E+00  6.99333E+00  7.57428E+00  8.16286E+00  8.74652E+00  9.31279E+00  9.85031E+00  1.03497E+01  1.08045E+01
   1.12121E+01  1.15740E+01  1.18967E+01  1.21916E+01  1.24754E+01  1.27703E+01  1.31056E+01  1.35189E+01  1.40291E+01  1.46426E+01
   1.53708E+01  1.62051E+01  1.71004E+01  1.79810E+01  1.87677E+01  1.94239E+01  1.99645E+01  2.04233E+01  2.08548E+01  2.13241E+01
   2.18895E+01  2.25725E+01  2.33332E+01  2.40778E+01  2.46942E+01  2.50920E+01  2.52277E+01  2.51232E+01  2.48407E+01  2.44427E+01
   2.39874E+01  2.35325E+01  2.31214E+01  2.27296E+01  2.22805E+01  2.17164E+01  2.10278E+01  2.02503E+01  1.94331E+01  1.85861E+01
   1.77224E+01  1.68384E+01  1.58872E+01  1.47899E+01  1.34815E+01  1.19543E+01  1.02599E+01  8.49231E+00  6.77945E+00  5.25219E+00
   3.95374E+00  2.84865E+00  1.94112E+00  1.22031E+00  6.44731E-01  1.56317E-01 -2.77669E-01 -6.21391E-01 -8.56755E-01 -1.03080E+00
  -1.17146E+00 -1.29196E+00 -1.39928E+00 -1.49708E+00 -1.58725E+00 -1.67056E+00 -1.74722E+00 -1.81707E+00 -1.87977E+00 -1.93484E+00
  -1.98176E+00 -2.01992E+00 -2.04872E+00 -2.06749E+00 -2.07556E+00 -2.07212E+00 -2.05634E+00 -2.02720E+00 -1.98358E+00 -1.92423E+00
  -1.84772E+00 -1.75248E+00 -1.63679E+00 -1.49880E+00 -1.33664E+00 -1.14844E+00 -9.32524E-01 -6.87404E-01 -4.12053E-01 -1.06009E-01
   2.30356E-01  5.95713E-01  9.87551E-01  1.40210E+00  1.83418E+00  2.27721E+00  2.72322E+00  3.16307E+00  3.58667E+00  3.98336E+00
   4.34235E+00  4.65322E+00  4.90642E+00  5.09384E+00  5.20922E+00  5.24859E+00  5.21046E+00  5.09593E+00  4.90862E+00  4.65456E+00
   4.34175E+00  3.97981E+00  3.57935E+00  3.15155E+00  2.70748E+00  2.25778E+00  1.81211E+00  1.37893E+00  9.65227E-01  5.76455E-01
   2.16503E-01 -1.12153E-01 -4.08373E-01 -6.72111E-01 -9.04270E-01 -1.10641E+00 -1.28058E+00 -1.42910E+00 -1.55446E+00 -1.65911E+00
  -1.74550E+00 -1.81587E+00 -1.87230E+00 -1.91661E+00 -1.95046E+00 -1.97527E+00 -1.99231E+00 -2.00261E+00 -2.00709E+00 -2.00649E+00
  -2.00147E+00 -1.99258E+00 -1.98031E+00 -1.96503E+00 -1.94708E+00 -1.92671E+00 -1.90420E+00 -1.87974E+00 -1.85353E+00 -1.82571E+00
  -1.79642E+00 -1.76577E+00 -1.73388E+00 -1.70085E+00 -1.66679E+00 -1.63173E+00 -1.59577E+00 -1.55895E+00 -1.52136E+00 -1.48304E+00
  -1.44404E+00 -1.40440E+00 -1.36415E+00 -1.32334E+00 -1.28202E+00 -1.24021E+00 -1.19795E+00 -1.15525E+00 -1.11216E+00 -1.06868E+00
  -1.02488E+00 -9.80756E-01 -9.36333E-01 -8.91616E-01 -8.46646E-01 -8.01436E-01 -7.56022E-01 -7.10400E-01 -6.64594E-01 -6.18604E-01
  -5.72469E-01 -5.26195E-01 -4.79808E-01 -4.33297E-01 -3.86683E-01 -3.39964E-01 -2.93174E-01 -2.46306E-01
 NY background values follow
     6.354E+00    6.331E+00    6.309E+00    6.287E+00    6.265E+00    6.242E+00    6.220E+00    6.198E+00    6.176E+00    6.153E+00
     6.131E+00    6.109E+00    6.086E+00    6.064E+00    6.042E+00    6.020E+00    5.997E+00    5.975E+00    5.952E+00    5.930E+00
     5.908E+00    5.885E+00    5.863E+00    5.840E+00    5.818E+00    5.795E+00    5.773E+00    5.750E+00    5.727E+00    5.705E+00
     5.682E+00    5.659E+00    5.636E+00    5.614E+00    5.591E+00    5.568E+00    5.545E+00    5.522E+00    5.499E+00    5.476E+00
     5.452E+00    5.429E+00    5.406E+00    5.383E+00    5.359E+00    5.336E+00    5.312E+00    5.289E+00    5.265E+00    5.241E+00
     5.218E+00    5.194E+00    5.170E+00    5.146E+00    5.122E+00    5.098E+00    5.074E+00    5.049E+00    5.025E+00    5.001E+00
     4.976E+00    4.951E+00    4.927E+00    4.902E+00    4.877E+00    4.852E+00    4.827E+00    4.802E+00    4.777E+00    4.751E+00
     4.726E+00    4.700E+00    4.674E+00    4.649E+00    4.623E+00    4.597E+00    4.571E+00    4.545E+00    4.518E+00    4.492E+00
     4.465E+00    4.439E+00    4.412E+00    4.385E+00    4.358E+00    4.331E+00    4.303E+00    4.276E+00    4.248E+00    4.221E+00
     4.193E+00    4.165E+00    4.137E+00    4.108E+00    4.080E+00    4.052E+00    4.023E+00    3.994E+00    3.966E+00    3.937E+00
     3.908E+00    3.879E+00    3.850E+00    3.820E+00    3.791E+00    3.762E+00    3.733E+00    3.703E+00    3.674E+00    3.644E+00
     3.615E+00    3.585E+00    3.556E+00    3.526E+00    3.497E+00    3.467E+00    3.438E+00    3.408E+00    3.379E+00    3.349E+00
     3.320E+00    3.290E+00    3.261E+00    3.232E+00    3.202E+00    3.173E+00    3.144E+00    3.115E+00    3.086E+00    3.057E+00
     3.028E+00    2.999E+00    2.971E+00    2.942E+00    2.914E+00    2.885E+00    2.857E+00    2.829E+00    2.801E+00    2.774E+00
     2.746E+00    2.719E+00    2.691E+00    2.664E+00    2.637E+00    2.611E+00    2.584E+00    2.558E+00    2.532E+00    2.506E+00
     2.481E+00    2.455E+00    2.430E+00    2.405E+00    2.381E+00    2.357E+00    2.333E+00    2.309E+00    2.286E+00    2.263E+00
     2.240E+00    2.218E+00    2.196E+00    2.174E+00    2.153E+00    2.132E+00    2.112E+00    2.092E+00    2.072E+00    2.053E+00
     2.034E+00    2.015E+00    1.997E+00    1.979E+00    1.962E+00    1.946E+00    1.929E+00    1.914E+00    1.898E+00    1.883E+00
     1.869E+00    1.855E+00    1.842E+00    1.829E+00    1.817E+00    1.805E+00    1.794E+00    1.783E+00    1.772E+00    1.762E+00
     1.752E+00    1.743E+00    1.734E+00    1.725E+00    1.716E+00    1.708E+00    1.700E+00    1.693E+00    1.686E+00    1.678E+00
     1.672E+00    1.665E+00    1.658E+00    1.652E+00    1.646E+00    1.640E+00    1.634E+00    1.628E+00    1.622E+00    1.617E+00
     1.611E+00    1.605E+00    1.600E+00    1.594E+00    1.589E+00    1.583E+00    1.578E+00    1.572E+00    1.566E+00    1.560E+00
     1.554E+00    1.548E+00    1.542E+00    1.536E+00    1.529E+00    1.522E+00    1.515E+00    1.508E+00    1.501E+00    1.493E+00
     1.485E+00    1.477E+00    1.469E+00    1.460E+00    1.451E+00    1.442E+00    1.433E+00    1.423E+00    1.413E+00    1.402E+00
     1.391E+00    1.380E+00    1.369E+00    1.357E+00    1.345E+00    1.333E+00    1.320E+00    1.306E+00    1.293E+00    1.279E+00
     1.264E+00    1.250E+00    1.234E+00    1.219E+00    1.202E+00    1.186E+00    1.169E+00    1.151E+00    1.133E+00    1.115E+00
     1.096E+00    1.077E+00    1.057E+00    1.036E+00    1.016E+00    9.941E-01    9.721E-01    9.496E-01    9.266E-01    9.029E-01
     8.788E-01    8.540E-01    8.287E-01    8.028E-01    7.763E-01    7.493E-01    7.217E-01    6.935E-01    6.648E-01    6.355E-01
     6.057E-01    5.754E-01    5.445E-01    5.131E-01    4.812E-01    4.488E-01    4.158E-01    3.824E-01    3.484E-01    3.139E-01
     2.789E-01    2.435E-01    2.075E-01    1.711E-01    1.342E-01    9.684E-02    5.900E-02    2.069E-02   -1.807E-02   -5.729E-02
    -9.695E-02   -1.371E-01   -1.776E-01   -2.186E-01   -2.600E-01   -3.018E-01   -3.441E-01   -3.868E-01   -4.299E-01   -4.733E-01
    -5.172E-01   -5.615E-01   -6.062E-01   -6.513E-01   -6.967E-01   -7.426E-01   -7.888E-01   -8.353E-01   -8.823E-01   -9.295E-01
    -9.771E-01   -1.025E+00   -1.073E+00   -1.121E+00   -1.170E+00   -1.219E+00   -1.268E+00   -1.317E+00   -1.366E+00   -1.415E+00
    -1.465E+00   -1.514E+00   -1.564E+00   -1.613E+00   -1.663E+00   -1.712E+00   -1.761E+00   -1.811E+00   -1.860E+00   -1.909E+00
    -1.958E+00   -2.007E+00   -2.056E+00   -2.104E+00   -2.152E+00   -2.200E+00   -2.248E+00   -2.295E+00   -2.342E+00   -2.389E+00
    -2.435E+00   -2.481E+00   -2.527E+00   -2.572E+00   -2.617E+00   -2.661E+00   -2.705E+00   -2.748E+00   -2.791E+00   -2.833E+00
    -2.874E+00   -2.915E+00   -2.955E+00   -2.995E+00   -3.034E+00   -3.072E+00   -3.110E+00   -3.147E+00   -3.183E+00   -3.218E+00
    -3.253E+00   -3.286E+00   -3.320E+00   -3.352E+00   -3.383E+00   -3.414E+00   -3.444E+00   -3.472E+00   -3.500E+00   -3.528E+00
    -3.554E+00   -3.579E+00   -3.603E+00   -3.627E+00   -3.649E+00   -3.670E+00   -3.691E+00   -3.710E+00   -3.728E+00   -3.746E+00
    -3.762E+00   -3.777E+00   -3.791E+00   -3.804E+00   -3.816E+00   -3.826E+00   -3.836E+00   -3.844E+00   -3.851E+00   -3.857E+00
    -3.862E+00   -3.865E+00   -3.867E+00   -3.868E+00   -3.868E+00   -3.866E+00   -3.863E+00   -3.859E+00   -3.853E+00   -3.847E+00
    -3.838E+00   -3.829E+00   -3.818E+00   -3.806E+00   -3.793E+00   -3.779E+00   -3.763E+00   -3.746E+00   -3.729E+00   -3.710E+00
    -3.690E+00   -3.669E+00   -3.647E+00   -3.624E+00   -3.600E+00   -3.575E+00   -3.549E+00   -3.522E+00   -3.494E+00   -3.465E+00
    -3.436E+00   -3.406E+00   -3.374E+00   -3.343E+00   -3.310E+00   -3.276E+00   -3.242E+00   -3.207E+00   -3.172E+00   -3.135E+00
    -3.098E+00   -3.061E+00   -3.023E+00   -2.984E+00   -2.945E+00   -2.905E+00   -2.864E+00   -2.823E+00   -2.782E+00   -2.740E+00
    -2.698E+00   -2.656E+00   -2.612E+00   -2.569E+00   -2.525E+00   -2.481E+00   -2.437E+00   -2.392E+00   -2.347E+00   -2.302E+00
    -2.256E+00   -2.210E+00   -2.164E+00   -2.117E+00   -2.070E+00   -2.023E+00   -1.976E+00   -1.929E+00   -1.881E+00   -1.833E+00
    -1.785E+00   -1.736E+00   -1.688E+00   -1.639E+00   -1.590E+00   -1.541E+00   -1.492E+00   -1.443E+00   -1.394E+00   -1.344E+00
    -1.295E+00   -1.245E+00   -1.195E+00   -1.145E+00   -1.095E+00   -1.046E+00   -9.955E-01   -9.455E-01   -8.955E-01   -8.455E-01
    -7.954E-01   -7.454E-01   -6.954E-01   -6.454E-01   -5.955E-01   -5.456E-01   -4.958E-01   -4.461E-01
 Ala      Conc. = 2.40E+02
