 LCModel (Version 6.3-1L) Copyright: S.W. Provencher.          Ref.: Magn. Reson. Med. 30:672-679 (1993).                
 Slice#3 Row#12 Col#6  K_02_press_1_raw_act
 36 lines in following concentration table = NCONC+1
    Conc.  %SD /Cr+PCr  Metabolite                                         
  313.251  62%   0.170 Ala                                                 
    0.000 999%   0.000 Asp                                                 
 1.20E+03  27%   0.651 Cr                                                  
  642.022  50%   0.349 PCr                                                 
  134.570 163% 7.3E-02 GABA                                                
    0.000 999%   0.000 Glc                                                 
 3.58E+03  20%   1.949 Gln                                                 
 3.65E+03  23%   1.986 Glu                                                 
  725.693   4%   0.395 GPC                                                 
    0.000 999%   0.000 PCh                                                 
  945.746  12%   0.515 GSH                                                 
 3.90E+03  13%   2.122 Ins                                                 
    0.000 999%   0.000 Lac                                                 
 2.49E+03   3%   1.353 NAA                                                 
    0.000 999%   0.000 NAAG                                                
  353.121  12%   0.192+Scyllo                                              
    0.000 999%   0.000 Tau                                                 
    0.000 999%   0.000 -CrCH2                                              
  725.693   4%   0.395 GPC+PCh                                             
 2.49E+03   3%   1.353 NAA+NAAG                                            
 1.84E+03   4%   1.000 Cr+PCr                                              
 7.23E+03  20%   3.935 Glu+Gln                                             
  239.237 147%   0.130 Lip13a                                              
    0.000 999%   0.000 Lip13b                                              
   64.597 175% 3.5E-02 Lip09                                               
  676.054  29%   0.368 MM09                                                
   38.879 176% 2.1E-02 Lip20                                               
  920.374  42%   0.501 MM20                                                
  214.018  58%   0.116 MM12                                                
  626.224  42%   0.341 MM14                                                
   80.122 264% 4.4E-02 MM17                                                
  239.237 147%   0.130 Lip13a+Lip13b                                       
 1.08E+03  39%   0.587 MM14+Lip13a+Lip13b+MM12                             
  740.651  24%   0.403 MM09+Lip09                                          
  959.254  39%   0.522 MM20+Lip20                                          
   6 lines in following misc. output table
  FWHM = 0.107 ppm    S/N =  10                                            
  Data shift = 0.069 ppm                                                   
  Ph: -53 deg     -25.5 deg/ppm                                            
  alphaB,S = 4.3E-01,   1.9E+02                                            
   14 spline knots.   Ns = 6(2)                                            
  ( 5) 2 infls.   ( 1) 1 extrs.                                            
  498 points on ppm-axis = NY
      4.000000     3.992357     3.984714     3.977070     3.969427     3.961784     3.954141     3.946497     3.938854     3.931211
      3.923568     3.915925     3.908281     3.900638     3.892995     3.885352     3.877708     3.870065     3.862422     3.854779
      3.847136     3.839492     3.831849     3.824206     3.816563     3.808919     3.801276     3.793633     3.785990     3.778347
      3.770703     3.763060     3.755417     3.747774     3.740130     3.732487     3.724844     3.717201     3.709558     3.701914
      3.694271     3.686628     3.678985     3.671341     3.663698     3.656055     3.648412     3.640769     3.633125     3.625482
      3.617839     3.610196     3.602552     3.594909     3.587266     3.579623     3.571980     3.564336     3.556693     3.549050
      3.541407     3.533763     3.526120     3.518477     3.510834     3.503191     3.495547     3.487904     3.480261     3.472618
      3.464974     3.457331     3.449688     3.442045     3.434402     3.426758     3.419115     3.411472     3.403829     3.396185
      3.388542     3.380899     3.373256     3.365613     3.357969     3.350326     3.342683     3.335040     3.327396     3.319753
      3.312110     3.304467     3.296824     3.289180     3.281537     3.273894     3.266251     3.258607     3.250964     3.243321
      3.235678     3.228034     3.220391     3.212748     3.205105     3.197462     3.189818     3.182175     3.174532     3.166889
      3.159245     3.151602     3.143959     3.136316     3.128673     3.121029     3.113386     3.105743     3.098100     3.090456
      3.082813     3.075170     3.067527     3.059884     3.052240     3.044597     3.036954     3.029311     3.021667     3.014024
      3.006381     2.998738     2.991095     2.983451     2.975808     2.968165     2.960522     2.952878     2.945235     2.937592
      2.929949     2.922306     2.914662     2.907019     2.899376     2.891733     2.884089     2.876446     2.868803     2.861160
      2.853517     2.845873     2.838230     2.830587     2.822944     2.815300     2.807657     2.800014     2.792371     2.784728
      2.777084     2.769441     2.761798     2.754155     2.746511     2.738868     2.731225     2.723582     2.715939     2.708295
      2.700652     2.693009     2.685366     2.677722     2.670079     2.662436     2.654793     2.647150     2.639506     2.631863
      2.624220     2.616577     2.608933     2.601290     2.593647     2.586004     2.578361     2.570717     2.563074     2.555431
      2.547788     2.540144     2.532501     2.524858     2.517215     2.509572     2.501928     2.494285     2.486642     2.478999
      2.471355     2.463712     2.456069     2.448426     2.440783     2.433139     2.425496     2.417853     2.410210     2.402566
      2.394923     2.387280     2.379637     2.371994     2.364350     2.356707     2.349064     2.341421     2.333777     2.326134
      2.318491     2.310848     2.303205     2.295561     2.287918     2.280275     2.272632     2.264988     2.257345     2.249702
      2.242059     2.234416     2.226772     2.219129     2.211486     2.203843     2.196199     2.188556     2.180913     2.173270
      2.165627     2.157983     2.150340     2.142697     2.135054     2.127410     2.119767     2.112124     2.104481     2.096838
      2.089194     2.081551     2.073908     2.066265     2.058621     2.050978     2.043335     2.035692     2.028049     2.020405
      2.012762     2.005119     1.997476     1.989833     1.982190     1.974546     1.966903     1.959260     1.951617     1.943974
      1.936331     1.928688     1.921045     1.913402     1.905759     1.898115     1.890472     1.882829     1.875186     1.867543
      1.859900     1.852257     1.844614     1.836971     1.829327     1.821684     1.814041     1.806398     1.798755     1.791112
      1.783469     1.775826     1.768183     1.760540     1.752896     1.745253     1.737610     1.729967     1.722324     1.714681
      1.707038     1.699395     1.691752     1.684108     1.676465     1.668822     1.661179     1.653536     1.645893     1.638250
      1.630607     1.622964     1.615321     1.607677     1.600034     1.592391     1.584748     1.577105     1.569462     1.561819
      1.554176     1.546533     1.538890     1.531246     1.523603     1.515960     1.508317     1.500674     1.493031     1.485388
      1.477745     1.470102     1.462458     1.454815     1.447172     1.439529     1.431886     1.424243     1.416600     1.408957
      1.401314     1.393671     1.386027     1.378384     1.370741     1.363098     1.355455     1.347812     1.340169     1.332526
      1.324883     1.317240     1.309596     1.301953     1.294310     1.286667     1.279024     1.271381     1.263738     1.256095
      1.248452     1.240808     1.233165     1.225522     1.217879     1.210236     1.202593     1.194950     1.187307     1.179664
      1.172021     1.164377     1.156734     1.149091     1.141448     1.133805     1.126162     1.118519     1.110876     1.103233
      1.095590     1.087946     1.080303     1.072660     1.065017     1.057374     1.049731     1.042088     1.034445     1.026802
      1.019158     1.011515     1.003872     0.996229     0.988586     0.980943     0.973300     0.965657     0.958014     0.950371
      0.942727     0.935084     0.927441     0.919798     0.912155     0.904512     0.896869     0.889226     0.881583     0.873940
      0.866296     0.858653     0.851010     0.843367     0.835724     0.828081     0.820438     0.812795     0.805152     0.797508
      0.789865     0.782222     0.774579     0.766936     0.759293     0.751650     0.744007     0.736364     0.728721     0.721077
      0.713434     0.705791     0.698148     0.690505     0.682862     0.675219     0.667576     0.659933     0.652290     0.644646
      0.637003     0.629360     0.621717     0.614074     0.606431     0.598788     0.591145     0.583502     0.575858     0.568215
      0.560572     0.552929     0.545286     0.537643     0.530000     0.522357     0.514714     0.507071     0.499427     0.491784
      0.484141     0.476498     0.468855     0.461212     0.453569     0.445925     0.438282     0.430639     0.422996     0.415353
      0.407710     0.400067     0.392424     0.384780     0.377137     0.369494     0.361851     0.354208     0.346565     0.338922
      0.331278     0.323635     0.315992     0.308349     0.300706     0.293063     0.285420     0.277777     0.270133     0.262490
      0.254847     0.247204     0.239561     0.231918     0.224275     0.216631     0.208988     0.201345
 NY phased data points follow
  -2.99319E+02 -2.94959E+02 -2.90355E+02 -2.78705E+02 -2.75759E+02 -2.68291E+02 -2.62137E+02 -2.54388E+02 -2.52976E+02 -2.49014E+02
  -2.46997E+02 -2.45609E+02 -2.44688E+02 -2.40904E+02 -2.39279E+02 -2.43088E+02 -2.38999E+02 -2.37335E+02 -2.39721E+02 -2.34692E+02
  -2.33414E+02 -2.29904E+02 -2.28249E+02 -2.24933E+02 -2.21268E+02 -2.15653E+02 -2.15822E+02 -2.12811E+02 -2.09175E+02 -2.05352E+02
  -2.00441E+02 -1.98930E+02 -1.95168E+02 -1.95876E+02 -1.88255E+02 -1.88786E+02 -1.84789E+02 -1.81515E+02 -1.78137E+02 -1.78529E+02
  -1.73760E+02 -1.70305E+02 -1.70887E+02 -1.65902E+02 -1.70368E+02 -1.63142E+02 -1.64469E+02 -1.61341E+02 -1.60083E+02 -1.57011E+02
  -1.53857E+02 -1.55941E+02 -1.54438E+02 -1.53531E+02 -1.53848E+02 -1.49314E+02 -1.51060E+02 -1.51529E+02 -1.49382E+02 -1.46401E+02
  -1.48107E+02 -1.47265E+02 -1.42908E+02 -1.44364E+02 -1.44425E+02 -1.42610E+02 -1.41955E+02 -1.39376E+02 -1.33859E+02 -1.34670E+02
  -1.33516E+02 -1.32248E+02 -1.30485E+02 -1.29454E+02 -1.26566E+02 -1.26042E+02 -1.24770E+02 -1.22829E+02 -1.20497E+02 -1.20653E+02
  -1.20972E+02 -1.16443E+02 -1.17817E+02 -1.13949E+02 -1.13557E+02 -1.07464E+02 -1.09369E+02 -1.03181E+02 -1.04528E+02 -1.03219E+02
  -1.01982E+02 -9.75485E+01 -9.81200E+01 -9.61622E+01 -8.99329E+01 -8.78965E+01 -8.26339E+01 -7.96474E+01 -7.46824E+01 -7.08064E+01
  -7.01896E+01 -7.01968E+01 -6.42705E+01 -6.53766E+01 -6.24362E+01 -6.56809E+01 -6.56108E+01 -6.80417E+01 -6.98114E+01 -6.91910E+01
  -7.51025E+01 -7.34750E+01 -7.54811E+01 -7.30700E+01 -7.33797E+01 -7.37202E+01 -7.17890E+01 -6.94496E+01 -6.84541E+01 -6.44277E+01
  -6.27829E+01 -5.63151E+01 -5.06149E+01 -5.09675E+01 -4.67020E+01 -4.43938E+01 -4.27913E+01 -4.20045E+01 -3.97143E+01 -4.03960E+01
  -4.15680E+01 -4.55311E+01 -4.60858E+01 -4.82207E+01 -4.88089E+01 -5.53825E+01 -5.33650E+01 -5.43097E+01 -5.79450E+01 -5.88292E+01
  -5.76869E+01 -6.08407E+01 -6.28498E+01 -5.72547E+01 -5.86242E+01 -5.99972E+01 -5.69352E+01 -5.77548E+01 -5.58982E+01 -5.75496E+01
  -5.60848E+01 -5.50946E+01 -5.31324E+01 -5.30769E+01 -5.07532E+01 -5.17458E+01 -5.44892E+01 -5.26899E+01 -5.08936E+01 -5.31249E+01
  -4.99996E+01 -5.00572E+01 -4.95473E+01 -5.12607E+01 -4.86808E+01 -4.91151E+01 -4.98226E+01 -4.83612E+01 -4.98893E+01 -4.85606E+01
  -5.03100E+01 -5.01086E+01 -5.00939E+01 -4.92629E+01 -4.93478E+01 -4.95529E+01 -5.09557E+01 -4.70700E+01 -5.02166E+01 -5.08173E+01
  -4.74977E+01 -4.85886E+01 -4.73279E+01 -5.05093E+01 -4.43338E+01 -4.10670E+01 -4.22926E+01 -4.07794E+01 -3.83643E+01 -3.59284E+01
  -3.34604E+01 -3.32014E+01 -3.14277E+01 -3.18686E+01 -3.22226E+01 -3.01512E+01 -2.66025E+01 -3.37433E+01 -2.78666E+01 -2.75425E+01
  -2.81587E+01 -2.72137E+01 -3.02219E+01 -2.73585E+01 -2.80233E+01 -2.68308E+01 -2.50968E+01 -2.56763E+01 -2.70280E+01 -2.36333E+01
  -2.35714E+01 -2.03346E+01 -2.07494E+01 -2.04419E+01 -1.87123E+01 -1.80200E+01 -1.82368E+01 -1.60161E+01 -1.84457E+01 -1.52276E+01
  -1.71849E+01 -1.56529E+01 -1.81922E+01 -1.35366E+01 -1.52514E+01 -1.67540E+01 -1.35496E+01 -1.22908E+01 -1.32757E+01 -1.16827E+01
  -8.78783E+00 -8.07012E+00 -1.01636E+01 -1.11148E+01 -9.22572E+00 -1.02071E+01 -9.62772E+00 -8.76925E+00 -7.16513E+00 -1.03797E+01
  -9.61579E+00 -8.17480E+00 -9.08534E+00 -6.91715E+00 -8.49366E+00 -7.16864E+00 -1.72101E+00 -1.97560E+00  2.48903E+00  2.34182E+00
   9.65931E+00  1.14629E+01  1.35522E+01  1.61359E+01  2.68197E+01  2.99918E+01  3.21253E+01  3.62551E+01  4.09858E+01  4.37441E+01
   4.54929E+01  4.99270E+01  4.53441E+01  4.02146E+01  3.79054E+01  3.33809E+01  2.64663E+01  2.26959E+01  1.72278E+01  1.43881E+01
   1.10071E+01  9.58238E+00  6.66669E+00  8.39617E+00  8.04681E+00  6.54134E+00  7.15558E+00  9.03050E+00  7.09255E+00  7.52486E+00
   4.08801E+00  7.39214E+00  6.85275E+00  6.17538E+00  5.33462E+00  5.50500E+00  5.17828E+00  5.32148E+00  4.22078E+00  8.08590E+00
   3.44262E+00  3.33336E+00  6.27904E+00  7.38024E+00  8.21468E+00  8.17795E+00  5.77858E+00  4.25232E+00  2.04890E+00  8.54643E+00
   5.72087E+00  8.83154E+00  8.06014E+00  9.18486E+00  1.25528E+01  1.00975E+01  1.40636E+01  1.03178E+01  1.18685E+01  1.32585E+01
   1.18988E+01  1.00626E+01  1.41346E+01  1.09581E+01  1.04319E+01  1.01246E+01  1.16873E+01  1.35112E+01  1.04858E+01  1.18155E+01
   1.31539E+01  1.28953E+01  1.76656E+01  1.50057E+01  1.94472E+01  1.43411E+01  1.75958E+01  1.55779E+01  1.65014E+01  1.55978E+01
   1.78973E+01  1.64227E+01  1.79353E+01  1.56461E+01  1.61363E+01  1.60847E+01  1.83441E+01  1.56627E+01  1.86006E+01  1.72321E+01
   2.28399E+01  2.07513E+01  1.69299E+01  2.29963E+01  2.20171E+01  2.03448E+01  1.97549E+01  2.20979E+01  2.10930E+01  1.96222E+01
   2.22363E+01  2.27097E+01  2.12457E+01  2.18408E+01  2.07964E+01  1.86485E+01  1.78369E+01  1.92674E+01  1.81640E+01  2.04594E+01
   2.09616E+01  2.09764E+01  2.26665E+01  2.20066E+01  2.52594E+01  2.19713E+01  2.11307E+01  1.98653E+01  2.18701E+01  2.36951E+01
   2.65234E+01  2.21198E+01  2.51178E+01  2.18115E+01  1.92236E+01  2.11070E+01  2.03318E+01  2.12169E+01  2.23383E+01  2.46114E+01
   2.19415E+01  2.21855E+01  2.61145E+01  2.30836E+01  2.20248E+01  2.50830E+01  2.17425E+01  2.38079E+01  2.11105E+01  2.37041E+01
   2.44052E+01  2.44502E+01  2.36395E+01  2.57773E+01  2.30479E+01  2.64437E+01  2.83705E+01  2.79950E+01  2.74272E+01  2.63161E+01
   2.73359E+01  3.10782E+01  2.66783E+01  2.46933E+01  2.70381E+01  2.86534E+01  2.80681E+01  3.04791E+01  3.00413E+01  3.01860E+01
   2.87887E+01  3.15800E+01  2.97186E+01  3.12745E+01  3.09408E+01  3.08436E+01  3.17603E+01  2.63954E+01  2.78830E+01  2.89657E+01
   2.66512E+01  2.85323E+01  2.76419E+01  2.69205E+01  2.73155E+01  2.74600E+01  2.84330E+01  2.74404E+01  2.53385E+01  2.65984E+01
   2.60504E+01  2.55380E+01  2.78063E+01  2.62273E+01  2.71169E+01  2.85645E+01  2.68243E+01  2.58572E+01  2.61474E+01  2.57909E+01
   2.77352E+01  2.51175E+01  2.46918E+01  2.62853E+01  2.38858E+01  2.50947E+01  2.54846E+01  2.78726E+01  2.64913E+01  2.60670E+01
   2.56881E+01  2.65396E+01  2.85141E+01  2.95820E+01  2.98470E+01  2.76389E+01  2.62324E+01  2.78108E+01  2.99012E+01  2.99986E+01
   2.99960E+01  2.77532E+01  2.78732E+01  2.63962E+01  2.86716E+01  2.55099E+01  2.76135E+01  2.82190E+01  2.97958E+01  2.70230E+01
   2.75355E+01  2.44213E+01  2.72755E+01  2.70611E+01  3.08331E+01  2.48378E+01  2.61563E+01  2.81001E+01  3.03919E+01  2.55840E+01
   2.77657E+01  2.44613E+01  2.64498E+01  2.77382E+01  2.58529E+01  2.37601E+01  2.61312E+01  2.58953E+01  2.80117E+01  2.49408E+01
   2.86597E+01  2.66611E+01  2.54068E+01  2.54793E+01  2.56761E+01  2.61542E+01  2.67261E+01  2.82264E+01
 NY points of the fit to the data follow
  -2.91690E+02 -2.87914E+02 -2.83629E+02 -2.79328E+02 -2.74528E+02 -2.69865E+02 -2.65438E+02 -2.60673E+02 -2.56726E+02 -2.52441E+02
  -2.49321E+02 -2.45718E+02 -2.43940E+02 -2.41431E+02 -2.40857E+02 -2.39018E+02 -2.39263E+02 -2.37526E+02 -2.36686E+02 -2.34116E+02
  -2.32527E+02 -2.29475E+02 -2.27410E+02 -2.23955E+02 -2.21435E+02 -2.17409E+02 -2.14311E+02 -2.10213E+02 -2.07173E+02 -2.03366E+02
  -2.00745E+02 -1.97493E+02 -1.95629E+02 -1.92927E+02 -1.90827E+02 -1.88256E+02 -1.86423E+02 -1.84243E+02 -1.82072E+02 -1.79791E+02
  -1.76867E+02 -1.74596E+02 -1.71809E+02 -1.69900E+02 -1.67603E+02 -1.66081E+02 -1.63581E+02 -1.62205E+02 -1.60185E+02 -1.59339E+02
  -1.57815E+02 -1.57244E+02 -1.56094E+02 -1.55502E+02 -1.54283E+02 -1.53506E+02 -1.52003E+02 -1.51158E+02 -1.49561E+02 -1.48649E+02
  -1.47058E+02 -1.45988E+02 -1.44020E+02 -1.42689E+02 -1.40835E+02 -1.39553E+02 -1.37744E+02 -1.36424E+02 -1.34681E+02 -1.33346E+02
  -1.31828E+02 -1.30504E+02 -1.29318E+02 -1.28173E+02 -1.27038E+02 -1.25068E+02 -1.23957E+02 -1.21849E+02 -1.20947E+02 -1.18744E+02
  -1.17982E+02 -1.15411E+02 -1.14758E+02 -1.12108E+02 -1.11685E+02 -1.09188E+02 -1.08969E+02 -1.06707E+02 -1.06719E+02 -1.04918E+02
  -1.04398E+02 -1.00416E+02 -9.89038E+01 -9.45341E+01 -9.26088E+01 -8.79143E+01 -8.55191E+01 -8.02242E+01 -7.75543E+01 -7.30784E+01
  -7.06029E+01 -6.72873E+01 -6.53286E+01 -6.33711E+01 -6.24712E+01 -6.31041E+01 -6.34654E+01 -6.60234E+01 -6.71597E+01 -7.03921E+01
  -7.16485E+01 -7.44068E+01 -7.53176E+01 -7.68713E+01 -7.57231E+01 -7.53450E+01 -7.31798E+01 -7.17170E+01 -6.84925E+01 -6.48695E+01
  -6.05224E+01 -5.63567E+01 -5.21935E+01 -4.86790E+01 -4.53917E+01 -4.29400E+01 -4.10864E+01 -4.00927E+01 -4.00597E+01 -4.08598E+01
  -4.22226E+01 -4.43556E+01 -4.63089E+01 -4.89845E+01 -5.06539E+01 -5.31951E+01 -5.42062E+01 -5.63287E+01 -5.69103E+01 -5.87274E+01
  -5.87646E+01 -5.99517E+01 -5.88078E+01 -5.90145E+01 -5.77993E+01 -5.79268E+01 -5.69689E+01 -5.69730E+01 -5.62463E+01 -5.61588E+01
  -5.54948E+01 -5.54169E+01 -5.48287E+01 -5.47025E+01 -5.42867E+01 -5.41224E+01 -5.37148E+01 -5.34432E+01 -5.29819E+01 -5.26543E+01
  -5.22478E+01 -5.18972E+01 -5.15584E+01 -5.11991E+01 -5.10332E+01 -5.06166E+01 -5.04867E+01 -5.00692E+01 -4.99803E+01 -4.97079E+01
  -4.95611E+01 -4.93429E+01 -4.90009E+01 -4.88655E+01 -4.84174E+01 -4.84207E+01 -4.77345E+01 -4.77507E+01 -4.66713E+01 -4.65450E+01
  -4.51242E+01 -4.49731E+01 -4.34409E+01 -4.33600E+01 -4.19023E+01 -4.18263E+01 -4.06911E+01 -4.03968E+01 -3.92352E+01 -3.83964E+01
  -3.73253E+01 -3.60988E+01 -3.49966E+01 -3.34196E+01 -3.23148E+01 -3.06684E+01 -3.01136E+01 -2.92426E+01 -2.89073E+01 -2.79984E+01
  -2.78797E+01 -2.73968E+01 -2.75272E+01 -2.74143E+01 -2.71067E+01 -2.66362E+01 -2.65239E+01 -2.56170E+01 -2.55255E+01 -2.39945E+01
  -2.40396E+01 -2.21844E+01 -2.23122E+01 -1.99580E+01 -2.03614E+01 -1.79425E+01 -1.88123E+01 -1.67038E+01 -1.80725E+01 -1.64156E+01
  -1.78393E+01 -1.62159E+01 -1.73458E+01 -1.61722E+01 -1.66038E+01 -1.54009E+01 -1.49359E+01 -1.34029E+01 -1.24006E+01 -1.14141E+01
  -1.05340E+01 -9.97188E+00 -9.04130E+00 -8.64032E+00 -7.83446E+00 -7.61407E+00 -7.19524E+00 -7.11997E+00 -7.22444E+00 -7.54468E+00
  -7.96158E+00 -8.07677E+00 -8.51721E+00 -8.26574E+00 -8.29930E+00 -7.51672E+00 -7.04770E+00 -4.96654E+00 -7.08732E-01  2.67653E+00
   7.72222E+00  1.11985E+01  1.66902E+01  2.05403E+01  2.67742E+01  3.05399E+01  3.57776E+01  3.86143E+01  4.19808E+01  4.35051E+01
   4.42526E+01  4.42348E+01  4.17451E+01  4.02903E+01  3.54173E+01  3.31919E+01  2.74353E+01  2.51183E+01  1.99066E+01  1.80045E+01
   1.39994E+01  1.24717E+01  9.05077E+00  7.84584E+00  5.25773E+00  4.78519E+00  4.58207E+00  4.67407E+00  4.71018E+00  4.79016E+00
   4.94048E+00  4.99631E+00  5.14500E+00  5.22994E+00  5.40501E+00  5.50954E+00  5.68118E+00  5.80000E+00  5.95310E+00  6.09334E+00
   6.27324E+00  6.45103E+00  6.65029E+00  6.85792E+00  7.06731E+00  7.29326E+00  7.50764E+00  7.73193E+00  7.95263E+00  8.18121E+00
   8.40836E+00  8.64216E+00  8.87710E+00  9.11540E+00  9.35542E+00  9.59714E+00  9.84333E+00  1.00898E+01  1.03432E+01  1.05996E+01
   1.08663E+01  1.11425E+01  1.14367E+01  1.17548E+01  1.21195E+01  1.25774E+01  1.30080E+01  1.33230E+01  1.37791E+01  1.39445E+01
   1.44284E+01  1.44141E+01  1.48657E+01  1.46216E+01  1.53022E+01  1.48707E+01  1.57141E+01  1.50881E+01  1.60642E+01  1.53143E+01
   1.64772E+01  1.57549E+01  1.70329E+01  1.64432E+01  1.77828E+01  1.73618E+01  1.86548E+01  1.83465E+01  1.94125E+01  1.91483E+01
   1.99117E+01  1.97314E+01  2.02312E+01  2.01859E+01  2.04923E+01  2.04338E+01  2.06102E+01  2.05701E+01  2.06289E+01  2.06078E+01
   2.05782E+01  2.06082E+01  2.06655E+01  2.07371E+01  2.08173E+01  2.09029E+01  2.09913E+01  2.10808E+01  2.11697E+01  2.12568E+01
   2.13410E+01  2.14215E+01  2.14976E+01  2.15689E+01  2.16352E+01  2.16967E+01  2.17538E+01  2.18069E+01  2.18567E+01  2.19038E+01
   2.19493E+01  2.19943E+01  2.20397E+01  2.20866E+01  2.21361E+01  2.21893E+01  2.22474E+01  2.23116E+01  2.23828E+01  2.24622E+01
   2.25508E+01  2.26498E+01  2.27604E+01  2.28839E+01  2.30214E+01  2.31742E+01  2.33437E+01  2.35312E+01  2.37381E+01  2.39655E+01
   2.42143E+01  2.44850E+01  2.47778E+01  2.50923E+01  2.54274E+01  2.57809E+01  2.61500E+01  2.65307E+01  2.69183E+01  2.73070E+01
   2.76903E+01  2.80611E+01  2.84120E+01  2.87356E+01  2.90250E+01  2.92738E+01  2.94767E+01  2.96298E+01  2.97307E+01  2.97787E+01
   2.97746E+01  2.97212E+01  2.96227E+01  2.94844E+01  2.93130E+01  2.91156E+01  2.88997E+01  2.86725E+01  2.84411E+01  2.82118E+01
   2.79901E+01  2.77806E+01  2.75869E+01  2.74114E+01  2.72556E+01  2.71204E+01  2.70057E+01  2.69108E+01  2.68347E+01  2.67760E+01
   2.67330E+01  2.67041E+01  2.66876E+01  2.66817E+01  2.66850E+01  2.66958E+01  2.67130E+01  2.67353E+01  2.67616E+01  2.67911E+01
   2.68230E+01  2.68564E+01  2.68909E+01  2.69259E+01  2.69610E+01  2.69957E+01  2.70297E+01  2.70626E+01  2.70943E+01  2.71245E+01
   2.71529E+01  2.71793E+01  2.72036E+01  2.72256E+01  2.72453E+01  2.72627E+01  2.72777E+01  2.72905E+01  2.73008E+01  2.73089E+01
   2.73146E+01  2.73182E+01  2.73194E+01  2.73185E+01  2.73153E+01  2.73100E+01  2.73026E+01  2.72931E+01  2.72816E+01  2.72680E+01
   2.72525E+01  2.72352E+01  2.72160E+01  2.71949E+01  2.71721E+01  2.71475E+01  2.71213E+01  2.70935E+01  2.70642E+01  2.70333E+01
   2.70010E+01  2.69672E+01  2.69322E+01  2.68959E+01  2.68583E+01  2.68196E+01  2.67797E+01  2.67389E+01  2.66971E+01  2.66544E+01
   2.66109E+01  2.65666E+01  2.65216E+01  2.64761E+01  2.64301E+01  2.63837E+01  2.63371E+01  2.62902E+01
 NY background values follow
    -3.073E+02   -3.044E+02   -3.014E+02   -2.985E+02   -2.956E+02   -2.926E+02   -2.897E+02   -2.868E+02   -2.839E+02   -2.810E+02
    -2.781E+02   -2.752E+02   -2.723E+02   -2.695E+02   -2.666E+02   -2.638E+02   -2.610E+02   -2.582E+02   -2.554E+02   -2.526E+02
    -2.498E+02   -2.471E+02   -2.443E+02   -2.416E+02   -2.389E+02   -2.362E+02   -2.336E+02   -2.309E+02   -2.283E+02   -2.257E+02
    -2.231E+02   -2.206E+02   -2.180E+02   -2.155E+02   -2.130E+02   -2.106E+02   -2.081E+02   -2.057E+02   -2.033E+02   -2.010E+02
    -1.986E+02   -1.963E+02   -1.941E+02   -1.918E+02   -1.896E+02   -1.874E+02   -1.853E+02   -1.831E+02   -1.811E+02   -1.790E+02
    -1.770E+02   -1.750E+02   -1.730E+02   -1.710E+02   -1.691E+02   -1.672E+02   -1.654E+02   -1.635E+02   -1.617E+02   -1.599E+02
    -1.582E+02   -1.564E+02   -1.547E+02   -1.530E+02   -1.514E+02   -1.497E+02   -1.481E+02   -1.465E+02   -1.449E+02   -1.433E+02
    -1.418E+02   -1.403E+02   -1.388E+02   -1.373E+02   -1.358E+02   -1.344E+02   -1.329E+02   -1.315E+02   -1.301E+02   -1.287E+02
    -1.273E+02   -1.260E+02   -1.246E+02   -1.233E+02   -1.219E+02   -1.206E+02   -1.193E+02   -1.180E+02   -1.168E+02   -1.155E+02
    -1.142E+02   -1.130E+02   -1.117E+02   -1.105E+02   -1.093E+02   -1.081E+02   -1.068E+02   -1.057E+02   -1.045E+02   -1.033E+02
    -1.021E+02   -1.010E+02   -9.980E+01   -9.866E+01   -9.753E+01   -9.640E+01   -9.529E+01   -9.419E+01   -9.310E+01   -9.202E+01
    -9.095E+01   -8.988E+01   -8.883E+01   -8.779E+01   -8.676E+01   -8.575E+01   -8.474E+01   -8.374E+01   -8.275E+01   -8.178E+01
    -8.082E+01   -7.986E+01   -7.892E+01   -7.799E+01   -7.707E+01   -7.617E+01   -7.527E+01   -7.439E+01   -7.352E+01   -7.266E+01
    -7.181E+01   -7.098E+01   -7.016E+01   -6.934E+01   -6.855E+01   -6.776E+01   -6.699E+01   -6.623E+01   -6.548E+01   -6.474E+01
    -6.402E+01   -6.330E+01   -6.260E+01   -6.191E+01   -6.123E+01   -6.055E+01   -5.989E+01   -5.924E+01   -5.859E+01   -5.796E+01
    -5.733E+01   -5.671E+01   -5.609E+01   -5.549E+01   -5.489E+01   -5.430E+01   -5.371E+01   -5.313E+01   -5.255E+01   -5.198E+01
    -5.142E+01   -5.086E+01   -5.030E+01   -4.975E+01   -4.920E+01   -4.865E+01   -4.811E+01   -4.757E+01   -4.703E+01   -4.649E+01
    -4.595E+01   -4.542E+01   -4.488E+01   -4.435E+01   -4.382E+01   -4.328E+01   -4.275E+01   -4.221E+01   -4.168E+01   -4.114E+01
    -4.060E+01   -4.006E+01   -3.951E+01   -3.897E+01   -3.842E+01   -3.787E+01   -3.732E+01   -3.676E+01   -3.621E+01   -3.565E+01
    -3.510E+01   -3.454E+01   -3.398E+01   -3.342E+01   -3.286E+01   -3.231E+01   -3.175E+01   -3.119E+01   -3.064E+01   -3.008E+01
    -2.953E+01   -2.897E+01   -2.842E+01   -2.787E+01   -2.732E+01   -2.678E+01   -2.623E+01   -2.569E+01   -2.516E+01   -2.462E+01
    -2.409E+01   -2.356E+01   -2.303E+01   -2.251E+01   -2.199E+01   -2.148E+01   -2.097E+01   -2.046E+01   -1.996E+01   -1.947E+01
    -1.898E+01   -1.849E+01   -1.801E+01   -1.754E+01   -1.707E+01   -1.661E+01   -1.615E+01   -1.570E+01   -1.526E+01   -1.482E+01
    -1.439E+01   -1.396E+01   -1.354E+01   -1.313E+01   -1.272E+01   -1.232E+01   -1.192E+01   -1.153E+01   -1.115E+01   -1.077E+01
    -1.039E+01   -1.002E+01   -9.655E+00   -9.294E+00   -8.938E+00   -8.586E+00   -8.239E+00   -7.897E+00   -7.558E+00   -7.224E+00
    -6.895E+00   -6.569E+00   -6.247E+00   -5.929E+00   -5.614E+00   -5.304E+00   -4.996E+00   -4.693E+00   -4.392E+00   -4.095E+00
    -3.801E+00   -3.510E+00   -3.222E+00   -2.937E+00   -2.654E+00   -2.374E+00   -2.097E+00   -1.822E+00   -1.549E+00   -1.279E+00
    -1.011E+00   -7.448E-01   -4.806E-01   -2.183E-01    4.209E-02    3.007E-01    5.574E-01    8.124E-01    1.066E+00    1.317E+00
     1.567E+00    1.816E+00    2.062E+00    2.307E+00    2.551E+00    2.793E+00    3.034E+00    3.273E+00    3.511E+00    3.748E+00
     3.983E+00    4.217E+00    4.450E+00    4.682E+00    4.912E+00    5.142E+00    5.370E+00    5.597E+00    5.823E+00    6.049E+00
     6.273E+00    6.496E+00    6.719E+00    6.940E+00    7.161E+00    7.381E+00    7.601E+00    7.819E+00    8.037E+00    8.255E+00
     8.471E+00    8.688E+00    8.903E+00    9.118E+00    9.333E+00    9.548E+00    9.762E+00    9.975E+00    1.019E+01    1.040E+01
     1.061E+01    1.083E+01    1.104E+01    1.125E+01    1.146E+01    1.167E+01    1.187E+01    1.208E+01    1.229E+01    1.249E+01
     1.270E+01    1.290E+01    1.311E+01    1.331E+01    1.351E+01    1.371E+01    1.391E+01    1.410E+01    1.430E+01    1.449E+01
     1.468E+01    1.487E+01    1.506E+01    1.525E+01    1.544E+01    1.562E+01    1.580E+01    1.598E+01    1.616E+01    1.634E+01
     1.651E+01    1.668E+01    1.685E+01    1.702E+01    1.719E+01    1.735E+01    1.751E+01    1.767E+01    1.783E+01    1.798E+01
     1.814E+01    1.828E+01    1.843E+01    1.857E+01    1.872E+01    1.886E+01    1.899E+01    1.913E+01    1.926E+01    1.939E+01
     1.952E+01    1.964E+01    1.977E+01    1.989E+01    2.001E+01    2.012E+01    2.024E+01    2.036E+01    2.047E+01    2.058E+01
     2.069E+01    2.080E+01    2.091E+01    2.101E+01    2.112E+01    2.122E+01    2.133E+01    2.143E+01    2.153E+01    2.163E+01
     2.173E+01    2.183E+01    2.193E+01    2.202E+01    2.212E+01    2.222E+01    2.231E+01    2.241E+01    2.251E+01    2.260E+01
     2.270E+01    2.279E+01    2.289E+01    2.299E+01    2.308E+01    2.318E+01    2.328E+01    2.337E+01    2.347E+01    2.357E+01
     2.367E+01    2.376E+01    2.386E+01    2.396E+01    2.406E+01    2.416E+01    2.425E+01    2.435E+01    2.445E+01    2.455E+01
     2.464E+01    2.474E+01    2.483E+01    2.493E+01    2.502E+01    2.511E+01    2.520E+01    2.529E+01    2.538E+01    2.547E+01
     2.556E+01    2.564E+01    2.573E+01    2.581E+01    2.589E+01    2.597E+01    2.604E+01    2.612E+01    2.619E+01    2.626E+01
     2.633E+01    2.640E+01    2.646E+01    2.652E+01    2.658E+01    2.664E+01    2.670E+01    2.675E+01    2.680E+01    2.684E+01
     2.689E+01    2.693E+01    2.696E+01    2.700E+01    2.703E+01    2.706E+01    2.708E+01    2.710E+01    2.712E+01    2.714E+01
     2.715E+01    2.716E+01    2.717E+01    2.718E+01    2.718E+01    2.718E+01    2.718E+01    2.717E+01    2.717E+01    2.716E+01
     2.715E+01    2.714E+01    2.712E+01    2.710E+01    2.709E+01    2.706E+01    2.704E+01    2.702E+01    2.699E+01    2.696E+01
     2.693E+01    2.690E+01    2.687E+01    2.684E+01    2.680E+01    2.676E+01    2.672E+01    2.668E+01    2.664E+01    2.660E+01
     2.656E+01    2.652E+01    2.647E+01    2.642E+01    2.638E+01    2.633E+01    2.628E+01    2.623E+01
 Ala      Conc. = 3.13E+02
