 LCModel (Version 6.3-1L) Copyright: S.W. Provencher.          Ref.: Magn. Reson. Med. 30:672-679 (1993).                
 Slice#2 Row#7 Col#8  K_02_press_1_raw_act
 36 lines in following concentration table = NCONC+1
    Conc.  %SD /Cr+PCr  Metabolite                                         
    0.000 999%   0.000 Ala                                                 
    0.000 999%   0.000 Asp                                                 
  589.817  53%   0.259 Cr                                                  
 1.69E+03  19%   0.741 PCr                                                 
    0.000 999%   0.000 GABA                                                
    0.000 999%   0.000 Glc                                                 
  654.489  45%   0.287 Gln                                                 
 1.88E+03  17%   0.825 Glu                                                 
  751.188   5%   0.330 GPC                                                 
    0.000 999%   0.000 PCh                                                 
  468.720  21%   0.206 GSH                                                 
 1.90E+03  18%   0.835 Ins                                                 
  379.163  41%   0.166 Lac                                                 
 2.78E+03   5%   1.222 NAA                                                 
  564.739  25%   0.248 NAAG                                                
  126.815  31% 5.6E-02 Scyllo                                              
   35.338 784% 1.6E-02 Tau                                                 
  545.966  29%   0.240 -CrCH2                                              
  751.188   5%   0.330 GPC+PCh                                             
 3.35E+03   4%   1.470 NAA+NAAG                                            
 2.28E+03   4%   1.000 Cr+PCr                                              
 2.53E+03  17%   1.113 Glu+Gln                                             
 1.53E+03  47%   0.674 Lip13a                                              
   17.971 999% 7.9E-03 Lip13b                                              
    9.320 999% 4.1E-03 Lip09                                               
 2.04E+03  18%   0.894 MM09                                                
  281.117  82%   0.123 Lip20                                               
 4.37E+03  12%   1.921 MM20                                                
  809.038  30%   0.355 MM12                                                
    0.000 999%   0.000 MM14                                                
 1.99E+03  16%   0.872 MM17                                                
 1.55E+03  34%   0.682 Lip13a+Lip13b                                       
 2.36E+03  19%   1.037 MM14+Lip13a+Lip13b+MM12                             
 2.05E+03  13%   0.898 MM09+Lip09                                          
 4.66E+03  11%   2.044 MM20+Lip20                                          
   6 lines in following misc. output table
  FWHM = 0.046 ppm    S/N =  11                                            
  Data shift = 0.008 ppm                                                   
  Ph: -45 deg      -6.9 deg/ppm                                            
  alphaB,S = 8.8E+00,   5.2E+01                                            
   14 spline knots.   Ns = 6(1)                                            
  (11) 2 infls.   ( 3) 1 extrs.                                            
  498 points on ppm-axis = NY
      4.000000     3.992357     3.984714     3.977070     3.969427     3.961784     3.954141     3.946497     3.938854     3.931211
      3.923568     3.915925     3.908281     3.900638     3.892995     3.885352     3.877708     3.870065     3.862422     3.854779
      3.847136     3.839492     3.831849     3.824206     3.816563     3.808919     3.801276     3.793633     3.785990     3.778347
      3.770703     3.763060     3.755417     3.747774     3.740130     3.732487     3.724844     3.717201     3.709558     3.701914
      3.694271     3.686628     3.678985     3.671341     3.663698     3.656055     3.648412     3.640769     3.633125     3.625482
      3.617839     3.610196     3.602552     3.594909     3.587266     3.579623     3.571980     3.564336     3.556693     3.549050
      3.541407     3.533763     3.526120     3.518477     3.510834     3.503191     3.495547     3.487904     3.480261     3.472618
      3.464974     3.457331     3.449688     3.442045     3.434402     3.426758     3.419115     3.411472     3.403829     3.396185
      3.388542     3.380899     3.373256     3.365613     3.357969     3.350326     3.342683     3.335040     3.327396     3.319753
      3.312110     3.304467     3.296824     3.289180     3.281537     3.273894     3.266251     3.258607     3.250964     3.243321
      3.235678     3.228034     3.220391     3.212748     3.205105     3.197462     3.189818     3.182175     3.174532     3.166889
      3.159245     3.151602     3.143959     3.136316     3.128673     3.121029     3.113386     3.105743     3.098100     3.090456
      3.082813     3.075170     3.067527     3.059884     3.052240     3.044597     3.036954     3.029311     3.021667     3.014024
      3.006381     2.998738     2.991095     2.983451     2.975808     2.968165     2.960522     2.952878     2.945235     2.937592
      2.929949     2.922306     2.914662     2.907019     2.899376     2.891733     2.884089     2.876446     2.868803     2.861160
      2.853517     2.845873     2.838230     2.830587     2.822944     2.815300     2.807657     2.800014     2.792371     2.784728
      2.777084     2.769441     2.761798     2.754155     2.746511     2.738868     2.731225     2.723582     2.715939     2.708295
      2.700652     2.693009     2.685366     2.677722     2.670079     2.662436     2.654793     2.647150     2.639506     2.631863
      2.624220     2.616577     2.608933     2.601290     2.593647     2.586004     2.578361     2.570717     2.563074     2.555431
      2.547788     2.540144     2.532501     2.524858     2.517215     2.509572     2.501928     2.494285     2.486642     2.478999
      2.471355     2.463712     2.456069     2.448426     2.440783     2.433139     2.425496     2.417853     2.410210     2.402566
      2.394923     2.387280     2.379637     2.371994     2.364350     2.356707     2.349064     2.341421     2.333777     2.326134
      2.318491     2.310848     2.303205     2.295561     2.287918     2.280275     2.272632     2.264988     2.257345     2.249702
      2.242059     2.234416     2.226772     2.219129     2.211486     2.203843     2.196199     2.188556     2.180913     2.173270
      2.165627     2.157983     2.150340     2.142697     2.135054     2.127410     2.119767     2.112124     2.104481     2.096838
      2.089194     2.081551     2.073908     2.066265     2.058621     2.050978     2.043335     2.035692     2.028049     2.020405
      2.012762     2.005119     1.997476     1.989833     1.982190     1.974546     1.966903     1.959260     1.951617     1.943974
      1.936331     1.928688     1.921045     1.913402     1.905759     1.898115     1.890472     1.882829     1.875186     1.867543
      1.859900     1.852257     1.844614     1.836971     1.829327     1.821684     1.814041     1.806398     1.798755     1.791112
      1.783469     1.775826     1.768183     1.760540     1.752896     1.745253     1.737610     1.729967     1.722324     1.714681
      1.707038     1.699395     1.691752     1.684108     1.676465     1.668822     1.661179     1.653536     1.645893     1.638250
      1.630607     1.622964     1.615321     1.607677     1.600034     1.592391     1.584748     1.577105     1.569462     1.561819
      1.554176     1.546533     1.538890     1.531246     1.523603     1.515960     1.508317     1.500674     1.493031     1.485388
      1.477745     1.470102     1.462458     1.454815     1.447172     1.439529     1.431886     1.424243     1.416600     1.408957
      1.401314     1.393671     1.386027     1.378384     1.370741     1.363098     1.355455     1.347812     1.340169     1.332526
      1.324883     1.317240     1.309596     1.301953     1.294310     1.286667     1.279024     1.271381     1.263738     1.256095
      1.248452     1.240808     1.233165     1.225522     1.217879     1.210236     1.202593     1.194950     1.187307     1.179664
      1.172021     1.164377     1.156734     1.149091     1.141448     1.133805     1.126162     1.118519     1.110876     1.103233
      1.095590     1.087946     1.080303     1.072660     1.065017     1.057374     1.049731     1.042088     1.034445     1.026802
      1.019158     1.011515     1.003872     0.996229     0.988586     0.980943     0.973300     0.965657     0.958014     0.950371
      0.942727     0.935084     0.927441     0.919798     0.912155     0.904512     0.896869     0.889226     0.881583     0.873940
      0.866296     0.858653     0.851010     0.843367     0.835724     0.828081     0.820438     0.812795     0.805152     0.797508
      0.789865     0.782222     0.774579     0.766936     0.759293     0.751650     0.744007     0.736364     0.728721     0.721077
      0.713434     0.705791     0.698148     0.690505     0.682862     0.675219     0.667576     0.659933     0.652290     0.644646
      0.637003     0.629360     0.621717     0.614074     0.606431     0.598788     0.591145     0.583502     0.575858     0.568215
      0.560572     0.552929     0.545286     0.537643     0.530000     0.522357     0.514714     0.507071     0.499427     0.491784
      0.484141     0.476498     0.468855     0.461212     0.453569     0.445925     0.438282     0.430639     0.422996     0.415353
      0.407710     0.400067     0.392424     0.384780     0.377137     0.369494     0.361851     0.354208     0.346565     0.338922
      0.331278     0.323635     0.315992     0.308349     0.300706     0.293063     0.285420     0.277777     0.270133     0.262490
      0.254847     0.247204     0.239561     0.231918     0.224275     0.216631     0.208988     0.201345
 NY phased data points follow
  -2.68520E+01 -2.88741E+01 -3.80576E+01 -2.44703E+01 -2.42707E+01 -1.62332E+01 -6.23836E+00  7.25652E+00  1.46819E+01  2.84076E+01
   2.87757E+01  2.55333E+01  9.53378E+00  1.32517E+01  3.01502E+00 -6.52686E+00 -8.62043E+00 -2.39772E+01 -2.26512E+01 -5.71045E+00
  -1.11421E+01 -2.33855E+01 -1.70638E+01 -1.66680E+01 -1.94983E+01 -1.14176E+01 -1.17465E+01 -1.48088E+01 -1.56592E+01  4.46874E-01
  -8.44221E+00 -1.00444E+00  1.28864E+00 -6.00081E+00 -1.40165E+01 -1.28497E+01 -1.19139E+01 -1.50651E+01 -1.70111E+01 -1.64305E+01
  -1.55078E+01  2.52973E+00 -6.96377E+00 -6.87694E+00 -6.06203E+00  4.89326E-01  4.69313E+00  1.35486E+01  4.29468E+00 -1.88971E-01
   4.56241E-01  4.82452E+00 -7.45091E+00 -9.11021E+00 -7.17870E+00 -1.11858E+00 -7.49589E+00 -5.99930E+00 -9.04697E+00 -7.07571E+00
  -6.04618E+00 -1.43791E+01 -2.07675E+01 -1.65103E+01 -8.53305E+00 -2.36361E+01 -2.99456E+01 -1.59061E+01 -1.93722E+01 -2.01503E+01
  -1.96400E+01 -1.21592E+01 -1.30891E+01 -1.48236E+01 -1.50591E+01 -2.14250E+01 -1.16462E+01 -1.49919E+01 -1.38735E+01 -1.48133E+01
  -2.08318E+01 -1.49601E+01 -2.13494E+01 -1.75494E+01 -2.39630E+01 -9.81982E+00 -1.44526E+01 -1.70846E+01 -1.20092E+01 -1.05185E+01
  -7.18584E+00 -1.12813E+01 -2.46608E+00 -3.94880E+00 -4.75229E+00 -1.09315E+01 -5.74151E+00 -1.10986E+00  2.66794E+00  1.73402E+01
   2.85612E+01  5.31055E+01  6.11549E+01  5.81997E+01  5.30587E+01  4.07126E+01  2.21443E+01  1.01565E+01  6.04734E+00 -1.24820E+00
  -3.14643E+00 -6.22017E+00 -1.31390E+01 -5.42108E+00 -1.26381E+01 -7.42382E+00 -1.44283E+01 -7.78263E+00  2.41865E+00  8.66069E-01
   1.99620E+00  3.61745E+00  9.78196E-01  1.58374E+01  4.01649E+01  5.88861E+01  7.46860E+01  7.22441E+01  6.96117E+01  4.66999E+01
   4.10513E+01  2.21423E+01  1.34757E+01  7.72370E+00 -5.75867E-01 -1.46958E+00 -7.78810E+00 -9.05059E+00 -7.86835E+00 -5.82879E+00
   9.29406E-01 -1.01329E+00 -1.01789E+01 -4.21873E+00 -1.27359E+01 -7.81657E+00 -7.88400E+00 -9.92791E+00 -1.35533E+01 -9.36949E+00
  -1.12892E+01 -4.28053E+00 -9.48842E+00 -6.84913E+00 -1.25186E+01 -5.38181E+00 -5.00045E+00 -9.03326E+00 -3.83955E+00 -8.96774E+00
  -1.12770E+01 -1.17052E+01 -1.59845E+01 -7.97627E+00 -2.49260E+00 -5.67639E+00 -7.58723E+00 -8.39169E+00 -1.19281E+01 -2.35311E+01
  -2.16421E+01 -1.58473E+01 -2.14079E+01 -2.78183E+01 -2.51676E+01 -3.36621E+01 -2.71382E+01 -3.07413E+01 -2.35862E+01 -2.06629E+01
  -2.25435E+01 -2.25346E+01 -1.85980E+01 -1.49497E+01 -1.66484E+01 -1.77043E+01 -2.08944E+01 -1.89098E+01 -8.15488E+00 -7.57661E+00
  -3.54110E+00 -6.72381E+00 -3.54370E+00 -5.67455E+00 -4.89288E+00 -5.53622E+00 -1.00515E+01 -6.68596E+00 -1.16942E+01 -1.05680E+01
  -1.50190E+01 -1.04066E+01 -7.43498E+00 -2.44322E+00 -3.07830E+00 -3.58828E+00 -8.23015E+00 -1.66407E+01 -9.96224E+00 -1.87782E+01
  -1.00478E+01 -9.05054E+00 -7.65754E+00 -1.28910E+00  1.89686E+00  1.73054E+01  1.22659E+01  5.49397E+00 -9.13144E-01 -5.50741E+00
  -1.00734E+01 -8.79766E+00 -8.28795E+00 -1.39039E+01 -4.98159E+00 -4.78669E+00  2.04522E+00  9.36029E+00  3.50040E+00 -3.45773E+00
   1.00512E+01  4.11489E+00  1.85596E+00  1.40462E+00  1.66995E+00 -1.90620E+00 -1.63997E+00  7.42850E+00  2.83370E+00 -5.71304E+00
  -3.22802E+00 -2.09602E+00 -7.29080E+00  3.21614E+00  9.40870E+00  1.33643E+01  4.58027E+00  6.79537E+00  1.47907E+01  1.48018E+01
   2.03267E+01  2.03661E+01  2.76178E+01  3.97639E+01  3.95903E+01  4.56025E+01  5.50018E+01  6.67547E+01  1.03027E+02  1.22210E+02
   1.29290E+02  1.04931E+02  8.67842E+01  6.64110E+01  4.59935E+01  2.91200E+01  2.06854E+01  9.73216E+00  1.67120E+01  1.12145E+01
  -2.97633E+00  9.60070E+00  6.44540E+00  3.29885E+00  9.18843E+00  8.88709E-01  6.90484E+00  5.85677E+00 -5.33465E-01  2.19766E+00
   1.33355E+00 -1.15251E+00  5.88902E+00 -5.15505E+00 -4.24619E+00  6.47273E-01 -3.07403E+00  3.21386E-01 -4.88022E+00 -4.36003E+00
  -6.00647E+00  3.63469E+00  3.16116E+00  3.34250E+00  1.39390E+00 -9.14864E+00 -1.85953E+00  5.50192E+00  9.14612E-01  1.25904E+01
  -2.47788E+00  1.59150E+00 -4.60093E-01  6.93803E+00  3.21155E-01  7.23976E+00  1.96171E+00  7.05382E+00  9.24589E+00  1.21801E+01
   1.18647E+01  1.16690E+01  8.39877E+00  1.27066E+01  1.81041E+01  3.44199E+00  1.01099E+01  1.34585E+01  1.14071E+01  8.99875E+00
   6.42420E+00  7.43971E+00 -9.42694E-02  3.87367E+00  1.15283E+01  7.42975E+00  5.48242E+00  1.84771E+00  9.32635E+00  2.44945E+00
  -1.56873E+00 -5.90567E+00  6.10452E+00 -4.52159E+00 -3.10452E+00  2.68090E+00 -2.38306E+00 -6.99321E-01 -7.47913E-01 -6.57112E+00
  -2.88892E+00  2.10819E+00  3.58187E+00  4.21745E+00  8.60987E+00  1.33362E+00  6.67250E+00  3.59697E+00 -5.69692E+00  4.68476E+00
  -2.42550E+00 -7.26569E+00  1.25387E+01  5.29951E-01  9.02976E+00  1.12068E+01  5.83091E+00  1.09073E+01  1.56108E+01  9.57557E+00
   1.13002E+01  1.68154E+01  9.35485E+00  1.42805E+01  1.12052E+01  4.63316E+00  5.69939E+00  1.20271E+01  5.75376E+00  1.11512E+01
   7.77197E+00  6.48017E+00  6.21167E+00  4.63763E+00  8.91640E+00  7.10062E+00  2.66162E+00  1.03795E+01  1.44456E+01  9.54795E+00
  -4.92865E-01  2.71365E+00  1.85462E+01  9.86479E+00  5.12189E+00  4.45755E+00  5.54079E+00  4.40661E+00  6.18799E+00  8.63723E+00
   1.54653E-01  4.32087E+00  5.12445E+00 -3.21619E+00  5.30439E+00  6.98716E+00  1.11751E+01  1.24078E+01  9.61778E+00  1.10396E+01
   1.00183E+01  3.89400E+00  3.67138E+00  5.73291E+00  7.54561E+00  1.18994E+01  1.28718E+01  1.54270E+01  1.62180E+01  1.25023E+01
   1.37578E+01  1.08680E+01  1.22802E+01  8.66206E+00  7.76390E+00  6.91834E+00  2.24612E+00  6.69406E+00  1.69958E+00  2.00498E+00
   5.40058E+00  3.52229E+00  1.16160E+01  3.14105E-01  5.70777E+00  6.25535E+00  5.91156E+00 -1.39198E+00 -2.18007E+00  4.32085E+00
   2.31460E+00  8.75995E-01  8.14603E+00 -9.87533E-02  1.66191E+00 -1.24754E-01  4.29872E+00  5.79025E+00 -2.90974E+00  8.94509E-01
  -7.52123E+00 -2.06797E+00 -5.88195E+00  2.52447E+00 -4.74842E+00  3.09651E+00  3.99622E+00 -6.12292E+00 -6.93728E+00 -4.45033E+00
   3.65698E+00 -2.69319E+00 -1.10108E+00  1.02724E+00  3.77218E+00  6.87475E-01 -7.36385E+00 -4.00198E+00 -4.23580E+00  7.86960E-01
   3.58373E+00  7.52783E-01 -2.85088E+00  7.92929E+00 -3.36273E+00  3.91702E-01 -2.67632E+00  9.67585E+00 -1.96727E+00  2.87169E+00
  -3.84875E+00  6.17684E+00 -1.49110E+00 -5.11361E+00  3.64762E+00 -4.29675E+00  3.84945E+00 -1.77125E-01 -1.51215E+00  4.32076E+00
   2.30373E+00 -3.61086E+00 -1.98718E+00  2.27627E+00  2.46306E+00 -3.37146E+00  3.79699E+00 -5.69403E-01  2.23246E-01  1.86380E+00
   1.49407E-01 -1.53287E-01  1.71751E-01  3.34958E+00  2.22269E+00 -1.84467E-01 -2.55876E-01  6.98605E+00
 NY points of the fit to the data follow
  -2.04865E+01 -2.09551E+01 -2.12110E+01 -2.02975E+01 -1.73762E+01 -1.30659E+01 -5.75806E+00  5.41417E+00  1.75879E+01  2.56545E+01
   2.68225E+01  2.25545E+01  1.58035E+01  8.66794E+00  2.35358E+00 -2.59054E+00 -6.51645E+00 -9.54896E+00 -1.14234E+01 -1.24968E+01
  -1.31945E+01 -1.37995E+01 -1.45637E+01 -1.52935E+01 -1.55467E+01 -1.57321E+01 -1.52262E+01 -1.29813E+01 -9.21064E+00 -5.25047E+00
  -2.47866E+00 -1.10753E+00 -1.16237E+00 -2.78921E+00 -5.47118E+00 -8.46944E+00 -1.12681E+01 -1.34858E+01 -1.48167E+01 -1.52285E+01
  -1.46663E+01 -1.32440E+01 -1.12793E+01 -8.60759E+00 -4.80478E+00 -5.31486E-01  2.38011E+00  2.53669E+00  2.43518E-01 -3.27777E+00
  -6.96575E+00 -1.01785E+01 -1.25444E+01 -1.38946E+01 -1.44098E+01 -1.41600E+01 -1.31347E+01 -1.16259E+01 -1.01332E+01 -9.31866E+00
  -9.54412E+00 -1.06686E+01 -1.22948E+01 -1.38525E+01 -1.49260E+01 -1.53057E+01 -1.50580E+01 -1.44596E+01 -1.36436E+01 -1.27120E+01
  -1.18832E+01 -1.14648E+01 -1.15307E+01 -1.19059E+01 -1.23983E+01 -1.29008E+01 -1.33645E+01 -1.37388E+01 -1.40329E+01 -1.42442E+01
  -1.43442E+01 -1.41504E+01 -1.38007E+01 -1.33644E+01 -1.25502E+01 -1.16775E+01 -1.14298E+01 -1.20909E+01 -1.32171E+01 -1.41867E+01
  -1.46893E+01 -1.48522E+01 -1.47964E+01 -1.46662E+01 -1.47068E+01 -1.47647E+01 -1.34687E+01 -8.41225E+00 -3.97418E-01  1.30293E+01
   3.29532E+01  5.29709E+01  6.39247E+01  6.20048E+01  5.12673E+01  3.75215E+01  2.39864E+01  1.22725E+01  3.37839E+00 -3.06639E+00
  -7.62525E+00 -9.85896E+00 -1.07608E+01 -1.12473E+01 -1.15664E+01 -1.17946E+01 -1.19679E+01 -1.21009E+01 -1.21371E+01 -1.18759E+01
  -1.03259E+01 -4.87030E+00  3.96158E+00  1.72806E+01  3.76515E+01  6.01159E+01  7.46791E+01  7.54269E+01  6.52518E+01  5.08071E+01
   3.63905E+01  2.36911E+01  1.34355E+01  5.31476E+00 -1.28881E+00 -5.50298E+00 -7.38576E+00 -8.03624E+00 -7.82525E+00 -7.12315E+00
  -6.41117E+00 -6.01040E+00 -5.98534E+00 -6.26457E+00 -6.71841E+00 -7.21771E+00 -7.69253E+00 -8.11755E+00 -8.52952E+00 -8.94468E+00
  -9.33514E+00 -9.73066E+00 -1.00763E+01 -1.02581E+01 -1.02329E+01 -1.01473E+01 -1.01353E+01 -1.03490E+01 -1.10039E+01 -1.18962E+01
  -1.26139E+01 -1.27551E+01 -1.22301E+01 -1.15736E+01 -1.13835E+01 -1.18163E+01 -1.26418E+01 -1.34818E+01 -1.40962E+01 -1.45077E+01
  -1.48472E+01 -1.52868E+01 -1.58537E+01 -1.66205E+01 -1.73381E+01 -1.76140E+01 -1.72514E+01 -1.65473E+01 -1.61703E+01 -1.63002E+01
  -1.64914E+01 -1.64208E+01 -1.60974E+01 -1.57164E+01 -1.54899E+01 -1.50603E+01 -1.38289E+01 -1.17421E+01 -9.25912E+00 -7.05552E+00
  -5.71905E+00 -5.38425E+00 -5.97197E+00 -6.99476E+00 -8.03472E+00 -8.94429E+00 -9.49126E+00 -9.35525E+00 -8.37341E+00 -6.82719E+00
  -5.00874E+00 -3.13956E+00 -1.57945E+00 -8.34594E-01 -1.56958E+00 -3.55450E+00 -6.49329E+00 -9.98317E+00 -1.29375E+01 -1.43593E+01
  -1.38073E+01 -1.16899E+01 -8.22510E+00 -3.45665E+00  1.26377E+00  3.92739E+00  3.45526E+00  4.29282E-01 -3.96214E+00 -8.86379E+00
  -1.34324E+01 -1.60900E+01 -1.57025E+01 -1.26612E+01 -8.31887E+00 -4.09895E+00 -7.74451E-01  1.41730E+00  2.31361E+00  2.16152E+00
   1.57685E+00  1.29507E+00  1.58161E+00  2.30028E+00  3.35755E+00  4.63468E+00  5.68843E+00  5.93099E+00  5.44710E+00  4.46865E+00
   3.28781E+00  2.45178E+00  2.67800E+00  4.07566E+00  6.01349E+00  7.89683E+00  9.43424E+00  1.05329E+01  1.12519E+01  1.23330E+01
   1.46088E+01  1.79073E+01  2.30023E+01  2.99209E+01  3.89988E+01  4.98436E+01  6.02988E+01  7.70394E+01  1.00454E+02  1.19482E+02
   1.22849E+02  1.09923E+02  8.90089E+01  6.73505E+01  4.80757E+01  3.25469E+01  2.13220E+01  1.31222E+01  7.59548E+00  5.27054E+00
   4.18251E+00  3.53769E+00  3.17553E+00  2.89646E+00  2.49921E+00  1.97663E+00  1.41585E+00  8.67957E-01  3.37289E-01 -1.31495E-01
  -4.93105E-01 -7.53190E-01 -9.53654E-01 -1.13491E+00 -1.31845E+00 -1.50188E+00 -1.67343E+00 -1.81762E+00 -1.89843E+00 -1.88919E+00
  -1.78394E+00 -1.60195E+00 -1.37426E+00 -1.11500E+00 -8.16854E-01 -4.81401E-01 -9.98483E-02  3.50872E-01  8.90307E-01  1.52372E+00
   2.24343E+00  3.03137E+00  3.86837E+00  4.73160E+00  5.59890E+00  6.45021E+00  7.26496E+00  8.01945E+00  8.69440E+00  9.26900E+00
   9.72450E+00  1.00452E+01  1.02214E+01  1.02476E+01  1.01248E+01  9.85835E+00  9.45959E+00  8.94432E+00  8.33293E+00  7.64735E+00
   6.91130E+00  6.14780E+00  5.38001E+00  4.62896E+00  3.91392E+00  3.25003E+00  2.64956E+00  2.12085E+00  1.67030E+00  1.30115E+00
   1.01510E+00  8.11077E-01  6.87487E-01  6.41738E-01  6.72537E-01  7.78926E-01  9.62325E-01  1.22643E+00  1.58194E+00  2.05335E+00
   2.70668E+00  3.64402E+00  4.65184E+00  5.69883E+00  6.73340E+00  7.09567E+00  6.22889E+00  4.33320E+00  2.26264E+00  9.24609E-01
   3.71734E-01  6.91148E-01  2.25999E+00  4.85560E+00  7.59908E+00  9.68870E+00  1.08331E+01  1.12061E+01  1.10986E+01  1.07087E+01
   1.02232E+01  9.72352E+00  9.19758E+00  8.74849E+00  8.38393E+00  8.04254E+00  7.70217E+00  7.35598E+00  7.00388E+00  6.64795E+00
   6.29242E+00  5.94188E+00  5.60218E+00  5.27880E+00  4.97772E+00  4.70378E+00  4.46200E+00  4.25637E+00  4.09124E+00  3.96986E+00
   3.89548E+00  3.87007E+00  3.89574E+00  3.97368E+00  4.10538E+00  4.29118E+00  4.53133E+00  4.82465E+00  5.16988E+00  5.56438E+00
   6.00522E+00  6.48757E+00  7.00577E+00  7.55209E+00  8.11816E+00  8.69385E+00  9.26844E+00  9.82952E+00  1.03645E+01  1.08598E+01
   1.13029E+01  1.16816E+01  1.19852E+01  1.22040E+01  1.23312E+01  1.23616E+01  1.22936E+01  1.21279E+01  1.18686E+01  1.15213E+01
   1.10948E+01  1.05991E+01  1.00465E+01  9.44947E+00  8.82118E+00  8.17402E+00  7.52031E+00  6.87092E+00  6.23607E+00  5.62376E+00
   5.04086E+00  4.49195E+00  3.98077E+00  3.50918E+00  3.07838E+00  2.68779E+00  2.33644E+00  2.02216E+00  1.74303E+00  1.49634E+00
   1.27976E+00  1.09021E+00  9.25156E-01  7.81711E-01  6.57830E-01  5.51144E-01  4.59943E-01  3.82049E-01  3.16020E-01  2.60176E-01
   2.13663E-01  1.75211E-01  1.44099E-01  1.19105E-01  9.97142E-02  8.50908E-02  7.50773E-02  6.89678E-02  6.65314E-02  6.70274E-02
   7.03940E-02  7.61926E-02  8.45421E-02  9.49480E-02  1.07375E-01  1.21312E-01  1.36909E-01  1.53878E-01  1.72412E-01  1.92078E-01
   2.12930E-01  2.34595E-01  2.57340E-01  2.80941E-01  3.05591E-01  3.30878E-01  3.56915E-01  3.83420E-01  4.10713E-01  4.38573E-01
   4.67174E-01  4.96123E-01  5.25601E-01  5.55401E-01  5.85854E-01  6.16709E-01  6.48109E-01  6.79693E-01  7.11697E-01  7.43960E-01
   7.76800E-01  8.09932E-01  8.43493E-01  8.77172E-01  9.11262E-01  9.45625E-01  9.80543E-01  1.01570E+00  1.05125E+00  1.08695E+00
   1.12312E+00  1.15964E+00  1.19675E+00  1.23413E+00  1.27199E+00  1.31014E+00  1.34896E+00  1.38833E+00
 NY background values follow
    -2.121E+01   -2.115E+01   -2.110E+01   -2.104E+01   -2.098E+01   -2.092E+01   -2.086E+01   -2.080E+01   -2.075E+01   -2.069E+01
    -2.063E+01   -2.057E+01   -2.051E+01   -2.045E+01   -2.039E+01   -2.033E+01   -2.028E+01   -2.022E+01   -2.016E+01   -2.010E+01
    -2.004E+01   -1.998E+01   -1.992E+01   -1.986E+01   -1.981E+01   -1.975E+01   -1.969E+01   -1.963E+01   -1.957E+01   -1.951E+01
    -1.945E+01   -1.939E+01   -1.933E+01   -1.928E+01   -1.922E+01   -1.916E+01   -1.910E+01   -1.904E+01   -1.898E+01   -1.892E+01
    -1.886E+01   -1.881E+01   -1.875E+01   -1.869E+01   -1.863E+01   -1.857E+01   -1.851E+01   -1.845E+01   -1.839E+01   -1.834E+01
    -1.828E+01   -1.822E+01   -1.816E+01   -1.810E+01   -1.804E+01   -1.799E+01   -1.793E+01   -1.787E+01   -1.781E+01   -1.775E+01
    -1.769E+01   -1.764E+01   -1.758E+01   -1.752E+01   -1.746E+01   -1.740E+01   -1.735E+01   -1.729E+01   -1.723E+01   -1.717E+01
    -1.711E+01   -1.706E+01   -1.700E+01   -1.694E+01   -1.688E+01   -1.683E+01   -1.677E+01   -1.671E+01   -1.665E+01   -1.660E+01
    -1.654E+01   -1.648E+01   -1.642E+01   -1.637E+01   -1.631E+01   -1.625E+01   -1.620E+01   -1.614E+01   -1.608E+01   -1.603E+01
    -1.597E+01   -1.591E+01   -1.586E+01   -1.580E+01   -1.574E+01   -1.569E+01   -1.563E+01   -1.557E+01   -1.552E+01   -1.546E+01
    -1.541E+01   -1.535E+01   -1.529E+01   -1.524E+01   -1.518E+01   -1.513E+01   -1.507E+01   -1.502E+01   -1.496E+01   -1.491E+01
    -1.485E+01   -1.479E+01   -1.474E+01   -1.468E+01   -1.463E+01   -1.457E+01   -1.452E+01   -1.447E+01   -1.441E+01   -1.436E+01
    -1.430E+01   -1.425E+01   -1.419E+01   -1.414E+01   -1.408E+01   -1.403E+01   -1.398E+01   -1.392E+01   -1.387E+01   -1.381E+01
    -1.376E+01   -1.371E+01   -1.365E+01   -1.360E+01   -1.355E+01   -1.349E+01   -1.344E+01   -1.339E+01   -1.333E+01   -1.328E+01
    -1.323E+01   -1.318E+01   -1.312E+01   -1.307E+01   -1.302E+01   -1.297E+01   -1.291E+01   -1.286E+01   -1.281E+01   -1.276E+01
    -1.270E+01   -1.265E+01   -1.260E+01   -1.255E+01   -1.250E+01   -1.245E+01   -1.239E+01   -1.234E+01   -1.229E+01   -1.224E+01
    -1.219E+01   -1.214E+01   -1.208E+01   -1.203E+01   -1.198E+01   -1.193E+01   -1.188E+01   -1.183E+01   -1.178E+01   -1.173E+01
    -1.168E+01   -1.162E+01   -1.157E+01   -1.152E+01   -1.147E+01   -1.142E+01   -1.137E+01   -1.132E+01   -1.127E+01   -1.122E+01
    -1.117E+01   -1.112E+01   -1.107E+01   -1.102E+01   -1.097E+01   -1.092E+01   -1.087E+01   -1.082E+01   -1.077E+01   -1.072E+01
    -1.067E+01   -1.062E+01   -1.057E+01   -1.052E+01   -1.047E+01   -1.042E+01   -1.037E+01   -1.032E+01   -1.027E+01   -1.022E+01
    -1.017E+01   -1.012E+01   -1.007E+01   -1.002E+01   -9.968E+00   -9.919E+00   -9.869E+00   -9.820E+00   -9.771E+00   -9.721E+00
    -9.672E+00   -9.623E+00   -9.574E+00   -9.525E+00   -9.476E+00   -9.427E+00   -9.378E+00   -9.329E+00   -9.280E+00   -9.232E+00
    -9.183E+00   -9.134E+00   -9.086E+00   -9.037E+00   -8.989E+00   -8.940E+00   -8.892E+00   -8.844E+00   -8.796E+00   -8.748E+00
    -8.700E+00   -8.652E+00   -8.604E+00   -8.556E+00   -8.508E+00   -8.460E+00   -8.413E+00   -8.365E+00   -8.318E+00   -8.270E+00
    -8.223E+00   -8.176E+00   -8.128E+00   -8.081E+00   -8.034E+00   -7.987E+00   -7.940E+00   -7.893E+00   -7.846E+00   -7.799E+00
    -7.753E+00   -7.706E+00   -7.660E+00   -7.613E+00   -7.567E+00   -7.520E+00   -7.474E+00   -7.428E+00   -7.382E+00   -7.335E+00
    -7.289E+00   -7.243E+00   -7.198E+00   -7.152E+00   -7.106E+00   -7.060E+00   -7.015E+00   -6.969E+00   -6.924E+00   -6.879E+00
    -6.833E+00   -6.788E+00   -6.743E+00   -6.698E+00   -6.653E+00   -6.608E+00   -6.563E+00   -6.518E+00   -6.473E+00   -6.429E+00
    -6.384E+00   -6.340E+00   -6.295E+00   -6.251E+00   -6.207E+00   -6.162E+00   -6.118E+00   -6.074E+00   -6.030E+00   -5.986E+00
    -5.942E+00   -5.899E+00   -5.855E+00   -5.811E+00   -5.768E+00   -5.724E+00   -5.681E+00   -5.637E+00   -5.594E+00   -5.551E+00
    -5.508E+00   -5.464E+00   -5.421E+00   -5.378E+00   -5.335E+00   -5.293E+00   -5.250E+00   -5.207E+00   -5.164E+00   -5.122E+00
    -5.079E+00   -5.037E+00   -4.994E+00   -4.952E+00   -4.910E+00   -4.868E+00   -4.826E+00   -4.783E+00   -4.741E+00   -4.699E+00
    -4.658E+00   -4.616E+00   -4.574E+00   -4.532E+00   -4.491E+00   -4.449E+00   -4.408E+00   -4.366E+00   -4.325E+00   -4.283E+00
    -4.242E+00   -4.201E+00   -4.160E+00   -4.119E+00   -4.078E+00   -4.037E+00   -3.996E+00   -3.955E+00   -3.914E+00   -3.873E+00
    -3.833E+00   -3.792E+00   -3.752E+00   -3.711E+00   -3.671E+00   -3.630E+00   -3.590E+00   -3.550E+00   -3.509E+00   -3.469E+00
    -3.429E+00   -3.389E+00   -3.349E+00   -3.309E+00   -3.269E+00   -3.229E+00   -3.190E+00   -3.150E+00   -3.110E+00   -3.071E+00
    -3.031E+00   -2.991E+00   -2.952E+00   -2.913E+00   -2.873E+00   -2.834E+00   -2.795E+00   -2.755E+00   -2.716E+00   -2.677E+00
    -2.638E+00   -2.599E+00   -2.560E+00   -2.521E+00   -2.482E+00   -2.443E+00   -2.405E+00   -2.366E+00   -2.327E+00   -2.289E+00
    -2.250E+00   -2.211E+00   -2.173E+00   -2.134E+00   -2.096E+00   -2.058E+00   -2.019E+00   -1.981E+00   -1.943E+00   -1.904E+00
    -1.866E+00   -1.828E+00   -1.790E+00   -1.752E+00   -1.714E+00   -1.676E+00   -1.638E+00   -1.600E+00   -1.562E+00   -1.524E+00
    -1.486E+00   -1.448E+00   -1.410E+00   -1.373E+00   -1.335E+00   -1.297E+00   -1.259E+00   -1.222E+00   -1.184E+00   -1.147E+00
    -1.109E+00   -1.071E+00   -1.034E+00   -9.964E-01   -9.589E-01   -9.214E-01   -8.840E-01   -8.466E-01   -8.092E-01   -7.719E-01
    -7.346E-01   -6.973E-01   -6.600E-01   -6.227E-01   -5.855E-01   -5.482E-01   -5.110E-01   -4.738E-01   -4.367E-01   -3.995E-01
    -3.624E-01   -3.253E-01   -2.882E-01   -2.511E-01   -2.141E-01   -1.770E-01   -1.400E-01   -1.030E-01   -6.602E-02   -2.904E-02
     7.926E-03    4.488E-02    8.181E-02    1.187E-01    1.556E-01    1.925E-01    2.294E-01    2.663E-01    3.032E-01    3.400E-01
     3.769E-01    4.137E-01    4.505E-01    4.873E-01    5.241E-01    5.609E-01    5.977E-01    6.345E-01    6.713E-01    7.080E-01
     7.448E-01    7.815E-01    8.182E-01    8.549E-01    8.917E-01    9.284E-01    9.650E-01    1.002E+00    1.038E+00    1.075E+00
     1.112E+00    1.148E+00    1.185E+00    1.222E+00    1.258E+00    1.295E+00    1.331E+00    1.368E+00    1.405E+00    1.441E+00
     1.478E+00    1.514E+00    1.551E+00    1.587E+00    1.624E+00    1.660E+00    1.697E+00    1.733E+00    1.770E+00    1.806E+00
     1.843E+00    1.879E+00    1.915E+00    1.952E+00    1.988E+00    2.025E+00    2.061E+00    2.097E+00
 Cr       Conc. = 5.90E+02
