 LCModel (Version 6.3-1L) Copyright: S.W. Provencher.          Ref.: Magn. Reson. Med. 30:672-679 (1993).                
 Slice#3 Row#10 Col#11  K_02_press_1_raw_act
 36 lines in following concentration table = NCONC+1
    Conc.  %SD /Cr+PCr  Metabolite                                         
  341.570  39%   0.194 Ala                                                 
    0.000 999%   0.000 Asp                                                 
  318.336 125%   0.181 Cr                                                  
 1.44E+03  28%   0.819 PCr                                                 
    0.000 999%   0.000 GABA                                                
    0.000 999%   0.000 Glc                                                 
 1.04E+03  28%   0.591 Gln                                                 
 1.79E+03  18%   1.015 Glu                                                 
  495.522   5%   0.281 GPC                                                 
    0.000 999%   0.000 PCh                                                 
  300.166  28%   0.170 GSH                                                 
  806.030  37%   0.457 Ins                                                 
    0.000 999%   0.000 Lac                                                 
 2.60E+03   3%   1.476 NAA                                                 
    0.000 999%   0.000 NAAG                                                
   96.533  32% 5.5E-02 Scyllo                                              
    0.000 999%   0.000 Tau                                                 
 1.20E+03  11%   0.683 -CrCH2                                              
  495.522   5%   0.281 GPC+PCh                                             
 2.60E+03   3%   1.476 NAA+NAAG                                            
 1.76E+03   4%   1.000 Cr+PCr                                              
 2.83E+03  17%   1.605 Glu+Gln                                             
 8.91E+03  13%   5.054 Lip13a                                              
    0.000 999%   0.000 Lip13b                                              
 2.84E+03  18%   1.613 Lip09                                               
  266.604 163%   0.151 MM09                                                
 1.15E+03  33%   0.654 Lip20                                               
 3.07E+03  16%   1.742 MM20                                                
    0.000 999%   0.000 MM12                                                
 1.30E+03  45%   0.737 MM14                                                
    0.000 999%   0.000 MM17                                                
 8.91E+03  13%   5.054 Lip13a+Lip13b                                       
 1.02E+04   9%   5.791 MM14+Lip13a+Lip13b+MM12                             
 3.11E+03  12%   1.765 MM09+Lip09                                          
 4.22E+03  10%   2.396 MM20+Lip20                                          
   6 lines in following misc. output table
  FWHM = 0.061 ppm    S/N =  13                                            
  Data shift = 0.023 ppm                                                   
  Ph: -12 deg     -11.6 deg/ppm                                            
  alphaB,S = 5.7E-01,   1.8E+02                                            
   14 spline knots.   Ns = 8(1)                                            
  (10) 3 infls.   ( 7) 1 extrs.                                            
  498 points on ppm-axis = NY
      4.000000     3.992357     3.984714     3.977070     3.969427     3.961784     3.954141     3.946497     3.938854     3.931211
      3.923568     3.915925     3.908281     3.900638     3.892995     3.885352     3.877708     3.870065     3.862422     3.854779
      3.847136     3.839492     3.831849     3.824206     3.816563     3.808919     3.801276     3.793633     3.785990     3.778347
      3.770703     3.763060     3.755417     3.747774     3.740130     3.732487     3.724844     3.717201     3.709558     3.701914
      3.694271     3.686628     3.678985     3.671341     3.663698     3.656055     3.648412     3.640769     3.633125     3.625482
      3.617839     3.610196     3.602552     3.594909     3.587266     3.579623     3.571980     3.564336     3.556693     3.549050
      3.541407     3.533763     3.526120     3.518477     3.510834     3.503191     3.495547     3.487904     3.480261     3.472618
      3.464974     3.457331     3.449688     3.442045     3.434402     3.426758     3.419115     3.411472     3.403829     3.396185
      3.388542     3.380899     3.373256     3.365613     3.357969     3.350326     3.342683     3.335040     3.327396     3.319753
      3.312110     3.304467     3.296824     3.289180     3.281537     3.273894     3.266251     3.258607     3.250964     3.243321
      3.235678     3.228034     3.220391     3.212748     3.205105     3.197462     3.189818     3.182175     3.174532     3.166889
      3.159245     3.151602     3.143959     3.136316     3.128673     3.121029     3.113386     3.105743     3.098100     3.090456
      3.082813     3.075170     3.067527     3.059884     3.052240     3.044597     3.036954     3.029311     3.021667     3.014024
      3.006381     2.998738     2.991095     2.983451     2.975808     2.968165     2.960522     2.952878     2.945235     2.937592
      2.929949     2.922306     2.914662     2.907019     2.899376     2.891733     2.884089     2.876446     2.868803     2.861160
      2.853517     2.845873     2.838230     2.830587     2.822944     2.815300     2.807657     2.800014     2.792371     2.784728
      2.777084     2.769441     2.761798     2.754155     2.746511     2.738868     2.731225     2.723582     2.715939     2.708295
      2.700652     2.693009     2.685366     2.677722     2.670079     2.662436     2.654793     2.647150     2.639506     2.631863
      2.624220     2.616577     2.608933     2.601290     2.593647     2.586004     2.578361     2.570717     2.563074     2.555431
      2.547788     2.540144     2.532501     2.524858     2.517215     2.509572     2.501928     2.494285     2.486642     2.478999
      2.471355     2.463712     2.456069     2.448426     2.440783     2.433139     2.425496     2.417853     2.410210     2.402566
      2.394923     2.387280     2.379637     2.371994     2.364350     2.356707     2.349064     2.341421     2.333777     2.326134
      2.318491     2.310848     2.303205     2.295561     2.287918     2.280275     2.272632     2.264988     2.257345     2.249702
      2.242059     2.234416     2.226772     2.219129     2.211486     2.203843     2.196199     2.188556     2.180913     2.173270
      2.165627     2.157983     2.150340     2.142697     2.135054     2.127410     2.119767     2.112124     2.104481     2.096838
      2.089194     2.081551     2.073908     2.066265     2.058621     2.050978     2.043335     2.035692     2.028049     2.020405
      2.012762     2.005119     1.997476     1.989833     1.982190     1.974546     1.966903     1.959260     1.951617     1.943974
      1.936331     1.928688     1.921045     1.913402     1.905759     1.898115     1.890472     1.882829     1.875186     1.867543
      1.859900     1.852257     1.844614     1.836971     1.829327     1.821684     1.814041     1.806398     1.798755     1.791112
      1.783469     1.775826     1.768183     1.760540     1.752896     1.745253     1.737610     1.729967     1.722324     1.714681
      1.707038     1.699395     1.691752     1.684108     1.676465     1.668822     1.661179     1.653536     1.645893     1.638250
      1.630607     1.622964     1.615321     1.607677     1.600034     1.592391     1.584748     1.577105     1.569462     1.561819
      1.554176     1.546533     1.538890     1.531246     1.523603     1.515960     1.508317     1.500674     1.493031     1.485388
      1.477745     1.470102     1.462458     1.454815     1.447172     1.439529     1.431886     1.424243     1.416600     1.408957
      1.401314     1.393671     1.386027     1.378384     1.370741     1.363098     1.355455     1.347812     1.340169     1.332526
      1.324883     1.317240     1.309596     1.301953     1.294310     1.286667     1.279024     1.271381     1.263738     1.256095
      1.248452     1.240808     1.233165     1.225522     1.217879     1.210236     1.202593     1.194950     1.187307     1.179664
      1.172021     1.164377     1.156734     1.149091     1.141448     1.133805     1.126162     1.118519     1.110876     1.103233
      1.095590     1.087946     1.080303     1.072660     1.065017     1.057374     1.049731     1.042088     1.034445     1.026802
      1.019158     1.011515     1.003872     0.996229     0.988586     0.980943     0.973300     0.965657     0.958014     0.950371
      0.942727     0.935084     0.927441     0.919798     0.912155     0.904512     0.896869     0.889226     0.881583     0.873940
      0.866296     0.858653     0.851010     0.843367     0.835724     0.828081     0.820438     0.812795     0.805152     0.797508
      0.789865     0.782222     0.774579     0.766936     0.759293     0.751650     0.744007     0.736364     0.728721     0.721077
      0.713434     0.705791     0.698148     0.690505     0.682862     0.675219     0.667576     0.659933     0.652290     0.644646
      0.637003     0.629360     0.621717     0.614074     0.606431     0.598788     0.591145     0.583502     0.575858     0.568215
      0.560572     0.552929     0.545286     0.537643     0.530000     0.522357     0.514714     0.507071     0.499427     0.491784
      0.484141     0.476498     0.468855     0.461212     0.453569     0.445925     0.438282     0.430639     0.422996     0.415353
      0.407710     0.400067     0.392424     0.384780     0.377137     0.369494     0.361851     0.354208     0.346565     0.338922
      0.331278     0.323635     0.315992     0.308349     0.300706     0.293063     0.285420     0.277777     0.270133     0.262490
      0.254847     0.247204     0.239561     0.231918     0.224275     0.216631     0.208988     0.201345
 NY phased data points follow
   1.68188E+01  1.62759E+01  1.68308E+01  1.41758E+01  1.92810E+01  1.87647E+01  1.80931E+01  2.47466E+01  2.23291E+01  2.35370E+01
   2.35650E+01  2.76346E+01  2.58737E+01  2.36014E+01  2.58987E+01  2.16095E+01  2.36949E+01  2.07190E+01  2.02471E+01  1.72889E+01
   1.62916E+01  1.96687E+01  1.77741E+01  1.41900E+01  1.45598E+01  1.70522E+01  1.19421E+01  1.64743E+01  1.44272E+01  1.47295E+01
   1.48204E+01  1.74639E+01  1.83041E+01  1.76799E+01  1.71520E+01  1.99959E+01  2.04857E+01  1.92462E+01  1.98530E+01  1.56885E+01
   1.92976E+01  1.43377E+01  1.62875E+01  1.50294E+01  1.60437E+01  1.85248E+01  1.97272E+01  2.03385E+01  1.91466E+01  1.91752E+01
   1.93570E+01  1.77212E+01  2.05730E+01  1.59387E+01  1.72232E+01  1.55907E+01  1.74102E+01  1.27804E+01  1.22079E+01  8.23815E+00
   1.09750E+01  9.31790E+00  4.19979E+00  7.11068E+00  4.02112E+00  2.91620E+00  6.66133E-01  2.04662E+00  1.43310E+00  6.45095E+00
   5.74055E+00  3.74885E+00  9.33980E+00  4.20097E+00  5.80189E+00  8.93476E+00  1.02009E+01  6.32560E+00  8.39231E+00  8.09044E+00
   6.80637E+00  7.78654E+00  9.08389E+00  6.42378E+00  9.29543E+00  7.88808E+00  1.05489E+01  7.66428E+00  1.08061E+01  1.06907E+01
   7.24574E+00  1.03796E+01  1.25084E+01  1.64123E+01  1.31938E+01  1.42350E+01  1.65980E+01  1.57449E+01  2.14509E+01  2.18219E+01
   3.08106E+01  3.46689E+01  3.90951E+01  4.00679E+01  3.90197E+01  3.97311E+01  3.68820E+01  3.17289E+01  2.50435E+01  2.11684E+01
   1.39481E+01  1.59409E+01  9.91428E+00  6.90902E+00  7.36819E+00  7.20248E+00  9.89939E+00  1.10719E+01  9.95700E+00  1.40383E+01
   1.13031E+01  1.13429E+01  1.77341E+01  2.47665E+01  3.30962E+01  4.11559E+01  4.75627E+01  5.30688E+01  4.89086E+01  4.76852E+01
   4.90812E+01  3.89305E+01  3.04244E+01  2.35809E+01  1.92725E+01  1.75456E+01  1.03290E+01  5.79809E+00  7.16723E+00  9.42201E+00
   6.93897E+00  6.25257E+00  4.45413E+00  4.90767E+00  4.37901E+00  3.18838E+00  4.38775E+00  2.76208E+00  8.25537E-01  2.41390E+00
   2.97011E+00  3.01690E+00  2.06460E+00  3.20237E+00 -1.81008E+00  2.74846E+00  1.89861E-01  2.58324E+00 -1.12751E+00 -6.40700E-02
  -2.13357E+00 -3.09708E+00 -1.01754E+00  2.61871E+00 -3.50282E-01  6.51490E-01 -5.31825E+00 -1.92764E+00 -4.94781E+00 -5.98497E+00
  -5.38867E+00 -9.02472E+00 -8.82864E+00 -1.04044E+01 -1.43462E+01 -1.52531E+01 -1.33527E+01 -1.20817E+01 -1.46896E+01 -8.77212E+00
  -9.85637E+00 -9.93744E+00 -6.36535E+00 -9.81138E+00 -5.82842E+00 -7.53687E+00 -4.03577E+00 -8.31185E+00 -7.06225E+00 -3.34271E+00
  -1.47765E+00 -4.26680E+00 -1.78213E+00 -2.60120E+00  7.92284E-01 -1.74440E+00 -3.56193E+00 -3.93256E+00 -2.33261E+00 -6.77728E+00
  -4.71355E+00 -3.97832E+00 -1.03819E+00  2.47255E+00  2.15292E+00  3.65490E+00  3.16588E+00  5.30206E-01  4.28524E-01 -1.39119E-01
   7.23484E-01  1.16236E+00  3.84265E+00  7.09133E+00  1.37192E+01  1.37027E+01  1.46681E+01  1.31165E+01  1.32125E+01  9.12692E+00
   3.62220E+00  2.06608E+00  8.64097E-01  1.99665E+00  2.07010E+00  6.79522E+00  6.74352E+00  4.90231E+00  6.15448E+00  7.16409E+00
   8.14349E+00  6.85298E+00  8.08079E+00  1.01680E+01  1.13883E+01  1.03876E+01  8.14468E+00  9.30431E+00  6.68035E+00  7.63616E+00
   8.89909E+00  1.22319E+00  1.75751E+00  4.71078E+00  6.60828E+00  6.74364E+00  7.24041E+00  1.36603E+01  1.20202E+01  1.54908E+01
   1.43304E+01  1.77603E+01  2.25779E+01  2.46553E+01  2.88177E+01  3.21606E+01  4.03831E+01  5.44255E+01  7.26418E+01  8.30733E+01
   9.04442E+01  8.28463E+01  7.93619E+01  6.90422E+01  5.78895E+01  4.29165E+01  3.11954E+01  2.59587E+01  1.86641E+01  1.32499E+01
   1.19942E+01  8.44845E+00  8.70497E+00  6.34387E+00  7.75366E+00  8.33573E+00  7.16467E+00  6.75614E+00  4.19294E+00  5.41213E+00
   5.24242E+00  3.14502E+00  5.19464E+00  2.38949E+00  5.60520E+00  3.67429E+00  3.25475E+00  2.99184E+00  7.60955E-01  2.95954E+00
   3.22291E+00  3.59211E+00  4.81809E+00  2.93288E+00  2.87980E+00  6.52361E+00  4.89979E-01  3.21582E+00  2.86336E+00  8.83207E-01
   1.40618E+00  4.31525E+00 -1.30558E-01 -6.37325E-01  2.40317E+00  3.64787E+00 -1.10612E+00  1.56013E+00  5.42201E+00  5.89766E+00
   3.79892E+00  4.31932E+00  7.39735E+00  1.07176E+01  7.67795E+00  1.06955E+01  1.06367E+01  1.30664E+01  9.08043E+00  1.32221E+01
   1.09624E+01  1.04116E+01  8.50837E+00  8.16372E+00  1.13637E+01  7.92057E+00  1.18550E+01  7.65123E+00  1.11557E+01  1.34073E+01
   1.20038E+01  1.14879E+01  1.65270E+01  1.66548E+01  1.90434E+01  2.08717E+01  2.19900E+01  2.38463E+01  2.49565E+01  2.30057E+01
   2.59468E+01  2.76133E+01  3.30671E+01  3.10645E+01  3.00354E+01  3.01502E+01  3.42706E+01  3.52225E+01  3.56396E+01  3.11746E+01
   3.54742E+01  3.02645E+01  3.13025E+01  3.28049E+01  3.27559E+01  3.41535E+01  3.17711E+01  3.32816E+01  2.85367E+01  3.37610E+01
   2.65087E+01  2.60072E+01  2.75342E+01  2.57558E+01  2.72505E+01  2.86364E+01  2.50562E+01  2.61692E+01  2.92512E+01  2.93364E+01
   2.87612E+01  2.19815E+01  2.30092E+01  2.63600E+01  2.42097E+01  2.36743E+01  2.27271E+01  2.15535E+01  2.38842E+01  2.02500E+01
   2.27535E+01  2.02790E+01  1.59224E+01  1.89883E+01  2.28291E+01  1.91743E+01  2.23240E+01  2.11418E+01  2.02547E+01  2.23319E+01
   2.21097E+01  2.44581E+01  1.69904E+01  2.49770E+01  2.33554E+01  2.27114E+01  1.99729E+01  2.22468E+01  2.12544E+01  2.19334E+01
   2.20293E+01  2.09297E+01  2.46223E+01  2.12639E+01  2.15763E+01  2.27886E+01  2.52894E+01  2.41163E+01  2.43353E+01  2.56063E+01
   2.29365E+01  2.48609E+01  1.99041E+01  2.21992E+01  2.08383E+01  2.38750E+01  2.35842E+01  1.95488E+01  1.80817E+01  1.47509E+01
   1.50281E+01  1.77337E+01  1.60169E+01  1.58088E+01  1.66909E+01  1.61970E+01  1.61726E+01  1.97164E+01  1.43061E+01  1.67518E+01
   1.33621E+01  2.04363E+01  1.44587E+01  1.59345E+01  1.33786E+01  1.26826E+01  1.43368E+01  1.49241E+01  1.22838E+01  1.44100E+01
   1.29437E+01  1.34175E+01  1.26059E+01  9.76916E+00  1.13681E+01  1.30218E+01  1.16723E+01  9.76139E+00  1.04288E+01  1.04967E+01
   1.21093E+01  1.16051E+01  1.28784E+01  1.42286E+01  1.09434E+01  1.13602E+01  9.98531E+00  1.31025E+01  1.00953E+01  1.05868E+01
   1.15086E+01  9.49028E+00  1.27973E+01  7.89439E+00  9.56484E+00  1.07542E+01  1.02337E+01  9.45932E+00  9.48496E+00  8.89725E+00
   9.81380E+00  1.11215E+01  8.95581E+00  1.38538E+01  9.53989E+00  1.01393E+01  8.57427E+00  8.54802E+00  8.16016E+00  9.66715E+00
   8.44955E+00  1.10472E+01  1.04477E+01  1.03026E+01  1.05860E+01  8.01624E+00  9.66089E+00  7.35348E+00  8.47140E+00  6.62613E+00
   6.83495E+00  7.57776E+00  7.99961E+00  1.04636E+01  8.05313E+00  9.02357E+00  1.32495E+01  1.07086E+01
 NY points of the fit to the data follow
   1.66628E+01  1.63324E+01  1.64136E+01  1.69139E+01  1.76577E+01  1.85048E+01  1.95838E+01  2.10715E+01  2.28961E+01  2.47197E+01
   2.60761E+01  2.66838E+01  2.65538E+01  2.58070E+01  2.46082E+01  2.31462E+01  2.16896E+01  2.03700E+01  1.91645E+01  1.79861E+01
   1.70666E+01  1.63753E+01  1.60236E+01  1.58363E+01  1.55124E+01  1.51839E+01  1.51566E+01  1.56938E+01  1.67165E+01  1.80529E+01
   1.94287E+01  2.04817E+01  2.09648E+01  2.07715E+01  1.99091E+01  1.86088E+01  1.71703E+01  1.58756E+01  1.47658E+01  1.39809E+01
   1.37461E+01  1.39752E+01  1.44001E+01  1.50224E+01  1.58674E+01  1.67968E+01  1.74548E+01  1.76530E+01  1.74016E+01  1.67404E+01
   1.57779E+01  1.46697E+01  1.35796E+01  1.26662E+01  1.19484E+01  1.13531E+01  1.09144E+01  1.07301E+01  1.07548E+01  1.08196E+01
   1.07868E+01  1.06088E+01  1.02917E+01  9.88645E+00  9.48042E+00  9.14322E+00  8.90791E+00  8.77867E+00  8.72874E+00  8.75888E+00
   8.84244E+00  8.92303E+00  8.95814E+00  8.92007E+00  8.81139E+00  8.64935E+00  8.45076E+00  8.26239E+00  8.16665E+00  8.24738E+00
   8.35619E+00  8.45957E+00  8.70000E+00  9.14400E+00  9.69603E+00  1.01571E+01  1.03490E+01  1.02191E+01  9.84826E+00  9.35845E+00
   8.81382E+00  8.30503E+00  7.94620E+00  7.83480E+00  8.18309E+00  9.69418E+00  1.20664E+01  1.47035E+01  1.80439E+01  2.28461E+01
   2.91361E+01  3.57517E+01  4.09583E+01  4.34881E+01  4.31046E+01  4.03372E+01  3.58211E+01  3.02187E+01  2.43981E+01  1.91551E+01
   1.46792E+01  1.06723E+01  7.28093E+00  5.49789E+00  5.07516E+00  5.04584E+00  5.17061E+00  5.45256E+00  6.11632E+00  8.07405E+00
   1.13658E+01  1.48423E+01  1.88967E+01  2.46104E+01  3.22900E+01  4.07783E+01  4.79692E+01  5.20456E+01  5.24303E+01  4.97045E+01
   4.46716E+01  3.80558E+01  3.08399E+01  2.40252E+01  1.80435E+01  1.26164E+01  7.76739E+00  4.71689E+00  3.74886E+00  3.52837E+00
   3.54971E+00  3.64108E+00  3.70209E+00  3.71330E+00  3.69416E+00  3.61772E+00  3.46595E+00  3.26238E+00  3.02177E+00  2.76661E+00
   2.52387E+00  2.30223E+00  2.09301E+00  1.83979E+00  1.60406E+00  1.40256E+00  1.20052E+00  9.42933E-01  5.40126E-01  1.01198E-01
  -2.08671E-01 -3.24105E-01 -3.24424E-01 -3.48635E-01 -4.91098E-01 -7.77769E-01 -1.19670E+00 -1.73415E+00 -2.37547E+00 -2.96001E+00
  -3.45108E+00 -3.99014E+00 -4.61577E+00 -5.28613E+00 -5.74390E+00 -5.86202E+00 -5.81079E+00 -5.75314E+00 -5.77856E+00 -5.84996E+00
  -5.80553E+00 -5.66726E+00 -5.53790E+00 -5.40814E+00 -5.16475E+00 -4.74929E+00 -4.18729E+00 -3.43195E+00 -2.49124E+00 -1.49815E+00
  -7.18529E-01 -2.72583E-01 -5.96055E-02  3.70257E-03 -4.41802E-02 -1.18837E-01 -1.14244E-01  3.45425E-02  5.00088E-01  1.27119E+00
   2.16293E+00  2.97872E+00  3.54814E+00  3.73888E+00  3.25994E+00  1.97022E+00  2.07736E-01 -1.59065E+00 -3.04730E+00 -3.85925E+00
  -3.99608E+00 -3.29831E+00 -1.69205E+00  6.50695E-01  3.14849E+00  5.05615E+00  6.08766E+00  6.24263E+00  5.38303E+00  3.51287E+00
   1.10357E+00 -9.90717E-01 -2.20258E+00 -2.42316E+00 -1.76753E+00 -4.35081E-01  1.43906E+00  3.47713E+00  5.17027E+00  6.41318E+00
   7.26378E+00  7.81515E+00  8.08951E+00  8.11386E+00  8.15600E+00  8.51947E+00  9.14439E+00  9.79715E+00  1.02606E+01  1.03547E+01
   1.00799E+01  9.58526E+00  9.09826E+00  8.86989E+00  8.98396E+00  9.38026E+00  1.00346E+01  1.08934E+01  1.18162E+01  1.27383E+01
   1.37279E+01  1.54231E+01  1.96671E+01  2.49243E+01  2.99290E+01  3.61959E+01  4.55497E+01  5.78758E+01  7.06070E+01  8.03651E+01
   8.48584E+01  8.38378E+01  7.83816E+01  6.95661E+01  5.86182E+01  4.73293E+01  3.72411E+01  2.85008E+01  2.02624E+01  1.30843E+01
   9.43717E+00  8.12632E+00  7.37557E+00  6.84548E+00  6.46149E+00  6.17006E+00  5.88167E+00  5.58884E+00  5.28459E+00  4.96900E+00
   4.65875E+00  4.36916E+00  4.09386E+00  3.83762E+00  3.62009E+00  3.44921E+00  3.31324E+00  3.20293E+00  3.11422E+00  3.04842E+00
   3.00140E+00  2.96550E+00  2.94175E+00  2.93431E+00  2.94234E+00  2.96584E+00  3.00375E+00  3.05648E+00  3.12227E+00  3.20065E+00
   3.29152E+00  3.39624E+00  3.51364E+00  3.64429E+00  3.78780E+00  3.94550E+00  4.11736E+00  4.30513E+00  4.50947E+00  4.73306E+00
   4.97750E+00  5.24603E+00  5.54075E+00  5.86622E+00  6.22695E+00  6.63035E+00  7.08568E+00  7.61208E+00  8.25154E+00  9.02295E+00
   9.77827E+00  1.05239E+01  1.13486E+01  1.22359E+01  1.30298E+01  1.35243E+01  1.36306E+01  1.35468E+01  1.34207E+01  1.33077E+01
   1.33338E+01  1.37240E+01  1.46737E+01  1.61776E+01  1.80149E+01  1.99333E+01  2.18330E+01  2.36768E+01  2.52485E+01  2.64737E+01
   2.74222E+01  2.82015E+01  2.88690E+01  2.93915E+01  2.97622E+01  3.01536E+01  3.06064E+01  3.10580E+01  3.14770E+01  3.18487E+01
   3.21630E+01  3.24140E+01  3.25964E+01  3.27076E+01  3.27447E+01  3.27072E+01  3.25943E+01  3.24075E+01  3.21481E+01  3.18196E+01
   3.14254E+01  3.09712E+01  3.04620E+01  2.99049E+01  2.93066E+01  2.86755E+01  2.80190E+01  2.73457E+01  2.66632E+01  2.59801E+01
   2.53034E+01  2.46412E+01  2.39994E+01  2.33849E+01  2.28026E+01  2.22580E+01  2.17548E+01  2.12974E+01  2.08881E+01  2.05301E+01
   2.02247E+01  1.99739E+01  1.97783E+01  1.96388E+01  1.95550E+01  1.95267E+01  1.95525E+01  1.96313E+01  1.97603E+01  1.99371E+01
   2.01573E+01  2.04171E+01  2.07105E+01  2.10319E+01  2.13738E+01  2.17291E+01  2.20889E+01  2.24450E+01  2.27880E+01  2.31094E+01
   2.34000E+01  2.36519E+01  2.38573E+01  2.40102E+01  2.41048E+01  2.41380E+01  2.41068E+01  2.40109E+01  2.38506E+01  2.36287E+01
   2.33482E+01  2.30143E+01  2.26320E+01  2.22083E+01  2.17493E+01  2.12626E+01  2.07546E+01  2.02327E+01  1.97026E+01  1.91709E+01
   1.86422E+01  1.81218E+01  1.76132E+01  1.71200E+01  1.66444E+01  1.61889E+01  1.57544E+01  1.53423E+01  1.49525E+01  1.45857E+01
   1.42410E+01  1.39185E+01  1.36170E+01  1.33363E+01  1.30747E+01  1.28319E+01  1.26063E+01  1.23973E+01  1.22034E+01  1.20242E+01
   1.18580E+01  1.17044E+01  1.15621E+01  1.14308E+01  1.13091E+01  1.11968E+01  1.10926E+01  1.09966E+01  1.09075E+01  1.08254E+01
   1.07493E+01  1.06792E+01  1.06140E+01  1.05541E+01  1.04985E+01  1.04474E+01  1.04000E+01  1.03565E+01  1.03163E+01  1.02794E+01
   1.02454E+01  1.02144E+01  1.01858E+01  1.01599E+01  1.01361E+01  1.01146E+01  1.00950E+01  1.00776E+01  1.00617E+01  1.00478E+01
   1.00352E+01  1.00245E+01  1.00149E+01  1.00070E+01  1.00001E+01  9.99469E+00  9.99021E+00  9.98713E+00  9.98488E+00  9.98389E+00
   9.98361E+00  9.98450E+00  9.98606E+00  9.98874E+00  9.99200E+00  9.99627E+00  1.00011E+01  1.00068E+01  1.00131E+01  1.00202E+01
   1.00278E+01  1.00363E+01  1.00451E+01  1.00548E+01  1.00648E+01  1.00756E+01  1.00867E+01  1.00985E+01
 NY background values follow
     1.194E+01    1.185E+01    1.176E+01    1.167E+01    1.158E+01    1.149E+01    1.140E+01    1.131E+01    1.123E+01    1.114E+01
     1.105E+01    1.096E+01    1.087E+01    1.078E+01    1.069E+01    1.060E+01    1.051E+01    1.042E+01    1.034E+01    1.025E+01
     1.016E+01    1.007E+01    9.978E+00    9.889E+00    9.800E+00    9.711E+00    9.621E+00    9.532E+00    9.443E+00    9.354E+00
     9.264E+00    9.175E+00    9.086E+00    8.996E+00    8.907E+00    8.818E+00    8.728E+00    8.639E+00    8.549E+00    8.460E+00
     8.371E+00    8.281E+00    8.192E+00    8.102E+00    8.013E+00    7.923E+00    7.834E+00    7.744E+00    7.655E+00    7.565E+00
     7.476E+00    7.386E+00    7.297E+00    7.207E+00    7.118E+00    7.028E+00    6.939E+00    6.849E+00    6.760E+00    6.670E+00
     6.581E+00    6.491E+00    6.402E+00    6.312E+00    6.223E+00    6.133E+00    6.044E+00    5.955E+00    5.865E+00    5.776E+00
     5.686E+00    5.597E+00    5.508E+00    5.419E+00    5.329E+00    5.240E+00    5.151E+00    5.062E+00    4.972E+00    4.883E+00
     4.794E+00    4.705E+00    4.616E+00    4.527E+00    4.438E+00    4.349E+00    4.260E+00    4.171E+00    4.082E+00    3.993E+00
     3.905E+00    3.816E+00    3.727E+00    3.638E+00    3.550E+00    3.461E+00    3.373E+00    3.284E+00    3.196E+00    3.108E+00
     3.020E+00    2.932E+00    2.844E+00    2.756E+00    2.668E+00    2.581E+00    2.493E+00    2.406E+00    2.319E+00    2.232E+00
     2.145E+00    2.058E+00    1.972E+00    1.885E+00    1.799E+00    1.713E+00    1.628E+00    1.542E+00    1.457E+00    1.371E+00
     1.286E+00    1.202E+00    1.117E+00    1.033E+00    9.490E-01    8.652E-01    7.817E-01    6.985E-01    6.155E-01    5.328E-01
     4.504E-01    3.683E-01    2.865E-01    2.049E-01    1.237E-01    4.278E-02   -3.781E-02   -1.181E-01   -1.980E-01   -2.775E-01
    -3.566E-01   -4.352E-01   -5.133E-01   -5.910E-01   -6.681E-01   -7.447E-01   -8.206E-01   -8.960E-01   -9.707E-01   -1.045E+00
    -1.118E+00   -1.191E+00   -1.262E+00   -1.333E+00   -1.404E+00   -1.473E+00   -1.541E+00   -1.609E+00   -1.676E+00   -1.741E+00
    -1.806E+00   -1.870E+00   -1.932E+00   -1.994E+00   -2.054E+00   -2.114E+00   -2.172E+00   -2.229E+00   -2.285E+00   -2.339E+00
    -2.392E+00   -2.444E+00   -2.495E+00   -2.544E+00   -2.592E+00   -2.638E+00   -2.683E+00   -2.727E+00   -2.769E+00   -2.809E+00
    -2.848E+00   -2.886E+00   -2.921E+00   -2.956E+00   -2.988E+00   -3.019E+00   -3.049E+00   -3.077E+00   -3.104E+00   -3.129E+00
    -3.153E+00   -3.176E+00   -3.197E+00   -3.217E+00   -3.236E+00   -3.254E+00   -3.270E+00   -3.285E+00   -3.299E+00   -3.312E+00
    -3.324E+00   -3.335E+00   -3.345E+00   -3.353E+00   -3.361E+00   -3.368E+00   -3.374E+00   -3.379E+00   -3.383E+00   -3.387E+00
    -3.389E+00   -3.391E+00   -3.392E+00   -3.393E+00   -3.393E+00   -3.392E+00   -3.390E+00   -3.388E+00   -3.386E+00   -3.382E+00
    -3.379E+00   -3.374E+00   -3.370E+00   -3.365E+00   -3.359E+00   -3.354E+00   -3.348E+00   -3.341E+00   -3.334E+00   -3.327E+00
    -3.320E+00   -3.312E+00   -3.304E+00   -3.296E+00   -3.287E+00   -3.278E+00   -3.269E+00   -3.259E+00   -3.248E+00   -3.238E+00
    -3.227E+00   -3.215E+00   -3.203E+00   -3.191E+00   -3.178E+00   -3.165E+00   -3.152E+00   -3.137E+00   -3.123E+00   -3.108E+00
    -3.092E+00   -3.076E+00   -3.060E+00   -3.043E+00   -3.025E+00   -3.007E+00   -2.989E+00   -2.970E+00   -2.950E+00   -2.930E+00
    -2.909E+00   -2.888E+00   -2.866E+00   -2.843E+00   -2.820E+00   -2.797E+00   -2.773E+00   -2.748E+00   -2.722E+00   -2.696E+00
    -2.669E+00   -2.642E+00   -2.614E+00   -2.585E+00   -2.556E+00   -2.526E+00   -2.495E+00   -2.464E+00   -2.432E+00   -2.400E+00
    -2.367E+00   -2.333E+00   -2.299E+00   -2.264E+00   -2.229E+00   -2.193E+00   -2.156E+00   -2.119E+00   -2.082E+00   -2.044E+00
    -2.005E+00   -1.965E+00   -1.926E+00   -1.885E+00   -1.844E+00   -1.803E+00   -1.761E+00   -1.719E+00   -1.676E+00   -1.632E+00
    -1.588E+00   -1.544E+00   -1.499E+00   -1.454E+00   -1.408E+00   -1.362E+00   -1.315E+00   -1.268E+00   -1.220E+00   -1.172E+00
    -1.123E+00   -1.074E+00   -1.025E+00   -9.753E-01   -9.252E-01   -8.746E-01   -8.236E-01   -7.722E-01   -7.204E-01   -6.683E-01
    -6.158E-01   -5.629E-01   -5.097E-01   -4.561E-01   -4.022E-01   -3.479E-01   -2.934E-01   -2.385E-01   -1.833E-01   -1.278E-01
    -7.198E-02   -1.590E-02    4.045E-02    9.708E-02    1.540E-01    2.111E-01    2.685E-01    3.261E-01    3.840E-01    4.421E-01
     5.004E-01    5.589E-01    6.176E-01    6.765E-01    7.356E-01    7.948E-01    8.543E-01    9.139E-01    9.736E-01    1.034E+00
     1.094E+00    1.154E+00    1.214E+00    1.274E+00    1.335E+00    1.396E+00    1.456E+00    1.517E+00    1.578E+00    1.639E+00
     1.700E+00    1.761E+00    1.822E+00    1.883E+00    1.944E+00    2.005E+00    2.067E+00    2.128E+00    2.189E+00    2.250E+00
     2.312E+00    2.373E+00    2.434E+00    2.495E+00    2.556E+00    2.617E+00    2.678E+00    2.739E+00    2.800E+00    2.861E+00
     2.922E+00    2.982E+00    3.043E+00    3.103E+00    3.163E+00    3.224E+00    3.284E+00    3.344E+00    3.403E+00    3.463E+00
     3.523E+00    3.582E+00    3.641E+00    3.700E+00    3.759E+00    3.818E+00    3.876E+00    3.934E+00    3.992E+00    4.050E+00
     4.108E+00    4.165E+00    4.222E+00    4.279E+00    4.336E+00    4.392E+00    4.448E+00    4.504E+00    4.559E+00    4.615E+00
     4.670E+00    4.724E+00    4.779E+00    4.833E+00    4.887E+00    4.940E+00    4.993E+00    5.046E+00    5.099E+00    5.151E+00
     5.203E+00    5.255E+00    5.306E+00    5.358E+00    5.408E+00    5.459E+00    5.509E+00    5.559E+00    5.608E+00    5.658E+00
     5.706E+00    5.755E+00    5.803E+00    5.851E+00    5.899E+00    5.946E+00    5.993E+00    6.039E+00    6.085E+00    6.131E+00
     6.177E+00    6.222E+00    6.267E+00    6.311E+00    6.355E+00    6.399E+00    6.442E+00    6.485E+00    6.528E+00    6.570E+00
     6.612E+00    6.654E+00    6.695E+00    6.736E+00    6.776E+00    6.816E+00    6.856E+00    6.896E+00    6.935E+00    6.973E+00
     7.012E+00    7.050E+00    7.088E+00    7.126E+00    7.163E+00    7.200E+00    7.237E+00    7.274E+00    7.310E+00    7.346E+00
     7.383E+00    7.418E+00    7.454E+00    7.489E+00    7.525E+00    7.560E+00    7.595E+00    7.630E+00    7.665E+00    7.699E+00
     7.734E+00    7.768E+00    7.803E+00    7.837E+00    7.871E+00    7.905E+00    7.939E+00    7.973E+00    8.007E+00    8.042E+00
     8.076E+00    8.110E+00    8.144E+00    8.178E+00    8.212E+00    8.246E+00    8.280E+00    8.315E+00
 Ala      Conc. = 3.42E+02
