 LCModel (Version 6.3-1L) Copyright: S.W. Provencher.          Ref.: Magn. Reson. Med. 30:672-679 (1993).                
 Slice#1 Row#2 Col#2  K_02_press_1_raw_act
 36 lines in following concentration table = NCONC+1
    Conc.  %SD /Cr+PCr  Metabolite                                         
    0.000 999%   0.000 Ala                                                 
   14.346  47%   0.162 Asp                                                 
   88.464  31%   1.000 Cr                                                  
    0.000 999%   0.000 PCr                                                 
    9.056  45%   0.102 GABA                                                
    8.837  46%   0.100 Glc                                                 
    0.000 999%   0.000 Gln                                                 
   50.626 208%   0.572 Glu                                                 
    0.000 999%   0.000 GPC                                                 
   32.694  32%   0.370 PCh                                                 
    0.000 999%   0.000 GSH                                                 
    0.000 999%   0.000 Ins                                                 
   99.362  57%   1.123 Lac                                                 
    0.000 999%   0.000 NAA                                                 
  109.475  29%   1.238 NAAG                                                
    3.095  44% 3.5E-02 Scyllo                                              
   15.011  45%   0.170 Tau                                                 
   13.660  75%   0.154 -CrCH2                                              
   32.694  32%   0.370 GPC+PCh                                             
  109.475  29%   1.238 NAA+NAAG                                            
   88.464  31%   1.000 Cr+PCr                                              
   50.626 208%   0.572 Glu+Gln                                             
 1.12E+03  43%  12.709 Lip13a                                              
    0.000 999%   0.000 Lip13b                                              
  186.115 101%   2.104 Lip09                                               
   74.382 196%   0.841 MM09                                                
  114.925 111%   1.299 Lip20                                               
    0.000 999%   0.000 MM20                                                
   65.860 160%   0.744 MM12                                                
 1.09E+03  19%  12.331 MM14                                                
  585.789  28%   6.622 MM17                                                
 1.12E+03  43%  12.709 Lip13a+Lip13b                                       
 2.28E+03  18%  25.784 MM14+Lip13a+Lip13b+MM12                             
  260.497  55%   2.945 MM09+Lip09                                          
  114.925 111%   1.299 MM20+Lip20                                          
   6 lines in following misc. output table
  FWHM = 0.038 ppm    S/N =   1                                            
  Data shift = 0.054 ppm                                                   
  Ph:  85 deg      98.9 deg/ppm                                            
  alphaB,S = 3.7E-01,   2.4E+01                                            
   14 spline knots.   Ns = 5(1)                                            
  (10) 2 infls.   ( 9) 1 extrs.                                            
  498 points on ppm-axis = NY
      4.000000     3.992357     3.984714     3.977070     3.969427     3.961784     3.954141     3.946497     3.938854     3.931211
      3.923568     3.915925     3.908281     3.900638     3.892995     3.885352     3.877708     3.870065     3.862422     3.854779
      3.847136     3.839492     3.831849     3.824206     3.816563     3.808919     3.801276     3.793633     3.785990     3.778347
      3.770703     3.763060     3.755417     3.747774     3.740130     3.732487     3.724844     3.717201     3.709558     3.701914
      3.694271     3.686628     3.678985     3.671341     3.663698     3.656055     3.648412     3.640769     3.633125     3.625482
      3.617839     3.610196     3.602552     3.594909     3.587266     3.579623     3.571980     3.564336     3.556693     3.549050
      3.541407     3.533763     3.526120     3.518477     3.510834     3.503191     3.495547     3.487904     3.480261     3.472618
      3.464974     3.457331     3.449688     3.442045     3.434402     3.426758     3.419115     3.411472     3.403829     3.396185
      3.388542     3.380899     3.373256     3.365613     3.357969     3.350326     3.342683     3.335040     3.327396     3.319753
      3.312110     3.304467     3.296824     3.289180     3.281537     3.273894     3.266251     3.258607     3.250964     3.243321
      3.235678     3.228034     3.220391     3.212748     3.205105     3.197462     3.189818     3.182175     3.174532     3.166889
      3.159245     3.151602     3.143959     3.136316     3.128673     3.121029     3.113386     3.105743     3.098100     3.090456
      3.082813     3.075170     3.067527     3.059884     3.052240     3.044597     3.036954     3.029311     3.021667     3.014024
      3.006381     2.998738     2.991095     2.983451     2.975808     2.968165     2.960522     2.952878     2.945235     2.937592
      2.929949     2.922306     2.914662     2.907019     2.899376     2.891733     2.884089     2.876446     2.868803     2.861160
      2.853517     2.845873     2.838230     2.830587     2.822944     2.815300     2.807657     2.800014     2.792371     2.784728
      2.777084     2.769441     2.761798     2.754155     2.746511     2.738868     2.731225     2.723582     2.715939     2.708295
      2.700652     2.693009     2.685366     2.677722     2.670079     2.662436     2.654793     2.647150     2.639506     2.631863
      2.624220     2.616577     2.608933     2.601290     2.593647     2.586004     2.578361     2.570717     2.563074     2.555431
      2.547788     2.540144     2.532501     2.524858     2.517215     2.509572     2.501928     2.494285     2.486642     2.478999
      2.471355     2.463712     2.456069     2.448426     2.440783     2.433139     2.425496     2.417853     2.410210     2.402566
      2.394923     2.387280     2.379637     2.371994     2.364350     2.356707     2.349064     2.341421     2.333777     2.326134
      2.318491     2.310848     2.303205     2.295561     2.287918     2.280275     2.272632     2.264988     2.257345     2.249702
      2.242059     2.234416     2.226772     2.219129     2.211486     2.203843     2.196199     2.188556     2.180913     2.173270
      2.165627     2.157983     2.150340     2.142697     2.135054     2.127410     2.119767     2.112124     2.104481     2.096838
      2.089194     2.081551     2.073908     2.066265     2.058621     2.050978     2.043335     2.035692     2.028049     2.020405
      2.012762     2.005119     1.997476     1.989833     1.982190     1.974546     1.966903     1.959260     1.951617     1.943974
      1.936331     1.928688     1.921045     1.913402     1.905759     1.898115     1.890472     1.882829     1.875186     1.867543
      1.859900     1.852257     1.844614     1.836971     1.829327     1.821684     1.814041     1.806398     1.798755     1.791112
      1.783469     1.775826     1.768183     1.760540     1.752896     1.745253     1.737610     1.729967     1.722324     1.714681
      1.707038     1.699395     1.691752     1.684108     1.676465     1.668822     1.661179     1.653536     1.645893     1.638250
      1.630607     1.622964     1.615321     1.607677     1.600034     1.592391     1.584748     1.577105     1.569462     1.561819
      1.554176     1.546533     1.538890     1.531246     1.523603     1.515960     1.508317     1.500674     1.493031     1.485388
      1.477745     1.470102     1.462458     1.454815     1.447172     1.439529     1.431886     1.424243     1.416600     1.408957
      1.401314     1.393671     1.386027     1.378384     1.370741     1.363098     1.355455     1.347812     1.340169     1.332526
      1.324883     1.317240     1.309596     1.301953     1.294310     1.286667     1.279024     1.271381     1.263738     1.256095
      1.248452     1.240808     1.233165     1.225522     1.217879     1.210236     1.202593     1.194950     1.187307     1.179664
      1.172021     1.164377     1.156734     1.149091     1.141448     1.133805     1.126162     1.118519     1.110876     1.103233
      1.095590     1.087946     1.080303     1.072660     1.065017     1.057374     1.049731     1.042088     1.034445     1.026802
      1.019158     1.011515     1.003872     0.996229     0.988586     0.980943     0.973300     0.965657     0.958014     0.950371
      0.942727     0.935084     0.927441     0.919798     0.912155     0.904512     0.896869     0.889226     0.881583     0.873940
      0.866296     0.858653     0.851010     0.843367     0.835724     0.828081     0.820438     0.812795     0.805152     0.797508
      0.789865     0.782222     0.774579     0.766936     0.759293     0.751650     0.744007     0.736364     0.728721     0.721077
      0.713434     0.705791     0.698148     0.690505     0.682862     0.675219     0.667576     0.659933     0.652290     0.644646
      0.637003     0.629360     0.621717     0.614074     0.606431     0.598788     0.591145     0.583502     0.575858     0.568215
      0.560572     0.552929     0.545286     0.537643     0.530000     0.522357     0.514714     0.507071     0.499427     0.491784
      0.484141     0.476498     0.468855     0.461212     0.453569     0.445925     0.438282     0.430639     0.422996     0.415353
      0.407710     0.400067     0.392424     0.384780     0.377137     0.369494     0.361851     0.354208     0.346565     0.338922
      0.331278     0.323635     0.315992     0.308349     0.300706     0.293063     0.285420     0.277777     0.270133     0.262490
      0.254847     0.247204     0.239561     0.231918     0.224275     0.216631     0.208988     0.201345
 NY phased data points follow
  -4.47682E+00 -1.00995E+01 -5.93650E+00 -2.90442E+00 -5.21505E+00 -5.94469E+00 -6.01534E+00 -4.54424E+00 -4.93921E+00 -5.27776E+00
  -7.79778E+00 -3.78877E+00 -2.09244E-01 -4.22988E+00 -3.82468E+00 -4.52436E+00 -4.48326E+00 -5.11131E+00 -5.41359E+00 -4.47022E+00
  -4.86875E+00 -2.24815E+00 -3.35673E+00 -3.20100E+00 -3.69395E+00 -1.82108E+00 -4.21067E+00 -6.52149E+00 -2.20385E+00 -6.83135E+00
  -4.06622E+00 -2.14345E+00 -3.50415E+00  5.95778E-01 -5.79819E+00 -4.25739E+00 -9.49432E-01 -3.34545E+00 -6.09922E+00 -2.11373E+00
  -4.68528E+00 -1.90014E+00 -3.37394E+00 -1.77329E-01 -2.67437E+00 -2.56211E+00 -7.34915E-01 -2.03876E+00  5.60792E-04 -2.26453E+00
  -4.07895E+00 -5.28932E-01 -3.05111E+00 -6.22958E-02 -1.30718E-01 -1.79765E+00 -2.00667E-01 -2.58759E-01 -7.09911E-01 -4.77398E+00
  -1.17114E+00  7.34254E-01 -3.99832E-01  1.48516E+00 -4.51937E-01 -8.92448E-02  7.61375E-01  1.60066E+00 -1.72623E+00 -8.58699E-01
  -1.80269E+00 -9.22016E-01  2.36583E+00  2.27326E+00 -4.66617E-01 -2.26374E-01 -1.76417E+00  2.48181E-01  1.07328E-01 -4.41010E+00
  -1.17270E+00  3.63428E+00  1.53522E+00  2.51310E-01  2.78368E+00  8.91815E-01  3.88755E-01  1.57883E+00  2.39924E+00  1.84214E+00
   2.05755E+00  1.61191E-01 -9.96578E-01  1.52254E+00  1.50265E-01  4.62000E+00  2.97549E+00 -2.28996E+00 -9.79127E-01  1.22984E+00
  -1.17254E+00  9.15508E-01 -1.72914E-01  3.80817E+00  2.93630E+00  5.96905E+00  4.79523E+00  5.50938E+00  1.33087E+00  5.00910E-01
   1.05511E+00  2.14046E+00  6.49192E+00 -1.51419E+00  2.17541E+00  2.90155E+00  2.18893E+00  4.77279E+00  2.86973E+00  3.37379E-01
   4.31946E+00  6.69249E-01  6.25353E-01 -2.21140E-01  2.51914E+00  3.54222E+00  4.29661E+00  6.70443E+00  7.18900E+00  3.29456E+00
   8.35838E+00  2.86449E+00  2.89948E+00  3.72156E+00  4.00612E+00  6.89650E-03  1.45384E+00  3.00759E+00  3.49355E+00  5.02689E+00
   3.68501E+00  1.26688E+00  2.19925E+00  3.38648E+00  1.74075E+00  2.68396E+00  2.31549E+00  3.70077E+00  2.23218E+00  3.94130E+00
   4.30728E+00  4.12803E+00  5.68194E+00  5.14934E+00  3.30182E+00  5.59071E+00  4.41393E+00  3.22083E+00  4.25971E+00  4.77651E+00
   5.03635E+00  5.48752E+00 -2.00083E-01  2.88254E+00  5.22759E+00  9.02665E-01  3.25222E+00  6.38530E+00  7.06196E+00  5.05584E+00
   3.47764E+00  4.29924E+00  3.09292E+00  4.53660E+00  3.94039E+00  5.16774E+00  3.49794E+00  3.80606E+00  3.71622E+00  3.57501E+00
   6.03782E+00  5.33508E+00  3.73676E+00  4.37160E+00  5.37697E+00  4.02512E+00  3.65983E+00  8.92836E+00  1.63809E+00  5.04508E+00
   5.50471E+00  4.59797E+00  6.51172E+00  3.19352E+00  4.40357E+00  3.94498E+00  2.11818E+00 -8.20474E-01  1.78063E+00 -1.32972E+00
   2.04483E+00  5.36023E-01 -2.87375E+00 -1.55463E+00 -4.96840E-01  3.57335E+00 -3.79126E+00 -3.34608E+00 -2.10707E+00 -1.62188E+00
  -4.80603E+00 -1.54545E+00 -3.75624E+00 -2.22795E+00 -1.38675E+00 -6.99486E+00 -1.98353E+00 -3.21926E+00 -4.50135E+00 -4.05354E+00
  -4.42823E+00 -4.31155E+00 -5.79136E+00 -3.16814E+00 -9.23690E+00 -4.91838E+00 -2.04777E+00 -4.39651E+00 -5.76651E+00 -9.29987E+00
  -3.41977E+00 -8.75314E+00 -5.65045E+00 -2.85165E+00 -5.90663E+00 -4.38737E+00 -3.12211E+00 -4.54967E+00 -3.58141E+00 -5.27692E+00
  -3.81883E+00 -3.25900E+00 -5.33266E+00 -2.37261E+00 -3.79118E+00 -3.40659E+00 -3.08790E+00 -4.40710E+00 -5.14780E+00 -5.63041E+00
  -1.25429E+00 -3.18052E+00 -3.98357E+00 -8.43215E+00 -5.88446E+00 -1.79252E+00  1.17090E+00  8.59729E-01  2.33709E+00  2.58321E+00
  -7.91941E-01 -2.96556E+00  8.44421E-02 -5.32432E+00 -4.60502E+00 -1.45279E+00 -4.45670E+00 -3.01493E+00 -9.15132E-01 -3.25820E+00
   3.12709E-01 -5.53329E-02 -3.78744E+00 -2.56959E+00  2.19297E+00  1.29115E+00 -2.21660E+00  5.14858E-02  2.15892E+00 -2.56685E-01
   7.02050E-02  3.48921E-02 -1.77841E+00  1.51664E+00 -4.69642E-01 -4.88088E-01 -5.11500E+00  1.40259E+00  2.68852E+00  6.88982E-01
  -4.42850E+00 -3.11791E+00  1.66802E-01  4.77394E-01 -5.73255E-01 -6.97408E-01  5.64977E-01 -1.71291E+00 -2.09779E+00 -3.31529E+00
   5.44091E-01 -4.38705E+00 -3.94347E+00 -3.93288E-01  1.11200E+00 -7.03248E-01 -3.05624E-01 -3.14498E+00  1.96602E+00 -1.19427E+00
   6.93432E-01 -4.83628E+00 -6.44146E+00 -4.84763E+00 -3.63601E+00 -3.45970E+00 -3.69951E+00 -4.98160E+00 -3.19609E+00 -4.37667E+00
  -4.54580E+00 -3.82908E+00 -5.03293E+00 -2.07878E+00 -5.06877E+00 -1.83733E+00 -2.36246E+00 -2.81560E+00 -3.59465E+00 -8.62670E-01
   2.07166E+00  1.14397E+00  1.52652E+00  1.30443E+00  3.78008E+00  2.82634E+00  4.32445E-01  2.80905E+00  2.57599E+00  4.77139E+00
   2.55952E-01  6.19695E+00  4.25479E+00  4.17137E+00  7.31335E+00  6.89035E+00  4.27741E+00  6.46404E+00  5.20766E+00  4.21899E+00
   6.90946E+00  4.39150E+00  5.15813E+00  2.32631E+00  1.34540E+00  3.37515E-01  3.46711E+00 -6.23346E-01  2.58999E+00  1.77916E+00
   2.86090E+00  2.97591E+00  5.87182E+00 -7.84285E-02  3.04349E-01  1.96815E+00  5.34285E+00  2.72045E+00  1.27581E+00  4.32820E+00
   4.19954E+00  4.79737E+00  3.48365E+00 -4.68493E-01  9.73193E-01  2.55087E-01  1.47159E+00 -2.13380E-01  4.97695E+00  3.11874E+00
   2.56556E+00  5.30397E+00  3.61877E+00  9.69747E-01  7.81667E-01  1.09845E+00  2.97621E+00  2.48969E+00  1.32393E+00  3.17501E+00
   3.50307E+00  2.28844E+00  2.57715E+00  4.72021E+00  4.26691E+00  3.97953E+00  2.78770E+00  1.58605E+00 -2.61180E-01  3.26537E+00
   6.72574E-01  2.38365E+00  2.87031E+00  1.07111E+00  3.14030E+00  1.31335E+00 -1.51579E-01 -7.55397E-01  1.03092E+00 -1.10416E+00
   9.26219E-01  1.39864E-01  1.21848E+00  2.98958E+00 -7.42961E-01  1.58098E+00  1.17760E+00  4.49291E+00  8.38006E-01  3.81420E+00
   1.55052E+00  1.22066E-01 -6.86929E-02  8.61679E-02  1.52942E+00 -3.88018E-01  2.82963E+00  2.94603E-01  1.80163E+00 -8.96875E-01
   1.45651E+00  1.03719E+00  1.32459E+00  2.87143E+00  1.15183E+00  2.57461E+00  2.67575E+00  4.82082E-01  1.90489E+00  9.43149E-01
  -6.58342E-01 -2.32616E+00 -1.75035E-01 -1.66193E+00 -4.79820E-01 -1.09425E+00  1.16631E+00  2.24752E+00  1.85407E-01  2.50862E+00
   1.67722E+00 -1.29058E+00  1.26921E+00  2.01136E+00 -1.80696E+00 -2.70896E-01 -5.93634E-01  7.20351E-01  1.34994E+00  2.14899E+00
  -3.10984E-01  8.61400E-01 -1.68634E+00 -1.70663E+00  1.67764E+00  1.88811E+00  1.37978E+00  2.39218E+00 -8.71454E-01  9.98498E-01
  -1.31699E+00  3.99043E-01  3.39171E+00  6.21440E-02  3.69848E-01 -2.09852E+00  2.38691E+00 -2.33492E+00  4.62784E-01  2.74359E+00
   1.29292E+00 -9.41217E-01  4.29678E-01 -1.00802E+00  1.42372E+00 -1.50149E-01  3.08779E+00 -2.22755E+00  3.63781E-01  1.13470E+00
   1.68025E+00 -2.13084E-01  1.25755E+00 -9.24388E-01  6.51664E-01 -2.68404E+00 -8.41937E-01 -2.76059E+00
 NY points of the fit to the data follow
  -4.63966E+00 -4.55750E+00 -4.45216E+00 -4.34309E+00 -4.24490E+00 -4.18836E+00 -4.20462E+00 -4.18408E+00 -3.93301E+00 -3.35917E+00
  -2.56587E+00 -1.81846E+00 -1.38209E+00 -1.38118E+00 -1.77130E+00 -2.35170E+00 -2.86020E+00 -3.15323E+00 -3.25154E+00 -3.25400E+00
  -3.22003E+00 -3.16120E+00 -3.08189E+00 -2.98698E+00 -2.89093E+00 -2.81250E+00 -2.76416E+00 -2.74662E+00 -2.74554E+00 -2.73543E+00
  -2.68859E+00 -2.58919E+00 -2.44941E+00 -2.30621E+00 -2.19962E+00 -2.15434E+00 -2.16320E+00 -2.19273E+00 -2.19951E+00 -2.15772E+00
  -2.07259E+00 -1.97104E+00 -1.88321E+00 -1.82508E+00 -1.79226E+00 -1.76817E+00 -1.73490E+00 -1.68611E+00 -1.63108E+00 -1.57709E+00
  -1.52442E+00 -1.46805E+00 -1.40296E+00 -1.32979E+00 -1.25518E+00 -1.18751E+00 -1.13301E+00 -1.09101E+00 -1.05492E+00 -1.01763E+00
  -9.75484E-01 -9.29269E-01 -8.80137E-01 -8.27495E-01 -7.72260E-01 -7.15384E-01 -6.59142E-01 -6.08322E-01 -5.66461E-01 -5.33218E-01
  -5.06165E-01 -4.78426E-01 -4.37451E-01 -3.74709E-01 -2.92050E-01 -2.03934E-01 -1.30967E-01 -8.90752E-02 -7.97965E-02 -9.03046E-02
  -9.97613E-02 -9.26834E-02 -5.87440E-02  1.06311E-02  1.13105E-01  2.33021E-01  3.43367E-01  4.18492E-01  4.48483E-01  4.39418E-01
   4.06288E-01  3.68021E-01  3.35619E-01  3.06638E-01  2.75597E-01  2.49148E-01  2.40571E-01  2.51744E-01  2.47917E-01  2.10283E-01
   3.59489E-01  9.61175E-01  2.07146E+00  3.43780E+00  4.60340E+00  5.17408E+00  5.00786E+00  4.23459E+00  3.21607E+00  2.35902E+00
   1.83931E+00  1.59754E+00  1.47687E+00  1.40029E+00  1.34601E+00  1.30509E+00  1.27083E+00  1.23793E+00  1.20328E+00  1.16455E+00
   1.11833E+00  1.04818E+00  9.20424E-01  8.86016E-01  1.22178E+00  2.06820E+00  3.28854E+00  4.49774E+00  5.27933E+00  5.40651E+00
   4.90325E+00  4.02930E+00  3.17021E+00  2.57449E+00  2.25825E+00  2.09737E+00  1.99877E+00  1.93564E+00  1.89661E+00  1.87126E+00
   1.85070E+00  1.83023E+00  1.81037E+00  1.79548E+00  1.78884E+00  1.79016E+00  1.79524E+00  1.79748E+00  1.79299E+00  1.78422E+00
   1.77454E+00  1.75920E+00  1.73010E+00  1.68347E+00  1.62669E+00  1.58280E+00  1.57175E+00  1.59446E+00  1.63294E+00  1.65874E+00
   1.65066E+00  1.60666E+00  1.53941E+00  1.46919E+00  1.41311E+00  1.37622E+00  1.34669E+00  1.30537E+00  1.24855E+00  1.18926E+00
   1.14937E+00  1.14378E+00  1.16269E+00  1.18106E+00  1.17412E+00  1.13026E+00  1.06090E+00  9.91614E-01  9.40979E-01  9.00493E-01
   8.48761E-01  7.79682E-01  7.11126E-01  6.71154E-01  6.75647E-01  7.16206E-01  7.69313E-01  8.07123E-01  8.15674E-01  8.05619E-01
   7.92508E-01  7.80420E-01  7.57264E-01  7.09150E-01  6.32146E-01  5.31661E-01  4.28078E-01  3.49057E-01  3.11327E-01  3.10790E-01
   3.27722E-01  3.40571E-01  3.37626E-01  3.15844E-01  2.80144E-01  2.35019E-01  1.72815E-01  8.14380E-02 -4.34769E-02 -1.89689E-01
  -3.31463E-01 -4.43673E-01 -4.98490E-01 -4.74408E-01 -3.78588E-01 -2.47299E-01 -1.31614E-01 -7.57937E-02 -1.07741E-01 -2.42194E-01
  -4.66986E-01 -7.29091E-01 -9.60487E-01 -1.10555E+00 -1.14273E+00 -1.08663E+00 -9.73865E-01 -8.60644E-01 -8.00736E-01 -8.15808E-01
  -8.95322E-01 -1.00734E+00 -1.11119E+00 -1.17312E+00 -1.18197E+00 -1.15348E+00 -1.12225E+00 -1.11939E+00 -1.16295E+00 -1.26390E+00
  -1.41750E+00 -1.59801E+00 -1.76757E+00 -1.89528E+00 -1.96511E+00 -1.98217E+00 -1.97225E+00 -1.97998E+00 -2.04926E+00 -2.19542E+00
  -2.42009E+00 -2.77049E+00 -3.11711E+00 -3.09686E+00 -2.41198E+00 -1.07055E+00  5.48102E-01  1.89760E+00  2.56754E+00  2.42376E+00
   1.64774E+00  6.74349E-01 -1.15688E-01 -6.03100E-01 -8.89244E-01 -1.09771E+00 -1.27477E+00 -1.43782E+00 -1.59207E+00 -1.73416E+00
  -1.85628E+00 -1.94848E+00 -2.00070E+00 -2.01198E+00 -1.99456E+00 -1.96925E+00 -1.95237E+00 -1.94789E+00 -1.94918E+00 -1.94424E+00
  -1.91767E+00 -1.85845E+00 -1.76522E+00 -1.64451E+00 -1.50639E+00 -1.36018E+00 -1.21479E+00 -1.08062E+00 -9.64331E-01 -8.65279E-01
  -7.79074E-01 -7.00679E-01 -6.28694E-01 -5.65947E-01 -5.18313E-01 -4.94065E-01 -5.02153E-01 -5.46925E-01 -6.26950E-01 -7.36409E-01
  -8.68451E-01 -1.01693E+00 -1.17686E+00 -1.34548E+00 -1.52267E+00 -1.70900E+00 -1.90371E+00 -2.10432E+00 -2.30762E+00 -2.51046E+00
  -2.70956E+00 -2.90161E+00 -3.08317E+00 -3.25063E+00 -3.40012E+00 -3.52744E+00 -3.62801E+00 -3.69700E+00 -3.72947E+00 -3.72064E+00
  -3.66615E+00 -3.56229E+00 -3.40613E+00 -3.19581E+00 -2.93082E+00 -2.61223E+00 -2.24280E+00 -1.82702E+00 -1.37109E+00 -8.82774E-01
  -3.71239E-01  1.53284E-01  6.79893E-01  1.19751E+00  1.69536E+00  2.16343E+00  2.59283E+00  2.97625E+00  3.30826E+00  3.58560E+00
   3.80730E+00  3.97402E+00  4.08258E+00  4.14246E+00  4.27263E+00  4.59536E+00  5.10203E+00  5.62874E+00  5.93408E+00  5.84715E+00
   5.32545E+00  4.40197E+00  3.28739E+00  2.32260E+00  1.78019E+00  1.75686E+00  2.15487E+00  2.78159E+00  3.41769E+00  3.86288E+00
   4.02795E+00  3.98291E+00  3.85658E+00  3.73998E+00  3.64436E+00  3.55943E+00  3.47852E+00  3.39762E+00  3.31424E+00  3.22692E+00
   3.13490E+00  3.03795E+00  2.93621E+00  2.83006E+00  2.72007E+00  2.60695E+00  2.49153E+00  2.37472E+00  2.25739E+00  2.14046E+00
   2.02478E+00  1.91123E+00  1.80068E+00  1.69398E+00  1.59193E+00  1.49531E+00  1.40492E+00  1.32150E+00  1.24581E+00  1.17855E+00
   1.12035E+00  1.07179E+00  1.03332E+00  1.00529E+00  9.87893E-01  9.81129E-01  9.84776E-01  9.98387E-01  1.02129E+00  1.05257E+00
   1.09111E+00  1.13558E+00  1.18447E+00  1.23618E+00  1.28905E+00  1.34142E+00  1.39171E+00  1.43843E+00  1.48026E+00  1.51609E+00
   1.54508E+00  1.56662E+00  1.58038E+00  1.58625E+00  1.58438E+00  1.57511E+00  1.55897E+00  1.53661E+00  1.50877E+00  1.47622E+00
   1.43978E+00  1.40025E+00  1.35841E+00  1.31495E+00  1.27052E+00  1.22567E+00  1.18090E+00  1.13660E+00  1.09313E+00  1.05074E+00
   1.00963E+00  9.69939E-01  9.31777E-01  8.95212E-01  8.60277E-01  8.26976E-01  7.95289E-01  7.65191E-01  7.36647E-01  7.09618E-01
   6.84053E-01  6.59893E-01  6.37083E-01  6.15571E-01  5.95308E-01  5.76247E-01  5.58333E-01  5.41517E-01  5.25751E-01  5.10997E-01
   4.97219E-01  4.84380E-01  4.72438E-01  4.61357E-01  4.51106E-01  4.41660E-01  4.32995E-01  4.25082E-01  4.17890E-01  4.11396E-01
   4.05579E-01  4.00425E-01  3.95914E-01  3.92023E-01  3.88731E-01  3.86023E-01  3.83886E-01  3.82310E-01  3.81278E-01  3.80773E-01
   3.80779E-01  3.81287E-01  3.82289E-01  3.83776E-01  3.85733E-01  3.88148E-01  3.91008E-01  3.94311E-01  3.98049E-01  4.02212E-01
   4.06788E-01  4.11766E-01  4.17141E-01  4.22908E-01  4.29061E-01  4.35590E-01  4.42483E-01  4.49734E-01  4.57338E-01  4.65290E-01
   4.73583E-01  4.82206E-01  4.91149E-01  5.00405E-01  5.09969E-01  5.19835E-01  5.29992E-01  5.40426E-01
 NY background values follow
    -4.490E+00   -4.425E+00   -4.361E+00   -4.297E+00   -4.232E+00   -4.168E+00   -4.103E+00   -4.039E+00   -3.974E+00   -3.909E+00
    -3.845E+00   -3.780E+00   -3.716E+00   -3.651E+00   -3.587E+00   -3.523E+00   -3.458E+00   -3.394E+00   -3.330E+00   -3.265E+00
    -3.201E+00   -3.137E+00   -3.073E+00   -3.009E+00   -2.946E+00   -2.882E+00   -2.818E+00   -2.755E+00   -2.692E+00   -2.628E+00
    -2.565E+00   -2.502E+00   -2.440E+00   -2.377E+00   -2.315E+00   -2.252E+00   -2.190E+00   -2.128E+00   -2.067E+00   -2.005E+00
    -1.944E+00   -1.883E+00   -1.822E+00   -1.761E+00   -1.701E+00   -1.641E+00   -1.581E+00   -1.521E+00   -1.462E+00   -1.403E+00
    -1.344E+00   -1.285E+00   -1.227E+00   -1.169E+00   -1.111E+00   -1.054E+00   -9.970E-01   -9.403E-01   -8.840E-01   -8.280E-01
    -7.723E-01   -7.171E-01   -6.622E-01   -6.077E-01   -5.536E-01   -4.999E-01   -4.466E-01   -3.937E-01   -3.413E-01   -2.892E-01
    -2.376E-01   -1.865E-01   -1.358E-01   -8.560E-02   -3.586E-02    1.342E-02    6.220E-02    1.105E-01    1.583E-01    2.056E-01
     2.524E-01    2.986E-01    3.443E-01    3.895E-01    4.341E-01    4.782E-01    5.218E-01    5.647E-01    6.071E-01    6.490E-01
     6.902E-01    7.308E-01    7.709E-01    8.103E-01    8.492E-01    8.874E-01    9.250E-01    9.620E-01    9.984E-01    1.034E+00
     1.069E+00    1.104E+00    1.138E+00    1.171E+00    1.203E+00    1.235E+00    1.266E+00    1.297E+00    1.327E+00    1.356E+00
     1.385E+00    1.413E+00    1.440E+00    1.466E+00    1.492E+00    1.517E+00    1.542E+00    1.565E+00    1.589E+00    1.611E+00
     1.633E+00    1.653E+00    1.674E+00    1.693E+00    1.712E+00    1.730E+00    1.747E+00    1.764E+00    1.780E+00    1.795E+00
     1.810E+00    1.823E+00    1.836E+00    1.848E+00    1.860E+00    1.871E+00    1.881E+00    1.890E+00    1.898E+00    1.906E+00
     1.913E+00    1.919E+00    1.925E+00    1.930E+00    1.934E+00    1.937E+00    1.940E+00    1.942E+00    1.943E+00    1.944E+00
     1.944E+00    1.943E+00    1.941E+00    1.939E+00    1.936E+00    1.933E+00    1.929E+00    1.924E+00    1.918E+00    1.912E+00
     1.905E+00    1.898E+00    1.890E+00    1.881E+00    1.872E+00    1.862E+00    1.851E+00    1.840E+00    1.828E+00    1.816E+00
     1.803E+00    1.789E+00    1.775E+00    1.760E+00    1.745E+00    1.729E+00    1.713E+00    1.696E+00    1.678E+00    1.660E+00
     1.641E+00    1.622E+00    1.602E+00    1.582E+00    1.561E+00    1.540E+00    1.518E+00    1.496E+00    1.473E+00    1.450E+00
     1.426E+00    1.403E+00    1.378E+00    1.354E+00    1.329E+00    1.304E+00    1.278E+00    1.252E+00    1.226E+00    1.200E+00
     1.173E+00    1.146E+00    1.119E+00    1.092E+00    1.065E+00    1.037E+00    1.009E+00    9.813E-01    9.533E-01    9.252E-01
     8.969E-01    8.686E-01    8.403E-01    8.119E-01    7.834E-01    7.549E-01    7.265E-01    6.980E-01    6.695E-01    6.411E-01
     6.127E-01    5.844E-01    5.561E-01    5.279E-01    4.999E-01    4.719E-01    4.441E-01    4.164E-01    3.888E-01    3.614E-01
     3.341E-01    3.069E-01    2.799E-01    2.530E-01    2.263E-01    1.997E-01    1.733E-01    1.470E-01    1.209E-01    9.491E-02
     6.908E-02    4.340E-02    1.788E-02   -7.488E-03   -3.270E-02   -5.775E-02   -8.265E-02   -1.074E-01   -1.320E-01   -1.564E-01
    -1.806E-01   -2.047E-01   -2.286E-01   -2.524E-01   -2.759E-01   -2.993E-01   -3.226E-01   -3.457E-01   -3.685E-01   -3.913E-01
    -4.138E-01   -4.362E-01   -4.584E-01   -4.804E-01   -5.023E-01   -5.239E-01   -5.454E-01   -5.667E-01   -5.878E-01   -6.088E-01
    -6.295E-01   -6.501E-01   -6.705E-01   -6.907E-01   -7.107E-01   -7.305E-01   -7.501E-01   -7.696E-01   -7.889E-01   -8.079E-01
    -8.268E-01   -8.456E-01   -8.641E-01   -8.825E-01   -9.006E-01   -9.186E-01   -9.364E-01   -9.540E-01   -9.715E-01   -9.887E-01
    -1.006E+00   -1.023E+00   -1.039E+00   -1.056E+00   -1.072E+00   -1.088E+00   -1.104E+00   -1.120E+00   -1.136E+00   -1.151E+00
    -1.167E+00   -1.182E+00   -1.197E+00   -1.211E+00   -1.226E+00   -1.240E+00   -1.254E+00   -1.268E+00   -1.282E+00   -1.296E+00
    -1.309E+00   -1.323E+00   -1.336E+00   -1.349E+00   -1.362E+00   -1.374E+00   -1.387E+00   -1.399E+00   -1.411E+00   -1.423E+00
    -1.434E+00   -1.446E+00   -1.457E+00   -1.469E+00   -1.480E+00   -1.490E+00   -1.501E+00   -1.511E+00   -1.522E+00   -1.532E+00
    -1.542E+00   -1.551E+00   -1.561E+00   -1.570E+00   -1.580E+00   -1.589E+00   -1.597E+00   -1.606E+00   -1.614E+00   -1.623E+00
    -1.631E+00   -1.639E+00   -1.647E+00   -1.654E+00   -1.661E+00   -1.669E+00   -1.676E+00   -1.683E+00   -1.689E+00   -1.696E+00
    -1.702E+00   -1.708E+00   -1.714E+00   -1.720E+00   -1.725E+00   -1.731E+00   -1.736E+00   -1.741E+00   -1.746E+00   -1.750E+00
    -1.755E+00   -1.759E+00   -1.763E+00   -1.767E+00   -1.771E+00   -1.774E+00   -1.777E+00   -1.781E+00   -1.784E+00   -1.786E+00
    -1.789E+00   -1.791E+00   -1.794E+00   -1.796E+00   -1.798E+00   -1.799E+00   -1.801E+00   -1.802E+00   -1.803E+00   -1.804E+00
    -1.805E+00   -1.806E+00   -1.806E+00   -1.806E+00   -1.806E+00   -1.806E+00   -1.806E+00   -1.805E+00   -1.805E+00   -1.804E+00
    -1.803E+00   -1.801E+00   -1.800E+00   -1.798E+00   -1.796E+00   -1.795E+00   -1.792E+00   -1.790E+00   -1.787E+00   -1.785E+00
    -1.782E+00   -1.779E+00   -1.776E+00   -1.772E+00   -1.768E+00   -1.765E+00   -1.761E+00   -1.756E+00   -1.752E+00   -1.748E+00
    -1.743E+00   -1.738E+00   -1.733E+00   -1.727E+00   -1.722E+00   -1.716E+00   -1.710E+00   -1.704E+00   -1.698E+00   -1.692E+00
    -1.685E+00   -1.678E+00   -1.671E+00   -1.664E+00   -1.657E+00   -1.649E+00   -1.642E+00   -1.634E+00   -1.626E+00   -1.617E+00
    -1.609E+00   -1.600E+00   -1.591E+00   -1.582E+00   -1.573E+00   -1.564E+00   -1.554E+00   -1.544E+00   -1.534E+00   -1.524E+00
    -1.514E+00   -1.503E+00   -1.492E+00   -1.481E+00   -1.470E+00   -1.459E+00   -1.447E+00   -1.435E+00   -1.423E+00   -1.411E+00
    -1.399E+00   -1.386E+00   -1.374E+00   -1.361E+00   -1.348E+00   -1.335E+00   -1.321E+00   -1.307E+00   -1.294E+00   -1.279E+00
    -1.265E+00   -1.251E+00   -1.236E+00   -1.221E+00   -1.206E+00   -1.191E+00   -1.176E+00   -1.160E+00   -1.144E+00   -1.128E+00
    -1.112E+00   -1.096E+00   -1.079E+00   -1.062E+00   -1.046E+00   -1.028E+00   -1.011E+00   -9.935E-01   -9.758E-01   -9.579E-01
    -9.398E-01   -9.215E-01   -9.030E-01   -8.843E-01   -8.655E-01   -8.464E-01   -8.271E-01   -8.077E-01   -7.881E-01   -7.682E-01
    -7.482E-01   -7.280E-01   -7.076E-01   -6.870E-01   -6.662E-01   -6.453E-01   -6.241E-01   -6.027E-01
 Asp      Conc. = 1.43E+01
