 LCModel (Version 6.3-1L) Copyright: S.W. Provencher.          Ref.: Magn. Reson. Med. 30:672-679 (1993).                
 Slice#3 Row#4 Col#8  K_02_press_1_raw_act
 36 lines in following concentration table = NCONC+1
    Conc.  %SD /Cr+PCr  Metabolite                                         
    0.000 999%   0.000 Ala                                                 
    0.000 999%   0.000 Asp                                                 
  959.264  22%   0.399 Cr                                                  
 1.45E+03  15%   0.601 PCr                                                 
    0.000 999%   0.000 GABA                                                
    0.000 999%   0.000 Glc                                                 
  697.936  31%   0.290 Gln                                                 
 2.17E+03  11%   0.903 Glu                                                 
  689.918   3%   0.287 GPC                                                 
    0.000 999%   0.000 PCh                                                 
  609.405  12%   0.253 GSH                                                 
 1.17E+03  21%   0.489 Ins                                                 
   86.850 128% 3.6E-02 Lac                                                 
 2.74E+03   4%   1.139 NAA                                                 
  150.558  79% 6.3E-02 NAAG                                                
    0.000 999%   0.000 Scyllo                                              
    0.000 999%   0.000 Tau                                                 
    0.000 999%   0.000 -CrCH2                                              
  689.918   3%   0.287 GPC+PCh                                             
 2.89E+03   3%   1.201 NAA+NAAG                                            
 2.40E+03   3%   1.000 Cr+PCr                                              
 2.87E+03  12%   1.194 Glu+Gln                                             
 4.24E+03  31%   1.765 Lip13a                                              
    0.000 999%   0.000 Lip13b                                              
  838.474  65%   0.349 Lip09                                               
 2.13E+03  26%   0.884 MM09                                                
  539.326  70%   0.224 Lip20                                               
 4.28E+03  15%   1.779 MM20                                                
 1.02E+03  43%   0.423 MM12                                                
 3.84E+03  20%   1.597 MM14                                                
  190.154 210% 7.9E-02 MM17                                                
 4.24E+03  31%   1.765 Lip13a+Lip13b                                       
 9.10E+03  13%   3.785 MM14+Lip13a+Lip13b+MM12                             
 2.96E+03  15%   1.233 MM09+Lip09                                          
 4.82E+03  13%   2.004 MM20+Lip20                                          
   6 lines in following misc. output table
  FWHM = 0.046 ppm    S/N =  15                                            
  Data shift = 0.031 ppm                                                   
  Ph:   8 deg      -7.3 deg/ppm                                            
  alphaB,S = 4.6E-01,   8.3E+01                                            
   14 spline knots.   Ns = 6(1)                                            
  (12) 2 infls.   (11) 1 extrs.                                            
  498 points on ppm-axis = NY
      4.000000     3.992357     3.984714     3.977070     3.969427     3.961784     3.954141     3.946497     3.938854     3.931211
      3.923568     3.915925     3.908281     3.900638     3.892995     3.885352     3.877708     3.870065     3.862422     3.854779
      3.847136     3.839492     3.831849     3.824206     3.816563     3.808919     3.801276     3.793633     3.785990     3.778347
      3.770703     3.763060     3.755417     3.747774     3.740130     3.732487     3.724844     3.717201     3.709558     3.701914
      3.694271     3.686628     3.678985     3.671341     3.663698     3.656055     3.648412     3.640769     3.633125     3.625482
      3.617839     3.610196     3.602552     3.594909     3.587266     3.579623     3.571980     3.564336     3.556693     3.549050
      3.541407     3.533763     3.526120     3.518477     3.510834     3.503191     3.495547     3.487904     3.480261     3.472618
      3.464974     3.457331     3.449688     3.442045     3.434402     3.426758     3.419115     3.411472     3.403829     3.396185
      3.388542     3.380899     3.373256     3.365613     3.357969     3.350326     3.342683     3.335040     3.327396     3.319753
      3.312110     3.304467     3.296824     3.289180     3.281537     3.273894     3.266251     3.258607     3.250964     3.243321
      3.235678     3.228034     3.220391     3.212748     3.205105     3.197462     3.189818     3.182175     3.174532     3.166889
      3.159245     3.151602     3.143959     3.136316     3.128673     3.121029     3.113386     3.105743     3.098100     3.090456
      3.082813     3.075170     3.067527     3.059884     3.052240     3.044597     3.036954     3.029311     3.021667     3.014024
      3.006381     2.998738     2.991095     2.983451     2.975808     2.968165     2.960522     2.952878     2.945235     2.937592
      2.929949     2.922306     2.914662     2.907019     2.899376     2.891733     2.884089     2.876446     2.868803     2.861160
      2.853517     2.845873     2.838230     2.830587     2.822944     2.815300     2.807657     2.800014     2.792371     2.784728
      2.777084     2.769441     2.761798     2.754155     2.746511     2.738868     2.731225     2.723582     2.715939     2.708295
      2.700652     2.693009     2.685366     2.677722     2.670079     2.662436     2.654793     2.647150     2.639506     2.631863
      2.624220     2.616577     2.608933     2.601290     2.593647     2.586004     2.578361     2.570717     2.563074     2.555431
      2.547788     2.540144     2.532501     2.524858     2.517215     2.509572     2.501928     2.494285     2.486642     2.478999
      2.471355     2.463712     2.456069     2.448426     2.440783     2.433139     2.425496     2.417853     2.410210     2.402566
      2.394923     2.387280     2.379637     2.371994     2.364350     2.356707     2.349064     2.341421     2.333777     2.326134
      2.318491     2.310848     2.303205     2.295561     2.287918     2.280275     2.272632     2.264988     2.257345     2.249702
      2.242059     2.234416     2.226772     2.219129     2.211486     2.203843     2.196199     2.188556     2.180913     2.173270
      2.165627     2.157983     2.150340     2.142697     2.135054     2.127410     2.119767     2.112124     2.104481     2.096838
      2.089194     2.081551     2.073908     2.066265     2.058621     2.050978     2.043335     2.035692     2.028049     2.020405
      2.012762     2.005119     1.997476     1.989833     1.982190     1.974546     1.966903     1.959260     1.951617     1.943974
      1.936331     1.928688     1.921045     1.913402     1.905759     1.898115     1.890472     1.882829     1.875186     1.867543
      1.859900     1.852257     1.844614     1.836971     1.829327     1.821684     1.814041     1.806398     1.798755     1.791112
      1.783469     1.775826     1.768183     1.760540     1.752896     1.745253     1.737610     1.729967     1.722324     1.714681
      1.707038     1.699395     1.691752     1.684108     1.676465     1.668822     1.661179     1.653536     1.645893     1.638250
      1.630607     1.622964     1.615321     1.607677     1.600034     1.592391     1.584748     1.577105     1.569462     1.561819
      1.554176     1.546533     1.538890     1.531246     1.523603     1.515960     1.508317     1.500674     1.493031     1.485388
      1.477745     1.470102     1.462458     1.454815     1.447172     1.439529     1.431886     1.424243     1.416600     1.408957
      1.401314     1.393671     1.386027     1.378384     1.370741     1.363098     1.355455     1.347812     1.340169     1.332526
      1.324883     1.317240     1.309596     1.301953     1.294310     1.286667     1.279024     1.271381     1.263738     1.256095
      1.248452     1.240808     1.233165     1.225522     1.217879     1.210236     1.202593     1.194950     1.187307     1.179664
      1.172021     1.164377     1.156734     1.149091     1.141448     1.133805     1.126162     1.118519     1.110876     1.103233
      1.095590     1.087946     1.080303     1.072660     1.065017     1.057374     1.049731     1.042088     1.034445     1.026802
      1.019158     1.011515     1.003872     0.996229     0.988586     0.980943     0.973300     0.965657     0.958014     0.950371
      0.942727     0.935084     0.927441     0.919798     0.912155     0.904512     0.896869     0.889226     0.881583     0.873940
      0.866296     0.858653     0.851010     0.843367     0.835724     0.828081     0.820438     0.812795     0.805152     0.797508
      0.789865     0.782222     0.774579     0.766936     0.759293     0.751650     0.744007     0.736364     0.728721     0.721077
      0.713434     0.705791     0.698148     0.690505     0.682862     0.675219     0.667576     0.659933     0.652290     0.644646
      0.637003     0.629360     0.621717     0.614074     0.606431     0.598788     0.591145     0.583502     0.575858     0.568215
      0.560572     0.552929     0.545286     0.537643     0.530000     0.522357     0.514714     0.507071     0.499427     0.491784
      0.484141     0.476498     0.468855     0.461212     0.453569     0.445925     0.438282     0.430639     0.422996     0.415353
      0.407710     0.400067     0.392424     0.384780     0.377137     0.369494     0.361851     0.354208     0.346565     0.338922
      0.331278     0.323635     0.315992     0.308349     0.300706     0.293063     0.285420     0.277777     0.270133     0.262490
      0.254847     0.247204     0.239561     0.231918     0.224275     0.216631     0.208988     0.201345
 NY phased data points follow
   5.27004E+01  5.46922E+01  5.36235E+01  5.71211E+01  6.49703E+01  7.05497E+01  7.87989E+01  8.97583E+01  9.57316E+01  1.03068E+02
   1.07182E+02  1.00713E+02  9.22259E+01  7.92492E+01  7.44511E+01  6.57923E+01  5.06461E+01  4.73007E+01  4.47819E+01  4.67476E+01
   4.48514E+01  4.48742E+01  4.20250E+01  4.49795E+01  4.18264E+01  4.51531E+01  4.97949E+01  4.83163E+01  4.84969E+01  5.11773E+01
   5.36868E+01  6.07533E+01  5.01227E+01  4.61656E+01  4.51032E+01  4.18880E+01  4.32129E+01  4.03269E+01  4.31624E+01  4.27540E+01
   4.06749E+01  4.32106E+01  3.75686E+01  4.25985E+01  4.43277E+01  4.55611E+01  4.53018E+01  4.79550E+01  4.49858E+01  4.19205E+01
   3.74307E+01  3.13147E+01  3.05159E+01  3.22600E+01  2.85844E+01  3.10537E+01  3.08600E+01  3.23865E+01  3.06542E+01  3.16969E+01
   2.38776E+01  2.05686E+01  1.85451E+01  2.07082E+01  8.51391E+00  1.47025E+01  1.10649E+01  9.03831E+00  1.57608E+01  1.03055E+01
   1.43102E+01  1.70605E+01  1.35991E+01  1.15539E+01  8.63504E+00  1.27630E+01  1.10868E+01  8.88584E+00  1.99645E+00  9.81568E+00
   8.69783E+00  9.16710E+00  5.58605E+00  9.10952E+00  8.30746E+00  5.85691E+00  6.33579E+00  7.76581E+00  7.44065E+00  1.16438E+01
   9.32957E+00  1.24974E+01  1.62977E+01  1.54675E+01  1.57654E+01  1.64099E+01  1.93714E+01  1.80526E+01  2.43065E+01  3.31815E+01
   5.08852E+01  6.84151E+01  7.69369E+01  7.99928E+01  6.93641E+01  5.52066E+01  4.55993E+01  3.33405E+01  2.17266E+01  1.56725E+01
   1.47282E+01  1.68140E+01  9.84565E+00  1.14051E+01  9.02677E+00  9.48002E+00  9.02178E+00  8.94598E+00  1.54324E+01  1.69714E+01
   1.38865E+01  1.80247E+01  2.72594E+01  3.84985E+01  5.56967E+01  7.69916E+01  9.14088E+01  9.11495E+01  8.23475E+01  6.47032E+01
   5.58733E+01  3.92292E+01  2.90515E+01  1.77537E+01  1.55151E+01  1.05413E+01  1.29226E+01  3.53333E+00  6.09243E+00  6.74199E+00
   6.32012E+00  3.96888E+00  6.13623E+00  4.95671E+00  4.12488E+00  1.04703E+00  2.43132E+00  1.77592E+00  2.71481E+00  5.43423E+00
  -1.86508E+00  1.57534E-01 -1.78159E+00 -1.75241E+00 -3.21341E-01  2.10719E-02 -1.28376E+00  1.87083E+00 -3.31379E+00 -3.83979E+00
  -5.49468E+00 -8.34404E+00 -9.86358E+00 -6.65236E+00 -2.53548E+00 -2.78011E+00 -7.93342E+00 -5.14930E+00 -9.49743E+00 -1.19735E+01
  -1.21034E+01 -1.64440E+01 -1.36230E+01 -1.61452E+01 -1.88359E+01 -2.11950E+01 -1.42263E+01 -1.57927E+01 -1.38258E+01 -1.55227E+01
  -1.99198E+01 -2.07464E+01 -1.81236E+01 -1.95813E+01 -1.56632E+01 -1.97997E+01 -1.70068E+01 -1.01056E+01 -9.87696E+00 -3.95084E+00
  -6.90216E-01  8.59986E-01 -2.74829E-01  2.37810E+00  5.01227E+00 -2.33025E+00 -4.35673E+00 -9.08580E+00 -1.18848E+01 -1.18002E+01
  -6.13018E+00 -8.48716E+00 -8.49775E-02 -6.28432E-01 -2.60064E+00 -7.95341E+00 -1.00743E+01 -1.27032E+01 -1.72646E+01 -1.69933E+01
  -1.07675E+01 -1.32967E+01 -2.30809E+00  6.64759E+00  1.05331E+01  1.30187E+01  7.15281E+00  8.22882E+00 -1.40822E+00 -1.09864E+01
  -1.51566E+01 -1.76579E+01 -1.21553E+01 -5.26536E+00 -8.25540E+00 -2.25495E+00  2.39226E+00  2.33294E+00  6.57349E+00  3.49524E+00
   4.88916E-01 -3.20360E+00  1.42685E+00 -3.11230E-01 -3.77441E+00  5.14997E+00 -3.35728E-01  1.22367E+00 -4.78818E-01 -3.19069E-02
  -4.91126E+00 -5.28028E+00 -6.53049E+00  1.39519E+00  1.02778E+00  5.01161E+00  8.15138E+00  9.10795E+00  1.18579E+01  1.02548E+01
   1.13416E+01  1.15352E+01  1.87382E+01  2.23597E+01  2.56909E+01  3.21803E+01  3.98286E+01  6.41660E+01  9.52865E+01  1.17204E+02
   1.17845E+02  1.00627E+02  7.83569E+01  5.79536E+01  3.26798E+01  2.30590E+01  1.06604E+01  9.39313E+00  5.33237E+00  2.24045E+00
   5.53727E+00  1.63603E+00  2.87898E+00  1.29643E+00  5.10621E-01 -5.16235E+00 -2.88809E+00 -2.82567E+00 -7.13549E+00  6.56461E-01
  -7.02499E-02 -6.11881E+00 -6.90505E+00 -3.34672E+00 -1.65822E+00 -4.90564E+00 -4.46930E+00 -5.17642E+00 -6.55203E+00 -7.19179E+00
  -5.10164E+00 -5.22994E+00 -3.54536E+00 -2.52129E+00 -3.75354E+00 -9.21551E+00 -2.43843E+00 -4.38380E-01 -3.05331E+00 -2.59790E+00
   8.85807E-01 -4.31720E+00 -3.44933E+00 -1.36346E+00  2.84318E+00 -1.00863E+00 -1.41354E+00  8.18327E-01  3.54471E+00  1.21678E+00
  -5.93169E-01  6.10204E+00  5.67660E+00  1.99691E+00  8.00948E+00  7.41209E+00  3.88766E+00  5.13565E+00  1.09772E+01  1.12023E+01
   1.04891E+01  1.29954E+01  1.29385E+01  1.75868E+01  9.94070E+00  1.30873E+01  1.82125E+01  1.60579E+01  1.83439E+01  2.16781E+01
   1.89380E+01  2.24956E+01  2.13085E+01  2.74683E+01  2.84007E+01  2.46979E+01  2.85583E+01  2.64118E+01  2.47617E+01  2.26512E+01
   2.57227E+01  2.46911E+01  2.64608E+01  3.01133E+01  3.03717E+01  2.51425E+01  2.55336E+01  2.53343E+01  2.53357E+01  2.38045E+01
   2.52713E+01  2.44730E+01  2.23439E+01  2.51490E+01  2.55897E+01  2.76002E+01  2.52540E+01  1.99663E+01  2.57241E+01  2.77447E+01
   2.48287E+01  2.35547E+01  2.56609E+01  2.63872E+01  2.37308E+01  2.38412E+01  2.29159E+01  2.70310E+01  2.28363E+01  2.35525E+01
   2.03934E+01  2.22291E+01  1.88373E+01  2.10964E+01  1.97727E+01  2.11323E+01  2.58007E+01  2.06541E+01  1.99068E+01  2.31400E+01
   1.92972E+01  2.38003E+01  2.21950E+01  2.42728E+01  1.81313E+01  1.80907E+01  1.87493E+01  2.27664E+01  2.12425E+01  2.14858E+01
   2.32556E+01  2.18340E+01  2.95753E+01  2.52719E+01  2.04543E+01  2.54767E+01  2.51869E+01  2.69154E+01  2.73659E+01  2.41448E+01
   2.40919E+01  2.31869E+01  2.83275E+01  1.85801E+01  2.30020E+01  2.20274E+01  2.46416E+01  2.64595E+01  2.31436E+01  2.52473E+01
   2.43030E+01  2.51537E+01  2.56131E+01  2.13718E+01  2.16385E+01  2.21190E+01  1.88215E+01  1.82278E+01  1.75725E+01  1.74431E+01
   1.77875E+01  1.76168E+01  1.41069E+01  1.74408E+01  1.11681E+01  9.55389E+00  1.50833E+01  1.36370E+01  1.42535E+01  9.63937E+00
   9.34118E+00  1.85083E+01  9.39519E+00  9.35218E+00  1.20548E+01  1.31942E+01  1.32842E+01  5.92455E+00  9.03835E+00  1.25688E+01
   1.04645E+01  1.02620E+01  1.30357E+01  1.28572E+01  8.01568E+00  1.30258E+01  1.22749E+01  9.06283E+00  9.69918E+00  1.13749E+01
   1.24828E+01  8.08864E+00  6.91299E+00  6.71655E+00  2.69477E+00  8.69689E+00  7.99634E+00  6.49522E+00  1.10516E+01  8.39915E+00
   2.35749E+00  7.06254E+00  8.59824E+00  5.77416E+00  5.41501E+00  8.12472E+00  6.06488E+00  5.84571E+00  5.22385E+00  7.53416E+00
   1.17424E+01  5.41573E+00  4.37745E+00  3.93788E+00  9.67164E+00  5.55266E+00  9.83228E+00  2.02293E+00  5.20191E+00  5.18984E+00
   6.09812E+00  6.51389E+00  6.40227E+00  4.28544E+00  4.06915E+00  2.99064E+00  3.07476E+00  1.18262E+01  5.39215E+00  6.21099E+00
   4.09299E+00  8.09525E+00  5.28028E+00  5.71131E+00  2.76329E+00  5.32972E+00  4.34161E+00  5.57123E-01
 NY points of the fit to the data follow
   5.40914E+01  5.39490E+01  5.45900E+01  5.69499E+01  6.11523E+01  6.76747E+01  7.74943E+01  8.86386E+01  9.82458E+01  1.03842E+02
   1.03978E+02  9.88022E+01  8.99196E+01  7.98026E+01  7.06323E+01  6.31790E+01  5.73002E+01  5.32143E+01  5.04991E+01  4.84929E+01
   4.72532E+01  4.62225E+01  4.49491E+01  4.36329E+01  4.27537E+01  4.23281E+01  4.29949E+01  4.57995E+01  5.04563E+01  5.50595E+01
   5.77121E+01  5.77706E+01  5.53497E+01  5.09755E+01  4.58352E+01  4.10722E+01  3.74390E+01  3.52715E+01  3.45477E+01  3.47117E+01
   3.53568E+01  3.63316E+01  3.74295E+01  3.86754E+01  4.02793E+01  4.18652E+01  4.24082E+01  4.12850E+01  3.89389E+01  3.60702E+01
   3.32034E+01  3.07163E+01  2.88640E+01  2.76374E+01  2.68614E+01  2.65515E+01  2.66769E+01  2.69887E+01  2.71938E+01  2.69783E+01
   2.61705E+01  2.48771E+01  2.33432E+01  2.19158E+01  2.08536E+01  2.02610E+01  2.00542E+01  2.00712E+01  2.02005E+01  2.03514E+01
   2.03827E+01  2.01465E+01  1.96294E+01  1.89359E+01  1.81874E+01  1.74765E+01  1.68390E+01  1.62920E+01  1.57911E+01  1.53133E+01
   1.48208E+01  1.42401E+01  1.35208E+01  1.25981E+01  1.14522E+01  1.01979E+01  9.09975E+00  8.42996E+00  8.29626E+00  8.61661E+00
   9.26100E+00  1.00111E+01  1.06977E+01  1.12382E+01  1.15919E+01  1.18738E+01  1.28997E+01  1.69438E+01  2.42160E+01  3.51210E+01
   5.09927E+01  6.82531E+01  7.95526E+01  8.01337E+01  7.12437E+01  5.76269E+01  4.34362E+01  3.11230E+01  2.19754E+01  1.57296E+01
   1.11682E+01  8.58584E+00  7.74294E+00  7.43519E+00  7.29930E+00  7.25958E+00  7.29562E+00  7.41275E+00  7.69038E+00  8.36749E+00
   1.02839E+01  1.57953E+01  2.51789E+01  3.85359E+01  5.74446E+01  7.81172E+01  9.20942E+01  9.36233E+01  8.38809E+01  6.83128E+01
   5.19524E+01  3.76244E+01  2.64275E+01  1.78593E+01  1.07081E+01  5.68506E+00  3.33316E+00  2.50480E+00  2.73230E+00  3.60562E+00
   4.53854E+00  5.07523E+00  5.10803E+00  4.69013E+00  3.97921E+00  3.17799E+00  2.40339E+00  1.69589E+00  1.05111E+00  4.11988E-01
  -1.70691E-01 -7.05658E-01 -1.18540E+00 -1.55530E+00 -1.81383E+00 -2.11239E+00 -2.47330E+00 -3.03520E+00 -3.90485E+00 -4.81396E+00
  -5.46148E+00 -5.52603E+00 -5.07271E+00 -4.65769E+00 -4.76680E+00 -5.45801E+00 -6.47508E+00 -7.48733E+00 -8.30778E+00 -9.00697E+00
  -9.68805E+00 -1.03975E+01 -1.11558E+01 -1.19851E+01 -1.26824E+01 -1.29647E+01 -1.26941E+01 -1.22528E+01 -1.21389E+01 -1.23974E+01
  -1.27160E+01 -1.29497E+01 -1.30406E+01 -1.31138E+01 -1.32120E+01 -1.29128E+01 -1.17145E+01 -9.68069E+00 -7.28902E+00 -5.19676E+00
  -3.90458E+00 -3.59879E+00 -4.32472E+00 -5.56569E+00 -6.89672E+00 -8.20252E+00 -9.14654E+00 -9.22295E+00 -8.20006E+00 -6.42127E+00
  -4.29692E+00 -2.24368E+00 -7.10739E-01 -3.39627E-01 -1.55885E+00 -3.93434E+00 -7.22131E+00 -1.08428E+01 -1.35547E+01 -1.44907E+01
  -1.32875E+01 -1.04754E+01 -6.18023E+00 -9.77701E-01  3.40533E+00  5.06197E+00  3.35399E+00 -8.98763E-01 -6.49717E+00 -1.23222E+01
  -1.70621E+01 -1.91056E+01 -1.77771E+01 -1.39253E+01 -8.86834E+00 -4.14805E+00 -6.53957E-01  1.35898E+00  1.89624E+00  1.35873E+00
   3.96168E-01 -2.70909E-01 -2.28603E-01  5.35124E-01  1.87207E+00  3.57755E+00  4.91196E+00  5.18070E+00  4.41344E+00  2.91187E+00
   1.18651E+00  1.42345E-03  8.78253E-02  1.45907E+00  3.51747E+00  5.65222E+00  7.42473E+00  8.57167E+00  9.05701E+00  9.37327E+00
   1.01216E+01  1.13946E+01  1.32447E+01  1.62371E+01  2.32484E+01  3.39876E+01  4.79699E+01  6.94179E+01  9.48946E+01  1.12847E+02
   1.14641E+02  1.01497E+02  8.07174E+01  5.88243E+01  3.96073E+01  2.52240E+01  1.53972E+01  7.84489E+00  3.00092E+00  1.24491E+00
   3.61557E-01 -1.27609E-01 -3.19866E-01 -4.16590E-01 -6.03430E-01 -9.02994E-01 -1.29568E+00 -1.75747E+00 -2.24351E+00 -2.69130E+00
  -3.06087E+00 -3.33505E+00 -3.52276E+00 -3.65261E+00 -3.74995E+00 -3.83240E+00 -3.90056E+00 -3.94387E+00 -3.95507E+00 -3.93136E+00
  -3.86679E+00 -3.76272E+00 -3.62696E+00 -3.47042E+00 -3.29777E+00 -3.11173E+00 -2.91364E+00 -2.69877E+00 -2.46163E+00 -2.20045E+00
  -1.91451E+00 -1.60579E+00 -1.27708E+00 -9.30830E-01 -5.68171E-01 -1.87633E-01  2.13995E-01  6.40104E-01  1.09594E+00  1.58634E+00
   2.11491E+00  2.68570E+00  3.30288E+00  3.97074E+00  4.69320E+00  5.47278E+00  6.31056E+00  7.20649E+00  8.15953E+00  9.16726E+00
   1.02252E+01  1.13265E+01  1.24621E+01  1.36219E+01  1.47945E+01  1.59677E+01  1.71275E+01  1.82596E+01  1.93495E+01  2.03840E+01
   2.13514E+01  2.22414E+01  2.30452E+01  2.37567E+01  2.43725E+01  2.48930E+01  2.53216E+01  2.56650E+01  2.59328E+01  2.61399E+01
   2.63112E+01  2.64848E+01  2.66402E+01  2.67646E+01  2.68607E+01  2.68187E+01  2.65217E+01  2.59878E+01  2.53679E+01  2.48670E+01
   2.45581E+01  2.44697E+01  2.46708E+01  2.51231E+01  2.56498E+01  2.60842E+01  2.63287E+01  2.63693E+01  2.62595E+01  2.60526E+01
   2.57977E+01  2.55160E+01  2.51921E+01  2.48481E+01  2.44957E+01  2.41219E+01  2.37235E+01  2.33026E+01  2.28639E+01  2.24142E+01
   2.19611E+01  2.15123E+01  2.10762E+01  2.06610E+01  2.02753E+01  1.99274E+01  1.96249E+01  1.93743E+01  1.91816E+01  1.90520E+01
   1.89899E+01  1.89987E+01  1.90801E+01  1.92345E+01  1.94610E+01  1.97577E+01  2.01208E+01  2.05453E+01  2.10238E+01  2.15476E+01
   2.21065E+01  2.26893E+01  2.32833E+01  2.38749E+01  2.44495E+01  2.49927E+01  2.54902E+01  2.59290E+01  2.62969E+01  2.65830E+01
   2.67785E+01  2.68770E+01  2.68749E+01  2.67712E+01  2.65671E+01  2.62662E+01  2.58745E+01  2.53999E+01  2.48522E+01  2.42422E+01
   2.35809E+01  2.28798E+01  2.21505E+01  2.14042E+01  2.06513E+01  1.99012E+01  1.91620E+01  1.84406E+01  1.77428E+01  1.70734E+01
   1.64359E+01  1.58326E+01  1.52645E+01  1.47321E+01  1.42354E+01  1.37737E+01  1.33459E+01  1.29500E+01  1.25842E+01  1.22465E+01
   1.19349E+01  1.16476E+01  1.13823E+01  1.11370E+01  1.09096E+01  1.06984E+01  1.05019E+01  1.03188E+01  1.01474E+01  9.98625E+00
   9.83428E+00  9.69060E+00  9.55439E+00  9.42479E+00  9.30087E+00  9.18184E+00  9.06720E+00  8.95660E+00  8.84962E+00  8.74574E+00
   8.64440E+00  8.54525E+00  8.44812E+00  8.35293E+00  8.25942E+00  8.16726E+00  8.07614E+00  7.98597E+00  7.89679E+00  7.80856E+00
   7.72109E+00  7.63413E+00  7.54756E+00  7.46142E+00  7.37582E+00  7.29071E+00  7.20591E+00  7.12122E+00  7.03667E+00  6.95239E+00
   6.86847E+00  6.78481E+00  6.70126E+00  6.61774E+00  6.53434E+00  6.45122E+00  6.36841E+00  6.28580E+00  6.20323E+00  6.12074E+00
   6.03847E+00  5.95658E+00  5.87502E+00  5.79367E+00  5.71245E+00  5.63146E+00  5.55089E+00  5.47082E+00  5.39116E+00  5.31180E+00
   5.23273E+00  5.15415E+00  5.07619E+00  4.99889E+00  4.92213E+00  4.84585E+00  4.77013E+00  4.69520E+00
 NY background values follow
     4.971E+01    4.920E+01    4.869E+01    4.817E+01    4.766E+01    4.715E+01    4.664E+01    4.612E+01    4.561E+01    4.509E+01
     4.458E+01    4.406E+01    4.355E+01    4.303E+01    4.252E+01    4.201E+01    4.149E+01    4.098E+01    4.046E+01    3.995E+01
     3.944E+01    3.892E+01    3.841E+01    3.790E+01    3.739E+01    3.688E+01    3.637E+01    3.586E+01    3.536E+01    3.485E+01
     3.435E+01    3.384E+01    3.334E+01    3.284E+01    3.234E+01    3.185E+01    3.135E+01    3.086E+01    3.036E+01    2.987E+01
     2.938E+01    2.890E+01    2.841E+01    2.793E+01    2.745E+01    2.697E+01    2.649E+01    2.602E+01    2.555E+01    2.508E+01
     2.461E+01    2.415E+01    2.369E+01    2.323E+01    2.278E+01    2.233E+01    2.188E+01    2.143E+01    2.099E+01    2.055E+01
     2.012E+01    1.969E+01    1.926E+01    1.883E+01    1.841E+01    1.800E+01    1.759E+01    1.718E+01    1.677E+01    1.637E+01
     1.598E+01    1.559E+01    1.520E+01    1.482E+01    1.444E+01    1.407E+01    1.370E+01    1.334E+01    1.298E+01    1.263E+01
     1.228E+01    1.194E+01    1.160E+01    1.127E+01    1.094E+01    1.062E+01    1.031E+01    9.998E+00    9.695E+00    9.398E+00
     9.106E+00    8.821E+00    8.542E+00    8.269E+00    8.001E+00    7.739E+00    7.482E+00    7.231E+00    6.984E+00    6.742E+00
     6.505E+00    6.272E+00    6.043E+00    5.819E+00    5.598E+00    5.381E+00    5.167E+00    4.957E+00    4.750E+00    4.546E+00
     4.345E+00    4.147E+00    3.951E+00    3.757E+00    3.565E+00    3.376E+00    3.188E+00    3.001E+00    2.816E+00    2.632E+00
     2.450E+00    2.268E+00    2.086E+00    1.906E+00    1.725E+00    1.545E+00    1.365E+00    1.184E+00    1.003E+00    8.220E-01
     6.398E-01    4.567E-01    2.725E-01    8.702E-02   -9.992E-02   -2.885E-01   -4.789E-01   -6.711E-01   -8.650E-01   -1.060E+00
    -1.257E+00   -1.455E+00   -1.655E+00   -1.855E+00   -2.056E+00   -2.258E+00   -2.460E+00   -2.663E+00   -2.865E+00   -3.068E+00
    -3.271E+00   -3.474E+00   -3.676E+00   -3.878E+00   -4.080E+00   -4.280E+00   -4.480E+00   -4.678E+00   -4.876E+00   -5.071E+00
    -5.266E+00   -5.459E+00   -5.650E+00   -5.839E+00   -6.026E+00   -6.210E+00   -6.393E+00   -6.573E+00   -6.750E+00   -6.924E+00
    -7.096E+00   -7.264E+00   -7.429E+00   -7.591E+00   -7.749E+00   -7.903E+00   -8.054E+00   -8.200E+00   -8.343E+00   -8.481E+00
    -8.615E+00   -8.744E+00   -8.869E+00   -8.989E+00   -9.105E+00   -9.216E+00   -9.323E+00   -9.426E+00   -9.525E+00   -9.619E+00
    -9.710E+00   -9.798E+00   -9.881E+00   -9.961E+00   -1.004E+01   -1.011E+01   -1.018E+01   -1.025E+01   -1.031E+01   -1.037E+01
    -1.043E+01   -1.048E+01   -1.054E+01   -1.058E+01   -1.063E+01   -1.068E+01   -1.072E+01   -1.076E+01   -1.080E+01   -1.083E+01
    -1.087E+01   -1.090E+01   -1.093E+01   -1.096E+01   -1.098E+01   -1.101E+01   -1.103E+01   -1.106E+01   -1.108E+01   -1.110E+01
    -1.112E+01   -1.114E+01   -1.115E+01   -1.117E+01   -1.119E+01   -1.120E+01   -1.122E+01   -1.124E+01   -1.125E+01   -1.127E+01
    -1.128E+01   -1.129E+01   -1.131E+01   -1.132E+01   -1.133E+01   -1.134E+01   -1.135E+01   -1.136E+01   -1.136E+01   -1.137E+01
    -1.138E+01   -1.138E+01   -1.138E+01   -1.138E+01   -1.138E+01   -1.138E+01   -1.138E+01   -1.137E+01   -1.136E+01   -1.135E+01
    -1.134E+01   -1.133E+01   -1.131E+01   -1.130E+01   -1.128E+01   -1.126E+01   -1.123E+01   -1.121E+01   -1.118E+01   -1.115E+01
    -1.111E+01   -1.107E+01   -1.104E+01   -1.099E+01   -1.095E+01   -1.090E+01   -1.085E+01   -1.080E+01   -1.074E+01   -1.068E+01
    -1.061E+01   -1.055E+01   -1.048E+01   -1.040E+01   -1.033E+01   -1.025E+01   -1.016E+01   -1.008E+01   -9.986E+00   -9.893E+00
    -9.798E+00   -9.699E+00   -9.598E+00   -9.493E+00   -9.386E+00   -9.277E+00   -9.165E+00   -9.050E+00   -8.933E+00   -8.813E+00
    -8.691E+00   -8.567E+00   -8.440E+00   -8.311E+00   -8.180E+00   -8.047E+00   -7.912E+00   -7.775E+00   -7.637E+00   -7.496E+00
    -7.354E+00   -7.209E+00   -7.064E+00   -6.916E+00   -6.767E+00   -6.617E+00   -6.465E+00   -6.312E+00   -6.157E+00   -6.002E+00
    -5.845E+00   -5.687E+00   -5.528E+00   -5.368E+00   -5.207E+00   -5.045E+00   -4.882E+00   -4.719E+00   -4.554E+00   -4.390E+00
    -4.224E+00   -4.058E+00   -3.892E+00   -3.725E+00   -3.557E+00   -3.390E+00   -3.222E+00   -3.054E+00   -2.886E+00   -2.717E+00
    -2.549E+00   -2.380E+00   -2.212E+00   -2.044E+00   -1.876E+00   -1.708E+00   -1.541E+00   -1.373E+00   -1.207E+00   -1.040E+00
    -8.745E-01   -7.092E-01   -5.446E-01   -3.806E-01   -2.174E-01   -5.493E-02    1.067E-01    2.674E-01    4.272E-01    5.860E-01
     7.437E-01    9.003E-01    1.056E+00    1.210E+00    1.363E+00    1.515E+00    1.665E+00    1.814E+00    1.961E+00    2.107E+00
     2.251E+00    2.393E+00    2.534E+00    2.673E+00    2.810E+00    2.945E+00    3.079E+00    3.211E+00    3.341E+00    3.469E+00
     3.595E+00    3.720E+00    3.842E+00    3.963E+00    4.082E+00    4.199E+00    4.314E+00    4.427E+00    4.538E+00    4.647E+00
     4.754E+00    4.859E+00    4.962E+00    5.063E+00    5.162E+00    5.259E+00    5.354E+00    5.447E+00    5.538E+00    5.627E+00
     5.713E+00    5.798E+00    5.880E+00    5.960E+00    6.038E+00    6.114E+00    6.188E+00    6.259E+00    6.328E+00    6.395E+00
     6.460E+00    6.522E+00    6.582E+00    6.640E+00    6.696E+00    6.749E+00    6.800E+00    6.848E+00    6.895E+00    6.939E+00
     6.980E+00    7.020E+00    7.057E+00    7.091E+00    7.124E+00    7.154E+00    7.182E+00    7.208E+00    7.232E+00    7.254E+00
     7.273E+00    7.291E+00    7.306E+00    7.319E+00    7.330E+00    7.340E+00    7.347E+00    7.352E+00    7.355E+00    7.356E+00
     7.355E+00    7.353E+00    7.348E+00    7.342E+00    7.333E+00    7.323E+00    7.311E+00    7.297E+00    7.281E+00    7.264E+00
     7.244E+00    7.223E+00    7.201E+00    7.176E+00    7.150E+00    7.122E+00    7.093E+00    7.062E+00    7.029E+00    6.995E+00
     6.959E+00    6.921E+00    6.882E+00    6.841E+00    6.799E+00    6.756E+00    6.711E+00    6.665E+00    6.617E+00    6.568E+00
     6.518E+00    6.467E+00    6.414E+00    6.361E+00    6.306E+00    6.251E+00    6.194E+00    6.136E+00    6.078E+00    6.018E+00
     5.958E+00    5.897E+00    5.836E+00    5.773E+00    5.710E+00    5.647E+00    5.583E+00    5.518E+00    5.453E+00    5.387E+00
     5.321E+00    5.255E+00    5.188E+00    5.121E+00    5.054E+00    4.987E+00    4.920E+00    4.852E+00    4.784E+00    4.717E+00
     4.649E+00    4.581E+00    4.514E+00    4.447E+00    4.380E+00    4.313E+00    4.246E+00    4.180E+00
 Cr       Conc. = 9.59E+02
