 LCModel (Version 6.3-1L) Copyright: S.W. Provencher.          Ref.: Magn. Reson. Med. 30:672-679 (1993).                
 Slice#3 Row#11 Col#9  K_02_press_1_raw_act
 36 lines in following concentration table = NCONC+1
    Conc.  %SD /Cr+PCr  Metabolite                                         
    0.000 999%   0.000 Ala                                                 
    0.000 999%   0.000 Asp                                                 
    0.000 999%   0.000 Cr                                                  
 2.09E+03   3%   1.000 PCr                                                 
    0.000 999%   0.000 GABA                                                
    0.000 999%   0.000 Glc                                                 
  903.239  27%   0.433 Gln                                                 
 1.69E+03  16%   0.811 Glu                                                 
  594.127   4%   0.285 GPC                                                 
    0.000 999%   0.000 PCh                                                 
  378.132  18%   0.181 GSH                                                 
  724.837  31%   0.347 Ins                                                 
  165.778  82% 7.9E-02 Lac                                                 
 2.42E+03   3%   1.159 NAA                                                 
    0.000 999%   0.000 NAAG                                                
   76.899  35% 3.7E-02 Scyllo                                              
    0.000 999%   0.000 Tau                                                 
  162.417  57% 7.8E-02 -CrCH2                                              
  594.127   4%   0.285 GPC+PCh                                             
 2.42E+03   3%   1.159 NAA+NAAG                                            
 2.09E+03   3%   1.000 Cr+PCr                                              
 2.59E+03  15%   1.243 Glu+Gln                                             
    0.747 999% 3.6E-04 Lip13a                                              
  272.626 148%   0.131 Lip13b                                              
    0.000 999%   0.000 Lip09                                               
 1.66E+03  10%   0.796 MM09                                                
   41.509 208% 2.0E-02 Lip20                                               
 4.44E+03   7%   2.128 MM20                                                
  569.898  28%   0.273 MM12                                                
 1.17E+03  29%   0.559 MM14                                                
  941.430  24%   0.451 MM17                                                
  273.373 110%   0.131 Lip13a+Lip13b                                       
 2.01E+03  16%   0.963 MM14+Lip13a+Lip13b+MM12                             
 1.66E+03  10%   0.796 MM09+Lip09                                          
 4.48E+03   7%   2.148 MM20+Lip20                                          
   6 lines in following misc. output table
  FWHM = 0.061 ppm    S/N =  13                                            
  Data shift = 0.046 ppm                                                   
  Ph: -26 deg     -10.2 deg/ppm                                            
  alphaB,S = 8.5E+01,   7.7E+01                                            
   14 spline knots.   Ns = 8(1)                                            
   2 inflections.     1 extrema                                            
  498 points on ppm-axis = NY
      4.000000     3.992357     3.984714     3.977070     3.969427     3.961784     3.954141     3.946497     3.938854     3.931211
      3.923568     3.915925     3.908281     3.900638     3.892995     3.885352     3.877708     3.870065     3.862422     3.854779
      3.847136     3.839492     3.831849     3.824206     3.816563     3.808919     3.801276     3.793633     3.785990     3.778347
      3.770703     3.763060     3.755417     3.747774     3.740130     3.732487     3.724844     3.717201     3.709558     3.701914
      3.694271     3.686628     3.678985     3.671341     3.663698     3.656055     3.648412     3.640769     3.633125     3.625482
      3.617839     3.610196     3.602552     3.594909     3.587266     3.579623     3.571980     3.564336     3.556693     3.549050
      3.541407     3.533763     3.526120     3.518477     3.510834     3.503191     3.495547     3.487904     3.480261     3.472618
      3.464974     3.457331     3.449688     3.442045     3.434402     3.426758     3.419115     3.411472     3.403829     3.396185
      3.388542     3.380899     3.373256     3.365613     3.357969     3.350326     3.342683     3.335040     3.327396     3.319753
      3.312110     3.304467     3.296824     3.289180     3.281537     3.273894     3.266251     3.258607     3.250964     3.243321
      3.235678     3.228034     3.220391     3.212748     3.205105     3.197462     3.189818     3.182175     3.174532     3.166889
      3.159245     3.151602     3.143959     3.136316     3.128673     3.121029     3.113386     3.105743     3.098100     3.090456
      3.082813     3.075170     3.067527     3.059884     3.052240     3.044597     3.036954     3.029311     3.021667     3.014024
      3.006381     2.998738     2.991095     2.983451     2.975808     2.968165     2.960522     2.952878     2.945235     2.937592
      2.929949     2.922306     2.914662     2.907019     2.899376     2.891733     2.884089     2.876446     2.868803     2.861160
      2.853517     2.845873     2.838230     2.830587     2.822944     2.815300     2.807657     2.800014     2.792371     2.784728
      2.777084     2.769441     2.761798     2.754155     2.746511     2.738868     2.731225     2.723582     2.715939     2.708295
      2.700652     2.693009     2.685366     2.677722     2.670079     2.662436     2.654793     2.647150     2.639506     2.631863
      2.624220     2.616577     2.608933     2.601290     2.593647     2.586004     2.578361     2.570717     2.563074     2.555431
      2.547788     2.540144     2.532501     2.524858     2.517215     2.509572     2.501928     2.494285     2.486642     2.478999
      2.471355     2.463712     2.456069     2.448426     2.440783     2.433139     2.425496     2.417853     2.410210     2.402566
      2.394923     2.387280     2.379637     2.371994     2.364350     2.356707     2.349064     2.341421     2.333777     2.326134
      2.318491     2.310848     2.303205     2.295561     2.287918     2.280275     2.272632     2.264988     2.257345     2.249702
      2.242059     2.234416     2.226772     2.219129     2.211486     2.203843     2.196199     2.188556     2.180913     2.173270
      2.165627     2.157983     2.150340     2.142697     2.135054     2.127410     2.119767     2.112124     2.104481     2.096838
      2.089194     2.081551     2.073908     2.066265     2.058621     2.050978     2.043335     2.035692     2.028049     2.020405
      2.012762     2.005119     1.997476     1.989833     1.982190     1.974546     1.966903     1.959260     1.951617     1.943974
      1.936331     1.928688     1.921045     1.913402     1.905759     1.898115     1.890472     1.882829     1.875186     1.867543
      1.859900     1.852257     1.844614     1.836971     1.829327     1.821684     1.814041     1.806398     1.798755     1.791112
      1.783469     1.775826     1.768183     1.760540     1.752896     1.745253     1.737610     1.729967     1.722324     1.714681
      1.707038     1.699395     1.691752     1.684108     1.676465     1.668822     1.661179     1.653536     1.645893     1.638250
      1.630607     1.622964     1.615321     1.607677     1.600034     1.592391     1.584748     1.577105     1.569462     1.561819
      1.554176     1.546533     1.538890     1.531246     1.523603     1.515960     1.508317     1.500674     1.493031     1.485388
      1.477745     1.470102     1.462458     1.454815     1.447172     1.439529     1.431886     1.424243     1.416600     1.408957
      1.401314     1.393671     1.386027     1.378384     1.370741     1.363098     1.355455     1.347812     1.340169     1.332526
      1.324883     1.317240     1.309596     1.301953     1.294310     1.286667     1.279024     1.271381     1.263738     1.256095
      1.248452     1.240808     1.233165     1.225522     1.217879     1.210236     1.202593     1.194950     1.187307     1.179664
      1.172021     1.164377     1.156734     1.149091     1.141448     1.133805     1.126162     1.118519     1.110876     1.103233
      1.095590     1.087946     1.080303     1.072660     1.065017     1.057374     1.049731     1.042088     1.034445     1.026802
      1.019158     1.011515     1.003872     0.996229     0.988586     0.980943     0.973300     0.965657     0.958014     0.950371
      0.942727     0.935084     0.927441     0.919798     0.912155     0.904512     0.896869     0.889226     0.881583     0.873940
      0.866296     0.858653     0.851010     0.843367     0.835724     0.828081     0.820438     0.812795     0.805152     0.797508
      0.789865     0.782222     0.774579     0.766936     0.759293     0.751650     0.744007     0.736364     0.728721     0.721077
      0.713434     0.705791     0.698148     0.690505     0.682862     0.675219     0.667576     0.659933     0.652290     0.644646
      0.637003     0.629360     0.621717     0.614074     0.606431     0.598788     0.591145     0.583502     0.575858     0.568215
      0.560572     0.552929     0.545286     0.537643     0.530000     0.522357     0.514714     0.507071     0.499427     0.491784
      0.484141     0.476498     0.468855     0.461212     0.453569     0.445925     0.438282     0.430639     0.422996     0.415353
      0.407710     0.400067     0.392424     0.384780     0.377137     0.369494     0.361851     0.354208     0.346565     0.338922
      0.331278     0.323635     0.315992     0.308349     0.300706     0.293063     0.285420     0.277777     0.270133     0.262490
      0.254847     0.247204     0.239561     0.231918     0.224275     0.216631     0.208988     0.201345
 NY phased data points follow
  -2.72438E+01 -2.51151E+01 -2.14079E+01 -1.68583E+01 -1.13920E+01 -4.25083E+00  5.53043E+00  1.11630E+01  1.46785E+01  1.46519E+01
   1.53485E+01  1.09815E+01  4.63954E+00  4.40133E+00 -7.81297E+00 -9.47568E+00 -1.36820E+01 -2.29802E+01 -2.33905E+01 -2.46675E+01
  -2.48568E+01 -2.23066E+01 -2.23130E+01 -2.27422E+01 -2.15946E+01 -2.28856E+01 -1.78905E+01 -1.74671E+01 -1.41689E+01 -1.13398E+01
  -1.50943E+01 -1.28091E+01 -1.52340E+01 -1.27490E+01 -1.53348E+01 -1.43334E+01 -1.62396E+01 -1.77177E+01 -1.91110E+01 -1.74839E+01
  -1.41772E+01 -1.63171E+01 -1.69807E+01 -1.07191E+01 -1.08628E+01 -8.50625E+00 -1.08668E+01 -1.10293E+01 -1.03218E+01 -1.66616E+01
  -1.05123E+01 -1.47708E+01 -1.50682E+01 -1.48466E+01 -1.66468E+01 -1.49410E+01 -1.71708E+01 -1.40748E+01 -1.62717E+01 -1.80226E+01
  -1.99297E+01 -2.55646E+01 -2.39113E+01 -2.43955E+01 -2.21539E+01 -2.70586E+01 -2.35680E+01 -2.46803E+01 -2.50964E+01 -2.32721E+01
  -2.32015E+01 -2.43126E+01 -2.39473E+01 -2.10049E+01 -1.98984E+01 -2.11852E+01 -2.22485E+01 -2.03614E+01 -2.11329E+01 -1.98381E+01
  -2.18276E+01 -2.03099E+01 -2.16130E+01 -2.09643E+01 -1.75771E+01 -1.85032E+01 -1.61773E+01 -1.80278E+01 -1.82768E+01 -1.76078E+01
  -1.85022E+01 -1.31410E+01 -1.94959E+01 -1.43285E+01 -9.82479E+00 -1.14460E+01 -7.89378E+00 -3.15045E+00  1.08489E+00  1.72326E+01
   2.33299E+01  2.52396E+01  2.59991E+01  2.34395E+01  2.32963E+01  1.62229E+01  1.15186E+01  8.14595E+00  3.06345E+00  2.64930E-01
  -8.20758E+00 -9.92151E+00 -1.16516E+01 -7.70254E+00 -1.23277E+01 -1.14227E+01 -9.59325E+00 -9.03931E+00 -8.27287E+00 -8.85860E+00
  -9.00673E+00  1.63237E+00  5.58444E+00  2.08276E+01  3.38240E+01  4.07679E+01  4.07301E+01  4.48243E+01  4.00361E+01  3.46303E+01
   2.99362E+01  1.91379E+01  1.52598E+01  7.04812E+00  1.90428E+00 -4.72362E+00 -8.93416E+00 -7.20057E+00 -1.25540E+01 -7.29368E+00
  -1.09852E+01 -1.11343E+01 -1.13211E+01 -1.27384E+01 -1.37255E+01 -1.38014E+01 -1.27365E+01 -1.21767E+01 -1.42109E+01 -1.44425E+01
  -1.36315E+01 -1.27934E+01 -1.36844E+01 -1.59722E+01 -1.49116E+01 -1.06014E+01 -1.25811E+01 -1.28701E+01 -1.46316E+01 -1.78210E+01
  -1.83360E+01 -1.64401E+01 -1.68162E+01 -1.38387E+01 -1.42488E+01 -1.37534E+01 -1.12340E+01 -1.51337E+01 -1.41075E+01 -1.94883E+01
  -1.75030E+01 -2.27182E+01 -2.52282E+01 -2.84865E+01 -2.51777E+01 -2.28529E+01 -2.10852E+01 -2.78868E+01 -2.21670E+01 -2.38171E+01
  -2.45343E+01 -2.56762E+01 -2.33132E+01 -2.70970E+01 -2.20178E+01 -2.36939E+01 -1.86594E+01 -1.62210E+01 -1.34780E+01 -9.93745E+00
  -1.02979E+01 -6.53724E+00 -7.92966E+00 -8.55035E+00 -2.38585E+00 -8.14975E+00 -6.38455E+00 -4.33164E+00 -1.06651E+01 -1.13056E+01
  -6.61264E+00 -7.19581E+00 -8.29407E+00 -6.32186E+00 -8.89549E+00 -1.06805E+01 -1.42458E+01 -1.53625E+01 -1.83280E+01 -1.44552E+01
  -1.13013E+01 -1.24481E+01 -1.15598E+01 -1.79339E+00  1.45296E+00 -1.35466E+00  1.26984E+00 -4.91554E+00 -5.22608E+00 -1.01019E+01
  -1.02694E+01 -1.13675E+01 -1.24202E+01 -1.09569E+01 -5.90773E+00 -3.09158E+00 -3.10728E+00  2.18333E+00 -3.17906E+00  1.01314E+00
   1.39790E+00 -1.16734E+00 -2.53046E+00 -1.88890E+00 -3.20133E+00  1.81737E+00 -8.34111E-01 -2.21643E+00 -1.02130E+00 -1.44612E+00
  -5.94354E+00 -4.25386E+00 -1.68157E+00 -1.95745E+00  6.70585E-01  4.14687E+00  1.93180E+00  7.09991E+00  1.07354E+01  9.59766E+00
   1.30642E+01  1.54130E+01  1.31940E+01  1.49883E+01  1.99345E+01  2.43146E+01  4.29587E+01  5.87747E+01  6.97465E+01  7.61781E+01
   7.98693E+01  7.12624E+01  6.47835E+01  5.32139E+01  4.06721E+01  2.70822E+01  1.94332E+01  1.30467E+01  8.95243E+00  5.06025E+00
   6.58284E+00  6.60120E+00  6.55377E+00  3.94237E+00  1.38682E+00  1.25055E+00  2.79893E+00  3.62478E+00  1.22379E+00 -8.50953E-01
   9.47841E-01 -3.72951E+00  8.92527E-01  2.69575E-01 -4.09059E+00 -5.03602E+00 -7.23121E-01 -2.34910E+00 -1.12836E+00 -2.51334E+00
  -3.14052E+00 -2.90399E+00 -1.39049E+00 -5.94804E+00 -2.26951E+00 -3.97939E+00 -5.64808E+00 -2.98112E+00 -5.72526E+00 -7.30169E+00
  -6.31671E+00 -5.35485E+00 -5.81187E+00 -7.96566E+00 -6.06197E+00 -3.26390E+00 -2.24307E+00 -3.27490E+00  4.72834E-02  3.38697E+00
   3.12508E+00  5.01880E+00  2.63414E+00  2.59402E+00  3.34919E+00  2.69664E+00  4.85856E+00  6.13162E+00  5.17406E+00  9.20788E+00
   8.36876E+00  7.93370E+00  4.91595E+00  4.99568E+00  6.19271E+00  5.24790E+00  4.31742E+00  3.79092E+00  1.43727E+00  3.62767E+00
   3.24004E+00  4.72791E+00  3.00786E+00  7.83536E+00  2.58334E+00  2.52030E+00  3.29919E+00  5.67418E+00 -6.25527E-01  3.99254E+00
   6.54848E-01  3.08239E+00  3.78918E+00  3.89577E+00  4.84218E+00  6.24584E+00  5.77097E+00  2.61677E+00  3.15987E+00  1.63195E+00
   3.83797E+00  3.74432E+00  3.81386E+00 -1.86666E-01  7.32374E+00  3.16257E+00  4.60176E+00  4.48759E+00  4.47182E+00  5.94685E+00
   6.77839E+00  4.65123E+00  5.57469E+00  4.55944E+00  5.62657E+00  6.66786E-01  4.89123E+00  5.43046E+00  4.80327E+00  2.11742E+00
   3.83145E+00  3.71086E+00  3.60796E+00  1.02617E+00  3.04883E+00  4.11316E+00  3.98462E+00  1.28571E+00  6.16470E-01 -5.32348E-01
   2.92059E-01  5.74960E+00  2.67243E+00  5.98602E+00  2.07398E+00  4.71680E+00  4.38091E+00  5.86048E+00  3.42054E+00  6.53042E+00
   2.87707E+00  8.71424E+00  8.35476E+00  6.53904E+00  7.25571E+00  4.42293E+00  9.57833E+00  5.77124E+00  9.39274E+00  6.39175E+00
   8.49321E+00  1.22327E+01  7.74296E+00  1.00187E+01  9.85096E+00  7.98646E+00  1.24361E+01  1.16518E+01  1.31834E+01  1.28176E+01
   1.03763E+01  1.06584E+01  1.09510E+01  8.43027E+00  1.01823E+01  7.65530E+00  6.55041E+00  8.44753E+00  5.06154E+00  4.16029E+00
   7.20883E+00  3.88498E+00  6.12158E+00  5.49885E+00  5.30985E+00  4.96708E+00  7.22732E+00  9.03773E+00  6.25475E+00  6.14269E+00
   3.70118E+00  6.56667E+00  6.76061E+00  6.63936E+00  5.06247E+00  4.87167E+00  5.05714E+00  6.27836E+00  4.51261E+00  6.73619E+00
   5.54052E+00  3.98571E+00  9.51749E-01  6.20183E+00  7.28241E+00  6.78942E+00  6.88881E+00  4.65545E+00  3.21995E+00  4.00979E+00
   2.61466E+00  2.47889E+00  2.21837E+00  6.04968E+00  5.79780E+00  4.65023E+00  2.98148E+00  5.22153E+00  5.84101E+00  2.43512E+00
   7.42684E+00  6.54205E+00  4.00540E+00  2.35129E+00  6.23707E+00  4.69974E+00  5.20363E+00  3.59539E+00  7.86491E+00  3.68646E+00
   5.01173E+00  3.97568E+00  5.57274E+00  3.28772E-01  3.17186E+00  4.99231E+00  2.74584E+00  1.32558E+00  3.32921E+00  3.95079E+00
   4.38528E+00  5.79692E+00  4.24091E+00  4.26941E+00  6.78227E+00  5.77933E+00  4.26861E+00  3.14728E+00  5.29633E+00  2.53450E+00
   4.09771E+00  4.00775E+00  6.06152E+00  3.77837E+00  4.44072E+00  4.52474E+00  6.30291E+00  5.19573E+00
 NY points of the fit to the data follow
  -2.37688E+01 -2.21451E+01 -1.94828E+01 -1.63157E+01 -1.11915E+01 -3.42547E+00  4.99420E+00  1.12182E+01  1.43387E+01  1.48217E+01
   1.31221E+01  9.76463E+00  5.32583E+00  3.60665E-01 -4.40426E+00 -8.47828E+00 -1.19478E+01 -1.48455E+01 -1.69270E+01 -1.81058E+01
  -1.88420E+01 -1.95131E+01 -1.99621E+01 -2.02721E+01 -2.06320E+01 -2.04293E+01 -1.90131E+01 -1.66901E+01 -1.43465E+01 -1.24345E+01
  -1.11317E+01 -1.07431E+01 -1.13117E+01 -1.26343E+01 -1.43013E+01 -1.58987E+01 -1.72244E+01 -1.81854E+01 -1.86874E+01 -1.87038E+01
  -1.83803E+01 -1.77851E+01 -1.68494E+01 -1.56733E+01 -1.45946E+01 -1.39150E+01 -1.37218E+01 -1.39617E+01 -1.45328E+01 -1.53583E+01
  -1.63043E+01 -1.71907E+01 -1.79342E+01 -1.85207E+01 -1.89335E+01 -1.91261E+01 -1.91050E+01 -1.89855E+01 -1.89098E+01 -1.89631E+01
  -1.91586E+01 -1.94485E+01 -1.97785E+01 -2.00636E+01 -2.02440E+01 -2.03269E+01 -2.03118E+01 -2.01905E+01 -1.99927E+01 -1.97876E+01
  -1.96305E+01 -1.95342E+01 -1.94961E+01 -1.95105E+01 -1.95655E+01 -1.96452E+01 -1.97274E+01 -1.97796E+01 -1.97454E+01 -1.95763E+01
  -1.94050E+01 -1.91199E+01 -1.85727E+01 -1.78972E+01 -1.74221E+01 -1.72765E+01 -1.73536E+01 -1.75593E+01 -1.78221E+01 -1.81008E+01
  -1.83568E+01 -1.85252E+01 -1.85341E+01 -1.82704E+01 -1.70105E+01 -1.42018E+01 -1.08700E+01 -5.75161E+00  2.79534E+00  1.34875E+01
   2.25571E+01  2.77539E+01  2.92693E+01  2.77589E+01  2.38047E+01  1.81213E+01  1.14532E+01  4.75331E+00 -1.10010E+00 -5.97693E+00
  -1.00204E+01 -1.30122E+01 -1.47916E+01 -1.54723E+01 -1.56564E+01 -1.56572E+01 -1.55366E+01 -1.52216E+01 -1.42170E+01 -1.11423E+01
  -7.00641E+00 -1.94033E+00  6.70071E+00  1.94342E+01  3.23536E+01  4.11730E+01  4.50722E+01  4.48979E+01  4.14005E+01  3.54581E+01
   2.78582E+01  1.94329E+01  1.13892E+01  4.39076E+00 -1.63583E+00 -6.50128E+00 -9.79451E+00 -1.13483E+01 -1.17698E+01 -1.18045E+01
  -1.17443E+01 -1.17028E+01 -1.17167E+01 -1.17993E+01 -1.19435E+01 -1.21478E+01 -1.24122E+01 -1.27180E+01 -1.30331E+01 -1.33349E+01
  -1.36017E+01 -1.38193E+01 -1.39838E+01 -1.41637E+01 -1.43137E+01 -1.44493E+01 -1.46822E+01 -1.50261E+01 -1.54204E+01 -1.56651E+01
  -1.56309E+01 -1.54167E+01 -1.52540E+01 -1.52670E+01 -1.54033E+01 -1.56092E+01 -1.58923E+01 -1.62504E+01 -1.66787E+01 -1.71094E+01
  -1.74693E+01 -1.79094E+01 -1.84459E+01 -1.88881E+01 -1.89869E+01 -1.88034E+01 -1.86266E+01 -1.85809E+01 -1.85671E+01 -1.84920E+01
  -1.83146E+01 -1.81461E+01 -1.80944E+01 -1.80117E+01 -1.76400E+01 -1.69017E+01 -1.59006E+01 -1.47720E+01 -1.36201E+01 -1.26108E+01
  -1.19902E+01 -1.17133E+01 -1.16255E+01 -1.16912E+01 -1.19100E+01 -1.20547E+01 -1.17663E+01 -1.11115E+01 -1.02142E+01 -9.12534E+00
  -7.96167E+00 -7.09110E+00 -6.78889E+00 -7.15088E+00 -8.37690E+00 -1.03151E+01 -1.22516E+01 -1.36263E+01 -1.42361E+01 -1.42341E+01
  -1.33684E+01 -1.13587E+01 -8.57961E+00 -5.99547E+00 -4.43356E+00 -4.00810E+00 -4.48492E+00 -5.92754E+00 -8.33452E+00 -1.09377E+01
  -1.27348E+01 -1.32606E+01 -1.27162E+01 -1.14809E+01 -9.74643E+00 -7.70035E+00 -5.70974E+00 -4.25195E+00 -3.35435E+00 -2.76394E+00
  -2.39905E+00 -2.23194E+00 -1.98854E+00 -1.38564E+00 -4.69309E-01  5.34116E-01  1.36736E+00  1.77773E+00  1.70433E+00  1.29112E+00
   8.55451E-01  6.50463E-01  7.93890E-01  1.28174E+00  2.05684E+00  3.03875E+00  4.07874E+00  5.06257E+00  5.98267E+00  6.91694E+00
   7.82726E+00  9.05010E+00  1.22748E+01  1.69775E+01  2.18166E+01  3.01929E+01  4.41240E+01  5.96991E+01  7.08744E+01  7.58577E+01
   7.57522E+01  7.14422E+01  6.38274E+01  5.40178E+01  4.31493E+01  3.28028E+01  2.40205E+01  1.65492E+01  1.02990E+01  5.77352E+00
   3.23361E+00  2.14119E+00  1.48997E+00  9.92784E-01  5.73371E-01  1.76371E-01 -2.37057E-01 -6.66949E-01 -1.09668E+00 -1.50583E+00
  -1.88944E+00 -2.24659E+00 -2.57286E+00 -2.86109E+00 -3.10894E+00 -3.32185E+00 -3.50651E+00 -3.66599E+00 -3.80178E+00 -3.91521E+00
  -4.00719E+00 -4.07759E+00 -4.12396E+00 -4.14487E+00 -4.13899E+00 -4.10358E+00 -4.03615E+00 -3.93421E+00 -3.79430E+00 -3.61185E+00
  -3.38263E+00 -3.10347E+00 -2.77206E+00 -2.38664E+00 -1.94689E+00 -1.45409E+00 -9.11759E-01 -3.25809E-01  2.95176E-01  9.40171E-01
   1.59579E+00  2.24722E+00  2.87861E+00  3.47400E+00  4.01783E+00  4.49623E+00  4.89790E+00  5.21504E+00  5.44352E+00  5.58319E+00
   5.63762E+00  5.61414E+00  5.52311E+00  5.37725E+00  5.19042E+00  4.97676E+00  4.74977E+00  4.52178E+00  4.30327E+00  4.10247E+00
   3.92499E+00  3.77406E+00  3.65076E+00  3.55480E+00  3.48491E+00  3.43972E+00  3.41864E+00  3.42426E+00  3.46802E+00  3.57840E+00
   3.71487E+00  3.83549E+00  4.02560E+00  4.25208E+00  4.33119E+00  4.12811E+00  3.70910E+00  3.26711E+00  2.86880E+00  2.50934E+00
   2.32452E+00  2.47714E+00  2.96363E+00  3.60060E+00  4.21687E+00  4.74508E+00  5.15516E+00  5.41758E+00  5.50324E+00  5.40077E+00
   5.16661E+00  4.86626E+00  4.52769E+00  4.17298E+00  3.83507E+00  3.54917E+00  3.32496E+00  3.14570E+00  3.00120E+00  2.88514E+00
   2.79249E+00  2.71953E+00  2.66364E+00  2.62347E+00  2.59859E+00  2.58946E+00  2.59706E+00  2.62300E+00  2.66913E+00  2.73762E+00
   2.83057E+00  2.95006E+00  3.09793E+00  3.27602E+00  3.48587E+00  3.72879E+00  4.00553E+00  4.31642E+00  4.66106E+00  5.03857E+00
   5.44716E+00  5.88420E+00  6.34592E+00  6.82760E+00  7.32338E+00  7.82659E+00  8.32952E+00  8.82377E+00  9.30023E+00  9.74966E+00
   1.01628E+01  1.05310E+01  1.08460E+01  1.11011E+01  1.12905E+01  1.14104E+01  1.14586E+01  1.14352E+01  1.13420E+01  1.11826E+01
   1.09621E+01  1.06874E+01  1.03662E+01  1.00070E+01  9.61877E+00  9.21033E+00  8.79024E+00  8.36660E+00  7.94669E+00  7.53687E+00
   7.14234E+00  6.76730E+00  6.41488E+00  6.08732E+00  5.78589E+00  5.51112E+00  5.26274E+00  5.04009E+00  4.84206E+00  4.66738E+00
   4.51445E+00  4.38166E+00  4.26721E+00  4.16950E+00  4.08691E+00  4.01803E+00  3.96141E+00  3.91578E+00  3.87988E+00  3.85275E+00
   3.83344E+00  3.82118E+00  3.81517E+00  3.81475E+00  3.81929E+00  3.82834E+00  3.84146E+00  3.85830E+00  3.87842E+00  3.90151E+00
   3.92728E+00  3.95555E+00  3.98610E+00  4.01876E+00  4.05327E+00  4.08951E+00  4.12730E+00  4.16661E+00  4.20730E+00  4.24927E+00
   4.29234E+00  4.33648E+00  4.38161E+00  4.42774E+00  4.47474E+00  4.52255E+00  4.57106E+00  4.62029E+00  4.67018E+00  4.72076E+00
   4.77191E+00  4.82361E+00  4.87577E+00  4.92846E+00  4.98162E+00  5.03528E+00  5.08932E+00  5.14375E+00  5.19850E+00  5.25366E+00
   5.30918E+00  5.36505E+00  5.42119E+00  5.47761E+00  5.53430E+00  5.59131E+00  5.64861E+00  5.70617E+00  5.76393E+00  5.82193E+00
   5.88015E+00  5.93868E+00  5.99743E+00  6.05641E+00  6.11555E+00  6.17495E+00  6.23458E+00  6.29453E+00
 NY background values follow
    -2.614E+01   -2.608E+01   -2.601E+01   -2.595E+01   -2.588E+01   -2.582E+01   -2.575E+01   -2.569E+01   -2.563E+01   -2.556E+01
    -2.550E+01   -2.543E+01   -2.537E+01   -2.530E+01   -2.524E+01   -2.517E+01   -2.511E+01   -2.505E+01   -2.498E+01   -2.492E+01
    -2.485E+01   -2.479E+01   -2.472E+01   -2.466E+01   -2.459E+01   -2.453E+01   -2.447E+01   -2.440E+01   -2.434E+01   -2.427E+01
    -2.421E+01   -2.414E+01   -2.408E+01   -2.401E+01   -2.395E+01   -2.389E+01   -2.382E+01   -2.376E+01   -2.369E+01   -2.363E+01
    -2.356E+01   -2.350E+01   -2.343E+01   -2.337E+01   -2.330E+01   -2.324E+01   -2.318E+01   -2.311E+01   -2.305E+01   -2.298E+01
    -2.292E+01   -2.285E+01   -2.279E+01   -2.272E+01   -2.266E+01   -2.260E+01   -2.253E+01   -2.247E+01   -2.240E+01   -2.234E+01
    -2.227E+01   -2.221E+01   -2.214E+01   -2.208E+01   -2.201E+01   -2.195E+01   -2.189E+01   -2.182E+01   -2.176E+01   -2.169E+01
    -2.163E+01   -2.156E+01   -2.150E+01   -2.143E+01   -2.137E+01   -2.130E+01   -2.124E+01   -2.118E+01   -2.111E+01   -2.105E+01
    -2.098E+01   -2.092E+01   -2.085E+01   -2.079E+01   -2.072E+01   -2.066E+01   -2.059E+01   -2.053E+01   -2.046E+01   -2.040E+01
    -2.034E+01   -2.027E+01   -2.021E+01   -2.014E+01   -2.008E+01   -2.001E+01   -1.995E+01   -1.988E+01   -1.982E+01   -1.975E+01
    -1.969E+01   -1.963E+01   -1.956E+01   -1.950E+01   -1.943E+01   -1.937E+01   -1.930E+01   -1.924E+01   -1.917E+01   -1.911E+01
    -1.904E+01   -1.898E+01   -1.891E+01   -1.885E+01   -1.879E+01   -1.872E+01   -1.866E+01   -1.859E+01   -1.853E+01   -1.846E+01
    -1.840E+01   -1.833E+01   -1.827E+01   -1.820E+01   -1.814E+01   -1.807E+01   -1.801E+01   -1.795E+01   -1.788E+01   -1.782E+01
    -1.775E+01   -1.769E+01   -1.762E+01   -1.756E+01   -1.749E+01   -1.743E+01   -1.736E+01   -1.730E+01   -1.723E+01   -1.717E+01
    -1.710E+01   -1.704E+01   -1.698E+01   -1.691E+01   -1.685E+01   -1.678E+01   -1.672E+01   -1.665E+01   -1.659E+01   -1.652E+01
    -1.646E+01   -1.639E+01   -1.633E+01   -1.626E+01   -1.620E+01   -1.613E+01   -1.607E+01   -1.601E+01   -1.594E+01   -1.588E+01
    -1.581E+01   -1.575E+01   -1.568E+01   -1.562E+01   -1.555E+01   -1.549E+01   -1.542E+01   -1.536E+01   -1.529E+01   -1.523E+01
    -1.516E+01   -1.510E+01   -1.504E+01   -1.497E+01   -1.491E+01   -1.484E+01   -1.478E+01   -1.471E+01   -1.465E+01   -1.458E+01
    -1.452E+01   -1.445E+01   -1.439E+01   -1.432E+01   -1.426E+01   -1.419E+01   -1.413E+01   -1.406E+01   -1.400E+01   -1.394E+01
    -1.387E+01   -1.381E+01   -1.374E+01   -1.368E+01   -1.361E+01   -1.355E+01   -1.348E+01   -1.342E+01   -1.335E+01   -1.329E+01
    -1.322E+01   -1.316E+01   -1.309E+01   -1.303E+01   -1.296E+01   -1.290E+01   -1.283E+01   -1.277E+01   -1.271E+01   -1.264E+01
    -1.258E+01   -1.251E+01   -1.245E+01   -1.238E+01   -1.232E+01   -1.225E+01   -1.219E+01   -1.212E+01   -1.206E+01   -1.199E+01
    -1.193E+01   -1.186E+01   -1.180E+01   -1.173E+01   -1.167E+01   -1.160E+01   -1.154E+01   -1.148E+01   -1.141E+01   -1.135E+01
    -1.128E+01   -1.122E+01   -1.115E+01   -1.109E+01   -1.102E+01   -1.096E+01   -1.089E+01   -1.083E+01   -1.076E+01   -1.070E+01
    -1.063E+01   -1.057E+01   -1.050E+01   -1.044E+01   -1.037E+01   -1.031E+01   -1.025E+01   -1.018E+01   -1.012E+01   -1.005E+01
    -9.986E+00   -9.921E+00   -9.857E+00   -9.792E+00   -9.727E+00   -9.662E+00   -9.598E+00   -9.533E+00   -9.468E+00   -9.403E+00
    -9.339E+00   -9.274E+00   -9.209E+00   -9.144E+00   -9.079E+00   -9.015E+00   -8.950E+00   -8.885E+00   -8.820E+00   -8.756E+00
    -8.691E+00   -8.626E+00   -8.561E+00   -8.497E+00   -8.432E+00   -8.367E+00   -8.302E+00   -8.237E+00   -8.173E+00   -8.108E+00
    -8.043E+00   -7.978E+00   -7.914E+00   -7.849E+00   -7.784E+00   -7.719E+00   -7.655E+00   -7.590E+00   -7.525E+00   -7.460E+00
    -7.395E+00   -7.331E+00   -7.266E+00   -7.201E+00   -7.136E+00   -7.072E+00   -7.007E+00   -6.942E+00   -6.877E+00   -6.812E+00
    -6.748E+00   -6.683E+00   -6.618E+00   -6.553E+00   -6.488E+00   -6.424E+00   -6.359E+00   -6.294E+00   -6.229E+00   -6.165E+00
    -6.100E+00   -6.035E+00   -5.970E+00   -5.905E+00   -5.841E+00   -5.776E+00   -5.711E+00   -5.646E+00   -5.582E+00   -5.517E+00
    -5.452E+00   -5.387E+00   -5.322E+00   -5.258E+00   -5.193E+00   -5.128E+00   -5.063E+00   -4.998E+00   -4.934E+00   -4.869E+00
    -4.804E+00   -4.739E+00   -4.674E+00   -4.610E+00   -4.545E+00   -4.480E+00   -4.415E+00   -4.351E+00   -4.286E+00   -4.221E+00
    -4.156E+00   -4.091E+00   -4.027E+00   -3.962E+00   -3.897E+00   -3.832E+00   -3.767E+00   -3.703E+00   -3.638E+00   -3.573E+00
    -3.508E+00   -3.443E+00   -3.379E+00   -3.314E+00   -3.249E+00   -3.184E+00   -3.119E+00   -3.055E+00   -2.990E+00   -2.925E+00
    -2.860E+00   -2.795E+00   -2.731E+00   -2.666E+00   -2.601E+00   -2.536E+00   -2.471E+00   -2.407E+00   -2.342E+00   -2.277E+00
    -2.212E+00   -2.148E+00   -2.083E+00   -2.018E+00   -1.953E+00   -1.888E+00   -1.824E+00   -1.759E+00   -1.694E+00   -1.629E+00
    -1.564E+00   -1.500E+00   -1.435E+00   -1.370E+00   -1.305E+00   -1.240E+00   -1.176E+00   -1.111E+00   -1.046E+00   -9.812E-01
    -9.164E-01   -8.516E-01   -7.868E-01   -7.220E-01   -6.572E-01   -5.924E-01   -5.276E-01   -4.628E-01   -3.980E-01   -3.332E-01
    -2.684E-01   -2.036E-01   -1.388E-01   -7.405E-02   -9.258E-03    5.554E-02    1.203E-01    1.851E-01    2.499E-01    3.147E-01
     3.795E-01    4.443E-01    5.091E-01    5.739E-01    6.387E-01    7.035E-01    7.683E-01    8.331E-01    8.979E-01    9.627E-01
     1.027E+00    1.092E+00    1.157E+00    1.222E+00    1.287E+00    1.351E+00    1.416E+00    1.481E+00    1.546E+00    1.611E+00
     1.675E+00    1.740E+00    1.805E+00    1.870E+00    1.935E+00    1.999E+00    2.064E+00    2.129E+00    2.194E+00    2.258E+00
     2.323E+00    2.388E+00    2.453E+00    2.518E+00    2.582E+00    2.647E+00    2.712E+00    2.777E+00    2.842E+00    2.906E+00
     2.971E+00    3.036E+00    3.101E+00    3.166E+00    3.230E+00    3.295E+00    3.360E+00    3.425E+00    3.489E+00    3.554E+00
     3.619E+00    3.684E+00    3.749E+00    3.813E+00    3.878E+00    3.943E+00    4.008E+00    4.073E+00    4.137E+00    4.202E+00
     4.267E+00    4.332E+00    4.396E+00    4.461E+00    4.526E+00    4.591E+00    4.656E+00    4.720E+00    4.785E+00    4.850E+00
     4.915E+00    4.979E+00    5.044E+00    5.109E+00    5.174E+00    5.239E+00    5.303E+00    5.368E+00    5.433E+00    5.498E+00
     5.562E+00    5.627E+00    5.692E+00    5.757E+00    5.821E+00    5.886E+00    5.951E+00    6.016E+00
 PCr      Conc. = 2.09E+03
