 LCModel (Version 6.3-1L) Copyright: S.W. Provencher.          Ref.: Magn. Reson. Med. 30:672-679 (1993).                
 Slice#3 Row#7 Col#11  K_02_press_1_raw_act
 36 lines in following concentration table = NCONC+1
    Conc.  %SD /Cr+PCr  Metabolite                                         
   28.811 303% 1.9E-02 Ala                                                 
    0.000 999%   0.000 Asp                                                 
  353.262  58%   0.235 Cr                                                  
 1.15E+03  19%   0.765 PCr                                                 
    0.000 999%   0.000 GABA                                                
   10.670 999% 7.1E-03 Glc                                                 
  543.506  33%   0.361 Gln                                                 
 1.54E+03  13%   1.024 Glu                                                 
  406.570   5%   0.270 GPC                                                 
    0.000 999%   0.000 PCh                                                 
  371.026  18%   0.246 GSH                                                 
  965.716  22%   0.641 Ins                                                 
   26.879 346% 1.8E-02 Lac                                                 
 2.22E+03   5%   1.472 NAA                                                 
  427.256  21%   0.284 NAAG                                                
   35.091  71% 2.3E-02 Scyllo                                              
  121.731 151% 8.1E-02 Tau                                                 
  702.643  16%   0.467 -CrCH2                                              
  406.570   5%   0.270 GPC+PCh                                             
 2.64E+03   3%   1.756 NAA+NAAG                                            
 1.51E+03   4%   1.000 Cr+PCr                                              
 2.09E+03  13%   1.385 Glu+Gln                                             
 2.11E+03  40%   1.402 Lip13a                                              
    0.000 999%   0.000 Lip13b                                              
  560.281  65%   0.372 Lip09                                               
 1.98E+03  22%   1.318 MM09                                                
  228.256 103%   0.152 Lip20                                               
 4.42E+03  11%   2.937 MM20                                                
  726.859  53%   0.483 MM12                                                
 1.78E+03  30%   1.180 MM14                                                
  622.327  41%   0.413 MM17                                                
 2.11E+03  40%   1.402 Lip13a+Lip13b                                       
 4.62E+03  11%   3.065 MM14+Lip13a+Lip13b+MM12                             
 2.55E+03  10%   1.690 MM09+Lip09                                          
 4.65E+03  10%   3.089 MM20+Lip20                                          
   6 lines in following misc. output table
  FWHM = 0.031 ppm    S/N =  15                                            
  Data shift = 0.000 ppm                                                   
  Ph:  -1 deg       0.3 deg/ppm                                            
  alphaB,S = 1.2E+00,   4.0E+01                                            
   14 spline knots.   Ns = 5(1)                                            
  ( 9) 2 infls.   ( 5) 1 extrs.                                            
  498 points on ppm-axis = NY
      4.000000     3.992357     3.984714     3.977070     3.969427     3.961784     3.954141     3.946497     3.938854     3.931211
      3.923568     3.915925     3.908281     3.900638     3.892995     3.885352     3.877708     3.870065     3.862422     3.854779
      3.847136     3.839492     3.831849     3.824206     3.816563     3.808919     3.801276     3.793633     3.785990     3.778347
      3.770703     3.763060     3.755417     3.747774     3.740130     3.732487     3.724844     3.717201     3.709558     3.701914
      3.694271     3.686628     3.678985     3.671341     3.663698     3.656055     3.648412     3.640769     3.633125     3.625482
      3.617839     3.610196     3.602552     3.594909     3.587266     3.579623     3.571980     3.564336     3.556693     3.549050
      3.541407     3.533763     3.526120     3.518477     3.510834     3.503191     3.495547     3.487904     3.480261     3.472618
      3.464974     3.457331     3.449688     3.442045     3.434402     3.426758     3.419115     3.411472     3.403829     3.396185
      3.388542     3.380899     3.373256     3.365613     3.357969     3.350326     3.342683     3.335040     3.327396     3.319753
      3.312110     3.304467     3.296824     3.289180     3.281537     3.273894     3.266251     3.258607     3.250964     3.243321
      3.235678     3.228034     3.220391     3.212748     3.205105     3.197462     3.189818     3.182175     3.174532     3.166889
      3.159245     3.151602     3.143959     3.136316     3.128673     3.121029     3.113386     3.105743     3.098100     3.090456
      3.082813     3.075170     3.067527     3.059884     3.052240     3.044597     3.036954     3.029311     3.021667     3.014024
      3.006381     2.998738     2.991095     2.983451     2.975808     2.968165     2.960522     2.952878     2.945235     2.937592
      2.929949     2.922306     2.914662     2.907019     2.899376     2.891733     2.884089     2.876446     2.868803     2.861160
      2.853517     2.845873     2.838230     2.830587     2.822944     2.815300     2.807657     2.800014     2.792371     2.784728
      2.777084     2.769441     2.761798     2.754155     2.746511     2.738868     2.731225     2.723582     2.715939     2.708295
      2.700652     2.693009     2.685366     2.677722     2.670079     2.662436     2.654793     2.647150     2.639506     2.631863
      2.624220     2.616577     2.608933     2.601290     2.593647     2.586004     2.578361     2.570717     2.563074     2.555431
      2.547788     2.540144     2.532501     2.524858     2.517215     2.509572     2.501928     2.494285     2.486642     2.478999
      2.471355     2.463712     2.456069     2.448426     2.440783     2.433139     2.425496     2.417853     2.410210     2.402566
      2.394923     2.387280     2.379637     2.371994     2.364350     2.356707     2.349064     2.341421     2.333777     2.326134
      2.318491     2.310848     2.303205     2.295561     2.287918     2.280275     2.272632     2.264988     2.257345     2.249702
      2.242059     2.234416     2.226772     2.219129     2.211486     2.203843     2.196199     2.188556     2.180913     2.173270
      2.165627     2.157983     2.150340     2.142697     2.135054     2.127410     2.119767     2.112124     2.104481     2.096838
      2.089194     2.081551     2.073908     2.066265     2.058621     2.050978     2.043335     2.035692     2.028049     2.020405
      2.012762     2.005119     1.997476     1.989833     1.982190     1.974546     1.966903     1.959260     1.951617     1.943974
      1.936331     1.928688     1.921045     1.913402     1.905759     1.898115     1.890472     1.882829     1.875186     1.867543
      1.859900     1.852257     1.844614     1.836971     1.829327     1.821684     1.814041     1.806398     1.798755     1.791112
      1.783469     1.775826     1.768183     1.760540     1.752896     1.745253     1.737610     1.729967     1.722324     1.714681
      1.707038     1.699395     1.691752     1.684108     1.676465     1.668822     1.661179     1.653536     1.645893     1.638250
      1.630607     1.622964     1.615321     1.607677     1.600034     1.592391     1.584748     1.577105     1.569462     1.561819
      1.554176     1.546533     1.538890     1.531246     1.523603     1.515960     1.508317     1.500674     1.493031     1.485388
      1.477745     1.470102     1.462458     1.454815     1.447172     1.439529     1.431886     1.424243     1.416600     1.408957
      1.401314     1.393671     1.386027     1.378384     1.370741     1.363098     1.355455     1.347812     1.340169     1.332526
      1.324883     1.317240     1.309596     1.301953     1.294310     1.286667     1.279024     1.271381     1.263738     1.256095
      1.248452     1.240808     1.233165     1.225522     1.217879     1.210236     1.202593     1.194950     1.187307     1.179664
      1.172021     1.164377     1.156734     1.149091     1.141448     1.133805     1.126162     1.118519     1.110876     1.103233
      1.095590     1.087946     1.080303     1.072660     1.065017     1.057374     1.049731     1.042088     1.034445     1.026802
      1.019158     1.011515     1.003872     0.996229     0.988586     0.980943     0.973300     0.965657     0.958014     0.950371
      0.942727     0.935084     0.927441     0.919798     0.912155     0.904512     0.896869     0.889226     0.881583     0.873940
      0.866296     0.858653     0.851010     0.843367     0.835724     0.828081     0.820438     0.812795     0.805152     0.797508
      0.789865     0.782222     0.774579     0.766936     0.759293     0.751650     0.744007     0.736364     0.728721     0.721077
      0.713434     0.705791     0.698148     0.690505     0.682862     0.675219     0.667576     0.659933     0.652290     0.644646
      0.637003     0.629360     0.621717     0.614074     0.606431     0.598788     0.591145     0.583502     0.575858     0.568215
      0.560572     0.552929     0.545286     0.537643     0.530000     0.522357     0.514714     0.507071     0.499427     0.491784
      0.484141     0.476498     0.468855     0.461212     0.453569     0.445925     0.438282     0.430639     0.422996     0.415353
      0.407710     0.400067     0.392424     0.384780     0.377137     0.369494     0.361851     0.354208     0.346565     0.338922
      0.331278     0.323635     0.315992     0.308349     0.300706     0.293063     0.285420     0.277777     0.270133     0.262490
      0.254847     0.247204     0.239561     0.231918     0.224275     0.216631     0.208988     0.201345
 NY phased data points follow
   8.18231E+00  1.38750E+01  1.38365E+01  1.21676E+01  8.99724E+00  1.38409E+01  1.92732E+01  2.43257E+01  2.55509E+01  3.19799E+01
   3.18694E+01  3.26768E+01  3.01261E+01  2.67703E+01  2.21072E+01  1.92342E+01  1.34344E+01  1.39948E+01  1.05334E+01  1.63219E+01
   1.24863E+01  1.58794E+01  1.16578E+01  1.22040E+01  1.21228E+01  1.56444E+01  1.76148E+01  1.37702E+01  2.07863E+01  1.70336E+01
   1.83025E+01  2.06307E+01  1.85527E+01  1.76695E+01  1.67322E+01  1.49431E+01  1.21636E+01  1.32570E+01  1.47659E+01  1.90322E+01
   1.72493E+01  1.43636E+01  1.32557E+01  1.42182E+01  1.02996E+01  1.88249E+01  1.89270E+01  2.62019E+01  2.07082E+01  2.40062E+01
   1.61159E+01  1.92479E+01  1.51440E+01  1.00709E+01  1.34489E+01  1.77481E+01  1.61350E+01  1.37265E+01  1.07731E+01  1.21638E+01
   8.51939E+00  9.25316E+00  5.17872E+00  5.67132E+00  6.38624E+00  3.90698E+00  5.86852E+00  2.39031E+00  9.06582E+00  6.78150E+00
   6.13181E+00  4.86873E+00  8.74252E+00  5.23095E+00  3.35914E+00  6.73994E+00  3.43401E+00  4.92217E+00  2.23074E+00  6.16808E+00
   6.60026E+00  5.47302E+00  3.28322E+00  4.57780E+00  5.95549E+00  5.36315E+00  4.59098E+00  9.54063E+00  5.19979E+00  8.04514E+00
   8.54973E+00  3.90084E+00  7.09316E+00  6.52026E+00  5.49245E+00  6.53291E+00  1.07476E+01  1.14692E+01  1.28589E+01  1.68517E+01
   2.02963E+01  3.81547E+01  4.81539E+01  5.60836E+01  4.31919E+01  4.19297E+01  3.39839E+01  2.37214E+01  1.66731E+01  9.37165E+00
   1.03080E+01  1.14070E+01  7.02103E+00  9.99210E+00  6.44034E+00  4.05445E+00  7.52303E+00  8.03960E+00  1.45654E+01  7.94708E+00
   7.92135E+00  1.15144E+01  1.38626E+01  1.46283E+01  2.77947E+01  4.54038E+01  6.51312E+01  7.25437E+01  6.84098E+01  5.38919E+01
   3.86978E+01  3.14413E+01  1.84629E+01  1.35589E+01  1.34206E+01  9.77613E+00  9.29897E+00  1.13885E+01  5.18870E+00  9.63291E+00
   6.75251E+00  7.25354E+00  1.00307E+01  5.95953E+00  6.46981E+00  5.87417E+00  7.07170E+00  4.49530E+00  2.78018E+00  1.59163E+00
   1.66723E+00  2.68700E+00  7.10870E-01  1.77202E+00 -2.47733E+00  3.88144E+00  2.09951E+00  3.28399E+00  2.75719E+00  7.91680E+00
   3.92893E+00  3.46472E+00 -1.64666E+00 -8.83242E+00  2.72861E+00 -1.95146E-01 -1.51075E+00 -5.23902E+00 -4.95512E+00 -9.57170E+00
  -7.52751E+00 -9.78141E+00 -9.56207E+00 -1.43501E+01 -1.46564E+01 -1.81198E+01 -2.00434E+01 -1.47815E+01 -7.78619E+00 -1.32971E+01
  -7.50655E+00 -9.19641E+00 -7.69141E+00 -5.77030E+00 -8.38191E+00 -5.88987E+00 -7.77346E+00 -1.01733E+01 -1.08785E+01 -6.82004E+00
   1.38940E+00  1.79677E+00  2.34585E+00  3.65559E-01 -1.26297E+00 -2.39597E+00 -3.89900E+00 -5.86394E+00 -6.94541E+00 -7.16007E+00
  -8.71556E+00 -1.85988E+00 -6.42119E-01  4.14505E+00  5.49926E+00  5.73181E+00  6.20852E+00 -2.12275E+00 -9.14472E-01 -5.22111E+00
  -1.85521E+00  4.12792E+00  7.21067E+00  1.35092E+01  1.98657E+01  2.54129E+01  2.01734E+01  1.87248E+01  1.59538E+01  6.85235E+00
   2.23712E+00 -6.48315E+00 -3.07977E+00  1.11112E+00  5.46744E+00  9.43783E+00  1.13131E+01  1.49423E+01  1.24500E+01  1.19645E+01
   1.04378E+01  8.97194E+00  1.34894E+01  1.16971E+01  9.96226E+00  9.76108E+00  9.18864E+00  1.41482E+01  1.01513E+01  6.21768E+00
   8.53915E+00  5.16548E+00  1.72258E+00  6.61182E+00  7.22142E+00  1.52564E+01  1.34131E+01  1.57913E+01  1.26968E+01  1.32543E+01
   2.44645E+01  1.76870E+01  2.36604E+01  2.94169E+01  3.79938E+01  4.43525E+01  4.23133E+01  5.40449E+01  8.84764E+01  1.16047E+02
   1.26095E+02  1.10045E+02  8.50996E+01  5.68286E+01  3.58914E+01  2.33777E+01  2.05079E+01  1.50820E+01  1.06327E+01  5.93652E+00
   9.63263E+00  1.12411E+01  3.81779E+00  7.52701E+00  6.53601E+00  1.00715E+01  3.27674E+00  8.72998E+00  5.59711E+00  8.49314E+00
   3.13478E+00  2.04602E+00  7.89793E-01  4.68091E+00  4.54168E+00  2.46606E+00  4.95151E+00  2.89822E+00  1.87660E-01  6.30592E+00
   3.31021E+00  5.20479E+00  3.08011E+00 -2.30887E+00  2.23882E+00  5.01300E+00  3.79164E+00 -4.70564E-01  1.42556E+00  2.33362E+00
  -1.09794E+00  6.78531E-01  8.41752E+00  1.66460E+00  1.83971E+00  3.04979E+00  5.25599E+00  9.62892E+00  6.05109E+00  6.35111E+00
   6.95614E+00  5.73775E+00  1.14359E+01  7.30790E+00  8.24288E+00  8.09599E+00  7.41957E+00  8.90015E+00  7.99427E+00  5.96771E+00
   4.97563E+00  6.19604E+00  4.35510E-01  7.44909E+00  6.82388E+00  5.38257E+00  2.77362E+00  8.81769E+00  6.39256E+00  9.22575E+00
   6.68576E+00  9.18041E+00  9.36260E+00  1.05364E+01  1.43131E+01  1.38179E+01  1.44718E+01  1.14958E+01  1.58322E+01  1.51721E+01
   1.43225E+01  1.12351E+01  1.66515E+01  1.60653E+01  1.56686E+01  2.08644E+01  2.12632E+01  1.76305E+01  8.29221E+00  1.18295E+01
   1.50434E+01  1.84795E+01  1.45501E+01  2.08617E+01  2.21959E+01  1.49418E+01  1.18589E+01  1.56735E+01  1.21572E+01  1.40104E+01
   1.39187E+01  1.35590E+01  1.14052E+01  1.19415E+01  1.26985E+01  1.25372E+01  1.36541E+01  1.17659E+01  1.42693E+01  1.46851E+01
   1.40043E+01  9.48962E+00  1.06687E+01  7.42933E+00  1.37320E+01  1.11081E+01  1.19513E+01  1.16043E+01  1.21912E+01  1.05880E+01
   7.04892E+00  1.34237E+01  1.30524E+01  5.33112E+00  7.45113E+00  1.18319E+01  1.59459E+01  1.18176E+01  1.04532E+01  1.14562E+01
   1.50198E+01  1.19091E+01  1.23943E+01  1.42101E+01  1.24402E+01  1.77176E+01  1.75141E+01  1.60278E+01  1.56058E+01  1.54836E+01
   1.66248E+01  1.37940E+01  1.80082E+01  1.49956E+01  1.65249E+01  1.44429E+01  1.66937E+01  1.78786E+01  1.98907E+01  2.00267E+01
   1.61285E+01  1.61462E+01  1.39623E+01  1.65868E+01  1.57959E+01  1.00736E+01  1.37320E+01  9.04609E+00  9.81061E+00  9.95526E+00
   1.64135E+01  1.41366E+01  8.63086E+00  6.74141E+00  8.23089E+00  1.39328E+01  1.34261E+01  9.98548E+00  8.12130E+00  9.49711E+00
   9.86060E+00  1.10626E+01  8.90278E+00  8.80183E+00  5.84550E+00  9.55310E+00  1.11876E+01  7.80680E+00  1.05628E+01  5.52920E+00
   8.23049E+00  8.69034E+00  3.31260E+00  3.88629E+00  4.32644E+00  7.56035E+00  9.37157E+00  3.58133E+00  4.95566E+00  4.13363E+00
   7.86304E+00  4.71998E+00  4.72676E+00  5.14614E+00  5.68561E+00  8.25964E+00  6.16835E+00  3.16350E+00  7.32613E+00  6.78285E+00
   5.54241E+00  4.62787E+00 -1.26743E+00  6.68503E+00  4.33939E+00  2.91093E+00  7.12492E-01  1.53650E-01  4.35658E+00  1.60677E+00
   6.75443E+00  2.90794E+00  3.13621E+00  4.36380E+00  3.09584E+00  1.89114E+00  3.34623E+00  1.24452E+00  7.35419E+00  6.72735E+00
   8.69859E-01  6.04295E+00  9.93463E+00  4.23600E+00  4.26115E+00  4.05640E+00  6.87327E+00  3.86412E+00  4.09523E+00  3.84711E+00
   2.42551E+00  1.09288E+00  3.90475E+00  1.49898E+00  6.72886E+00  6.55614E+00  3.16918E+00  5.44905E+00
 NY points of the fit to the data follow
   1.27516E+01  1.24866E+01  1.24529E+01  1.27851E+01  1.35223E+01  1.50375E+01  1.74734E+01  2.16773E+01  2.69418E+01  3.17366E+01
   3.42834E+01  3.36225E+01  3.02217E+01  2.56702E+01  2.15251E+01  1.84812E+01  1.63272E+01  1.50551E+01  1.41806E+01  1.37097E+01
   1.34893E+01  1.32342E+01  1.29685E+01  1.26266E+01  1.23534E+01  1.19855E+01  1.20499E+01  1.39688E+01  1.73663E+01  2.06381E+01
   2.27230E+01  2.34287E+01  2.27009E+01  2.03906E+01  1.71112E+01  1.35876E+01  1.07225E+01  9.43604E+00  9.44594E+00  1.00728E+01
   1.07643E+01  1.14473E+01  1.21046E+01  1.27157E+01  1.38326E+01  1.59577E+01  1.84686E+01  1.99557E+01  1.94882E+01  1.73124E+01
   1.44636E+01  1.18731E+01  9.97421E+00  8.79948E+00  8.27890E+00  8.26831E+00  8.58651E+00  9.25643E+00  1.02168E+01  1.11342E+01
   1.15636E+01  1.12370E+01  1.02726E+01  9.05289E+00  8.03589E+00  7.44843E+00  7.31194E+00  7.55693E+00  7.92043E+00  8.33009E+00
   8.82270E+00  9.25247E+00  9.45995E+00  9.44795E+00  9.26119E+00  8.86532E+00  8.31074E+00  7.72942E+00  7.20580E+00  6.87746E+00
   6.81322E+00  6.93479E+00  7.14574E+00  7.47093E+00  7.87414E+00  7.90550E+00  7.18123E+00  5.92756E+00  4.78984E+00  4.22772E+00
   4.26670E+00  4.66498E+00  5.15284E+00  5.61758E+00  6.11568E+00  6.54627E+00  6.90085E+00  7.41375E+00  9.13364E+00  1.32245E+01
   2.19226E+01  3.63894E+01  5.04127E+01  5.59836E+01  5.13090E+01  4.07653E+01  2.93826E+01  2.00928E+01  1.38296E+01  9.61590E+00
   6.98153E+00  6.08987E+00  5.81910E+00  5.73804E+00  5.73196E+00  5.77074E+00  5.82919E+00  5.88308E+00  5.96927E+00  6.17563E+00
   6.63032E+00  7.66417E+00  1.05134E+01  1.63846E+01  2.78463E+01  4.67276E+01  6.52527E+01  7.28894E+01  6.71261E+01  5.37245E+01
   3.93523E+01  2.77223E+01  1.95446E+01  1.31650E+01  8.15879E+00  5.43824E+00  4.12350E+00  3.88544E+00  4.49605E+00  5.48355E+00
   6.34557E+00  6.73310E+00  6.56206E+00  6.04541E+00  5.42805E+00  4.83616E+00  4.38231E+00  4.00992E+00  3.67659E+00  3.34003E+00
   2.98149E+00  2.57620E+00  2.15079E+00  1.85091E+00  1.79860E+00  1.95474E+00  2.12569E+00  2.08457E+00  1.41667E+00  1.67450E-01
  -9.06532E-01 -1.18253E+00 -4.65706E-01  6.17863E-01  1.10302E+00  5.99058E-01 -4.84921E-01 -1.56267E+00 -2.37077E+00 -2.76234E+00
  -2.85076E+00 -3.01772E+00 -3.43494E+00 -4.27212E+00 -5.35678E+00 -5.83168E+00 -5.30718E+00 -4.29129E+00 -3.74271E+00 -4.01519E+00
  -4.55409E+00 -4.67919E+00 -4.37423E+00 -4.04957E+00 -4.12659E+00 -4.20980E+00 -3.46221E+00 -1.50462E+00  1.02739E+00  3.26171E+00
   4.59200E+00  4.70878E+00  3.83510E+00  2.52735E+00  1.25937E+00  1.93486E-01 -4.40697E-01 -4.46372E-01  2.79913E-01  1.62100E+00
   3.27303E+00  5.14888E+00  6.94151E+00  8.02282E+00  7.81797E+00  6.02119E+00  3.10546E+00 -5.60431E-01 -4.04525E+00 -6.02941E+00
  -6.18113E+00 -4.53755E+00 -1.26261E+00  3.80752E+00  9.37143E+00  1.29512E+01  1.31533E+01  1.01956E+01  5.50264E+00  1.56851E-01
  -5.11056E+00 -8.63459E+00 -8.78697E+00 -5.49830E+00 -5.37721E-01  4.18062E+00  7.67112E+00  9.66520E+00  1.02372E+01  9.63676E+00
   8.53029E+00  7.83267E+00  8.03022E+00  8.75149E+00  9.84576E+00  1.11941E+01  1.23752E+01  1.29075E+01  1.26117E+01  1.17088E+01
   1.03615E+01  9.16104E+00  9.03907E+00  1.02836E+01  1.23078E+01  1.43066E+01  1.58029E+01  1.65682E+01  1.66568E+01  1.64926E+01
   1.68085E+01  1.84070E+01  2.18069E+01  2.76844E+01  3.44645E+01  4.09664E+01  4.74285E+01  6.09731E+01  8.77353E+01  1.14345E+02
   1.22857E+02  1.09897E+02  8.57040E+01  6.10394E+01  4.14394E+01  2.85202E+01  1.94312E+01  1.34126E+01  1.11676E+01  9.90726E+00
   8.99070E+00  8.41995E+00  8.16541E+00  7.98918E+00  7.69766E+00  7.21460E+00  6.62014E+00  6.00933E+00  5.42949E+00  4.90086E+00
   4.48157E+00  4.20185E+00  4.01730E+00  3.85251E+00  3.66806E+00  3.45821E+00  3.24202E+00  3.03817E+00  2.86505E+00  2.76146E+00
   2.75611E+00  2.82682E+00  2.93196E+00  3.04243E+00  3.14916E+00  3.24942E+00  3.34369E+00  3.44381E+00  3.57466E+00  3.75164E+00
   3.96836E+00  4.20751E+00  4.45414E+00  4.69249E+00  4.91542E+00  5.11754E+00  5.29386E+00  5.44514E+00  5.57441E+00  5.68104E+00
   5.76681E+00  5.83151E+00  5.87913E+00  5.91434E+00  5.94552E+00  5.97831E+00  6.02011E+00  6.07646E+00  6.15623E+00  6.26662E+00
   6.41674E+00  6.61390E+00  6.87037E+00  7.18548E+00  7.56730E+00  7.97005E+00  8.29772E+00  8.52171E+00  8.71368E+00  8.95489E+00
   9.28471E+00  9.69813E+00  1.02041E+01  1.08382E+01  1.15784E+01  1.23088E+01  1.29264E+01  1.34168E+01  1.38110E+01  1.41448E+01
   1.44510E+01  1.47363E+01  1.50130E+01  1.52922E+01  1.55752E+01  1.58181E+01  1.59287E+01  1.58775E+01  1.57347E+01  1.55870E+01
   1.54838E+01  1.54293E+01  1.54579E+01  1.55886E+01  1.57713E+01  1.58975E+01  1.58973E+01  1.57799E+01  1.55820E+01  1.53376E+01
   1.50697E+01  1.47735E+01  1.44606E+01  1.41368E+01  1.37997E+01  1.34486E+01  1.30866E+01  1.27160E+01  1.23423E+01  1.19700E+01
   1.16054E+01  1.12522E+01  1.09159E+01  1.06004E+01  1.03118E+01  1.00544E+01  9.83315E+00  9.65069E+00  9.51114E+00  9.41691E+00
   9.37238E+00  9.37938E+00  9.44067E+00  9.55637E+00  9.72829E+00  9.95625E+00  1.02414E+01  1.05817E+01  1.09755E+01  1.14183E+01
   1.19068E+01  1.24346E+01  1.29961E+01  1.35818E+01  1.41826E+01  1.47864E+01  1.53828E+01  1.59591E+01  1.65036E+01  1.70027E+01
   1.74449E+01  1.78183E+01  1.81147E+01  1.83260E+01  1.84472E+01  1.84737E+01  1.84055E+01  1.82433E+01  1.79926E+01  1.76588E+01
   1.72503E+01  1.67754E+01  1.62453E+01  1.56706E+01  1.50638E+01  1.44352E+01  1.37956E+01  1.31537E+01  1.25192E+01  1.18989E+01
   1.13003E+01  1.07270E+01  1.01832E+01  9.67058E+00  9.19166E+00  8.74656E+00  8.33599E+00  7.95799E+00  7.61186E+00  7.29527E+00
   7.00763E+00  6.74643E+00  6.51035E+00  6.29619E+00  6.10269E+00  5.92743E+00  5.76986E+00  5.62762E+00  5.49975E+00  5.38375E+00
   5.27925E+00  5.18467E+00  5.10009E+00  5.02370E+00  4.95512E+00  4.89267E+00  4.83669E+00  4.78615E+00  4.74147E+00  4.70112E+00
   4.66517E+00  4.63244E+00  4.60370E+00  4.57814E+00  4.55624E+00  4.53664E+00  4.51969E+00  4.50454E+00  4.49213E+00  4.48168E+00
   4.47361E+00  4.46668E+00  4.46149E+00  4.45742E+00  4.45543E+00  4.45464E+00  4.45544E+00  4.45673E+00  4.45929E+00  4.46262E+00
   4.46761E+00  4.47327E+00  4.47999E+00  4.48686E+00  4.49481E+00  4.50336E+00  4.51324E+00  4.52339E+00  4.53426E+00  4.54512E+00
   4.55699E+00  4.56930E+00  4.58266E+00  4.59599E+00  4.60985E+00  4.62368E+00  4.63849E+00  4.65361E+00  4.66951E+00  4.68517E+00
   4.70128E+00  4.71741E+00  4.73449E+00  4.75171E+00  4.76947E+00  4.78688E+00  4.80476E+00  4.82272E+00
 NY background values follow
     9.704E+00    9.640E+00    9.577E+00    9.514E+00    9.451E+00    9.388E+00    9.324E+00    9.261E+00    9.198E+00    9.135E+00
     9.071E+00    9.008E+00    8.945E+00    8.881E+00    8.818E+00    8.755E+00    8.692E+00    8.628E+00    8.565E+00    8.502E+00
     8.438E+00    8.375E+00    8.311E+00    8.248E+00    8.185E+00    8.121E+00    8.058E+00    7.994E+00    7.931E+00    7.868E+00
     7.804E+00    7.741E+00    7.677E+00    7.614E+00    7.550E+00    7.487E+00    7.423E+00    7.360E+00    7.296E+00    7.233E+00
     7.169E+00    7.105E+00    7.042E+00    6.978E+00    6.914E+00    6.851E+00    6.787E+00    6.723E+00    6.660E+00    6.596E+00
     6.532E+00    6.469E+00    6.405E+00    6.341E+00    6.278E+00    6.214E+00    6.150E+00    6.087E+00    6.023E+00    5.959E+00
     5.896E+00    5.832E+00    5.769E+00    5.705E+00    5.642E+00    5.578E+00    5.515E+00    5.452E+00    5.388E+00    5.325E+00
     5.262E+00    5.199E+00    5.136E+00    5.073E+00    5.010E+00    4.947E+00    4.884E+00    4.822E+00    4.759E+00    4.696E+00
     4.634E+00    4.571E+00    4.509E+00    4.447E+00    4.385E+00    4.323E+00    4.261E+00    4.199E+00    4.137E+00    4.076E+00
     4.014E+00    3.953E+00    3.891E+00    3.830E+00    3.769E+00    3.708E+00    3.648E+00    3.587E+00    3.526E+00    3.466E+00
     3.406E+00    3.346E+00    3.286E+00    3.226E+00    3.166E+00    3.107E+00    3.047E+00    2.988E+00    2.929E+00    2.870E+00
     2.812E+00    2.753E+00    2.695E+00    2.637E+00    2.579E+00    2.521E+00    2.464E+00    2.406E+00    2.349E+00    2.292E+00
     2.235E+00    2.179E+00    2.122E+00    2.066E+00    2.010E+00    1.954E+00    1.899E+00    1.844E+00    1.789E+00    1.734E+00
     1.679E+00    1.625E+00    1.571E+00    1.517E+00    1.463E+00    1.410E+00    1.357E+00    1.304E+00    1.251E+00    1.199E+00
     1.147E+00    1.095E+00    1.044E+00    9.925E-01    9.417E-01    8.912E-01    8.410E-01    7.911E-01    7.416E-01    6.925E-01
     6.437E-01    5.953E-01    5.473E-01    4.997E-01    4.524E-01    4.056E-01    3.592E-01    3.132E-01    2.676E-01    2.225E-01
     1.778E-01    1.336E-01    8.979E-02    4.649E-02    3.667E-03   -3.867E-02   -8.051E-02   -1.218E-01   -1.627E-01   -2.030E-01
    -2.428E-01   -2.820E-01   -3.207E-01   -3.588E-01   -3.964E-01   -4.334E-01   -4.699E-01   -5.057E-01   -5.410E-01   -5.757E-01
    -6.097E-01   -6.431E-01   -6.759E-01   -7.081E-01   -7.397E-01   -7.707E-01   -8.011E-01   -8.309E-01   -8.601E-01   -8.887E-01
    -9.168E-01   -9.442E-01   -9.712E-01   -9.975E-01   -1.023E+00   -1.049E+00   -1.073E+00   -1.098E+00   -1.121E+00   -1.144E+00
    -1.167E+00   -1.189E+00   -1.211E+00   -1.232E+00   -1.253E+00   -1.273E+00   -1.293E+00   -1.312E+00   -1.331E+00   -1.349E+00
    -1.367E+00   -1.384E+00   -1.401E+00   -1.418E+00   -1.434E+00   -1.450E+00   -1.465E+00   -1.480E+00   -1.494E+00   -1.508E+00
    -1.522E+00   -1.535E+00   -1.548E+00   -1.561E+00   -1.573E+00   -1.585E+00   -1.596E+00   -1.608E+00   -1.618E+00   -1.629E+00
    -1.639E+00   -1.649E+00   -1.658E+00   -1.667E+00   -1.676E+00   -1.684E+00   -1.692E+00   -1.700E+00   -1.707E+00   -1.714E+00
    -1.720E+00   -1.727E+00   -1.733E+00   -1.738E+00   -1.743E+00   -1.748E+00   -1.752E+00   -1.756E+00   -1.760E+00   -1.764E+00
    -1.767E+00   -1.769E+00   -1.771E+00   -1.773E+00   -1.775E+00   -1.776E+00   -1.777E+00   -1.777E+00   -1.777E+00   -1.777E+00
    -1.777E+00   -1.776E+00   -1.774E+00   -1.772E+00   -1.770E+00   -1.768E+00   -1.765E+00   -1.762E+00   -1.758E+00   -1.754E+00
    -1.750E+00   -1.745E+00   -1.740E+00   -1.735E+00   -1.729E+00   -1.723E+00   -1.716E+00   -1.710E+00   -1.702E+00   -1.695E+00
    -1.687E+00   -1.678E+00   -1.670E+00   -1.661E+00   -1.652E+00   -1.642E+00   -1.632E+00   -1.622E+00   -1.611E+00   -1.600E+00
    -1.589E+00   -1.577E+00   -1.565E+00   -1.553E+00   -1.540E+00   -1.527E+00   -1.514E+00   -1.500E+00   -1.487E+00   -1.473E+00
    -1.458E+00   -1.443E+00   -1.428E+00   -1.413E+00   -1.397E+00   -1.382E+00   -1.365E+00   -1.349E+00   -1.332E+00   -1.315E+00
    -1.298E+00   -1.280E+00   -1.262E+00   -1.244E+00   -1.226E+00   -1.207E+00   -1.188E+00   -1.169E+00   -1.150E+00   -1.130E+00
    -1.110E+00   -1.090E+00   -1.070E+00   -1.049E+00   -1.028E+00   -1.007E+00   -9.859E-01   -9.643E-01   -9.425E-01   -9.205E-01
    -8.983E-01   -8.758E-01   -8.531E-01   -8.303E-01   -8.072E-01   -7.839E-01   -7.604E-01   -7.367E-01   -7.128E-01   -6.887E-01
    -6.644E-01   -6.400E-01   -6.153E-01   -5.905E-01   -5.655E-01   -5.403E-01   -5.149E-01   -4.894E-01   -4.636E-01   -4.378E-01
    -4.117E-01   -3.855E-01   -3.591E-01   -3.326E-01   -3.059E-01   -2.791E-01   -2.522E-01   -2.250E-01   -1.978E-01   -1.704E-01
    -1.429E-01   -1.152E-01   -8.741E-02   -5.949E-02   -3.145E-02   -3.282E-03    2.500E-02    5.341E-02    8.193E-02    1.106E-01
     1.393E-01    1.681E-01    1.971E-01    2.261E-01    2.553E-01    2.845E-01    3.139E-01    3.433E-01    3.728E-01    4.025E-01
     4.321E-01    4.619E-01    4.918E-01    5.217E-01    5.517E-01    5.818E-01    6.119E-01    6.421E-01    6.724E-01    7.027E-01
     7.331E-01    7.636E-01    7.941E-01    8.246E-01    8.552E-01    8.859E-01    9.165E-01    9.473E-01    9.780E-01    1.009E+00
     1.040E+00    1.071E+00    1.101E+00    1.132E+00    1.163E+00    1.194E+00    1.225E+00    1.256E+00    1.287E+00    1.318E+00
     1.349E+00    1.380E+00    1.411E+00    1.442E+00    1.473E+00    1.504E+00    1.535E+00    1.567E+00    1.598E+00    1.629E+00
     1.660E+00    1.691E+00    1.722E+00    1.753E+00    1.784E+00    1.815E+00    1.846E+00    1.877E+00    1.908E+00    1.939E+00
     1.970E+00    2.000E+00    2.031E+00    2.062E+00    2.093E+00    2.124E+00    2.155E+00    2.185E+00    2.216E+00    2.247E+00
     2.277E+00    2.308E+00    2.339E+00    2.369E+00    2.400E+00    2.430E+00    2.461E+00    2.491E+00    2.521E+00    2.552E+00
     2.582E+00    2.612E+00    2.642E+00    2.672E+00    2.702E+00    2.732E+00    2.762E+00    2.792E+00    2.822E+00    2.852E+00
     2.882E+00    2.912E+00    2.941E+00    2.971E+00    3.001E+00    3.030E+00    3.060E+00    3.089E+00    3.119E+00    3.148E+00
     3.178E+00    3.207E+00    3.237E+00    3.266E+00    3.296E+00    3.325E+00    3.354E+00    3.384E+00    3.413E+00    3.442E+00
     3.472E+00    3.501E+00    3.530E+00    3.559E+00    3.589E+00    3.618E+00    3.647E+00    3.676E+00    3.706E+00    3.735E+00
     3.764E+00    3.793E+00    3.823E+00    3.852E+00    3.881E+00    3.911E+00    3.940E+00    3.969E+00
 Ala      Conc. = 2.88E+01
