 LCModel (Version 6.3-1L) Copyright: S.W. Provencher.          Ref.: Magn. Reson. Med. 30:672-679 (1993).                
 Slice#3 Row#1 Col#11  K_02_press_1_raw_act
 36 lines in following concentration table = NCONC+1
    Conc.  %SD /Cr+PCr  Metabolite                                         
    0.000 999%   0.000 Ala                                                 
    7.380 772% 3.5E-02 Asp                                                 
    0.000 999%   0.000 Cr                                                  
  209.254  34%   1.000 PCr                                                 
   13.601 253% 6.5E-02 GABA                                                
   17.194 201% 8.2E-02 Glc                                                 
  298.529 103%   1.427 Gln                                                 
  206.158 164%   0.985 Glu                                                 
    0.000 999%   0.000 GPC                                                 
   63.192  44%   0.302 PCh                                                 
  116.255  80%   0.556 GSH                                                 
  419.728  73%   2.006 Ins                                                 
    0.000 999%   0.000 Lac                                                 
  133.389  56%   0.637 NAA                                                 
    0.000 999%   0.000 NAAG                                                
    8.377 132% 4.0E-02 Scyllo                                              
   45.848 123%   0.219 Tau                                                 
   57.045  98%   0.273 -CrCH2                                              
   63.192  44%   0.302 GPC+PCh                                             
  133.389  56%   0.637 NAA+NAAG                                            
  209.254  34%   1.000 Cr+PCr                                              
  504.687  98%   2.412 Glu+Gln                                             
 3.08E+04   6% 147.418 Lip13a                                              
    0.000 999%   0.000 Lip13b                                              
 8.62E+03   8%  41.195 Lip09                                               
 4.64E+03   9%  22.162 MM09                                                
 1.22E+03  36%   5.844-Lip20                                               
    0.000 999%   0.000-MM20                                                
 2.35E+03  11%  11.216 MM12                                                
 1.13E+04  10%  54.149+MM14                                                
 5.33E+03  13%  25.465+MM17                                                
 3.08E+04   6% 147.418 Lip13a+Lip13b                                       
 4.45E+04   3% 212.783 MM14+Lip13a+Lip13b+MM12                             
 1.33E+04   6%  63.357 MM09+Lip09                                          
 1.22E+03  36%   5.844 MM20+Lip20                                          
   6 lines in following misc. output table
  FWHM = 0.061 ppm    S/N =  28                                            
  Data shift = 0.031 ppm                                                   
  Ph: 172 deg      24.2 deg/ppm                                            
  alphaB,S = 8.8E+00,   2.4E+01                                            
    7 spline knots.   Ns = 9(2)                                            
  ( 4) 5 infls.   ( 7) 5 extrs.                                            
  498 points on ppm-axis = NY
      4.000000     3.992357     3.984714     3.977070     3.969427     3.961784     3.954141     3.946497     3.938854     3.931211
      3.923568     3.915925     3.908281     3.900638     3.892995     3.885352     3.877708     3.870065     3.862422     3.854779
      3.847136     3.839492     3.831849     3.824206     3.816563     3.808919     3.801276     3.793633     3.785990     3.778347
      3.770703     3.763060     3.755417     3.747774     3.740130     3.732487     3.724844     3.717201     3.709558     3.701914
      3.694271     3.686628     3.678985     3.671341     3.663698     3.656055     3.648412     3.640769     3.633125     3.625482
      3.617839     3.610196     3.602552     3.594909     3.587266     3.579623     3.571980     3.564336     3.556693     3.549050
      3.541407     3.533763     3.526120     3.518477     3.510834     3.503191     3.495547     3.487904     3.480261     3.472618
      3.464974     3.457331     3.449688     3.442045     3.434402     3.426758     3.419115     3.411472     3.403829     3.396185
      3.388542     3.380899     3.373256     3.365613     3.357969     3.350326     3.342683     3.335040     3.327396     3.319753
      3.312110     3.304467     3.296824     3.289180     3.281537     3.273894     3.266251     3.258607     3.250964     3.243321
      3.235678     3.228034     3.220391     3.212748     3.205105     3.197462     3.189818     3.182175     3.174532     3.166889
      3.159245     3.151602     3.143959     3.136316     3.128673     3.121029     3.113386     3.105743     3.098100     3.090456
      3.082813     3.075170     3.067527     3.059884     3.052240     3.044597     3.036954     3.029311     3.021667     3.014024
      3.006381     2.998738     2.991095     2.983451     2.975808     2.968165     2.960522     2.952878     2.945235     2.937592
      2.929949     2.922306     2.914662     2.907019     2.899376     2.891733     2.884089     2.876446     2.868803     2.861160
      2.853517     2.845873     2.838230     2.830587     2.822944     2.815300     2.807657     2.800014     2.792371     2.784728
      2.777084     2.769441     2.761798     2.754155     2.746511     2.738868     2.731225     2.723582     2.715939     2.708295
      2.700652     2.693009     2.685366     2.677722     2.670079     2.662436     2.654793     2.647150     2.639506     2.631863
      2.624220     2.616577     2.608933     2.601290     2.593647     2.586004     2.578361     2.570717     2.563074     2.555431
      2.547788     2.540144     2.532501     2.524858     2.517215     2.509572     2.501928     2.494285     2.486642     2.478999
      2.471355     2.463712     2.456069     2.448426     2.440783     2.433139     2.425496     2.417853     2.410210     2.402566
      2.394923     2.387280     2.379637     2.371994     2.364350     2.356707     2.349064     2.341421     2.333777     2.326134
      2.318491     2.310848     2.303205     2.295561     2.287918     2.280275     2.272632     2.264988     2.257345     2.249702
      2.242059     2.234416     2.226772     2.219129     2.211486     2.203843     2.196199     2.188556     2.180913     2.173270
      2.165627     2.157983     2.150340     2.142697     2.135054     2.127410     2.119767     2.112124     2.104481     2.096838
      2.089194     2.081551     2.073908     2.066265     2.058621     2.050978     2.043335     2.035692     2.028049     2.020405
      2.012762     2.005119     1.997476     1.989833     1.982190     1.974546     1.966903     1.959260     1.951617     1.943974
      1.936331     1.928688     1.921045     1.913402     1.905759     1.898115     1.890472     1.882829     1.875186     1.867543
      1.859900     1.852257     1.844614     1.836971     1.829327     1.821684     1.814041     1.806398     1.798755     1.791112
      1.783469     1.775826     1.768183     1.760540     1.752896     1.745253     1.737610     1.729967     1.722324     1.714681
      1.707038     1.699395     1.691752     1.684108     1.676465     1.668822     1.661179     1.653536     1.645893     1.638250
      1.630607     1.622964     1.615321     1.607677     1.600034     1.592391     1.584748     1.577105     1.569462     1.561819
      1.554176     1.546533     1.538890     1.531246     1.523603     1.515960     1.508317     1.500674     1.493031     1.485388
      1.477745     1.470102     1.462458     1.454815     1.447172     1.439529     1.431886     1.424243     1.416600     1.408957
      1.401314     1.393671     1.386027     1.378384     1.370741     1.363098     1.355455     1.347812     1.340169     1.332526
      1.324883     1.317240     1.309596     1.301953     1.294310     1.286667     1.279024     1.271381     1.263738     1.256095
      1.248452     1.240808     1.233165     1.225522     1.217879     1.210236     1.202593     1.194950     1.187307     1.179664
      1.172021     1.164377     1.156734     1.149091     1.141448     1.133805     1.126162     1.118519     1.110876     1.103233
      1.095590     1.087946     1.080303     1.072660     1.065017     1.057374     1.049731     1.042088     1.034445     1.026802
      1.019158     1.011515     1.003872     0.996229     0.988586     0.980943     0.973300     0.965657     0.958014     0.950371
      0.942727     0.935084     0.927441     0.919798     0.912155     0.904512     0.896869     0.889226     0.881583     0.873940
      0.866296     0.858653     0.851010     0.843367     0.835724     0.828081     0.820438     0.812795     0.805152     0.797508
      0.789865     0.782222     0.774579     0.766936     0.759293     0.751650     0.744007     0.736364     0.728721     0.721077
      0.713434     0.705791     0.698148     0.690505     0.682862     0.675219     0.667576     0.659933     0.652290     0.644646
      0.637003     0.629360     0.621717     0.614074     0.606431     0.598788     0.591145     0.583502     0.575858     0.568215
      0.560572     0.552929     0.545286     0.537643     0.530000     0.522357     0.514714     0.507071     0.499427     0.491784
      0.484141     0.476498     0.468855     0.461212     0.453569     0.445925     0.438282     0.430639     0.422996     0.415353
      0.407710     0.400067     0.392424     0.384780     0.377137     0.369494     0.361851     0.354208     0.346565     0.338922
      0.331278     0.323635     0.315992     0.308349     0.300706     0.293063     0.285420     0.277777     0.270133     0.262490
      0.254847     0.247204     0.239561     0.231918     0.224275     0.216631     0.208988     0.201345
 NY phased data points follow
  -1.51503E+01 -9.84762E+00 -1.45210E+01 -1.42248E+01 -1.17274E+01 -1.52319E+01 -1.24591E+01 -1.56440E+01 -1.26197E+01 -8.44690E+00
  -1.37946E+01 -1.57037E+01 -1.38294E+01 -8.86744E+00 -1.24892E+01 -1.52056E+01 -1.20846E+01 -1.09296E+01 -1.29714E+01 -1.58428E+01
  -1.54412E+01 -1.43279E+01 -1.63300E+01 -1.44753E+01 -1.22178E+01 -1.32530E+01 -1.14121E+01 -1.44567E+01 -8.01172E+00 -1.54222E+01
  -9.18800E+00 -1.14861E+01 -1.28929E+01 -1.29583E+01 -1.46473E+01 -1.26842E+01 -1.47903E+01 -1.29708E+01 -1.52406E+01 -1.40108E+01
  -1.55720E+01 -1.39122E+01 -1.48227E+01 -1.25144E+01 -1.14313E+01 -1.07679E+01 -1.38594E+01 -1.62669E+01 -1.36123E+01 -1.31621E+01
  -1.30427E+01 -1.31764E+01 -1.50437E+01 -1.70834E+01 -1.18061E+01 -1.24060E+01 -1.53488E+01 -1.48926E+01 -1.53885E+01 -1.15191E+01
  -1.40140E+01 -1.50865E+01 -8.66257E+00 -1.66523E+01 -1.05018E+01 -1.20349E+01 -1.16571E+01 -1.34720E+01 -1.16409E+01 -1.36968E+01
  -1.64562E+01 -1.18721E+01 -1.39509E+01 -1.46865E+01 -1.04659E+01 -1.53265E+01 -1.35551E+01 -1.45416E+01 -1.46703E+01 -1.20108E+01
  -1.83636E+01 -1.41230E+01 -1.94602E+01 -1.21779E+01 -1.37156E+01 -1.45231E+01 -1.54454E+01 -1.02669E+01 -1.26369E+01 -1.49878E+01
  -1.26885E+01 -1.41334E+01 -1.25685E+01 -1.53372E+01 -1.17920E+01 -1.47348E+01 -1.30192E+01 -1.14844E+01 -1.22049E+01 -1.42972E+01
  -1.22466E+01 -1.08519E+01 -1.21169E+01 -1.19840E+01 -1.44541E+01 -1.85802E+01 -1.77973E+01 -1.75958E+01 -1.58960E+01 -1.33664E+01
  -1.48382E+01 -1.34619E+01 -1.77234E+01 -1.35768E+01 -1.44550E+01 -1.42567E+01 -1.49890E+01 -1.54231E+01 -1.86475E+01 -1.61665E+01
  -1.55871E+01 -1.49555E+01 -1.14310E+01 -1.56799E+01 -9.60246E+00 -1.07650E+01 -7.41469E+00 -1.30414E+01 -1.11925E+01 -9.91945E+00
  -1.92115E+01 -1.61762E+01 -1.50377E+01 -1.42850E+01 -1.55434E+01 -1.90560E+01 -1.21936E+01 -1.69293E+01 -1.30116E+01 -1.65332E+01
  -1.44767E+01 -1.52492E+01 -1.81763E+01 -1.47910E+01 -1.50448E+01 -1.54559E+01 -1.45201E+01 -1.55327E+01 -1.38736E+01 -1.52792E+01
  -1.43500E+01 -1.83745E+01 -2.09948E+01 -1.61683E+01 -1.71986E+01 -1.65763E+01 -1.41545E+01 -1.47804E+01 -1.43197E+01 -1.32093E+01
  -1.58108E+01 -1.67253E+01 -1.55418E+01 -2.00713E+01 -1.62944E+01 -1.72786E+01 -1.84205E+01 -1.88581E+01 -1.91755E+01 -1.92196E+01
  -1.79710E+01 -1.98412E+01 -1.66799E+01 -2.33714E+01 -1.60883E+01 -2.03283E+01 -2.16029E+01 -1.72904E+01 -1.93170E+01 -1.74540E+01
  -1.85437E+01 -1.75513E+01 -1.98480E+01 -2.01389E+01 -1.64606E+01 -1.92659E+01 -2.15697E+01 -1.68275E+01 -2.09629E+01 -2.21743E+01
  -2.01645E+01 -1.72828E+01 -2.14374E+01 -1.94617E+01 -1.99071E+01 -1.98336E+01 -1.80308E+01 -1.89942E+01 -1.78699E+01 -1.48461E+01
  -1.91681E+01 -1.84141E+01 -2.52551E+01 -2.13060E+01 -2.24626E+01 -2.20033E+01 -1.75773E+01 -2.31873E+01 -1.79001E+01 -2.17076E+01
  -1.67703E+01 -1.74494E+01 -2.08984E+01 -1.77873E+01 -2.16497E+01 -1.87890E+01 -1.79488E+01 -1.95841E+01 -1.99317E+01 -2.29834E+01
  -2.08282E+01 -1.91920E+01 -1.98212E+01 -1.70617E+01 -2.04823E+01 -1.98500E+01 -2.07966E+01 -1.69866E+01 -2.36093E+01 -1.94294E+01
  -2.01140E+01 -1.91605E+01 -1.92053E+01 -2.20573E+01 -1.85410E+01 -2.14543E+01 -2.01185E+01 -2.02357E+01 -1.95595E+01 -2.04637E+01
  -2.18547E+01 -1.88894E+01 -1.62615E+01 -2.11827E+01 -1.38887E+01 -1.99626E+01 -2.14593E+01 -1.61337E+01 -1.80563E+01 -1.86578E+01
  -1.99832E+01 -1.82486E+01 -1.75450E+01 -1.69771E+01 -1.32803E+01 -1.22796E+01 -1.23666E+01 -1.19450E+01 -9.23837E+00 -6.71145E+00
  -1.65990E+01 -1.63993E+01 -1.70564E+01 -1.82522E+01 -1.88155E+01 -1.83937E+01 -1.59691E+01 -1.67530E+01 -1.74547E+01 -1.58849E+01
  -1.89191E+01 -1.46247E+01 -1.90313E+01 -1.51249E+01 -1.73241E+01 -1.52082E+01 -1.25839E+01 -1.62988E+01 -1.40530E+01 -1.63002E+01
  -1.04318E+01 -1.22329E+01 -1.24059E+01 -1.17087E+01 -1.26662E+01 -1.15071E+01 -1.17451E+01 -1.15896E+01 -7.30856E+00 -8.89854E+00
  -8.34702E+00 -1.23788E+01 -7.56630E+00 -6.72320E+00 -5.57893E+00 -6.41892E+00 -1.59140E+00  1.43356E+00  1.68721E+00  9.90845E-01
  -2.07967E-01  3.68912E+00  6.22045E+00  8.54030E+00  8.97799E+00  1.11719E+01  1.39874E+01  1.87897E+01  2.02445E+01  2.82067E+01
   3.13488E+01  3.47387E+01  3.66493E+01  4.60950E+01  4.61756E+01  5.20988E+01  5.68856E+01  5.32766E+01  6.55732E+01  6.63652E+01
   7.32234E+01  7.92128E+01  8.85907E+01  8.96655E+01  9.77112E+01  1.02079E+02  1.17136E+02  1.16129E+02  1.26491E+02  1.30709E+02
   1.41511E+02  1.43954E+02  1.47210E+02  1.54188E+02  1.57980E+02  1.61315E+02  1.64876E+02  1.62937E+02  1.68534E+02  1.67644E+02
   1.67553E+02  1.67460E+02  1.66710E+02  1.66430E+02  1.66286E+02  1.57172E+02  1.59544E+02  1.53053E+02  1.43873E+02  1.42192E+02
   1.31969E+02  1.29525E+02  1.21575E+02  1.15322E+02  1.13859E+02  1.05040E+02  1.02334E+02  9.82440E+01  9.63476E+01  9.41969E+01
   8.74210E+01  8.69499E+01  8.27025E+01  7.72529E+01  8.12035E+01  7.40224E+01  7.58614E+01  7.43057E+01  6.71820E+01  6.81148E+01
   6.76499E+01  6.69657E+01  6.07368E+01  6.16331E+01  6.43646E+01  5.72497E+01  6.21509E+01  5.78165E+01  5.58183E+01  5.46260E+01
   5.20488E+01  5.47104E+01  5.13797E+01  4.79941E+01  5.05779E+01  4.82197E+01  4.90461E+01  4.85269E+01  4.77196E+01  4.52091E+01
   4.69990E+01  4.62726E+01  4.30323E+01  4.26720E+01  3.89451E+01  4.13370E+01  3.96921E+01  3.79138E+01  3.83410E+01  3.32847E+01
   3.44990E+01  3.03845E+01  3.61332E+01  3.31356E+01  3.08732E+01  3.38332E+01  2.89605E+01  2.93218E+01  2.80913E+01  2.94717E+01
   2.91249E+01  2.65379E+01  2.77041E+01  2.15330E+01  2.37649E+01  2.46118E+01  2.22381E+01  2.32615E+01  2.05547E+01  2.06367E+01
   2.15533E+01  1.86802E+01  1.79757E+01  1.67329E+01  2.01270E+01  1.60477E+01  1.09642E+01  1.72761E+01  1.56060E+01  1.38246E+01
   9.89262E+00  1.41959E+01  1.03325E+01  1.55622E+01  1.39642E+01  9.92190E+00  9.79720E+00  9.36092E+00  1.47262E+01  9.98542E+00
   6.60036E+00  1.45821E+01  9.13386E+00  1.24410E+01  7.78442E+00  1.12342E+01  1.10913E+01  5.99819E+00  1.00395E+01  8.12051E+00
   9.30200E+00  7.47872E+00  4.09518E+00  3.76231E+00  6.36224E+00  8.62283E+00  6.29817E+00  5.19435E+00  4.55569E+00  3.25498E+00
   5.61322E+00  2.24974E+00  6.91909E+00  4.47073E+00  4.00560E+00  7.56252E+00  5.20503E+00  9.69194E-01  3.87451E+00  2.59856E+00
   1.94798E+00  3.68132E+00  1.57581E+00  5.44425E+00  4.86058E+00  4.84462E+00  3.34131E+00  1.08982E+00  2.76124E+00 -7.47622E-01
  -7.96134E-03 -1.98054E-01  3.12797E+00 -5.53261E-01  9.19153E-01  1.54837E+00  2.69016E+00 -9.38139E-01 -1.35998E+00 -4.89145E-01
  -1.10976E-01 -2.39418E+00 -2.07355E+00 -1.96653E+00 -1.04366E+00  2.78468E+00  5.16404E-01  4.78923E-01
 NY points of the fit to the data follow
  -1.35132E+01 -1.35399E+01 -1.29310E+01 -1.30762E+01 -1.20118E+01 -1.24904E+01 -1.13658E+01 -1.21465E+01 -1.13657E+01 -1.23404E+01
  -1.22590E+01 -1.29108E+01 -1.29121E+01 -1.32478E+01 -1.30073E+01 -1.32083E+01 -1.30793E+01 -1.33113E+01 -1.35041E+01 -1.36248E+01
  -1.38470E+01 -1.37294E+01 -1.35450E+01 -1.33022E+01 -1.25381E+01 -1.25013E+01 -1.14404E+01 -1.18252E+01 -1.10276E+01 -1.16905E+01
  -1.16396E+01 -1.23008E+01 -1.26817E+01 -1.32315E+01 -1.36231E+01 -1.38818E+01 -1.39685E+01 -1.39746E+01 -1.38458E+01 -1.36166E+01
  -1.33829E+01 -1.30220E+01 -1.27821E+01 -1.25230E+01 -1.23762E+01 -1.24346E+01 -1.24751E+01 -1.29430E+01 -1.32490E+01 -1.37990E+01
  -1.41366E+01 -1.42548E+01 -1.42729E+01 -1.40958E+01 -1.39042E+01 -1.38021E+01 -1.36899E+01 -1.37686E+01 -1.37563E+01 -1.39603E+01
  -1.40058E+01 -1.41495E+01 -1.41587E+01 -1.41181E+01 -1.40369E+01 -1.39640E+01 -1.38950E+01 -1.39826E+01 -1.39590E+01 -1.41025E+01
  -1.40629E+01 -1.42478E+01 -1.42951E+01 -1.44294E+01 -1.44641E+01 -1.45320E+01 -1.45251E+01 -1.46058E+01 -1.45744E+01 -1.47644E+01
  -1.48242E+01 -1.50728E+01 -1.51791E+01 -1.53890E+01 -1.53667E+01 -1.51391E+01 -1.49703E+01 -1.48631E+01 -1.46939E+01 -1.48394E+01
  -1.47510E+01 -1.49377E+01 -1.49291E+01 -1.48426E+01 -1.47162E+01 -1.40693E+01 -1.37487E+01 -1.28787E+01 -1.24954E+01 -1.20219E+01
  -1.17888E+01 -1.20259E+01 -1.21404E+01 -1.32092E+01 -1.35924E+01 -1.46617E+01 -1.49617E+01 -1.54148E+01 -1.54376E+01 -1.52598E+01
  -1.49125E+01 -1.51202E+01 -1.49158E+01 -1.54164E+01 -1.54413E+01 -1.57567E+01 -1.57526E+01 -1.56012E+01 -1.52205E+01 -1.46147E+01
  -1.36190E+01 -1.32507E+01 -1.19055E+01 -1.23772E+01 -1.10946E+01 -1.20581E+01 -1.12305E+01 -1.29151E+01 -1.29545E+01 -1.44792E+01
  -1.48758E+01 -1.56827E+01 -1.58908E+01 -1.62605E+01 -1.62634E+01 -1.65286E+01 -1.65209E+01 -1.66184E+01 -1.65631E+01 -1.65652E+01
  -1.64827E+01 -1.64315E+01 -1.62923E+01 -1.62497E+01 -1.60606E+01 -1.62102E+01 -1.61556E+01 -1.65016E+01 -1.66891E+01 -1.67573E+01
  -1.68113E+01 -1.69010E+01 -1.69652E+01 -1.70644E+01 -1.71095E+01 -1.71397E+01 -1.71532E+01 -1.71885E+01 -1.72263E+01 -1.72967E+01
  -1.73668E+01 -1.74413E+01 -1.75337E+01 -1.76088E+01 -1.77142E+01 -1.78112E+01 -1.79226E+01 -1.80468E+01 -1.81628E+01 -1.82954E+01
  -1.83916E+01 -1.85016E+01 -1.85571E+01 -1.86539E+01 -1.86877E+01 -1.88213E+01 -1.88903E+01 -1.90671E+01 -1.91872E+01 -1.93763E+01
  -1.94740E+01 -1.95399E+01 -1.95179E+01 -1.94364E+01 -1.93153E+01 -1.92088E+01 -1.91588E+01 -1.91133E+01 -1.92958E+01 -1.94058E+01
  -1.98070E+01 -2.00020E+01 -2.04955E+01 -2.03589E+01 -2.05326E+01 -2.00571E+01 -1.98894E+01 -1.93148E+01 -1.90894E+01 -1.88386E+01
  -1.89444E+01 -1.91351E+01 -1.96684E+01 -1.99793E+01 -2.06226E+01 -2.06565E+01 -2.09107E+01 -2.05523E+01 -2.03424E+01 -1.98170E+01
  -1.93411E+01 -1.91060E+01 -1.87800E+01 -1.89811E+01 -1.89792E+01 -1.92962E+01 -1.94099E+01 -1.95142E+01 -1.95191E+01 -1.93282E+01
  -1.91725E+01 -1.88803E+01 -1.86918E+01 -1.85063E+01 -1.85634E+01 -1.86030E+01 -1.88017E+01 -1.87968E+01 -1.88993E+01 -1.86704E+01
  -1.85615E+01 -1.82386E+01 -1.81548E+01 -1.78408E+01 -1.78648E+01 -1.77453E+01 -1.78645E+01 -1.79623E+01 -1.80502E+01 -1.82423E+01
  -1.82146E+01 -1.82816E+01 -1.77726E+01 -1.75368E+01 -1.71367E+01 -1.68734E+01 -1.67470E+01 -1.65772E+01 -1.65690E+01 -1.63922E+01
  -1.62305E+01 -1.58690E+01 -1.53696E+01 -1.48066E+01 -1.42297E+01 -1.35771E+01 -1.32925E+01 -1.28352E+01 -1.30725E+01 -1.29031E+01
  -1.36857E+01 -1.38496E+01 -1.45819E+01 -1.47518E+01 -1.50857E+01 -1.51363E+01 -1.52137E+01 -1.51667E+01 -1.52569E+01 -1.52095E+01
  -1.52370E+01 -1.51840E+01 -1.51142E+01 -1.50140E+01 -1.48108E+01 -1.46295E+01 -1.43638E+01 -1.41341E+01 -1.39871E+01 -1.38050E+01
  -1.38160E+01 -1.36603E+01 -1.34173E+01 -1.31437E+01 -1.28424E+01 -1.24990E+01 -1.21258E+01 -1.17069E+01 -1.12410E+01 -1.07138E+01
  -1.01260E+01 -9.46338E+00 -8.72271E+00 -7.88993E+00 -6.95615E+00 -5.90032E+00 -4.71467E+00 -3.38074E+00 -1.88756E+00 -2.21371E-01
   1.62587E+00  3.66355E+00  5.89277E+00  8.31756E+00  1.09329E+01  1.37345E+01  1.67115E+01  1.98545E+01  2.31490E+01  2.65843E+01
   3.01470E+01  3.38329E+01  3.76359E+01  4.15619E+01  4.56180E+01  4.98223E+01  5.41940E+01  5.87612E+01  6.35483E+01  6.85840E+01
   7.38867E+01  7.94723E+01  8.53396E+01  9.14785E+01  9.78576E+01  1.04433E+02  1.11139E+02  1.17900E+02  1.24621E+02  1.31204E+02
   1.37540E+02  1.43525E+02  1.49054E+02  1.54037E+02  1.58390E+02  1.62049E+02  1.64963E+02  1.67103E+02  1.68453E+02  1.69018E+02
   1.68812E+02  1.67868E+02  1.66225E+02  1.63934E+02  1.61048E+02  1.57630E+02  1.53742E+02  1.49453E+02  1.44831E+02  1.39950E+02
   1.34881E+02  1.29698E+02  1.24473E+02  1.19278E+02  1.14178E+02  1.09239E+02  1.04510E+02  1.00041E+02  9.58619E+01  9.19974E+01
   8.84539E+01  8.52305E+01  8.23100E+01  7.96703E+01  7.72775E+01  7.50982E+01  7.30926E+01  7.12280E+01  6.94704E+01  6.77976E+01
   6.61894E+01  6.46385E+01  6.31394E+01  6.16979E+01  6.03185E+01  5.90127E+01  5.77865E+01  5.66491E+01  5.56001E+01  5.46398E+01
   5.37582E+01  5.29453E+01  5.21822E+01  5.14525E+01  5.07331E+01  5.00072E+01  4.92542E+01  4.84623E+01  4.76187E+01  4.67203E+01
   4.57636E+01  4.47550E+01  4.36991E+01  4.26091E+01  4.14946E+01  4.03715E+01  3.92506E+01  3.81469E+01  3.70686E+01  3.60272E+01
   3.50265E+01  3.40734E+01  3.31669E+01  3.23093E+01  3.14958E+01  3.07253E+01  2.99904E+01  2.92883E+01  2.86105E+01  2.79539E+01
   2.73102E+01  2.66769E+01  2.60469E+01  2.54190E+01  2.47875E+01  2.41530E+01  2.35111E+01  2.28639E+01  2.22086E+01  2.15483E+01
   2.08812E+01  2.02113E+01  1.95377E+01  1.88648E+01  1.81919E+01  1.75239E+01  1.68599E+01  1.62048E+01  1.55576E+01  1.49230E+01
   1.42999E+01  1.36923E+01  1.30988E+01  1.25233E+01  1.19639E+01  1.14241E+01  1.09016E+01  1.03995E+01  9.91542E+00  9.45206E+00
   9.00665E+00  8.58181E+00  8.17454E+00  7.78727E+00  7.41685E+00  7.06559E+00  6.73023E+00  6.41302E+00  6.11066E+00  5.82533E+00
   5.55369E+00  5.29793E+00  5.05470E+00  4.82621E+00  4.60911E+00  4.40562E+00  4.21242E+00  4.03176E+00  3.86037E+00  3.70051E+00
   3.54897E+00  3.40803E+00  3.27450E+00  3.15071E+00  3.03353E+00  2.92532E+00  2.82295E+00  2.72884E+00  2.63989E+00  2.55856E+00
   2.48179E+00  2.41204E+00  2.34629E+00  2.28704E+00  2.23127E+00  2.18153E+00  2.13483E+00  2.09372E+00  2.05523E+00  2.02195E+00
   1.99091E+00  1.96474E+00  1.94048E+00  1.92076E+00  1.90264E+00  1.88877E+00  1.87625E+00  1.86772E+00  1.86028E+00  1.85660E+00
   1.85377E+00  1.85450E+00  1.85589E+00  1.86065E+00  1.86589E+00  1.87433E+00  1.88309E+00  1.89492E+00
 NY background values follow
    -1.491E+01   -1.492E+01   -1.493E+01   -1.494E+01   -1.495E+01   -1.496E+01   -1.497E+01   -1.498E+01   -1.499E+01   -1.500E+01
    -1.501E+01   -1.502E+01   -1.503E+01   -1.504E+01   -1.505E+01   -1.506E+01   -1.507E+01   -1.508E+01   -1.509E+01   -1.510E+01
    -1.511E+01   -1.512E+01   -1.513E+01   -1.514E+01   -1.516E+01   -1.517E+01   -1.518E+01   -1.519E+01   -1.520E+01   -1.522E+01
    -1.523E+01   -1.524E+01   -1.526E+01   -1.527E+01   -1.528E+01   -1.530E+01   -1.531E+01   -1.532E+01   -1.534E+01   -1.535E+01
    -1.537E+01   -1.538E+01   -1.540E+01   -1.541E+01   -1.543E+01   -1.544E+01   -1.546E+01   -1.548E+01   -1.549E+01   -1.551E+01
    -1.553E+01   -1.554E+01   -1.556E+01   -1.558E+01   -1.560E+01   -1.562E+01   -1.564E+01   -1.566E+01   -1.568E+01   -1.569E+01
    -1.572E+01   -1.574E+01   -1.576E+01   -1.578E+01   -1.580E+01   -1.582E+01   -1.584E+01   -1.587E+01   -1.589E+01   -1.591E+01
    -1.594E+01   -1.596E+01   -1.598E+01   -1.601E+01   -1.603E+01   -1.606E+01   -1.609E+01   -1.611E+01   -1.614E+01   -1.617E+01
    -1.619E+01   -1.622E+01   -1.625E+01   -1.628E+01   -1.631E+01   -1.634E+01   -1.637E+01   -1.640E+01   -1.643E+01   -1.646E+01
    -1.649E+01   -1.652E+01   -1.656E+01   -1.659E+01   -1.662E+01   -1.666E+01   -1.669E+01   -1.673E+01   -1.676E+01   -1.680E+01
    -1.684E+01   -1.687E+01   -1.691E+01   -1.695E+01   -1.699E+01   -1.703E+01   -1.707E+01   -1.711E+01   -1.715E+01   -1.719E+01
    -1.723E+01   -1.728E+01   -1.732E+01   -1.736E+01   -1.741E+01   -1.745E+01   -1.750E+01   -1.754E+01   -1.759E+01   -1.764E+01
    -1.768E+01   -1.773E+01   -1.778E+01   -1.783E+01   -1.788E+01   -1.793E+01   -1.798E+01   -1.804E+01   -1.809E+01   -1.814E+01
    -1.819E+01   -1.825E+01   -1.830E+01   -1.836E+01   -1.841E+01   -1.847E+01   -1.853E+01   -1.858E+01   -1.864E+01   -1.870E+01
    -1.876E+01   -1.882E+01   -1.887E+01   -1.893E+01   -1.899E+01   -1.905E+01   -1.911E+01   -1.917E+01   -1.923E+01   -1.929E+01
    -1.935E+01   -1.941E+01   -1.947E+01   -1.954E+01   -1.960E+01   -1.966E+01   -1.972E+01   -1.978E+01   -1.984E+01   -1.990E+01
    -1.996E+01   -2.002E+01   -2.009E+01   -2.015E+01   -2.021E+01   -2.027E+01   -2.033E+01   -2.039E+01   -2.045E+01   -2.051E+01
    -2.057E+01   -2.063E+01   -2.069E+01   -2.075E+01   -2.081E+01   -2.087E+01   -2.093E+01   -2.099E+01   -2.104E+01   -2.110E+01
    -2.116E+01   -2.122E+01   -2.127E+01   -2.133E+01   -2.138E+01   -2.144E+01   -2.149E+01   -2.155E+01   -2.160E+01   -2.165E+01
    -2.171E+01   -2.176E+01   -2.181E+01   -2.186E+01   -2.191E+01   -2.196E+01   -2.201E+01   -2.206E+01   -2.211E+01   -2.215E+01
    -2.220E+01   -2.224E+01   -2.229E+01   -2.233E+01   -2.237E+01   -2.242E+01   -2.246E+01   -2.250E+01   -2.254E+01   -2.258E+01
    -2.261E+01   -2.265E+01   -2.269E+01   -2.272E+01   -2.275E+01   -2.279E+01   -2.282E+01   -2.285E+01   -2.288E+01   -2.291E+01
    -2.294E+01   -2.296E+01   -2.299E+01   -2.301E+01   -2.303E+01   -2.306E+01   -2.308E+01   -2.309E+01   -2.311E+01   -2.313E+01
    -2.315E+01   -2.316E+01   -2.317E+01   -2.318E+01   -2.319E+01   -2.320E+01   -2.321E+01   -2.322E+01   -2.322E+01   -2.322E+01
    -2.323E+01   -2.323E+01   -2.322E+01   -2.322E+01   -2.322E+01   -2.321E+01   -2.320E+01   -2.319E+01   -2.318E+01   -2.317E+01
    -2.316E+01   -2.314E+01   -2.312E+01   -2.311E+01   -2.309E+01   -2.306E+01   -2.304E+01   -2.302E+01   -2.299E+01   -2.296E+01
    -2.293E+01   -2.290E+01   -2.287E+01   -2.283E+01   -2.280E+01   -2.276E+01   -2.272E+01   -2.269E+01   -2.264E+01   -2.260E+01
    -2.256E+01   -2.251E+01   -2.247E+01   -2.242E+01   -2.237E+01   -2.232E+01   -2.227E+01   -2.222E+01   -2.216E+01   -2.211E+01
    -2.205E+01   -2.199E+01   -2.194E+01   -2.188E+01   -2.181E+01   -2.175E+01   -2.169E+01   -2.163E+01   -2.156E+01   -2.149E+01
    -2.143E+01   -2.136E+01   -2.129E+01   -2.122E+01   -2.115E+01   -2.107E+01   -2.100E+01   -2.092E+01   -2.085E+01   -2.077E+01
    -2.069E+01   -2.062E+01   -2.054E+01   -2.046E+01   -2.038E+01   -2.029E+01   -2.021E+01   -2.013E+01   -2.004E+01   -1.996E+01
    -1.987E+01   -1.978E+01   -1.970E+01   -1.961E+01   -1.952E+01   -1.943E+01   -1.934E+01   -1.925E+01   -1.916E+01   -1.906E+01
    -1.897E+01   -1.888E+01   -1.878E+01   -1.869E+01   -1.859E+01   -1.850E+01   -1.840E+01   -1.830E+01   -1.820E+01   -1.811E+01
    -1.801E+01   -1.791E+01   -1.781E+01   -1.771E+01   -1.761E+01   -1.751E+01   -1.741E+01   -1.730E+01   -1.720E+01   -1.710E+01
    -1.699E+01   -1.689E+01   -1.679E+01   -1.668E+01   -1.658E+01   -1.647E+01   -1.637E+01   -1.626E+01   -1.616E+01   -1.605E+01
    -1.595E+01   -1.584E+01   -1.573E+01   -1.563E+01   -1.552E+01   -1.541E+01   -1.531E+01   -1.520E+01   -1.509E+01   -1.498E+01
    -1.488E+01   -1.477E+01   -1.466E+01   -1.455E+01   -1.445E+01   -1.434E+01   -1.423E+01   -1.412E+01   -1.401E+01   -1.391E+01
    -1.380E+01   -1.369E+01   -1.358E+01   -1.348E+01   -1.337E+01   -1.326E+01   -1.316E+01   -1.305E+01   -1.294E+01   -1.283E+01
    -1.273E+01   -1.262E+01   -1.252E+01   -1.241E+01   -1.230E+01   -1.220E+01   -1.209E+01   -1.199E+01   -1.188E+01   -1.177E+01
    -1.167E+01   -1.156E+01   -1.146E+01   -1.135E+01   -1.125E+01   -1.114E+01   -1.104E+01   -1.094E+01   -1.083E+01   -1.073E+01
    -1.062E+01   -1.052E+01   -1.042E+01   -1.031E+01   -1.021E+01   -1.011E+01   -1.000E+01   -9.902E+00   -9.799E+00   -9.697E+00
    -9.595E+00   -9.493E+00   -9.391E+00   -9.290E+00   -9.188E+00   -9.087E+00   -8.986E+00   -8.885E+00   -8.785E+00   -8.684E+00
    -8.584E+00   -8.484E+00   -8.384E+00   -8.285E+00   -8.186E+00   -8.087E+00   -7.988E+00   -7.889E+00   -7.790E+00   -7.692E+00
    -7.594E+00   -7.496E+00   -7.399E+00   -7.302E+00   -7.204E+00   -7.108E+00   -7.011E+00   -6.915E+00   -6.818E+00   -6.723E+00
    -6.627E+00   -6.531E+00   -6.436E+00   -6.341E+00   -6.247E+00   -6.152E+00   -6.058E+00   -5.964E+00   -5.871E+00   -5.777E+00
    -5.684E+00   -5.592E+00   -5.499E+00   -5.407E+00   -5.315E+00   -5.223E+00   -5.132E+00   -5.040E+00   -4.950E+00   -4.859E+00
    -4.769E+00   -4.679E+00   -4.589E+00   -4.500E+00   -4.411E+00   -4.322E+00   -4.233E+00   -4.145E+00   -4.057E+00   -3.970E+00
    -3.882E+00   -3.795E+00   -3.709E+00   -3.622E+00   -3.536E+00   -3.451E+00   -3.365E+00   -3.280E+00   -3.195E+00   -3.111E+00
    -3.027E+00   -2.943E+00   -2.860E+00   -2.777E+00   -2.694E+00   -2.612E+00   -2.530E+00   -2.448E+00   -2.367E+00   -2.286E+00
    -2.205E+00   -2.125E+00   -2.045E+00   -1.965E+00   -1.886E+00   -1.807E+00   -1.729E+00   -1.651E+00
 Asp      Conc. = 7.38E+00
