 LCModel (Version 6.3-1L) Copyright: S.W. Provencher.          Ref.: Magn. Reson. Med. 30:672-679 (1993).                
 Slice#1 Row#2 Col#3  K_02_press_1_raw_act
 36 lines in following concentration table = NCONC+1
    Conc.  %SD /Cr+PCr  Metabolite                                         
 3.50E+03  17%   0.000 Ala                                                 
 6.61E-02 999%   0.000 Asp                                                 
    0.000 999%   0.000 Cr                                                  
    0.000 999%   0.000 PCr                                                 
 3.96E-02 999%   0.000 GABA                                                
 3.89E-02 999%   0.000 Glc                                                 
    0.000 999%   0.000 Gln                                                 
    0.000 999%   0.000 Glu                                                 
    0.000 999%   0.000 GPC                                                 
    0.465 999%   0.000 PCh                                                 
    0.000 999%   0.000 GSH                                                 
    0.000 999%   0.000 Ins                                                 
    0.000 999%   0.000 Lac                                                 
    0.000 999%   0.000 NAA                                                 
    0.000 999%   0.000 NAAG                                                
 1.25E-02 999%   0.000 Scyllo                                              
 6.34E-02 999%   0.000 Tau                                                 
    0.669 733%   0.000 -CrCH2                                              
    0.465 999%   0.000 GPC+PCh                                             
    0.000 999%   0.000 NAA+NAAG                                            
    0.000 999%   0.000 Cr+PCr                                              
    0.000 999%   0.000 Glu+Gln                                             
 1.98E+03  23%   0.000 Lip13a                                              
    0.000 999%   0.000 Lip13b                                              
  561.950  23%   0.000 Lip09                                               
 1.05E+03  17%   0.000 MM09                                                
  305.780  28%   0.000 Lip20                                               
    0.000 999%   0.000 MM20                                                
  321.265  52%   0.000 MM12                                                
 4.84E+03   3%   0.000+MM14                                                
 1.03E+03  25%   0.000 MM17                                                
 1.98E+03  23%   0.000 Lip13a+Lip13b                                       
 7.14E+03   6%   0.000 MM14+Lip13a+Lip13b+MM12                             
 1.62E+03  10%   0.000 MM09+Lip09                                          
  305.780  28%   0.000 MM20+Lip20                                          
   6 lines in following misc. output table
  FWHM = 0.153 ppm    S/N =   8                                            
  Data shift = 0.107 ppm                                                   
  Ph: -44 deg      28.3 deg/ppm                                            
  alphaB,S = 8.5E+01,   1.7E+02                                            
    6 spline knots.   Ns = 9(2)                                            
   2 inflections.     1 extrema                                            
  498 points on ppm-axis = NY
      4.000000     3.992357     3.984714     3.977070     3.969427     3.961784     3.954141     3.946497     3.938854     3.931211
      3.923568     3.915925     3.908281     3.900638     3.892995     3.885352     3.877708     3.870065     3.862422     3.854779
      3.847136     3.839492     3.831849     3.824206     3.816563     3.808919     3.801276     3.793633     3.785990     3.778347
      3.770703     3.763060     3.755417     3.747774     3.740130     3.732487     3.724844     3.717201     3.709558     3.701914
      3.694271     3.686628     3.678985     3.671341     3.663698     3.656055     3.648412     3.640769     3.633125     3.625482
      3.617839     3.610196     3.602552     3.594909     3.587266     3.579623     3.571980     3.564336     3.556693     3.549050
      3.541407     3.533763     3.526120     3.518477     3.510834     3.503191     3.495547     3.487904     3.480261     3.472618
      3.464974     3.457331     3.449688     3.442045     3.434402     3.426758     3.419115     3.411472     3.403829     3.396185
      3.388542     3.380899     3.373256     3.365613     3.357969     3.350326     3.342683     3.335040     3.327396     3.319753
      3.312110     3.304467     3.296824     3.289180     3.281537     3.273894     3.266251     3.258607     3.250964     3.243321
      3.235678     3.228034     3.220391     3.212748     3.205105     3.197462     3.189818     3.182175     3.174532     3.166889
      3.159245     3.151602     3.143959     3.136316     3.128673     3.121029     3.113386     3.105743     3.098100     3.090456
      3.082813     3.075170     3.067527     3.059884     3.052240     3.044597     3.036954     3.029311     3.021667     3.014024
      3.006381     2.998738     2.991095     2.983451     2.975808     2.968165     2.960522     2.952878     2.945235     2.937592
      2.929949     2.922306     2.914662     2.907019     2.899376     2.891733     2.884089     2.876446     2.868803     2.861160
      2.853517     2.845873     2.838230     2.830587     2.822944     2.815300     2.807657     2.800014     2.792371     2.784728
      2.777084     2.769441     2.761798     2.754155     2.746511     2.738868     2.731225     2.723582     2.715939     2.708295
      2.700652     2.693009     2.685366     2.677722     2.670079     2.662436     2.654793     2.647150     2.639506     2.631863
      2.624220     2.616577     2.608933     2.601290     2.593647     2.586004     2.578361     2.570717     2.563074     2.555431
      2.547788     2.540144     2.532501     2.524858     2.517215     2.509572     2.501928     2.494285     2.486642     2.478999
      2.471355     2.463712     2.456069     2.448426     2.440783     2.433139     2.425496     2.417853     2.410210     2.402566
      2.394923     2.387280     2.379637     2.371994     2.364350     2.356707     2.349064     2.341421     2.333777     2.326134
      2.318491     2.310848     2.303205     2.295561     2.287918     2.280275     2.272632     2.264988     2.257345     2.249702
      2.242059     2.234416     2.226772     2.219129     2.211486     2.203843     2.196199     2.188556     2.180913     2.173270
      2.165627     2.157983     2.150340     2.142697     2.135054     2.127410     2.119767     2.112124     2.104481     2.096838
      2.089194     2.081551     2.073908     2.066265     2.058621     2.050978     2.043335     2.035692     2.028049     2.020405
      2.012762     2.005119     1.997476     1.989833     1.982190     1.974546     1.966903     1.959260     1.951617     1.943974
      1.936331     1.928688     1.921045     1.913402     1.905759     1.898115     1.890472     1.882829     1.875186     1.867543
      1.859900     1.852257     1.844614     1.836971     1.829327     1.821684     1.814041     1.806398     1.798755     1.791112
      1.783469     1.775826     1.768183     1.760540     1.752896     1.745253     1.737610     1.729967     1.722324     1.714681
      1.707038     1.699395     1.691752     1.684108     1.676465     1.668822     1.661179     1.653536     1.645893     1.638250
      1.630607     1.622964     1.615321     1.607677     1.600034     1.592391     1.584748     1.577105     1.569462     1.561819
      1.554176     1.546533     1.538890     1.531246     1.523603     1.515960     1.508317     1.500674     1.493031     1.485388
      1.477745     1.470102     1.462458     1.454815     1.447172     1.439529     1.431886     1.424243     1.416600     1.408957
      1.401314     1.393671     1.386027     1.378384     1.370741     1.363098     1.355455     1.347812     1.340169     1.332526
      1.324883     1.317240     1.309596     1.301953     1.294310     1.286667     1.279024     1.271381     1.263738     1.256095
      1.248452     1.240808     1.233165     1.225522     1.217879     1.210236     1.202593     1.194950     1.187307     1.179664
      1.172021     1.164377     1.156734     1.149091     1.141448     1.133805     1.126162     1.118519     1.110876     1.103233
      1.095590     1.087946     1.080303     1.072660     1.065017     1.057374     1.049731     1.042088     1.034445     1.026802
      1.019158     1.011515     1.003872     0.996229     0.988586     0.980943     0.973300     0.965657     0.958014     0.950371
      0.942727     0.935084     0.927441     0.919798     0.912155     0.904512     0.896869     0.889226     0.881583     0.873940
      0.866296     0.858653     0.851010     0.843367     0.835724     0.828081     0.820438     0.812795     0.805152     0.797508
      0.789865     0.782222     0.774579     0.766936     0.759293     0.751650     0.744007     0.736364     0.728721     0.721077
      0.713434     0.705791     0.698148     0.690505     0.682862     0.675219     0.667576     0.659933     0.652290     0.644646
      0.637003     0.629360     0.621717     0.614074     0.606431     0.598788     0.591145     0.583502     0.575858     0.568215
      0.560572     0.552929     0.545286     0.537643     0.530000     0.522357     0.514714     0.507071     0.499427     0.491784
      0.484141     0.476498     0.468855     0.461212     0.453569     0.445925     0.438282     0.430639     0.422996     0.415353
      0.407710     0.400067     0.392424     0.384780     0.377137     0.369494     0.361851     0.354208     0.346565     0.338922
      0.331278     0.323635     0.315992     0.308349     0.300706     0.293063     0.285420     0.277777     0.270133     0.262490
      0.254847     0.247204     0.239561     0.231918     0.224275     0.216631     0.208988     0.201345
 NY phased data points follow
  -5.25261E+00 -2.75501E+00 -4.22639E-01 -5.41598E-01  1.14442E+00 -4.02374E+00 -3.13402E+00 -4.55535E+00 -1.60513E+00 -3.61627E+00
  -5.65727E+00 -2.13793E+00 -2.73654E+00  8.40291E-01 -3.65689E+00 -2.41857E+00 -3.36040E+00 -2.30115E+00 -1.44632E+00 -2.75406E+00
  -2.36708E+00 -5.84380E-02 -3.23649E+00  4.01908E-01 -4.22792E+00  3.70176E-01 -4.29648E+00 -5.02958E+00 -1.26783E+00 -7.77864E-01
  -3.53270E+00 -1.41887E+00 -3.37653E+00 -1.18491E-01  2.59247E-01 -2.91824E+00 -1.84949E+00 -3.64624E+00  5.83532E-01 -3.06609E+00
  -9.63577E-02 -3.00660E+00 -5.19512E+00 -1.06638E+00 -4.45957E+00 -1.20631E-01 -1.04532E+00 -1.77025E+00 -1.00925E+00 -3.52232E+00
  -3.37454E+00 -4.89654E+00 -2.70925E+00  3.89728E-01 -2.16962E+00 -3.91060E-01 -1.43466E-01 -2.53726E-01 -2.26256E+00  5.27451E-01
  -5.96438E+00 -8.30879E-01 -2.59750E+00 -2.30988E+00  1.02510E+00  1.41013E+00 -1.36638E+00 -1.75756E+00 -2.31805E+00 -2.78762E+00
   1.12747E+00 -4.58594E+00 -3.45139E+00  1.14905E+00  8.08641E-01 -7.68757E-01  1.94624E+00 -2.23342E+00 -4.74727E-01 -3.91222E+00
  -3.21799E-01 -9.85739E-01 -3.29249E+00 -1.76636E+00 -3.58687E+00  1.30685E+00 -1.83805E+00 -1.51678E+00 -7.67666E-01 -4.05883E+00
  -3.40566E+00 -2.81245E+00 -2.86471E+00 -8.47883E-01 -8.62541E-01 -1.57139E+00 -1.26164E+00  1.56139E+00  2.33700E+00  3.11838E-01
  -2.14037E+00 -3.23723E-01 -1.03224E+00 -1.59212E+00  1.00662E-01  3.03619E-01 -3.30882E+00 -5.17720E-02 -2.21342E+00 -1.56030E+00
   9.20489E-02 -4.65189E+00 -6.07369E+00 -6.45257E+00 -8.59853E-01 -4.57123E+00 -4.21630E+00 -1.16641E+00 -2.73457E+00 -1.29120E+00
  -2.94209E-01  1.17106E-01 -5.23141E+00  2.66764E-02 -1.58004E+00  1.33344E-01 -6.53130E-01 -4.45016E-01 -1.35630E+00 -2.31975E+00
  -1.96085E+00 -9.20914E-01 -6.08601E-01 -5.64483E-01 -1.20538E+00 -3.69031E-01 -5.57639E-01 -1.90668E+00  2.93274E-01 -8.87483E-01
  -1.66243E+00  9.36576E-02 -1.26838E+00  1.83061E+00  1.04935E+00 -2.32984E-01  7.09305E-01 -1.62432E+00  7.03283E-01  6.15975E-01
   3.30115E-02  8.52643E-01 -3.53462E-01 -1.13410E+00 -1.33193E+00 -1.07013E+00 -2.35279E+00 -1.08448E-01 -2.26380E+00  1.00770E+00
   1.06424E+00  1.81641E+00 -7.37418E-02 -3.87331E-01 -7.39763E-01 -2.63138E+00 -1.87766E+00 -1.84599E+00  3.01035E-02 -2.14412E+00
  -1.89257E+00 -9.95031E-01  1.93499E-01 -2.58619E+00 -2.57122E-01 -1.70701E+00  2.81796E+00  1.70556E+00 -1.97233E+00  3.79983E-01
   2.48531E+00  8.90085E-02  2.06000E+00  6.49918E-01  4.32784E+00  1.44643E+00 -1.78208E+00  2.48693E+00 -2.16820E+00 -1.18753E+00
  -2.76633E+00  3.91058E+00  9.35992E-01  7.47486E-01 -3.79460E-01 -1.10238E-01  7.11797E-01  2.79389E+00  6.77776E-01 -1.41300E+00
   1.93156E+00 -2.42977E+00 -1.66564E+00  5.57832E-01  5.06720E-01 -1.25982E+00  3.82221E+00  9.23708E-01  2.61388E+00  2.51065E+00
  -1.33887E+00 -7.83393E-01  4.89878E+00 -9.56847E-01 -7.77258E-01  1.16565E+00 -4.71860E+00 -4.43515E+00  1.47143E+00  1.33880E-01
  -1.04686E+00 -5.39332E-01 -7.74721E+00 -7.71216E-01 -4.42729E+00 -2.55864E+00  2.60860E+00  5.08299E-01 -6.80515E-01 -3.51075E+00
   9.28389E-01  1.78875E+00 -2.04413E+00  2.15808E+00  1.61982E+00 -2.93616E+00 -2.13926E+00  1.95869E+00  1.34939E+00  3.22314E+00
   5.36960E-01 -1.20638E+00  4.36773E-01  1.97052E+00 -3.68131E+00 -2.35806E+00 -4.02372E+00 -4.64254E+00 -1.24988E+00  3.03022E+00
   1.44336E+00  1.92581E+00  6.62380E+00  8.34701E-01 -3.01426E-01 -6.24991E-01 -3.15137E+00 -3.90710E+00 -3.24664E+00 -2.26060E+00
  -2.87974E-01 -7.45341E-01 -2.77646E+00 -8.29472E-01  1.38083E+00 -1.61301E+00 -2.97539E+00  1.23503E+00  2.39391E+00 -1.89025E+00
  -1.92061E+00  2.00225E+00 -9.98537E-01 -1.63252E-01  2.94875E-01  1.14267E+00  5.59377E-01  3.04356E-01  3.70731E+00 -2.87846E+00
   1.26255E+00  5.60701E+00  1.13812E+00  1.08922E-01 -1.61314E-01  3.09209E+00  1.06201E+00  2.72355E+00  5.41056E+00  5.15495E+00
   2.72840E+00  9.09300E+00  3.59055E+00  6.83659E+00  4.67998E+00  3.26909E+00  6.58457E+00  7.78354E+00  5.39892E+00  4.81669E+00
   5.02024E+00  8.55299E+00  6.39090E+00  9.50761E+00  5.72464E+00  7.46815E+00  9.71592E+00  9.53860E+00  1.21989E+01  1.38559E+01
   1.18806E+01  1.42465E+01  1.51626E+01  1.86953E+01  1.87079E+01  1.95951E+01  1.93799E+01  1.90113E+01  2.11579E+01  2.51938E+01
   2.44812E+01  2.54864E+01  2.66729E+01  3.06102E+01  3.64645E+01  3.72113E+01  3.75996E+01  3.82069E+01  3.67027E+01  3.86820E+01
   4.05889E+01  4.05749E+01  4.09489E+01  3.63994E+01  3.46586E+01  3.89884E+01  3.62009E+01  3.42174E+01  3.89770E+01  3.72964E+01
   3.45635E+01  3.15743E+01  3.08536E+01  2.99510E+01  2.53438E+01  2.21825E+01  2.08684E+01  1.70748E+01  1.62143E+01  1.62313E+01
   1.26254E+01  9.84514E+00  1.37865E+01  1.01530E+01  9.73865E+00  1.03127E+01  7.82177E+00  7.94545E+00  8.39652E+00  6.35090E+00
   7.70570E+00  3.92803E+00  8.79216E+00  9.29284E+00  7.93124E+00  8.21672E+00  6.54226E+00  1.03356E+01  4.64338E+00  5.11072E+00
   5.18660E+00  5.41982E+00  6.71593E+00  7.07647E+00  1.03980E+01  8.71268E+00  1.07363E+01  7.54266E+00  7.49610E+00  6.50379E+00
   9.18348E+00  9.68574E+00  7.61833E+00  9.23914E+00  1.32560E+01  7.56343E+00  8.80939E+00  7.34957E+00  9.79820E+00  9.54278E+00
   8.37258E+00  6.39577E+00  7.90840E+00  8.33884E+00  6.12050E+00  9.29537E+00  7.89376E+00  7.25007E+00  8.69770E+00  8.68949E+00
   7.44473E+00  7.24802E+00  6.77200E+00  3.48859E+00  7.63543E+00  4.10133E+00  4.17232E+00  3.01077E+00  6.07629E+00  4.60911E+00
   3.15403E+00  4.09568E+00  3.18041E+00  4.17027E+00  5.49949E+00  7.85313E+00  3.33282E+00  2.50149E+00  3.33963E+00  6.98344E+00
   3.82406E+00  5.36610E+00  4.76966E-01  6.47645E+00  4.11353E+00  2.40758E+00 -1.81054E-01  2.07866E+00  2.18721E+00  6.78522E+00
   1.05604E+00  6.69800E-01  1.73127E+00  1.30060E+00  1.29118E+00  4.05636E+00 -1.92891E+00 -1.32498E-01 -2.48438E+00 -1.17070E+00
   1.83556E+00 -4.05543E-01  6.39977E-01  4.00131E+00  1.76743E+00 -1.20588E-01  3.72979E+00  1.27323E+00 -3.29861E+00  5.63703E-01
  -3.48993E+00 -1.73362E+00  2.20826E-01  2.40927E+00 -6.19105E-01 -1.10290E+00 -5.07799E+00 -1.79164E+00 -4.16168E+00  1.11785E+00
   1.23408E+00  1.86806E+00 -1.52831E+00 -1.68610E+00 -4.47124E+00  1.56922E+00 -4.45547E+00 -2.88367E+00 -3.19084E+00 -1.74077E+00
  -2.12362E+00  2.58677E-01 -1.26324E+00  1.59316E+00 -3.27757E+00 -1.28859E+00 -2.15319E+00 -5.72395E+00 -1.52764E+00  8.36207E-01
  -3.09902E+00 -3.80562E+00 -2.77713E+00 -9.81615E-01 -1.22214E+00 -6.94850E+00 -2.97921E+00  2.05549E-01  3.12493E-02 -3.37110E+00
  -3.24079E+00 -4.82982E+00 -3.01703E+00 -5.25570E+00 -4.83378E+00 -6.06772E+00 -4.38924E+00 -3.60609E+00
 NY points of the fit to the data follow
  -1.32764E+00 -1.35499E+00 -1.51195E+00 -1.46974E+00 -1.63982E+00 -1.45629E+00 -1.51539E+00 -1.04575E+00 -1.22911E+00 -7.01614E-01
  -1.09297E+00 -5.63412E-01 -1.24006E+00 -8.14931E-01 -1.83365E+00 -1.29172E+00 -2.27006E+00 -1.54619E+00 -2.42865E+00 -1.53487E+00
  -2.26051E+00 -1.28735E+00 -1.94225E+00 -1.16658E+00 -1.81142E+00 -1.29921E+00 -1.91802E+00 -1.68870E+00 -2.17323E+00 -2.16137E+00
  -2.38615E+00 -2.45256E+00 -2.29802E+00 -2.35449E+00 -1.88112E+00 -1.96548E+00 -1.32494E+00 -1.51123E+00 -9.28885E-01 -1.34954E+00
  -9.49734E-01 -1.48987E+00 -1.23836E+00 -1.78373E+00 -1.56730E+00 -1.94793E+00 -1.65923E+00 -1.85128E+00 -1.59840E+00 -1.67688E+00
  -1.46557E+00 -1.51450E+00 -1.40085E+00 -1.45993E+00 -1.41744E+00 -1.43239E+00 -1.39876E+00 -1.40495E+00 -1.37171E+00 -1.36500E+00
  -1.33774E+00 -1.32592E+00 -1.32305E+00 -1.32258E+00 -1.32316E+00 -1.32408E+00 -1.32525E+00 -1.32640E+00 -1.32758E+00 -1.32865E+00
  -1.32969E+00 -1.33059E+00 -1.33143E+00 -1.33216E+00 -1.33279E+00 -1.33334E+00 -1.33380E+00 -1.33418E+00 -1.33446E+00 -1.33469E+00
  -1.33480E+00 -1.33487E+00 -1.33481E+00 -1.33467E+00 -1.33427E+00 -1.33308E+00 -1.33187E+00 -1.33034E+00 -1.32847E+00 -1.32684E+00
  -1.32438E+00 -1.32298E+00 -1.32012E+00 -1.31938E+00 -1.31634E+00 -1.31596E+00 -1.31268E+00 -1.31257E+00 -1.30908E+00 -1.30927E+00
  -1.30566E+00 -1.30616E+00 -1.30255E+00 -1.30345E+00 -1.30003E+00 -1.30139E+00 -1.29836E+00 -1.29997E+00 -1.29738E+00 -1.29894E+00
  -1.29670E+00 -1.29750E+00 -1.29525E+00 -1.29488E+00 -1.29228E+00 -1.29056E+00 -1.28736E+00 -1.28457E+00 -1.28071E+00 -1.27690E+00
  -1.27230E+00 -1.26763E+00 -1.26224E+00 -1.25654E+00 -1.25016E+00 -1.24315E+00 -1.23555E+00 -1.22732E+00 -1.21844E+00 -1.20885E+00
  -1.19856E+00 -1.18751E+00 -1.17570E+00 -1.16311E+00 -1.14974E+00 -1.13561E+00 -1.12074E+00 -1.10516E+00 -1.08894E+00 -1.07212E+00
  -1.05482E+00 -1.03712E+00 -1.01918E+00 -1.00109E+00 -9.83050E-01 -9.65182E-01 -9.47713E-01 -9.30775E-01 -9.14608E-01 -8.99341E-01
  -8.85221E-01 -8.72353E-01 -8.60975E-01 -8.51153E-01 -8.43094E-01 -8.36807E-01 -8.32463E-01 -8.30006E-01 -8.29555E-01 -8.30987E-01
  -8.34364E-01 -8.39497E-01 -8.46399E-01 -8.54830E-01 -8.64757E-01 -8.75902E-01 -8.88193E-01 -9.01339E-01 -9.15251E-01 -9.29643E-01
  -9.44420E-01 -9.59309E-01 -9.74227E-01 -9.88930E-01 -1.00336E+00 -1.01731E+00 -1.03074E+00 -1.04348E+00 -1.05552E+00 -1.06675E+00
  -1.07716E+00 -1.08668E+00 -1.09532E+00 -1.10305E+00 -1.10990E+00 -1.11583E+00 -1.12090E+00 -1.12510E+00 -1.12845E+00 -1.13097E+00
  -1.13269E+00 -1.13361E+00 -1.13375E+00 -1.13313E+00 -1.13174E+00 -1.12959E+00 -1.12667E+00 -1.12298E+00 -1.11849E+00 -1.11317E+00
  -1.10702E+00 -1.09997E+00 -1.09200E+00 -1.08305E+00 -1.07310E+00 -1.06205E+00 -1.04989E+00 -1.03654E+00 -1.02200E+00 -1.00619E+00
  -9.89142E-01 -9.70798E-01 -9.51236E-01 -9.30439E-01 -9.08533E-01 -8.85552E-01 -8.61682E-01 -8.37014E-01 -8.11795E-01 -7.86167E-01
  -7.60420E-01 -7.34723E-01 -7.09380E-01 -6.84553E-01 -6.60523E-01 -6.37412E-01 -6.15423E-01 -5.94590E-01 -5.75008E-01 -5.56597E-01
  -5.39325E-01 -5.22989E-01 -5.07427E-01 -4.92326E-01 -4.77430E-01 -4.62362E-01 -4.46831E-01 -4.30455E-01 -4.12963E-01 -3.94035E-01
  -3.73501E-01 -3.51178E-01 -3.27048E-01 -3.01100E-01 -2.73501E-01 -2.44435E-01 -2.14258E-01 -1.83331E-01 -1.52158E-01 -1.21212E-01
  -9.10675E-02 -6.22319E-02 -3.52636E-02 -1.06014E-02  1.13190E-02  3.02303E-02  4.59010E-02  5.82960E-02  6.74364E-02  7.35583E-02
   7.69609E-02  7.81507E-02  7.76773E-02  7.62701E-02  7.46800E-02  7.38216E-02  7.46097E-02  7.80952E-02  8.53127E-02  9.74136E-02
   1.15547E-01  1.40989E-01  1.75022E-01  2.19064E-01  2.74540E-01  3.43012E-01  4.26054E-01  5.25351E-01  6.42544E-01  7.79297E-01
   9.37107E-01  1.11734E+00  1.32104E+00  1.54890E+00  1.80106E+00  2.07706E+00  2.37567E+00  2.69490E+00  3.03185E+00  3.38288E+00
   3.74346E+00  4.10850E+00  4.47238E+00  4.82941E+00  5.17403E+00  5.50133E+00  5.80738E+00  6.08982E+00  6.34827E+00  6.58504E+00
   6.80546E+00  7.01873E+00  7.23834E+00  7.48330E+00  7.77954E+00  8.16334E+00  8.68879E+00  9.45092E+00  1.06693E+01  1.24702E+01
   1.34426E+01  1.54694E+01  1.60293E+01  1.81447E+01  1.80459E+01  1.98397E+01  1.88059E+01  2.11291E+01  2.06427E+01  2.37075E+01
   2.37783E+01  2.74119E+01  2.79882E+01  3.17786E+01  3.26534E+01  3.57388E+01  3.61935E+01  3.82773E+01  3.82581E+01  3.91691E+01
   3.89396E+01  3.87725E+01  3.86029E+01  3.76222E+01  3.80047E+01  3.66842E+01  3.75260E+01  3.58302E+01  3.66329E+01  3.44825E+01
   3.46171E+01  3.16532E+01  3.08288E+01  2.75192E+01  2.59229E+01  2.26785E+01  2.09214E+01  1.84006E+01  1.70540E+01  1.53146E+01
   1.42080E+01  1.30022E+01  1.22429E+01  1.13198E+01  1.07038E+01  9.96877E+00  9.42599E+00  9.02946E+00  8.71990E+00  8.46782E+00
   8.25473E+00  8.06788E+00  7.89836E+00  7.74014E+00  7.58948E+00  7.44452E+00  7.30489E+00  7.17152E+00  7.04626E+00  6.93175E+00
   6.83105E+00  6.74755E+00  6.68462E+00  6.64558E+00  6.63328E+00  6.65008E+00  6.69751E+00  6.77623E+00  6.88576E+00  7.02452E+00
   7.18961E+00  7.37695E+00  7.58123E+00  7.79614E+00  8.01449E+00  8.22857E+00  8.43036E+00  8.61203E+00  8.76613E+00  8.88616E+00
   8.96675E+00  9.00405E+00  8.99580E+00  8.94158E+00  8.84263E+00  8.70192E+00  8.52379E+00  8.31376E+00  8.07812E+00  7.82358E+00
   7.55681E+00  7.28422E+00  7.01145E+00  6.74327E+00  6.48330E+00  6.23400E+00  5.99658E+00  5.77119E+00  5.55692E+00  5.35214E+00
   5.15458E+00  4.96172E+00  4.77089E+00  4.57960E+00  4.38562E+00  4.18724E+00  3.98321E+00  3.77298E+00  3.55650E+00  3.33437E+00
   3.10758E+00  2.87762E+00  2.64614E+00  2.41506E+00  2.18627E+00  1.96168E+00  1.74298E+00  1.53176E+00  1.32925E+00  1.13652E+00
   9.54243E-01  7.82920E-01  6.22706E-01  4.73611E-01  3.35373E-01  2.07659E-01  8.99384E-02 -1.83250E-02 -1.17802E-01 -2.09106E-01
  -2.92935E-01 -3.69890E-01 -4.40626E-01 -5.05687E-01 -5.65655E-01 -6.20989E-01 -6.72180E-01 -7.19598E-01 -7.63650E-01 -8.04629E-01
  -8.42872E-01 -8.78601E-01 -9.12089E-01 -9.43501E-01 -9.73064E-01 -1.00090E+00 -1.02721E+00 -1.05207E+00 -1.07564E+00 -1.09799E+00
  -1.11924E+00 -1.13945E+00 -1.15874E+00 -1.17712E+00 -1.19471E+00 -1.21151E+00 -1.22763E+00 -1.24306E+00 -1.25790E+00 -1.27213E+00
  -1.28584E+00 -1.29902E+00 -1.31173E+00 -1.32398E+00 -1.33581E+00 -1.34723E+00 -1.35827E+00 -1.36894E+00 -1.37928E+00 -1.38928E+00
  -1.39899E+00 -1.40838E+00 -1.41751E+00 -1.42635E+00 -1.43495E+00 -1.44329E+00 -1.45141E+00 -1.45928E+00 -1.46694E+00 -1.47437E+00
  -1.48161E+00 -1.48863E+00 -1.49546E+00 -1.50206E+00 -1.50848E+00 -1.51466E+00 -1.52064E+00 -1.52636E+00
 NY background values follow
    -1.423E+00   -1.423E+00   -1.423E+00   -1.423E+00   -1.423E+00   -1.423E+00   -1.424E+00   -1.424E+00   -1.424E+00   -1.424E+00
    -1.424E+00   -1.424E+00   -1.424E+00   -1.424E+00   -1.424E+00   -1.424E+00   -1.425E+00   -1.425E+00   -1.425E+00   -1.425E+00
    -1.425E+00   -1.425E+00   -1.425E+00   -1.425E+00   -1.425E+00   -1.425E+00   -1.426E+00   -1.426E+00   -1.426E+00   -1.426E+00
    -1.426E+00   -1.426E+00   -1.426E+00   -1.426E+00   -1.426E+00   -1.427E+00   -1.427E+00   -1.427E+00   -1.427E+00   -1.427E+00
    -1.427E+00   -1.427E+00   -1.427E+00   -1.427E+00   -1.428E+00   -1.428E+00   -1.428E+00   -1.428E+00   -1.428E+00   -1.428E+00
    -1.428E+00   -1.428E+00   -1.428E+00   -1.429E+00   -1.429E+00   -1.429E+00   -1.429E+00   -1.429E+00   -1.429E+00   -1.429E+00
    -1.429E+00   -1.430E+00   -1.430E+00   -1.430E+00   -1.430E+00   -1.430E+00   -1.430E+00   -1.430E+00   -1.431E+00   -1.431E+00
    -1.431E+00   -1.431E+00   -1.431E+00   -1.431E+00   -1.431E+00   -1.432E+00   -1.432E+00   -1.432E+00   -1.432E+00   -1.432E+00
    -1.432E+00   -1.432E+00   -1.433E+00   -1.433E+00   -1.433E+00   -1.433E+00   -1.433E+00   -1.433E+00   -1.434E+00   -1.434E+00
    -1.434E+00   -1.434E+00   -1.434E+00   -1.435E+00   -1.435E+00   -1.435E+00   -1.435E+00   -1.435E+00   -1.436E+00   -1.436E+00
    -1.436E+00   -1.436E+00   -1.436E+00   -1.437E+00   -1.437E+00   -1.437E+00   -1.437E+00   -1.437E+00   -1.438E+00   -1.438E+00
    -1.438E+00   -1.438E+00   -1.439E+00   -1.439E+00   -1.439E+00   -1.439E+00   -1.440E+00   -1.440E+00   -1.440E+00   -1.440E+00
    -1.441E+00   -1.441E+00   -1.441E+00   -1.441E+00   -1.442E+00   -1.442E+00   -1.442E+00   -1.443E+00   -1.443E+00   -1.443E+00
    -1.443E+00   -1.444E+00   -1.444E+00   -1.444E+00   -1.445E+00   -1.445E+00   -1.445E+00   -1.446E+00   -1.446E+00   -1.446E+00
    -1.447E+00   -1.447E+00   -1.447E+00   -1.448E+00   -1.448E+00   -1.448E+00   -1.449E+00   -1.449E+00   -1.449E+00   -1.450E+00
    -1.450E+00   -1.451E+00   -1.451E+00   -1.451E+00   -1.452E+00   -1.452E+00   -1.452E+00   -1.453E+00   -1.453E+00   -1.454E+00
    -1.454E+00   -1.455E+00   -1.455E+00   -1.455E+00   -1.456E+00   -1.456E+00   -1.457E+00   -1.457E+00   -1.458E+00   -1.458E+00
    -1.459E+00   -1.459E+00   -1.459E+00   -1.460E+00   -1.460E+00   -1.461E+00   -1.461E+00   -1.462E+00   -1.462E+00   -1.463E+00
    -1.463E+00   -1.464E+00   -1.464E+00   -1.465E+00   -1.466E+00   -1.466E+00   -1.467E+00   -1.467E+00   -1.468E+00   -1.468E+00
    -1.469E+00   -1.469E+00   -1.470E+00   -1.471E+00   -1.471E+00   -1.472E+00   -1.472E+00   -1.473E+00   -1.473E+00   -1.474E+00
    -1.475E+00   -1.475E+00   -1.476E+00   -1.476E+00   -1.477E+00   -1.478E+00   -1.478E+00   -1.479E+00   -1.480E+00   -1.480E+00
    -1.481E+00   -1.482E+00   -1.482E+00   -1.483E+00   -1.484E+00   -1.484E+00   -1.485E+00   -1.486E+00   -1.486E+00   -1.487E+00
    -1.488E+00   -1.488E+00   -1.489E+00   -1.490E+00   -1.490E+00   -1.491E+00   -1.492E+00   -1.493E+00   -1.493E+00   -1.494E+00
    -1.495E+00   -1.495E+00   -1.496E+00   -1.497E+00   -1.498E+00   -1.498E+00   -1.499E+00   -1.500E+00   -1.501E+00   -1.501E+00
    -1.502E+00   -1.503E+00   -1.504E+00   -1.505E+00   -1.505E+00   -1.506E+00   -1.507E+00   -1.508E+00   -1.509E+00   -1.509E+00
    -1.510E+00   -1.511E+00   -1.512E+00   -1.513E+00   -1.513E+00   -1.514E+00   -1.515E+00   -1.516E+00   -1.517E+00   -1.518E+00
    -1.519E+00   -1.519E+00   -1.520E+00   -1.521E+00   -1.522E+00   -1.523E+00   -1.524E+00   -1.525E+00   -1.526E+00   -1.526E+00
    -1.527E+00   -1.528E+00   -1.529E+00   -1.530E+00   -1.531E+00   -1.532E+00   -1.533E+00   -1.534E+00   -1.535E+00   -1.535E+00
    -1.536E+00   -1.537E+00   -1.538E+00   -1.539E+00   -1.540E+00   -1.541E+00   -1.542E+00   -1.543E+00   -1.544E+00   -1.545E+00
    -1.546E+00   -1.547E+00   -1.548E+00   -1.549E+00   -1.550E+00   -1.551E+00   -1.552E+00   -1.553E+00   -1.554E+00   -1.555E+00
    -1.556E+00   -1.557E+00   -1.558E+00   -1.559E+00   -1.560E+00   -1.561E+00   -1.562E+00   -1.563E+00   -1.564E+00   -1.565E+00
    -1.566E+00   -1.567E+00   -1.568E+00   -1.569E+00   -1.570E+00   -1.571E+00   -1.572E+00   -1.573E+00   -1.574E+00   -1.576E+00
    -1.577E+00   -1.578E+00   -1.579E+00   -1.580E+00   -1.581E+00   -1.582E+00   -1.583E+00   -1.584E+00   -1.585E+00   -1.586E+00
    -1.588E+00   -1.589E+00   -1.590E+00   -1.591E+00   -1.592E+00   -1.593E+00   -1.594E+00   -1.595E+00   -1.597E+00   -1.598E+00
    -1.599E+00   -1.600E+00   -1.601E+00   -1.602E+00   -1.603E+00   -1.605E+00   -1.606E+00   -1.607E+00   -1.608E+00   -1.609E+00
    -1.610E+00   -1.612E+00   -1.613E+00   -1.614E+00   -1.615E+00   -1.616E+00   -1.617E+00   -1.619E+00   -1.620E+00   -1.621E+00
    -1.622E+00   -1.623E+00   -1.625E+00   -1.626E+00   -1.627E+00   -1.628E+00   -1.630E+00   -1.631E+00   -1.632E+00   -1.633E+00
    -1.634E+00   -1.636E+00   -1.637E+00   -1.638E+00   -1.639E+00   -1.641E+00   -1.642E+00   -1.643E+00   -1.644E+00   -1.646E+00
    -1.647E+00   -1.648E+00   -1.649E+00   -1.651E+00   -1.652E+00   -1.653E+00   -1.654E+00   -1.656E+00   -1.657E+00   -1.658E+00
    -1.659E+00   -1.661E+00   -1.662E+00   -1.663E+00   -1.665E+00   -1.666E+00   -1.667E+00   -1.668E+00   -1.670E+00   -1.671E+00
    -1.672E+00   -1.674E+00   -1.675E+00   -1.676E+00   -1.678E+00   -1.679E+00   -1.680E+00   -1.681E+00   -1.683E+00   -1.684E+00
    -1.685E+00   -1.687E+00   -1.688E+00   -1.689E+00   -1.691E+00   -1.692E+00   -1.693E+00   -1.695E+00   -1.696E+00   -1.697E+00
    -1.699E+00   -1.700E+00   -1.701E+00   -1.703E+00   -1.704E+00   -1.705E+00   -1.707E+00   -1.708E+00   -1.709E+00   -1.711E+00
    -1.712E+00   -1.713E+00   -1.715E+00   -1.716E+00   -1.718E+00   -1.719E+00   -1.720E+00   -1.722E+00   -1.723E+00   -1.724E+00
    -1.726E+00   -1.727E+00   -1.728E+00   -1.730E+00   -1.731E+00   -1.733E+00   -1.734E+00   -1.735E+00   -1.737E+00   -1.738E+00
    -1.739E+00   -1.741E+00   -1.742E+00   -1.744E+00   -1.745E+00   -1.746E+00   -1.748E+00   -1.749E+00   -1.750E+00   -1.752E+00
    -1.753E+00   -1.755E+00   -1.756E+00   -1.757E+00   -1.759E+00   -1.760E+00   -1.762E+00   -1.763E+00   -1.764E+00   -1.766E+00
    -1.767E+00   -1.768E+00   -1.770E+00   -1.771E+00   -1.773E+00   -1.774E+00   -1.775E+00   -1.777E+00   -1.778E+00   -1.780E+00
    -1.781E+00   -1.782E+00   -1.784E+00   -1.785E+00   -1.787E+00   -1.788E+00   -1.789E+00   -1.791E+00   -1.792E+00   -1.794E+00
    -1.795E+00   -1.796E+00   -1.798E+00   -1.799E+00   -1.801E+00   -1.802E+00   -1.803E+00   -1.805E+00
 Ala      Conc. = 3.50E+03
