 LCModel (Version 6.3-1L) Copyright: S.W. Provencher.          Ref.: Magn. Reson. Med. 30:672-679 (1993).                
 Slice#3 Row#6 Col#9  K_02_press_1_raw_act
 36 lines in following concentration table = NCONC+1
    Conc.  %SD /Cr+PCr  Metabolite                                         
  223.426  52% 9.3E-02 Ala                                                 
    0.000 999%   0.000 Asp                                                 
 1.03E+03  22%   0.427 Cr                                                  
 1.38E+03  17%   0.573 PCr                                                 
    0.000 999%   0.000 GABA                                                
    0.000 999%   0.000 Glc                                                 
  639.178  37%   0.266 Gln                                                 
 2.38E+03  11%   0.990 Glu                                                 
  823.164   3%   0.343 GPC                                                 
    0.000 999%   0.000 PCh                                                 
  673.827  12%   0.280 GSH                                                 
 1.80E+03  15%   0.749 Ins                                                 
    6.339 999% 2.6E-03 Lac                                                 
 2.75E+03   5%   1.147 NAA                                                 
  491.056  24%   0.204 NAAG                                                
   13.995 218% 5.8E-03 Scyllo                                              
    0.000 999%   0.000 Tau                                                 
    0.000 999%   0.000 -CrCH2                                              
  823.164   3%   0.343 GPC+PCh                                             
 3.25E+03   3%   1.351 NAA+NAAG                                            
 2.40E+03   3%   1.000 Cr+PCr                                              
 3.02E+03  12%   1.256 Glu+Gln                                             
 2.02E+03  32%   0.841 Lip13a                                              
    0.000 999%   0.000 Lip13b                                              
  317.279  95%   0.132 Lip09                                               
 1.86E+03  20%   0.775 MM09                                                
  278.965  73%   0.116 Lip20                                               
 3.36E+03  15%   1.400 MM20                                                
  731.798  38%   0.305 MM12                                                
 3.45E+03  16%   1.435 MM14                                                
 1.96E+03  21%   0.814 MM17                                                
 2.02E+03  32%   0.841 Lip13a+Lip13b                                       
 6.20E+03  10%   2.580 MM14+Lip13a+Lip13b+MM12                             
 2.18E+03  12%   0.907 MM09+Lip09                                          
 3.64E+03  13%   1.516 MM20+Lip20                                          
   6 lines in following misc. output table
  FWHM = 0.038 ppm    S/N =  14                                            
  Data shift = 0.015 ppm                                                   
  Ph:  -6 deg      -0.6 deg/ppm                                            
  alphaB,S = 3.5E+00,   8.2E+01                                            
   14 spline knots.   Ns = 6(1)                                            
  ( 7) 2 infls.   ( 3) 1 extrs.                                            
  498 points on ppm-axis = NY
      4.000000     3.992357     3.984714     3.977070     3.969427     3.961784     3.954141     3.946497     3.938854     3.931211
      3.923568     3.915925     3.908281     3.900638     3.892995     3.885352     3.877708     3.870065     3.862422     3.854779
      3.847136     3.839492     3.831849     3.824206     3.816563     3.808919     3.801276     3.793633     3.785990     3.778347
      3.770703     3.763060     3.755417     3.747774     3.740130     3.732487     3.724844     3.717201     3.709558     3.701914
      3.694271     3.686628     3.678985     3.671341     3.663698     3.656055     3.648412     3.640769     3.633125     3.625482
      3.617839     3.610196     3.602552     3.594909     3.587266     3.579623     3.571980     3.564336     3.556693     3.549050
      3.541407     3.533763     3.526120     3.518477     3.510834     3.503191     3.495547     3.487904     3.480261     3.472618
      3.464974     3.457331     3.449688     3.442045     3.434402     3.426758     3.419115     3.411472     3.403829     3.396185
      3.388542     3.380899     3.373256     3.365613     3.357969     3.350326     3.342683     3.335040     3.327396     3.319753
      3.312110     3.304467     3.296824     3.289180     3.281537     3.273894     3.266251     3.258607     3.250964     3.243321
      3.235678     3.228034     3.220391     3.212748     3.205105     3.197462     3.189818     3.182175     3.174532     3.166889
      3.159245     3.151602     3.143959     3.136316     3.128673     3.121029     3.113386     3.105743     3.098100     3.090456
      3.082813     3.075170     3.067527     3.059884     3.052240     3.044597     3.036954     3.029311     3.021667     3.014024
      3.006381     2.998738     2.991095     2.983451     2.975808     2.968165     2.960522     2.952878     2.945235     2.937592
      2.929949     2.922306     2.914662     2.907019     2.899376     2.891733     2.884089     2.876446     2.868803     2.861160
      2.853517     2.845873     2.838230     2.830587     2.822944     2.815300     2.807657     2.800014     2.792371     2.784728
      2.777084     2.769441     2.761798     2.754155     2.746511     2.738868     2.731225     2.723582     2.715939     2.708295
      2.700652     2.693009     2.685366     2.677722     2.670079     2.662436     2.654793     2.647150     2.639506     2.631863
      2.624220     2.616577     2.608933     2.601290     2.593647     2.586004     2.578361     2.570717     2.563074     2.555431
      2.547788     2.540144     2.532501     2.524858     2.517215     2.509572     2.501928     2.494285     2.486642     2.478999
      2.471355     2.463712     2.456069     2.448426     2.440783     2.433139     2.425496     2.417853     2.410210     2.402566
      2.394923     2.387280     2.379637     2.371994     2.364350     2.356707     2.349064     2.341421     2.333777     2.326134
      2.318491     2.310848     2.303205     2.295561     2.287918     2.280275     2.272632     2.264988     2.257345     2.249702
      2.242059     2.234416     2.226772     2.219129     2.211486     2.203843     2.196199     2.188556     2.180913     2.173270
      2.165627     2.157983     2.150340     2.142697     2.135054     2.127410     2.119767     2.112124     2.104481     2.096838
      2.089194     2.081551     2.073908     2.066265     2.058621     2.050978     2.043335     2.035692     2.028049     2.020405
      2.012762     2.005119     1.997476     1.989833     1.982190     1.974546     1.966903     1.959260     1.951617     1.943974
      1.936331     1.928688     1.921045     1.913402     1.905759     1.898115     1.890472     1.882829     1.875186     1.867543
      1.859900     1.852257     1.844614     1.836971     1.829327     1.821684     1.814041     1.806398     1.798755     1.791112
      1.783469     1.775826     1.768183     1.760540     1.752896     1.745253     1.737610     1.729967     1.722324     1.714681
      1.707038     1.699395     1.691752     1.684108     1.676465     1.668822     1.661179     1.653536     1.645893     1.638250
      1.630607     1.622964     1.615321     1.607677     1.600034     1.592391     1.584748     1.577105     1.569462     1.561819
      1.554176     1.546533     1.538890     1.531246     1.523603     1.515960     1.508317     1.500674     1.493031     1.485388
      1.477745     1.470102     1.462458     1.454815     1.447172     1.439529     1.431886     1.424243     1.416600     1.408957
      1.401314     1.393671     1.386027     1.378384     1.370741     1.363098     1.355455     1.347812     1.340169     1.332526
      1.324883     1.317240     1.309596     1.301953     1.294310     1.286667     1.279024     1.271381     1.263738     1.256095
      1.248452     1.240808     1.233165     1.225522     1.217879     1.210236     1.202593     1.194950     1.187307     1.179664
      1.172021     1.164377     1.156734     1.149091     1.141448     1.133805     1.126162     1.118519     1.110876     1.103233
      1.095590     1.087946     1.080303     1.072660     1.065017     1.057374     1.049731     1.042088     1.034445     1.026802
      1.019158     1.011515     1.003872     0.996229     0.988586     0.980943     0.973300     0.965657     0.958014     0.950371
      0.942727     0.935084     0.927441     0.919798     0.912155     0.904512     0.896869     0.889226     0.881583     0.873940
      0.866296     0.858653     0.851010     0.843367     0.835724     0.828081     0.820438     0.812795     0.805152     0.797508
      0.789865     0.782222     0.774579     0.766936     0.759293     0.751650     0.744007     0.736364     0.728721     0.721077
      0.713434     0.705791     0.698148     0.690505     0.682862     0.675219     0.667576     0.659933     0.652290     0.644646
      0.637003     0.629360     0.621717     0.614074     0.606431     0.598788     0.591145     0.583502     0.575858     0.568215
      0.560572     0.552929     0.545286     0.537643     0.530000     0.522357     0.514714     0.507071     0.499427     0.491784
      0.484141     0.476498     0.468855     0.461212     0.453569     0.445925     0.438282     0.430639     0.422996     0.415353
      0.407710     0.400067     0.392424     0.384780     0.377137     0.369494     0.361851     0.354208     0.346565     0.338922
      0.331278     0.323635     0.315992     0.308349     0.300706     0.293063     0.285420     0.277777     0.270133     0.262490
      0.254847     0.247204     0.239561     0.231918     0.224275     0.216631     0.208988     0.201345
 NY phased data points follow
   1.29298E+01  1.03398E+01  1.35917E+01  1.20615E+01  1.94618E+01  2.45260E+01  3.65715E+01  4.80317E+01  5.33592E+01  6.95272E+01
   6.93036E+01  7.50861E+01  6.67085E+01  4.95867E+01  4.71004E+01  3.99047E+01  2.20994E+01  1.77382E+01  1.44903E+01  1.12516E+01
   1.23069E+01  1.37672E+01  6.51251E+00  1.03987E+01  1.11655E+01  1.43176E+01  2.21803E+01  1.82446E+01  2.00056E+01  2.01006E+01
   2.69513E+01  2.84172E+01  2.58741E+01  2.28619E+01  2.29388E+01  1.84265E+01  1.28272E+01  1.33823E+01  1.43513E+01  1.53706E+01
   1.31706E+01  1.56503E+01  1.22627E+01  1.34333E+01  1.49703E+01  2.12638E+01  2.80318E+01  3.00986E+01  2.64200E+01  2.82240E+01
   1.95219E+01  1.70520E+01  1.67525E+01  1.56897E+01  9.86762E+00  1.31901E+01  1.03120E+01  1.41213E+01  1.46769E+01  1.04828E+01
   1.21889E+01  1.08529E+01  3.04205E+00  3.24265E-01 -3.74549E+00  2.43792E-01 -7.66290E+00 -5.45789E+00 -4.99118E+00 -4.15498E+00
   2.97748E+00 -2.96983E+00 -1.83745E+00  1.47811E+00 -8.78816E-01 -1.23517E+00  5.53240E+00  1.50730E+00 -6.33887E-01 -2.57968E+00
   2.19411E+00  2.93892E+00  3.08730E+00  2.46157E-01 -2.16007E-01  4.48289E+00  1.66201E+00  6.88847E-01 -3.41336E+00 -7.83992E-01
   1.66565E+00  2.82248E+00  5.47144E+00  4.08072E+00  4.93876E+00  1.09314E+01  4.73505E+00  1.31436E+01  1.67849E+01  2.71097E+01
   4.31529E+01  6.05409E+01  8.41719E+01  8.90196E+01  8.12840E+01  7.13566E+01  5.12070E+01  3.36648E+01  2.61325E+01  1.62886E+01
   1.06718E+01  4.46391E+00  3.94641E+00  1.54275E+00  5.22507E+00  1.60293E+00  3.58008E+00  4.78907E+00  5.99091E+00  5.54161E+00
   5.76993E+00  1.10963E+01  9.37254E+00  2.26504E+01  3.32962E+01  5.50197E+01  7.50862E+01  9.18419E+01  9.05138E+01  7.87001E+01
   5.71371E+01  4.13370E+01  3.09871E+01  2.25201E+01  1.24398E+01  9.40863E+00  6.50604E+00  6.98728E+00  4.16996E+00  5.18497E+00
   4.21859E+00  2.29987E+00  4.12868E+00 -5.59646E-01 -3.32994E+00 -7.66332E-01  3.94550E+00  2.42221E+00  4.32258E+00  4.88772E+00
  -4.83703E-01  1.88166E+00 -1.79999E+00 -2.46255E-01 -2.45340E-01 -1.50382E+00 -3.56930E+00 -1.32894E+00  5.25733E+00  9.43381E-01
  -2.21179E+00 -2.91855E+00 -7.21929E+00 -1.29531E+00 -6.49442E+00  5.23919E+00 -7.57433E-01 -2.08989E-01 -4.81609E+00 -4.56119E-01
  -4.22395E+00 -7.00492E+00 -2.46226E+00 -8.57397E+00 -1.76077E+01 -1.31292E+01 -1.89621E+01 -9.73196E+00 -1.04362E+01 -8.48835E+00
  -1.77609E+01 -1.64102E+01 -1.31627E+01 -1.63227E+01 -1.28566E+01 -1.37540E+01 -1.09017E+01 -1.02486E+01  1.64661E+00  1.56524E+00
   5.60650E+00  7.76575E+00  7.72577E+00  1.09476E+01  1.34867E+01  7.33685E+00  1.28567E+01  6.22892E+00  1.09744E+00 -2.06674E+00
   4.22914E-01  4.94872E+00  2.73850E+00  7.11993E+00  6.82014E+00  4.87337E-01 -1.33043E+00 -3.43031E+00 -7.55397E+00 -6.37431E+00
  -6.41096E+00 -3.77572E+00 -2.42573E+00 -6.10519E-01  1.05326E+01  1.92215E+01  1.95417E+01  1.76550E+01  1.36523E+01  8.97154E+00
  -4.59989E+00 -7.97168E+00 -1.14344E+01 -5.55969E+00  7.74113E-01  6.11451E+00  8.90450E+00  7.76527E+00  1.59366E+01  1.16643E+01
   1.29052E+01  1.35893E+01  9.81347E+00  7.25189E+00  6.41581E+00  8.77533E+00  1.03085E+01  1.22554E+01  7.56438E+00  6.11028E+00
   3.43524E+00  2.36247E+00  3.65945E+00  4.54592E+00  1.26297E+01  7.92522E+00  1.53287E+01  1.42142E+01  1.66719E+01  1.77158E+01
   2.03601E+01  1.68946E+01  2.09086E+01  3.03565E+01  4.48691E+01  5.02568E+01  4.62830E+01  5.56686E+01  8.35871E+01  1.20556E+02
   1.32648E+02  1.24876E+02  1.12693E+02  7.81194E+01  5.54963E+01  3.55643E+01  2.55749E+01  1.82407E+01  1.18264E+01  1.71114E+01
   1.71425E+01  1.47425E+01  1.23817E+01  1.78336E+01  1.56614E+01  1.05349E+01  1.10983E+01  1.00052E+01  8.45125E+00  8.67954E+00
   1.13139E+01  6.34011E+00  8.89439E+00  1.10243E+01  7.62298E+00  1.10149E+01  5.57872E+00  1.61311E+01  1.29834E+01  1.20162E+01
   1.12173E+01  1.50815E+01  1.49435E+01  1.30495E+01  1.36485E+01  1.05960E+01  1.21293E+01  1.03277E+01  9.51104E+00  1.35417E+01
   1.19202E+01  1.51629E+01  1.14041E+01  1.44960E+01  1.93661E+01  1.98282E+01  1.71043E+01  1.81120E+01  1.85512E+01  1.61975E+01
   1.76788E+01  1.52646E+01  1.44749E+01  8.93881E+00  1.29459E+01  2.21172E+01  1.83521E+01  2.26152E+01  2.11364E+01  2.34010E+01
   2.07768E+01  1.74062E+01  2.76540E+01  3.29710E+01  2.37304E+01  2.65729E+01  3.15786E+01  2.63134E+01  2.47057E+01  2.66023E+01
   2.42435E+01  1.92061E+01  1.96472E+01  2.11728E+01  1.88382E+01  2.07424E+01  1.58595E+01  1.82816E+01  1.55580E+01  2.05715E+01
   1.79209E+01  1.71404E+01  2.03175E+01  1.96243E+01  2.56323E+01  2.30258E+01  1.45692E+01  1.23491E+01  1.50985E+01  1.33643E+01
   1.63376E+01  1.35322E+01  2.15183E+01  1.88133E+01  1.66814E+01  1.98851E+01  1.85769E+01  1.88348E+01  1.54451E+01  1.18951E+01
   1.66515E+01  1.70070E+01  1.60298E+01  1.63941E+01  1.52839E+01  2.09066E+01  1.84802E+01  1.81725E+01  1.96199E+01  1.48346E+01
   1.40810E+01  1.09445E+01  1.93270E+01  1.34926E+01  1.06704E+01  1.41450E+01  7.28196E+00  1.10648E+01  9.69289E+00  8.74636E+00
   1.36211E+01  2.03290E+01  1.95999E+01  1.12271E+01  1.37815E+01  1.71495E+01  1.30411E+01  1.12117E+01  1.14507E+01  1.05928E+01
   1.65676E+01  1.43633E+01  1.19384E+01  1.75345E+01  1.18671E+01  1.24352E+01  1.75339E+01  1.72507E+01  1.60518E+01  1.90101E+01
   2.05365E+01  1.42870E+01  2.13818E+01  1.89863E+01  1.65308E+01  1.61590E+01  2.00754E+01  1.99025E+01  1.75656E+01  1.64583E+01
   1.35572E+01  1.44304E+01  1.74208E+01  1.58988E+01  1.54258E+01  1.83748E+01  1.58799E+01  1.32731E+01  1.40390E+01  1.18965E+01
   1.21949E+01  1.48888E+01  1.42237E+01  1.14957E+01  1.68670E+01  1.01096E+01  1.03677E+01  6.04708E+00  7.14883E+00  1.52203E+01
   5.92272E+00  1.18901E+01  8.12338E+00  4.30069E+00  6.73734E+00  4.63227E+00  1.06855E+01  8.46251E+00  1.02770E+01  6.17881E+00
   7.13911E+00  7.73722E+00  1.07741E+01  9.01927E+00  1.44519E+01  1.05025E+01  7.98169E+00  6.73748E+00  9.21448E+00  4.78552E+00
   1.08858E+01  5.06496E+00  7.84430E+00  1.05628E+01  2.88110E+00  5.35181E+00  8.38189E+00  5.06749E+00  5.38325E+00  4.39506E+00
   8.63169E+00  4.55743E+00  5.48800E+00  5.05802E+00  7.12716E+00  6.71679E+00  5.57116E+00  9.79993E+00  8.16942E+00  5.73863E+00
   6.47181E+00  6.90173E+00  6.51252E+00  7.42328E+00  6.36989E+00  5.95725E+00  5.27921E+00  4.31659E+00  6.25719E+00  4.15658E+00
   8.94589E+00  6.19580E+00  7.59848E+00  9.20471E+00  7.18404E+00  6.37722E+00  8.18663E+00  6.45144E+00  4.85484E+00  6.85070E+00
   8.17814E+00  3.65200E+00  7.26481E+00  1.01584E+01  4.58978E+00  3.96897E+00  6.24477E+00  6.76597E+00
 NY points of the fit to the data follow
   1.22915E+01  1.20905E+01  1.26147E+01  1.43861E+01  1.77944E+01  2.23747E+01  2.95592E+01  3.97003E+01  5.18471E+01  6.29434E+01
   6.91227E+01  6.81477E+01  6.06027E+01  4.97404E+01  3.90129E+01  3.01313E+01  2.32825E+01  1.83391E+01  1.51471E+01  1.31831E+01
   1.24298E+01  1.20334E+01  1.14979E+01  1.12462E+01  1.15711E+01  1.15623E+01  1.18586E+01  1.39997E+01  1.82363E+01  2.29631E+01
   2.64062E+01  2.79530E+01  2.73100E+01  2.47076E+01  2.10942E+01  1.71070E+01  1.31966E+01  1.02781E+01  8.97261E+00  8.67064E+00
   9.14489E+00  1.03869E+01  1.19961E+01  1.36570E+01  1.58982E+01  1.91444E+01  2.24881E+01  2.43135E+01  2.37199E+01  2.08329E+01
   1.67271E+01  1.27773E+01  9.74989E+00  7.77635E+00  6.70218E+00  6.38401E+00  6.82829E+00  7.83452E+00  9.15772E+00  1.03424E+01
   1.08579E+01  1.04066E+01  9.04986E+00  7.27883E+00  5.71367E+00  4.76826E+00  4.56939E+00  4.90286E+00  5.54678E+00  6.35746E+00
   7.22234E+00  7.87001E+00  8.07713E+00  7.83071E+00  7.26353E+00  6.59856E+00  6.02695E+00  5.61580E+00  5.30933E+00  5.04666E+00
   4.86123E+00  4.61856E+00  4.29818E+00  3.90068E+00  3.30739E+00  2.31296E+00  9.51608E-01 -3.68417E-01 -1.14648E+00 -1.13291E+00
  -3.41410E-01  9.49450E-01  2.35822E+00  3.71308E+00  4.96384E+00  6.06514E+00  7.74555E+00  1.21775E+01  1.78648E+01  2.58380E+01
   4.12429E+01  6.34809E+01  8.36382E+01  9.20012E+01  8.62118E+01  7.04965E+01  5.14577E+01  3.50125E+01  2.32005E+01  1.43879E+01
   7.39415E+00  3.87146E+00  3.01157E+00  2.81481E+00  2.80621E+00  2.88825E+00  3.02501E+00  3.19715E+00  3.45547E+00  3.95711E+00
   5.20439E+00  9.19303E+00  1.58888E+01  2.34635E+01  3.64783E+01  5.74661E+01  8.01954E+01  9.40561E+01  9.34639E+01  8.07915E+01
   6.24458E+01  4.50340E+01  3.17839E+01  2.14948E+01  1.21112E+01  5.00368E+00  1.76676E+00  6.00388E-01  8.54846E-01  2.02675E+00
   3.42407E+00  4.51939E+00  5.04766E+00  4.95531E+00  4.43907E+00  3.77717E+00  3.13818E+00  2.59033E+00  2.08239E+00  1.61330E+00
   1.21591E+00  8.11109E-01  4.12848E-01  1.23678E-01  7.17022E-03 -2.77159E-02  7.23899E-02  1.16826E-01 -2.73195E-01 -1.09504E+00
  -2.07998E+00 -2.59374E+00 -2.27726E+00 -1.47657E+00 -9.16918E-01 -1.07984E+00 -1.88348E+00 -2.89215E+00 -3.71240E+00 -4.27249E+00
  -4.65626E+00 -4.98613E+00 -5.35019E+00 -5.98634E+00 -6.88108E+00 -7.56936E+00 -7.45943E+00 -6.69374E+00 -6.03889E+00 -5.98321E+00
  -6.33451E+00 -6.62726E+00 -6.42754E+00 -5.93636E+00 -5.68291E+00 -5.54675E+00 -4.77671E+00 -2.95902E+00 -2.81969E-01  2.52149E+00
   4.62071E+00  5.48998E+00  5.00652E+00  3.80416E+00  2.34890E+00  7.85533E-01 -4.82946E-01 -9.22994E-01 -2.66231E-01  1.20920E+00
   3.22252E+00  5.41959E+00  7.39631E+00  8.69276E+00  8.66948E+00  7.37952E+00  4.74674E+00  1.03713E+00 -2.60346E+00 -5.04319E+00
  -5.53998E+00 -4.40287E+00 -1.52074E+00  3.41314E+00  9.31569E+00  1.38629E+01  1.50377E+01  1.26182E+01  7.62263E+00  1.32452E+00
  -5.20904E+00 -1.03486E+01 -1.23357E+01 -1.05887E+01 -5.82638E+00 -4.36071E-02  4.96419E+00  8.42101E+00  1.01668E+01  1.04341E+01
   9.64544E+00  8.67662E+00  8.29832E+00  8.69895E+00  9.72949E+00  1.11600E+01  1.23994E+01  1.27394E+01  1.21443E+01  1.07024E+01
   8.62773E+00  6.64111E+00  5.81550E+00  6.57924E+00  8.45290E+00  1.07914E+01  1.29594E+01  1.44160E+01  1.49910E+01  1.53803E+01
   1.62400E+01  1.75070E+01  2.02944E+01  2.57835E+01  3.57547E+01  4.64090E+01  5.40009E+01  6.67747E+01  8.97668E+01  1.15232E+02
   1.29439E+02  1.25836E+02  1.07622E+02  8.28252E+01  6.01909E+01  4.37499E+01  3.16397E+01  2.11249E+01  1.43385E+01  1.20961E+01
   1.09715E+01  1.02992E+01  1.00715E+01  1.01036E+01  1.01039E+01  9.98083E+00  9.73911E+00  9.42955E+00  9.10209E+00  8.81937E+00
   8.61836E+00  8.53309E+00  8.57886E+00  8.72566E+00  8.91270E+00  9.10688E+00  9.31273E+00  9.54634E+00  9.82226E+00  1.01518E+01
   1.05531E+01  1.10219E+01  1.15210E+01  1.20154E+01  1.24857E+01  1.29153E+01  1.32968E+01  1.36357E+01  1.39418E+01  1.42268E+01
   1.44959E+01  1.47446E+01  1.49657E+01  1.51543E+01  1.53137E+01  1.54524E+01  1.55786E+01  1.57028E+01  1.58427E+01  1.60130E+01
   1.62248E+01  1.64867E+01  1.68057E+01  1.71869E+01  1.76340E+01  1.81471E+01  1.87224E+01  1.93532E+01  2.00329E+01  2.07574E+01
   2.15318E+01  2.23870E+01  2.32839E+01  2.40816E+01  2.49197E+01  2.57632E+01  2.62106E+01  2.58621E+01  2.47201E+01  2.31981E+01
   2.18220E+01  2.07101E+01  1.99378E+01  1.97065E+01  2.01178E+01  2.09870E+01  2.18624E+01  2.22655E+01  2.20853E+01  2.14737E+01
   2.07024E+01  1.99574E+01  1.92396E+01  1.85362E+01  1.79922E+01  1.76088E+01  1.73260E+01  1.71130E+01  1.69606E+01  1.68715E+01
   1.68413E+01  1.68609E+01  1.69249E+01  1.70251E+01  1.71446E+01  1.72608E+01  1.73500E+01  1.73955E+01  1.73930E+01  1.73443E+01
   1.72517E+01  1.71136E+01  1.69282E+01  1.67001E+01  1.64344E+01  1.61340E+01  1.58031E+01  1.54466E+01  1.50709E+01  1.46834E+01
   1.42917E+01  1.39028E+01  1.35232E+01  1.31591E+01  1.28168E+01  1.25028E+01  1.22228E+01  1.19813E+01  1.17819E+01  1.16282E+01
   1.15240E+01  1.14725E+01  1.14761E+01  1.15360E+01  1.16529E+01  1.18275E+01  1.20601E+01  1.23499E+01  1.26948E+01  1.30910E+01
   1.35338E+01  1.40180E+01  1.45369E+01  1.50824E+01  1.56441E+01  1.62108E+01  1.67707E+01  1.73117E+01  1.78215E+01  1.82874E+01
   1.86971E+01  1.90393E+01  1.93050E+01  1.94873E+01  1.95813E+01  1.95839E+01  1.94944E+01  1.93150E+01  1.90508E+01  1.87091E+01
   1.82982E+01  1.78276E+01  1.73078E+01  1.67501E+01  1.61663E+01  1.55673E+01  1.49632E+01  1.43624E+01  1.37730E+01  1.32018E+01
   1.26546E+01  1.21355E+01  1.16468E+01  1.11900E+01  1.07658E+01  1.03746E+01  1.00160E+01  9.68846E+00  9.39001E+00  9.11862E+00
   8.87264E+00  8.65047E+00  8.45015E+00  8.26937E+00  8.10593E+00  7.95813E+00  7.82480E+00  7.70480E+00  7.59663E+00  7.49871E+00
   7.40977E+00  7.32911E+00  7.25631E+00  7.19072E+00  7.13137E+00  7.07728E+00  7.02793E+00  6.98323E+00  6.94306E+00  6.90698E+00
   6.87425E+00  6.84434E+00  6.81718E+00  6.79293E+00  6.77154E+00  6.75255E+00  6.73542E+00  6.71993E+00  6.70625E+00  6.69458E+00
   6.68478E+00  6.67636E+00  6.66895E+00  6.66262E+00  6.65764E+00  6.65415E+00  6.65185E+00  6.65030E+00  6.64933E+00  6.64917E+00
   6.65012E+00  6.65214E+00  6.65486E+00  6.65794E+00  6.66143E+00  6.66565E+00  6.67079E+00  6.67666E+00  6.68285E+00  6.68918E+00
   6.69586E+00  6.70322E+00  6.71131E+00  6.71979E+00  6.72833E+00  6.73694E+00  6.74593E+00  6.75554E+00  6.76564E+00  6.77585E+00
   6.78595E+00  6.79612E+00  6.80670E+00  6.81778E+00  6.82908E+00  6.84024E+00  6.85120E+00  6.86227E+00
 NY background values follow
     4.712E+00    4.661E+00    4.610E+00    4.559E+00    4.509E+00    4.458E+00    4.407E+00    4.356E+00    4.305E+00    4.254E+00
     4.203E+00    4.152E+00    4.102E+00    4.051E+00    4.000E+00    3.949E+00    3.898E+00    3.847E+00    3.796E+00    3.746E+00
     3.695E+00    3.644E+00    3.594E+00    3.543E+00    3.492E+00    3.442E+00    3.391E+00    3.341E+00    3.291E+00    3.241E+00
     3.190E+00    3.140E+00    3.090E+00    3.040E+00    2.990E+00    2.941E+00    2.891E+00    2.841E+00    2.792E+00    2.743E+00
     2.693E+00    2.644E+00    2.595E+00    2.546E+00    2.498E+00    2.449E+00    2.401E+00    2.352E+00    2.304E+00    2.256E+00
     2.208E+00    2.160E+00    2.113E+00    2.065E+00    2.018E+00    1.971E+00    1.924E+00    1.878E+00    1.831E+00    1.785E+00
     1.739E+00    1.693E+00    1.648E+00    1.602E+00    1.557E+00    1.512E+00    1.468E+00    1.423E+00    1.379E+00    1.335E+00
     1.292E+00    1.248E+00    1.205E+00    1.163E+00    1.120E+00    1.078E+00    1.036E+00    9.944E-01    9.531E-01    9.121E-01
     8.714E-01    8.311E-01    7.911E-01    7.514E-01    7.121E-01    6.731E-01    6.345E-01    5.962E-01    5.583E-01    5.208E-01
     4.836E-01    4.469E-01    4.105E-01    3.744E-01    3.388E-01    3.036E-01    2.687E-01    2.342E-01    2.001E-01    1.664E-01
     1.331E-01    1.001E-01    6.758E-02    3.541E-02    3.634E-03   -2.775E-02   -5.875E-02   -8.936E-02   -1.196E-01   -1.494E-01
    -1.788E-01   -2.079E-01   -2.365E-01   -2.648E-01   -2.927E-01   -3.201E-01   -3.472E-01   -3.739E-01   -4.002E-01   -4.261E-01
    -4.516E-01   -4.767E-01   -5.014E-01   -5.257E-01   -5.496E-01   -5.731E-01   -5.962E-01   -6.189E-01   -6.412E-01   -6.631E-01
    -6.846E-01   -7.056E-01   -7.263E-01   -7.466E-01   -7.665E-01   -7.860E-01   -8.051E-01   -8.237E-01   -8.420E-01   -8.598E-01
    -8.773E-01   -8.943E-01   -9.110E-01   -9.272E-01   -9.430E-01   -9.584E-01   -9.734E-01   -9.880E-01   -1.002E+00   -1.016E+00
    -1.029E+00   -1.042E+00   -1.055E+00   -1.067E+00   -1.079E+00   -1.090E+00   -1.101E+00   -1.112E+00   -1.122E+00   -1.132E+00
    -1.141E+00   -1.150E+00   -1.158E+00   -1.166E+00   -1.174E+00   -1.181E+00   -1.188E+00   -1.194E+00   -1.201E+00   -1.206E+00
    -1.211E+00   -1.216E+00   -1.221E+00   -1.225E+00   -1.228E+00   -1.231E+00   -1.234E+00   -1.236E+00   -1.238E+00   -1.240E+00
    -1.241E+00   -1.242E+00   -1.242E+00   -1.242E+00   -1.241E+00   -1.240E+00   -1.239E+00   -1.237E+00   -1.235E+00   -1.233E+00
    -1.230E+00   -1.227E+00   -1.223E+00   -1.219E+00   -1.215E+00   -1.210E+00   -1.205E+00   -1.200E+00   -1.194E+00   -1.188E+00
    -1.182E+00   -1.175E+00   -1.168E+00   -1.161E+00   -1.153E+00   -1.145E+00   -1.137E+00   -1.129E+00   -1.120E+00   -1.111E+00
    -1.101E+00   -1.091E+00   -1.081E+00   -1.071E+00   -1.061E+00   -1.050E+00   -1.039E+00   -1.027E+00   -1.016E+00   -1.004E+00
    -9.920E-01   -9.797E-01   -9.672E-01   -9.544E-01   -9.414E-01   -9.282E-01   -9.148E-01   -9.011E-01   -8.872E-01   -8.732E-01
    -8.589E-01   -8.444E-01   -8.297E-01   -8.148E-01   -7.997E-01   -7.845E-01   -7.690E-01   -7.533E-01   -7.375E-01   -7.214E-01
    -7.052E-01   -6.888E-01   -6.722E-01   -6.554E-01   -6.385E-01   -6.214E-01   -6.041E-01   -5.867E-01   -5.690E-01   -5.513E-01
    -5.333E-01   -5.152E-01   -4.970E-01   -4.786E-01   -4.600E-01   -4.413E-01   -4.224E-01   -4.034E-01   -3.843E-01   -3.650E-01
    -3.456E-01   -3.260E-01   -3.063E-01   -2.865E-01   -2.666E-01   -2.465E-01   -2.263E-01   -2.060E-01   -1.855E-01   -1.650E-01
    -1.443E-01   -1.235E-01   -1.026E-01   -8.162E-02   -6.051E-02   -3.929E-02   -1.797E-02    3.455E-03    2.498E-02    4.661E-02
     6.833E-02    9.015E-02    1.121E-01    1.341E-01    1.562E-01    1.784E-01    2.007E-01    2.230E-01    2.455E-01    2.681E-01
     2.907E-01    3.134E-01    3.362E-01    3.591E-01    3.820E-01    4.051E-01    4.282E-01    4.514E-01    4.746E-01    4.980E-01
     5.214E-01    5.448E-01    5.684E-01    5.920E-01    6.156E-01    6.394E-01    6.632E-01    6.870E-01    7.109E-01    7.349E-01
     7.589E-01    7.830E-01    8.071E-01    8.313E-01    8.556E-01    8.798E-01    9.042E-01    9.286E-01    9.530E-01    9.774E-01
     1.002E+00    1.027E+00    1.051E+00    1.076E+00    1.100E+00    1.125E+00    1.150E+00    1.175E+00    1.200E+00    1.224E+00
     1.249E+00    1.274E+00    1.299E+00    1.324E+00    1.349E+00    1.374E+00    1.400E+00    1.425E+00    1.450E+00    1.475E+00
     1.500E+00    1.526E+00    1.551E+00    1.576E+00    1.602E+00    1.627E+00    1.652E+00    1.678E+00    1.703E+00    1.729E+00
     1.754E+00    1.780E+00    1.805E+00    1.831E+00    1.856E+00    1.882E+00    1.908E+00    1.933E+00    1.959E+00    1.985E+00
     2.010E+00    2.036E+00    2.062E+00    2.087E+00    2.113E+00    2.139E+00    2.165E+00    2.190E+00    2.216E+00    2.242E+00
     2.268E+00    2.294E+00    2.319E+00    2.345E+00    2.371E+00    2.397E+00    2.423E+00    2.449E+00    2.475E+00    2.501E+00
     2.526E+00    2.552E+00    2.578E+00    2.604E+00    2.630E+00    2.656E+00    2.682E+00    2.708E+00    2.734E+00    2.760E+00
     2.786E+00    2.812E+00    2.838E+00    2.864E+00    2.890E+00    2.916E+00    2.942E+00    2.967E+00    2.993E+00    3.019E+00
     3.045E+00    3.071E+00    3.097E+00    3.123E+00    3.149E+00    3.175E+00    3.201E+00    3.227E+00    3.253E+00    3.279E+00
     3.305E+00    3.331E+00    3.357E+00    3.383E+00    3.409E+00    3.435E+00    3.461E+00    3.487E+00    3.513E+00    3.539E+00
     3.565E+00    3.591E+00    3.617E+00    3.642E+00    3.668E+00    3.694E+00    3.720E+00    3.746E+00    3.772E+00    3.798E+00
     3.824E+00    3.849E+00    3.875E+00    3.901E+00    3.927E+00    3.953E+00    3.978E+00    4.004E+00    4.030E+00    4.056E+00
     4.081E+00    4.107E+00    4.133E+00    4.158E+00    4.184E+00    4.210E+00    4.235E+00    4.261E+00    4.287E+00    4.312E+00
     4.338E+00    4.363E+00    4.389E+00    4.414E+00    4.440E+00    4.465E+00    4.491E+00    4.516E+00    4.542E+00    4.567E+00
     4.592E+00    4.618E+00    4.643E+00    4.668E+00    4.694E+00    4.719E+00    4.744E+00    4.770E+00    4.795E+00    4.820E+00
     4.845E+00    4.871E+00    4.896E+00    4.921E+00    4.946E+00    4.972E+00    4.997E+00    5.022E+00    5.047E+00    5.072E+00
     5.097E+00    5.123E+00    5.148E+00    5.173E+00    5.198E+00    5.223E+00    5.248E+00    5.273E+00    5.298E+00    5.323E+00
     5.349E+00    5.374E+00    5.399E+00    5.424E+00    5.449E+00    5.474E+00    5.499E+00    5.524E+00
 Ala      Conc. = 2.23E+02
