 LCModel (Version 6.3-1L) Copyright: S.W. Provencher.          Ref.: Magn. Reson. Med. 30:672-679 (1993).                
 Slice#2 Row#1 Col#13  K_02_press_1_raw_act
 36 lines in following concentration table = NCONC+1
    Conc.  %SD /Cr+PCr  Metabolite                                         
 8.40E+03  10%   0.000 Ala                                                 
    0.820 999%   0.000 Asp                                                 
    0.000 999%   0.000 Cr                                                  
    0.000 999%   0.000 PCr                                                 
    0.000 999%   0.000 GABA                                                
    0.000 999%   0.000 Glc                                                 
    0.000 999%   0.000 Gln                                                 
 1.37E+03  60%   0.000 Glu                                                 
    0.000 999%   0.000 GPC                                                 
    0.000 999%   0.000 PCh                                                 
  123.035  88%   0.000 GSH                                                 
    3.730 999%   0.000 Ins                                                 
 2.12E+03  35%   0.000 Lac                                                 
    0.000 999%   0.000 NAA                                                 
    0.000 999%   0.000 NAAG                                                
    0.000 999%   0.000 Scyllo                                              
    0.000 999%   0.000 Tau                                                 
    0.000 999%   0.000 -CrCH2                                              
    0.000 999%   0.000 GPC+PCh                                             
    0.000 999%   0.000 NAA+NAAG                                            
    0.000 999%   0.000 Cr+PCr                                              
 1.37E+03  60%   0.000 Glu+Gln                                             
    0.000 999%   0.000 Lip13a                                              
 1.56E+04   4%   0.000 Lip13b                                              
 3.94E+03   6%   0.000 Lip09                                               
    0.000 999%   0.000 MM09                                                
 2.15E+03   8%   0.000 Lip20                                               
    0.000 999%   0.000 MM20                                                
    0.000 999%   0.000 MM12                                                
 1.94E+03  13%   0.000+MM14                                                
  988.659  15%   0.000+MM17                                                
 1.56E+04   4%   0.000 Lip13a+Lip13b                                       
 1.75E+04   3%   0.000 MM14+Lip13a+Lip13b+MM12                             
 3.94E+03   6%   0.000 MM09+Lip09                                          
 2.15E+03   8%   0.000 MM20+Lip20                                          
   6 lines in following misc. output table
  FWHM = 0.183 ppm    S/N =  20                                            
  Data shift = 0.038 ppm                                                   
  Ph:  80 deg     -93.6 deg/ppm                                            
  alphaB,S = 9.7E+00,   3.3E+02                                            
    6 spline knots.   Ns = 9(2)                                            
  (15) 6 infls.   ( 1) 1 extrs.                                            
  498 points on ppm-axis = NY
      4.000000     3.992357     3.984714     3.977070     3.969427     3.961784     3.954141     3.946497     3.938854     3.931211
      3.923568     3.915925     3.908281     3.900638     3.892995     3.885352     3.877708     3.870065     3.862422     3.854779
      3.847136     3.839492     3.831849     3.824206     3.816563     3.808919     3.801276     3.793633     3.785990     3.778347
      3.770703     3.763060     3.755417     3.747774     3.740130     3.732487     3.724844     3.717201     3.709558     3.701914
      3.694271     3.686628     3.678985     3.671341     3.663698     3.656055     3.648412     3.640769     3.633125     3.625482
      3.617839     3.610196     3.602552     3.594909     3.587266     3.579623     3.571980     3.564336     3.556693     3.549050
      3.541407     3.533763     3.526120     3.518477     3.510834     3.503191     3.495547     3.487904     3.480261     3.472618
      3.464974     3.457331     3.449688     3.442045     3.434402     3.426758     3.419115     3.411472     3.403829     3.396185
      3.388542     3.380899     3.373256     3.365613     3.357969     3.350326     3.342683     3.335040     3.327396     3.319753
      3.312110     3.304467     3.296824     3.289180     3.281537     3.273894     3.266251     3.258607     3.250964     3.243321
      3.235678     3.228034     3.220391     3.212748     3.205105     3.197462     3.189818     3.182175     3.174532     3.166889
      3.159245     3.151602     3.143959     3.136316     3.128673     3.121029     3.113386     3.105743     3.098100     3.090456
      3.082813     3.075170     3.067527     3.059884     3.052240     3.044597     3.036954     3.029311     3.021667     3.014024
      3.006381     2.998738     2.991095     2.983451     2.975808     2.968165     2.960522     2.952878     2.945235     2.937592
      2.929949     2.922306     2.914662     2.907019     2.899376     2.891733     2.884089     2.876446     2.868803     2.861160
      2.853517     2.845873     2.838230     2.830587     2.822944     2.815300     2.807657     2.800014     2.792371     2.784728
      2.777084     2.769441     2.761798     2.754155     2.746511     2.738868     2.731225     2.723582     2.715939     2.708295
      2.700652     2.693009     2.685366     2.677722     2.670079     2.662436     2.654793     2.647150     2.639506     2.631863
      2.624220     2.616577     2.608933     2.601290     2.593647     2.586004     2.578361     2.570717     2.563074     2.555431
      2.547788     2.540144     2.532501     2.524858     2.517215     2.509572     2.501928     2.494285     2.486642     2.478999
      2.471355     2.463712     2.456069     2.448426     2.440783     2.433139     2.425496     2.417853     2.410210     2.402566
      2.394923     2.387280     2.379637     2.371994     2.364350     2.356707     2.349064     2.341421     2.333777     2.326134
      2.318491     2.310848     2.303205     2.295561     2.287918     2.280275     2.272632     2.264988     2.257345     2.249702
      2.242059     2.234416     2.226772     2.219129     2.211486     2.203843     2.196199     2.188556     2.180913     2.173270
      2.165627     2.157983     2.150340     2.142697     2.135054     2.127410     2.119767     2.112124     2.104481     2.096838
      2.089194     2.081551     2.073908     2.066265     2.058621     2.050978     2.043335     2.035692     2.028049     2.020405
      2.012762     2.005119     1.997476     1.989833     1.982190     1.974546     1.966903     1.959260     1.951617     1.943974
      1.936331     1.928688     1.921045     1.913402     1.905759     1.898115     1.890472     1.882829     1.875186     1.867543
      1.859900     1.852257     1.844614     1.836971     1.829327     1.821684     1.814041     1.806398     1.798755     1.791112
      1.783469     1.775826     1.768183     1.760540     1.752896     1.745253     1.737610     1.729967     1.722324     1.714681
      1.707038     1.699395     1.691752     1.684108     1.676465     1.668822     1.661179     1.653536     1.645893     1.638250
      1.630607     1.622964     1.615321     1.607677     1.600034     1.592391     1.584748     1.577105     1.569462     1.561819
      1.554176     1.546533     1.538890     1.531246     1.523603     1.515960     1.508317     1.500674     1.493031     1.485388
      1.477745     1.470102     1.462458     1.454815     1.447172     1.439529     1.431886     1.424243     1.416600     1.408957
      1.401314     1.393671     1.386027     1.378384     1.370741     1.363098     1.355455     1.347812     1.340169     1.332526
      1.324883     1.317240     1.309596     1.301953     1.294310     1.286667     1.279024     1.271381     1.263738     1.256095
      1.248452     1.240808     1.233165     1.225522     1.217879     1.210236     1.202593     1.194950     1.187307     1.179664
      1.172021     1.164377     1.156734     1.149091     1.141448     1.133805     1.126162     1.118519     1.110876     1.103233
      1.095590     1.087946     1.080303     1.072660     1.065017     1.057374     1.049731     1.042088     1.034445     1.026802
      1.019158     1.011515     1.003872     0.996229     0.988586     0.980943     0.973300     0.965657     0.958014     0.950371
      0.942727     0.935084     0.927441     0.919798     0.912155     0.904512     0.896869     0.889226     0.881583     0.873940
      0.866296     0.858653     0.851010     0.843367     0.835724     0.828081     0.820438     0.812795     0.805152     0.797508
      0.789865     0.782222     0.774579     0.766936     0.759293     0.751650     0.744007     0.736364     0.728721     0.721077
      0.713434     0.705791     0.698148     0.690505     0.682862     0.675219     0.667576     0.659933     0.652290     0.644646
      0.637003     0.629360     0.621717     0.614074     0.606431     0.598788     0.591145     0.583502     0.575858     0.568215
      0.560572     0.552929     0.545286     0.537643     0.530000     0.522357     0.514714     0.507071     0.499427     0.491784
      0.484141     0.476498     0.468855     0.461212     0.453569     0.445925     0.438282     0.430639     0.422996     0.415353
      0.407710     0.400067     0.392424     0.384780     0.377137     0.369494     0.361851     0.354208     0.346565     0.338922
      0.331278     0.323635     0.315992     0.308349     0.300706     0.293063     0.285420     0.277777     0.270133     0.262490
      0.254847     0.247204     0.239561     0.231918     0.224275     0.216631     0.208988     0.201345
 NY phased data points follow
  -5.98287E+00 -7.00509E+00 -5.15784E+00 -4.45109E+00 -4.86321E+00 -5.55848E+00 -6.33161E+00 -2.39797E+00 -2.27576E+00 -2.00820E-01
  -3.97439E+00  1.68253E+00 -3.65504E+00 -1.08624E+00  5.36026E-01 -5.11862E+00  7.15854E-01 -3.63178E+00 -1.77652E+00 -1.57226E+00
  -4.75027E+00 -1.67162E+00 -1.98162E+00 -4.88118E+00 -5.77371E+00 -1.88035E+00 -2.91038E+00 -2.30061E+00 -2.01181E+00 -1.44724E+00
  -3.02443E+00 -2.33684E-01 -4.43291E+00 -3.42938E+00 -9.82416E-01 -3.65797E+00 -4.90999E-01 -3.75990E-01 -1.53875E+00 -4.63764E+00
  -1.03217E-01  6.85817E-01  1.58412E+00 -3.34884E+00 -6.03237E+00 -3.15586E+00 -1.32831E+00 -3.12279E+00 -5.47454E-01  1.71473E+00
  -1.45426E+00 -2.84270E+00 -1.37674E+00 -3.41390E-01 -4.06490E+00 -3.47957E+00  1.36435E-01  7.68377E-01 -1.51110E+00  4.11479E-01
   2.69020E+00 -1.54790E+00 -1.31163E+00  8.91461E-01  3.31353E+00 -1.32845E+00 -1.04985E+00 -5.18916E-01  1.19914E+00 -2.80101E+00
   8.33990E-01 -1.73279E+00  2.61820E+00 -1.11762E+00 -7.19426E-01 -2.12449E+00  1.23520E+00 -6.57054E-01 -5.67075E-01 -8.17954E-01
   1.12821E+00  2.73724E-01 -1.63777E+00 -2.80031E+00  6.37891E-01  7.87841E-01  2.92150E+00  2.16790E+00  1.85492E+00  2.45317E-01
   2.41134E+00  2.53194E+00  4.66250E-02  4.21775E-02  1.40237E+00  3.43343E+00 -6.62553E-01  2.43641E+00  1.49222E+00 -6.69238E-02
   3.78482E-01 -7.87016E-01  6.68394E-01  4.86577E+00  3.58081E+00  2.41873E+00  4.39842E+00  4.93583E+00  1.03971E+00  2.64008E+00
   2.51645E+00  4.56528E+00  2.75503E+00  1.63782E+00  6.18802E+00  2.64441E+00  1.25891E+00  1.52569E+00  5.73460E+00  4.66747E+00
   3.80405E+00  3.53809E+00  3.43094E+00  7.27088E+00  4.56220E+00  6.02272E+00  5.99146E+00  5.15510E+00  5.36451E+00  5.12848E+00
   5.78552E+00  5.64734E+00  4.46801E+00  5.79325E+00  4.78932E+00  5.96708E+00  8.13389E+00  3.68915E+00  6.77098E+00  7.62221E+00
   5.32495E+00  9.72037E+00  5.40872E+00  7.40165E+00  8.09924E+00  5.53118E+00  6.87905E+00  3.72197E+00  8.48312E+00  6.65247E+00
   5.26999E+00  6.47281E+00  8.82629E+00  7.69427E+00  8.47162E+00  7.80591E+00  9.68508E+00  8.63117E+00  9.23129E+00  9.94970E+00
   9.72345E+00  9.30392E+00  7.48779E+00  1.01287E+01  1.08209E+01  6.34519E+00  8.57437E+00  1.11522E+01  1.16569E+01  8.46856E+00
   7.28339E+00  9.56199E+00  1.14561E+01  1.27094E+01  7.51170E+00  1.20539E+01  1.18248E+01  1.26521E+01  1.05838E+01  1.14576E+01
   1.35197E+01  1.23144E+01  1.02389E+01  1.37316E+01  1.00583E+01  1.45109E+01  1.03683E+01  1.23018E+01  1.24274E+01  1.47959E+01
   1.39770E+01  1.13611E+01  1.58118E+01  1.32064E+01  9.55365E+00  1.06651E+01  1.45159E+01  1.53164E+01  1.52392E+01  1.16604E+01
   1.34458E+01  1.20867E+01  1.48268E+01  1.26173E+01  1.74365E+01  1.16552E+01  1.20323E+01  1.31503E+01  1.28224E+01  1.52850E+01
   1.47489E+01  1.59747E+01  1.58353E+01  1.63478E+01  1.59387E+01  1.48932E+01  1.28342E+01  1.09347E+01  1.38162E+01  1.39939E+01
   1.51944E+01  1.56229E+01  1.30723E+01  1.48748E+01  1.45785E+01  1.07221E+01  1.40217E+01  1.51788E+01  1.77393E+01  1.76870E+01
   1.25709E+01  1.59399E+01  1.49074E+01  1.48295E+01  1.36252E+01  1.68531E+01  1.49867E+01  1.70935E+01  1.83955E+01  1.52031E+01
   1.55682E+01  1.67768E+01  1.67581E+01  1.38619E+01  1.66325E+01  1.78709E+01  1.75420E+01  1.86482E+01  1.81292E+01  1.78480E+01
   2.00472E+01  1.92363E+01  1.54289E+01  1.68831E+01  1.57911E+01  1.42148E+01  1.40742E+01  1.60484E+01  1.72794E+01  9.15572E+00
   1.32703E+01  1.20721E+01  1.13448E+01  1.26976E+01  1.56183E+01  1.84782E+01  1.55306E+01  1.49008E+01  1.78085E+01  2.25556E+01
   1.95470E+01  2.17767E+01  1.72870E+01  2.09441E+01  1.86748E+01  1.93508E+01  2.57413E+01  2.29512E+01  1.93040E+01  2.31520E+01
   2.03479E+01  2.32624E+01  2.31346E+01  2.31615E+01  2.50266E+01  2.47618E+01  2.69815E+01  2.45926E+01  2.66083E+01  2.58363E+01
   2.43324E+01  3.04532E+01  2.89009E+01  2.56741E+01  2.37239E+01  3.06519E+01  2.89496E+01  3.05386E+01  3.00800E+01  2.96105E+01
   3.11682E+01  3.26016E+01  3.11778E+01  2.99240E+01  3.37952E+01  3.03885E+01  3.17067E+01  2.99811E+01  3.10585E+01  3.62615E+01
   3.85747E+01  3.75312E+01  3.71271E+01  3.76698E+01  4.06465E+01  3.78724E+01  3.92986E+01  4.00967E+01  4.41779E+01  4.76715E+01
   4.63935E+01  4.87553E+01  5.27939E+01  5.00548E+01  5.58054E+01  5.75343E+01  6.03680E+01  6.07719E+01  6.49156E+01  6.74304E+01
   7.07343E+01  7.00606E+01  7.18623E+01  7.52422E+01  7.44202E+01  8.03343E+01  8.20830E+01  8.48690E+01  8.89718E+01  9.64750E+01
   1.00145E+02  1.01315E+02  1.04755E+02  1.11623E+02  1.13370E+02  1.16481E+02  1.16828E+02  1.16497E+02  1.15565E+02  1.16169E+02
   1.13854E+02  1.12929E+02  1.06467E+02  1.01860E+02  9.52189E+01  9.29420E+01  8.56661E+01  7.69501E+01  7.19746E+01  6.73984E+01
   6.28031E+01  5.97331E+01  5.51703E+01  5.16089E+01  5.32502E+01  4.88054E+01  4.46675E+01  4.38227E+01  4.21974E+01  3.93630E+01
   3.89196E+01  3.70252E+01  3.67215E+01  3.59423E+01  3.32821E+01  3.35958E+01  3.46709E+01  3.53864E+01  2.88443E+01  3.03228E+01
   2.93789E+01  3.34721E+01  3.07657E+01  3.39917E+01  3.20086E+01  3.02029E+01  3.12579E+01  3.18179E+01  2.93323E+01  2.71599E+01
   2.70253E+01  3.10062E+01  2.67265E+01  3.00009E+01  2.59076E+01  2.77721E+01  2.63283E+01  2.79630E+01  2.73957E+01  2.83677E+01
   2.94608E+01  3.18354E+01  3.00382E+01  2.84699E+01  2.98943E+01  2.98736E+01  3.23252E+01  2.98058E+01  2.92874E+01  3.15171E+01
   2.71926E+01  2.67469E+01  2.92578E+01  2.73967E+01  2.66680E+01  2.53816E+01  2.85876E+01  2.69416E+01  2.83483E+01  2.71168E+01
   2.81129E+01  2.80208E+01  2.64017E+01  2.02406E+01  2.37466E+01  2.21132E+01  2.76894E+01  2.23123E+01  2.40632E+01  2.23910E+01
   2.51307E+01  2.47576E+01  2.35886E+01  1.99182E+01  2.34903E+01  1.99055E+01  2.21880E+01  2.30975E+01  2.23616E+01  1.96468E+01
   2.05748E+01  2.00934E+01  2.02796E+01  2.35823E+01  1.99345E+01  2.20572E+01  2.15421E+01  2.13363E+01  1.85499E+01  1.99692E+01
   1.75087E+01  1.74802E+01  1.87007E+01  2.00544E+01  1.93481E+01  2.11116E+01  1.97381E+01  1.71979E+01  1.70299E+01  1.93383E+01
   1.73018E+01  1.77907E+01  2.16033E+01  1.79255E+01  1.70559E+01  1.66158E+01  1.73042E+01  2.03196E+01  2.13227E+01  1.85306E+01
   1.79420E+01  1.48496E+01  1.86114E+01  1.50458E+01  1.82532E+01  1.37525E+01  1.50899E+01  1.41546E+01  1.94156E+01  1.79398E+01
   1.52447E+01  1.52240E+01  1.44519E+01  1.26277E+01  1.47358E+01  1.28056E+01  1.43884E+01  1.35624E+01  1.55948E+01  1.57690E+01
   1.18491E+01  1.43685E+01  1.19702E+01  1.22888E+01  1.25212E+01  1.16421E+01  1.34618E+01  1.03558E+01
 NY points of the fit to the data follow
  -5.29065E+00 -4.64279E+00 -5.30673E+00 -4.60692E+00 -4.97161E+00 -4.13373E+00 -4.26506E+00 -3.23286E+00 -3.61454E+00 -2.89700E+00
  -3.64185E+00 -3.17195E+00 -4.02401E+00 -3.53495E+00 -4.49347E+00 -3.54868E+00 -4.22564E+00 -3.05843E+00 -3.71503E+00 -2.63153E+00
  -3.39940E+00 -2.32840E+00 -3.15031E+00 -2.16354E+00 -2.90152E+00 -1.99836E+00 -2.60707E+00 -1.91402E+00 -2.43418E+00 -2.06914E+00
  -2.48507E+00 -2.35678E+00 -2.47962E+00 -2.51926E+00 -2.28743E+00 -2.50022E+00 -1.86778E+00 -2.24975E+00 -1.42610E+00 -2.15772E+00
  -1.39298E+00 -2.25943E+00 -1.38150E+00 -2.36369E+00 -1.35655E+00 -2.16842E+00 -8.89914E-01 -1.36485E+00 -4.21207E-01 -1.05858E+00
  -4.55643E-01 -1.16624E+00 -8.73660E-01 -1.63339E+00 -1.58118E+00 -1.81819E+00 -1.48878E+00 -1.49242E+00 -1.14373E+00 -1.01826E+00
  -7.42778E-01 -5.70743E-01 -4.74181E-01 -4.01443E-01 -3.32859E-01 -2.68348E-01 -2.02053E-01 -1.36632E-01 -6.86883E-02 -5.43456E-04
   6.98120E-02  1.40351E-01  2.12612E-01  2.84880E-01  3.58935E-01  4.32433E-01  5.08208E-01  5.83201E-01  6.60760E-01  7.37157E-01
   8.16215E-01  8.94093E-01  9.74691E-01  1.05405E+00  1.13606E+00  1.21673E+00  1.30004E+00  1.38212E+00  1.46663E+00  1.55007E+00
   1.63568E+00  1.72050E+00  1.80730E+00  1.89359E+00  1.98151E+00  2.06917E+00  2.15833E+00  2.24763E+00  2.33836E+00  2.42935E+00
   2.52191E+00  2.61425E+00  2.70702E+00  2.80094E+00  2.89441E+00  2.99054E+00  3.08624E+00  3.18643E+00  3.28344E+00  3.38705E+00
   3.48523E+00  3.59254E+00  3.69291E+00  3.80593E+00  3.91264E+00  4.04062E+00  4.15574E+00  4.27958E+00  4.39138E+00  4.50773E+00
   4.61549E+00  4.73579E+00  4.85202E+00  4.98235E+00  5.11449E+00  5.24514E+00  5.38700E+00  5.51083E+00  5.65848E+00  5.77711E+00
   5.93353E+00  6.05105E+00  6.21742E+00  6.32943E+00  6.50210E+00  6.60332E+00  6.77760E+00  6.86837E+00  7.04532E+00  7.13033E+00
   7.31063E+00  7.39167E+00  7.57110E+00  7.64600E+00  7.82122E+00  7.89294E+00  8.06175E+00  8.13088E+00  8.28724E+00  8.35255E+00
   8.49252E+00  8.55375E+00  8.67665E+00  8.73991E+00  8.85181E+00  8.92463E+00  9.02580E+00  9.08472E+00  9.16207E+00  9.20840E+00
   9.26460E+00  9.30992E+00  9.35795E+00  9.40610E+00  9.45299E+00  9.49613E+00  9.53802E+00  9.57065E+00  9.60776E+00  9.63280E+00
   9.66841E+00  9.69279E+00  9.73424E+00  9.76256E+00  9.81081E+00  9.83770E+00  9.88650E+00  9.90875E+00  9.95764E+00  9.97320E+00
   1.00225E+01  1.00513E+01  1.01100E+01  1.01540E+01  1.02220E+01  1.02800E+01  1.03581E+01  1.04376E+01  1.05311E+01  1.06094E+01
   1.07112E+01  1.07912E+01  1.08556E+01  1.09469E+01  1.09861E+01  1.11123E+01  1.11825E+01  1.13939E+01  1.16097E+01  1.18014E+01
   1.20429E+01  1.21650E+01  1.23766E+01  1.23937E+01  1.25136E+01  1.24305E+01  1.26161E+01  1.25313E+01  1.27898E+01  1.26975E+01
   1.29733E+01  1.28577E+01  1.31445E+01  1.29942E+01  1.33040E+01  1.31395E+01  1.34894E+01  1.33315E+01  1.36896E+01  1.35270E+01
   1.38402E+01  1.36791E+01  1.39161E+01  1.37826E+01  1.39734E+01  1.38984E+01  1.41028E+01  1.41664E+01  1.44293E+01  1.45657E+01
   1.48500E+01  1.50121E+01  1.52323E+01  1.53745E+01  1.55307E+01  1.57011E+01  1.59092E+01  1.61571E+01  1.65100E+01  1.66962E+01
   1.70195E+01  1.71070E+01  1.73760E+01  1.73355E+01  1.74880E+01  1.73677E+01  1.75726E+01  1.74843E+01  1.76920E+01  1.76658E+01
   1.78533E+01  1.78818E+01  1.80265E+01  1.80823E+01  1.81549E+01  1.82571E+01  1.82788E+01  1.84399E+01  1.84189E+01  1.86394E+01
   1.85759E+01  1.88259E+01  1.86906E+01  1.89259E+01  1.87488E+01  1.89537E+01  1.87895E+01  1.90052E+01  1.88779E+01  1.90849E+01
   1.90016E+01  1.91910E+01  1.91323E+01  1.93007E+01  1.93037E+01  1.95142E+01  1.96242E+01  1.98949E+01  2.01185E+01  2.04620E+01
   2.07818E+01  2.12224E+01  2.16781E+01  2.22354E+01  2.28134E+01  2.34621E+01  2.41384E+01  2.48196E+01  2.55184E+01  2.61884E+01
   2.68402E+01  2.74259E+01  2.79602E+01  2.84014E+01  2.87690E+01  2.90451E+01  2.92461E+01  2.93642E+01  2.94223E+01  2.94290E+01
   2.94121E+01  2.93950E+01  2.94078E+01  2.94901E+01  2.96842E+01  3.00482E+01  3.06634E+01  3.16796E+01  3.34303E+01  3.59852E+01
   3.70121E+01  3.90011E+01  3.91361E+01  4.04782E+01  4.00402E+01  4.09128E+01  3.98219E+01  4.22613E+01  4.24597E+01  4.57196E+01
   4.63958E+01  4.93870E+01  5.01229E+01  5.29289E+01  5.39529E+01  5.69044E+01  5.82507E+01  6.12980E+01  6.32727E+01  6.61947E+01
   6.80344E+01  7.00737E+01  7.19936E+01  7.36710E+01  7.65031E+01  7.83034E+01  8.22869E+01  8.49377E+01  9.02855E+01  9.35775E+01
   9.92576E+01  1.02197E+02  1.07291E+02  1.09552E+02  1.13415E+02  1.14424E+02  1.16534E+02  1.16876E+02  1.17578E+02  1.17624E+02
   1.14879E+02  1.12451E+02  1.06992E+02  1.02791E+02  9.52518E+01  9.00865E+01  8.14040E+01  7.78213E+01  7.08736E+01  6.82289E+01
   6.24193E+01  6.03173E+01  5.55474E+01  5.38687E+01  5.00428E+01  4.85296E+01  4.56517E+01  4.44744E+01  4.25890E+01  4.19017E+01
   4.02350E+01  3.93128E+01  3.78755E+01  3.66783E+01  3.54128E+01  3.39919E+01  3.29775E+01  3.21960E+01  3.15617E+01  3.10373E+01
   3.06016E+01  3.02401E+01  2.99423E+01  2.96999E+01  2.95064E+01  2.93560E+01  2.92439E+01  2.91657E+01  2.91173E+01  2.90949E+01
   2.90952E+01  2.91147E+01  2.91502E+01  2.91985E+01  2.92564E+01  2.93210E+01  2.93891E+01  2.94579E+01  2.95244E+01  2.95858E+01
   2.96394E+01  2.96827E+01  2.97133E+01  2.97290E+01  2.97279E+01  2.97082E+01  2.96684E+01  2.96075E+01  2.95246E+01  2.94191E+01
   2.92908E+01  2.91399E+01  2.89667E+01  2.87719E+01  2.85564E+01  2.83216E+01  2.80686E+01  2.77991E+01  2.75148E+01  2.72176E+01
   2.69091E+01  2.65914E+01  2.62663E+01  2.59357E+01  2.56012E+01  2.52647E+01  2.49278E+01  2.45918E+01  2.42581E+01  2.39279E+01
   2.36024E+01  2.32824E+01  2.29687E+01  2.26620E+01  2.23628E+01  2.20716E+01  2.17887E+01  2.15142E+01  2.12483E+01  2.09911E+01
   2.07426E+01  2.05027E+01  2.02712E+01  2.00481E+01  1.98331E+01  1.96260E+01  1.94266E+01  1.92346E+01  1.90498E+01  1.88719E+01
   1.87006E+01  1.85356E+01  1.83768E+01  1.82237E+01  1.80763E+01  1.79341E+01  1.77969E+01  1.76646E+01  1.75369E+01  1.74135E+01
   1.72943E+01  1.71791E+01  1.70675E+01  1.69596E+01  1.68551E+01  1.67538E+01  1.66556E+01  1.65603E+01  1.64678E+01  1.63780E+01
   1.62906E+01  1.62057E+01  1.61230E+01  1.60425E+01  1.59641E+01  1.58876E+01  1.58130E+01  1.57403E+01  1.56692E+01  1.55997E+01
   1.55318E+01  1.54654E+01  1.54004E+01  1.53368E+01  1.52744E+01  1.52133E+01  1.51534E+01  1.50947E+01  1.50371E+01  1.49805E+01
   1.49250E+01  1.48704E+01  1.48169E+01  1.47643E+01  1.47127E+01  1.46621E+01  1.46124E+01  1.45637E+01
 NY background values follow
    -5.382E+00   -5.323E+00   -5.264E+00   -5.205E+00   -5.145E+00   -5.085E+00   -5.025E+00   -4.964E+00   -4.903E+00   -4.841E+00
    -4.779E+00   -4.717E+00   -4.654E+00   -4.591E+00   -4.528E+00   -4.464E+00   -4.400E+00   -4.335E+00   -4.270E+00   -4.205E+00
    -4.140E+00   -4.074E+00   -4.008E+00   -3.941E+00   -3.874E+00   -3.807E+00   -3.740E+00   -3.672E+00   -3.604E+00   -3.535E+00
    -3.467E+00   -3.398E+00   -3.329E+00   -3.259E+00   -3.189E+00   -3.119E+00   -3.049E+00   -2.978E+00   -2.907E+00   -2.836E+00
    -2.765E+00   -2.693E+00   -2.622E+00   -2.550E+00   -2.477E+00   -2.405E+00   -2.332E+00   -2.259E+00   -2.186E+00   -2.112E+00
    -2.039E+00   -1.965E+00   -1.891E+00   -1.817E+00   -1.742E+00   -1.668E+00   -1.593E+00   -1.518E+00   -1.443E+00   -1.367E+00
    -1.292E+00   -1.216E+00   -1.141E+00   -1.065E+00   -9.887E-01   -9.125E-01   -8.361E-01   -7.597E-01   -6.831E-01   -6.063E-01
    -5.295E-01   -4.525E-01   -3.754E-01   -2.982E-01   -2.209E-01   -1.435E-01   -6.606E-02    1.152E-02    8.918E-02    1.669E-01
     2.447E-01    3.226E-01    4.006E-01    4.786E-01    5.567E-01    6.349E-01    7.131E-01    7.913E-01    8.696E-01    9.479E-01
     1.026E+00    1.105E+00    1.183E+00    1.262E+00    1.340E+00    1.418E+00    1.497E+00    1.575E+00    1.654E+00    1.732E+00
     1.811E+00    1.889E+00    1.968E+00    2.046E+00    2.125E+00    2.203E+00    2.281E+00    2.359E+00    2.438E+00    2.516E+00
     2.594E+00    2.672E+00    2.750E+00    2.828E+00    2.906E+00    2.984E+00    3.062E+00    3.139E+00    3.217E+00    3.294E+00
     3.372E+00    3.449E+00    3.526E+00    3.603E+00    3.680E+00    3.757E+00    3.834E+00    3.910E+00    3.987E+00    4.063E+00
     4.139E+00    4.215E+00    4.291E+00    4.367E+00    4.443E+00    4.518E+00    4.593E+00    4.669E+00    4.744E+00    4.818E+00
     4.893E+00    4.967E+00    5.041E+00    5.115E+00    5.189E+00    5.263E+00    5.336E+00    5.409E+00    5.482E+00    5.555E+00
     5.628E+00    5.700E+00    5.772E+00    5.844E+00    5.916E+00    5.987E+00    6.058E+00    6.129E+00    6.199E+00    6.270E+00
     6.340E+00    6.410E+00    6.479E+00    6.548E+00    6.617E+00    6.686E+00    6.754E+00    6.822E+00    6.890E+00    6.957E+00
     7.025E+00    7.092E+00    7.158E+00    7.224E+00    7.290E+00    7.356E+00    7.421E+00    7.487E+00    7.551E+00    7.616E+00
     7.680E+00    7.744E+00    7.807E+00    7.871E+00    7.934E+00    7.996E+00    8.059E+00    8.121E+00    8.183E+00    8.244E+00
     8.305E+00    8.366E+00    8.427E+00    8.487E+00    8.547E+00    8.607E+00    8.666E+00    8.725E+00    8.784E+00    8.842E+00
     8.901E+00    8.959E+00    9.016E+00    9.073E+00    9.130E+00    9.187E+00    9.243E+00    9.299E+00    9.355E+00    9.410E+00
     9.466E+00    9.520E+00    9.575E+00    9.629E+00    9.683E+00    9.737E+00    9.790E+00    9.843E+00    9.896E+00    9.948E+00
     1.000E+01    1.005E+01    1.010E+01    1.015E+01    1.021E+01    1.026E+01    1.031E+01    1.036E+01    1.041E+01    1.045E+01
     1.050E+01    1.055E+01    1.060E+01    1.065E+01    1.070E+01    1.074E+01    1.079E+01    1.084E+01    1.088E+01    1.093E+01
     1.098E+01    1.102E+01    1.107E+01    1.111E+01    1.116E+01    1.120E+01    1.125E+01    1.129E+01    1.133E+01    1.138E+01
     1.142E+01    1.146E+01    1.150E+01    1.154E+01    1.159E+01    1.163E+01    1.167E+01    1.171E+01    1.175E+01    1.179E+01
     1.183E+01    1.187E+01    1.191E+01    1.195E+01    1.198E+01    1.202E+01    1.206E+01    1.210E+01    1.213E+01    1.217E+01
     1.221E+01    1.224E+01    1.228E+01    1.232E+01    1.235E+01    1.239E+01    1.242E+01    1.245E+01    1.249E+01    1.252E+01
     1.255E+01    1.259E+01    1.262E+01    1.265E+01    1.268E+01    1.272E+01    1.275E+01    1.278E+01    1.281E+01    1.284E+01
     1.287E+01    1.290E+01    1.293E+01    1.296E+01    1.299E+01    1.302E+01    1.304E+01    1.307E+01    1.310E+01    1.313E+01
     1.315E+01    1.318E+01    1.321E+01    1.323E+01    1.326E+01    1.328E+01    1.331E+01    1.333E+01    1.336E+01    1.338E+01
     1.340E+01    1.343E+01    1.345E+01    1.347E+01    1.350E+01    1.352E+01    1.354E+01    1.356E+01    1.358E+01    1.360E+01
     1.362E+01    1.364E+01    1.366E+01    1.368E+01    1.370E+01    1.372E+01    1.374E+01    1.376E+01    1.377E+01    1.379E+01
     1.381E+01    1.382E+01    1.384E+01    1.386E+01    1.387E+01    1.389E+01    1.390E+01    1.392E+01    1.393E+01    1.395E+01
     1.396E+01    1.397E+01    1.399E+01    1.400E+01    1.401E+01    1.403E+01    1.404E+01    1.405E+01    1.406E+01    1.407E+01
     1.408E+01    1.409E+01    1.410E+01    1.411E+01    1.412E+01    1.413E+01    1.414E+01    1.415E+01    1.416E+01    1.416E+01
     1.417E+01    1.418E+01    1.419E+01    1.419E+01    1.420E+01    1.421E+01    1.421E+01    1.422E+01    1.422E+01    1.423E+01
     1.423E+01    1.424E+01    1.424E+01    1.425E+01    1.425E+01    1.425E+01    1.426E+01    1.426E+01    1.426E+01    1.426E+01
     1.427E+01    1.427E+01    1.427E+01    1.427E+01    1.427E+01    1.427E+01    1.427E+01    1.427E+01    1.427E+01    1.427E+01
     1.427E+01    1.427E+01    1.427E+01    1.427E+01    1.427E+01    1.426E+01    1.426E+01    1.426E+01    1.426E+01    1.425E+01
     1.425E+01    1.425E+01    1.424E+01    1.424E+01    1.424E+01    1.423E+01    1.423E+01    1.422E+01    1.422E+01    1.421E+01
     1.421E+01    1.420E+01    1.420E+01    1.419E+01    1.418E+01    1.418E+01    1.417E+01    1.416E+01    1.415E+01    1.415E+01
     1.414E+01    1.413E+01    1.412E+01    1.411E+01    1.411E+01    1.410E+01    1.409E+01    1.408E+01    1.407E+01    1.406E+01
     1.405E+01    1.404E+01    1.403E+01    1.402E+01    1.401E+01    1.400E+01    1.398E+01    1.397E+01    1.396E+01    1.395E+01
     1.394E+01    1.393E+01    1.391E+01    1.390E+01    1.389E+01    1.388E+01    1.386E+01    1.385E+01    1.384E+01    1.382E+01
     1.381E+01    1.379E+01    1.378E+01    1.376E+01    1.375E+01    1.374E+01    1.372E+01    1.371E+01    1.369E+01    1.367E+01
     1.366E+01    1.364E+01    1.363E+01    1.361E+01    1.359E+01    1.358E+01    1.356E+01    1.354E+01    1.353E+01    1.351E+01
     1.349E+01    1.347E+01    1.346E+01    1.344E+01    1.342E+01    1.340E+01    1.338E+01    1.337E+01    1.335E+01    1.333E+01
     1.331E+01    1.329E+01    1.327E+01    1.325E+01    1.323E+01    1.321E+01    1.319E+01    1.317E+01    1.315E+01    1.313E+01
     1.311E+01    1.309E+01    1.307E+01    1.305E+01    1.303E+01    1.301E+01    1.299E+01    1.297E+01
 Ala      Conc. = 8.40E+03
