 LCModel (Version 6.3-1L) Copyright: S.W. Provencher.          Ref.: Magn. Reson. Med. 30:672-679 (1993).                
 Slice#2 Row#2 Col#8  K_02_press_1_raw_act
 36 lines in following concentration table = NCONC+1
    Conc.  %SD /Cr+PCr  Metabolite                                         
  100.074  77%   0.144 Ala                                                 
   58.024 214% 8.4E-02 Asp                                                 
    0.000 999%   0.000 Cr                                                  
  693.356   8%   1.000 PCr                                                 
   18.581 400% 2.7E-02 GABA                                                
   49.749 156% 7.2E-02 Glc                                                 
   88.180 171%   0.127 Gln                                                 
  628.371  28%   0.906 Glu                                                 
    0.000 999%   0.000 GPC                                                 
  143.775  12%   0.207 PCh                                                 
  102.033  56%   0.147 GSH                                                 
  694.646  27%   1.002 Ins                                                 
   37.233 221% 5.4E-02 Lac                                                 
 1.08E+03   8%   1.551 NAA                                                 
  209.771  45%   0.303 NAAG                                                
    5.906 309% 8.5E-03 Scyllo                                              
   64.146 176% 9.3E-02 Tau                                                 
  490.526  17%   0.707 -CrCH2                                              
  143.775  12%   0.207 GPC+PCh                                             
 1.28E+03   6%   1.853 NAA+NAAG                                            
  693.356   8%   1.000 Cr+PCr                                              
  716.551  30%   1.033 Glu+Gln                                             
 5.70E+03  13%   8.216 Lip13a                                              
    0.000 999%   0.000 Lip13b                                              
 1.16E+03  40%   1.677 Lip09                                               
 1.75E+03  23%   2.518 MM09                                                
  632.257  60%   0.912 Lip20                                               
 2.02E+03  21%   2.910 MM20                                                
  932.798  43%   1.345 MM12                                                
    0.000 999%   0.000 MM14                                                
    0.000 999%   0.000 MM17                                                
 5.70E+03  13%   8.216 Lip13a+Lip13b                                       
 6.63E+03   8%   9.561 MM14+Lip13a+Lip13b+MM12                             
 2.91E+03  11%   4.195 MM09+Lip09                                          
 2.65E+03  14%   3.822 MM20+Lip20                                          
   6 lines in following misc. output table
  FWHM = 0.038 ppm    S/N =   8                                            
  Data shift = 0.023 ppm                                                   
  Ph:  92 deg      32.5 deg/ppm                                            
  alphaB,S = 1.5E+00,   2.4E+01                                            
   14 spline knots.   Ns = 5(1)                                            
  ( 5) 2 infls.   ( 2) 1 extrs.                                            
  498 points on ppm-axis = NY
      4.000000     3.992357     3.984714     3.977070     3.969427     3.961784     3.954141     3.946497     3.938854     3.931211
      3.923568     3.915925     3.908281     3.900638     3.892995     3.885352     3.877708     3.870065     3.862422     3.854779
      3.847136     3.839492     3.831849     3.824206     3.816563     3.808919     3.801276     3.793633     3.785990     3.778347
      3.770703     3.763060     3.755417     3.747774     3.740130     3.732487     3.724844     3.717201     3.709558     3.701914
      3.694271     3.686628     3.678985     3.671341     3.663698     3.656055     3.648412     3.640769     3.633125     3.625482
      3.617839     3.610196     3.602552     3.594909     3.587266     3.579623     3.571980     3.564336     3.556693     3.549050
      3.541407     3.533763     3.526120     3.518477     3.510834     3.503191     3.495547     3.487904     3.480261     3.472618
      3.464974     3.457331     3.449688     3.442045     3.434402     3.426758     3.419115     3.411472     3.403829     3.396185
      3.388542     3.380899     3.373256     3.365613     3.357969     3.350326     3.342683     3.335040     3.327396     3.319753
      3.312110     3.304467     3.296824     3.289180     3.281537     3.273894     3.266251     3.258607     3.250964     3.243321
      3.235678     3.228034     3.220391     3.212748     3.205105     3.197462     3.189818     3.182175     3.174532     3.166889
      3.159245     3.151602     3.143959     3.136316     3.128673     3.121029     3.113386     3.105743     3.098100     3.090456
      3.082813     3.075170     3.067527     3.059884     3.052240     3.044597     3.036954     3.029311     3.021667     3.014024
      3.006381     2.998738     2.991095     2.983451     2.975808     2.968165     2.960522     2.952878     2.945235     2.937592
      2.929949     2.922306     2.914662     2.907019     2.899376     2.891733     2.884089     2.876446     2.868803     2.861160
      2.853517     2.845873     2.838230     2.830587     2.822944     2.815300     2.807657     2.800014     2.792371     2.784728
      2.777084     2.769441     2.761798     2.754155     2.746511     2.738868     2.731225     2.723582     2.715939     2.708295
      2.700652     2.693009     2.685366     2.677722     2.670079     2.662436     2.654793     2.647150     2.639506     2.631863
      2.624220     2.616577     2.608933     2.601290     2.593647     2.586004     2.578361     2.570717     2.563074     2.555431
      2.547788     2.540144     2.532501     2.524858     2.517215     2.509572     2.501928     2.494285     2.486642     2.478999
      2.471355     2.463712     2.456069     2.448426     2.440783     2.433139     2.425496     2.417853     2.410210     2.402566
      2.394923     2.387280     2.379637     2.371994     2.364350     2.356707     2.349064     2.341421     2.333777     2.326134
      2.318491     2.310848     2.303205     2.295561     2.287918     2.280275     2.272632     2.264988     2.257345     2.249702
      2.242059     2.234416     2.226772     2.219129     2.211486     2.203843     2.196199     2.188556     2.180913     2.173270
      2.165627     2.157983     2.150340     2.142697     2.135054     2.127410     2.119767     2.112124     2.104481     2.096838
      2.089194     2.081551     2.073908     2.066265     2.058621     2.050978     2.043335     2.035692     2.028049     2.020405
      2.012762     2.005119     1.997476     1.989833     1.982190     1.974546     1.966903     1.959260     1.951617     1.943974
      1.936331     1.928688     1.921045     1.913402     1.905759     1.898115     1.890472     1.882829     1.875186     1.867543
      1.859900     1.852257     1.844614     1.836971     1.829327     1.821684     1.814041     1.806398     1.798755     1.791112
      1.783469     1.775826     1.768183     1.760540     1.752896     1.745253     1.737610     1.729967     1.722324     1.714681
      1.707038     1.699395     1.691752     1.684108     1.676465     1.668822     1.661179     1.653536     1.645893     1.638250
      1.630607     1.622964     1.615321     1.607677     1.600034     1.592391     1.584748     1.577105     1.569462     1.561819
      1.554176     1.546533     1.538890     1.531246     1.523603     1.515960     1.508317     1.500674     1.493031     1.485388
      1.477745     1.470102     1.462458     1.454815     1.447172     1.439529     1.431886     1.424243     1.416600     1.408957
      1.401314     1.393671     1.386027     1.378384     1.370741     1.363098     1.355455     1.347812     1.340169     1.332526
      1.324883     1.317240     1.309596     1.301953     1.294310     1.286667     1.279024     1.271381     1.263738     1.256095
      1.248452     1.240808     1.233165     1.225522     1.217879     1.210236     1.202593     1.194950     1.187307     1.179664
      1.172021     1.164377     1.156734     1.149091     1.141448     1.133805     1.126162     1.118519     1.110876     1.103233
      1.095590     1.087946     1.080303     1.072660     1.065017     1.057374     1.049731     1.042088     1.034445     1.026802
      1.019158     1.011515     1.003872     0.996229     0.988586     0.980943     0.973300     0.965657     0.958014     0.950371
      0.942727     0.935084     0.927441     0.919798     0.912155     0.904512     0.896869     0.889226     0.881583     0.873940
      0.866296     0.858653     0.851010     0.843367     0.835724     0.828081     0.820438     0.812795     0.805152     0.797508
      0.789865     0.782222     0.774579     0.766936     0.759293     0.751650     0.744007     0.736364     0.728721     0.721077
      0.713434     0.705791     0.698148     0.690505     0.682862     0.675219     0.667576     0.659933     0.652290     0.644646
      0.637003     0.629360     0.621717     0.614074     0.606431     0.598788     0.591145     0.583502     0.575858     0.568215
      0.560572     0.552929     0.545286     0.537643     0.530000     0.522357     0.514714     0.507071     0.499427     0.491784
      0.484141     0.476498     0.468855     0.461212     0.453569     0.445925     0.438282     0.430639     0.422996     0.415353
      0.407710     0.400067     0.392424     0.384780     0.377137     0.369494     0.361851     0.354208     0.346565     0.338922
      0.331278     0.323635     0.315992     0.308349     0.300706     0.293063     0.285420     0.277777     0.270133     0.262490
      0.254847     0.247204     0.239561     0.231918     0.224275     0.216631     0.208988     0.201345
 NY phased data points follow
  -1.07439E+00  7.72350E+00  4.19882E+00  8.50792E-02 -3.34047E+00 -4.55614E+00  2.39528E+00 -4.35959E+00 -4.49609E-01  3.98118E+00
   9.92018E+00  9.10625E+00  9.87369E+00  8.62086E+00  1.05549E+01 -5.11410E-01  8.92967E+00  3.46427E+00  1.60809E+00  6.56855E+00
   2.79352E+00  4.30449E+00 -3.04216E+00  4.78772E+00  3.77332E+00  7.48359E+00  3.09850E-01 -1.00813E+00  1.44776E+00  7.37369E+00
   1.11370E+00  3.11934E+00  1.37933E+00  6.74650E+00  3.10707E+00  4.87632E+00  5.03231E+00 -1.04217E+00  2.18889E+00  1.29113E+00
   5.39217E+00  5.30091E+00 -1.93567E+00  4.67263E+00 -8.89785E-01 -4.77078E-01  3.16944E+00  4.83472E+00  3.21141E+00  1.21114E+01
   1.34303E+01  7.85643E+00  3.63386E+00 -6.95049E-01  1.20298E+00  4.68074E+00  7.43261E+00  2.71055E+00  4.70054E+00  1.72411E+00
   6.97995E+00  7.36828E+00  1.74443E+00  6.54355E-01  5.53217E+00 -8.20240E+00 -1.01834E-01  1.02139E-01 -1.84564E+00 -2.74822E+00
   1.41654E+00  1.27160E+00  4.99687E+00  5.60411E+00 -3.30775E+00  2.94386E+00  1.31885E+00 -4.82439E-01 -3.20679E+00 -1.54294E-01
   3.01591E+00  4.30632E+00 -8.37993E-01  8.81624E-01 -4.13413E+00  5.21378E-01 -3.79473E-01 -2.42777E+00 -3.66879E+00  3.06758E-02
  -4.82903E+00  5.87641E+00 -1.42859E+00  1.63309E+00  1.97408E+00  3.57343E+00  1.17212E+00 -1.36678E+00 -7.36615E-01  1.47618E+00
  -2.77390E-02  2.36068E+00  8.96576E+00  1.95165E+01  1.67393E+01  1.65312E+01  1.26638E+01  1.11261E+01  7.19534E+00  3.95471E+00
   5.18476E+00 -3.50844E+00  1.05267E+00  2.18051E+00  2.75552E+00  8.57846E-01 -2.06038E+00  8.80428E-01  2.53328E+00  5.01920E-01
   7.27811E-01  1.85047E+00 -1.92968E+00  1.89185E+00  7.57455E+00  1.09615E+01  2.72091E+01  3.05459E+01  3.20420E+01  2.37591E+01
   2.82010E+01  1.61438E+01  1.33948E+01  8.67785E+00  4.02325E+00  1.01932E+01  2.85958E+00  8.13921E+00  7.11881E-01  2.13318E+00
   1.96040E+00  1.52644E-01  3.06898E+00 -6.20167E+00  1.68948E+00 -2.63864E-01  3.17964E+00  5.00541E+00  2.95400E+00 -1.90109E-02
   1.63879E+00  1.51399E-01 -3.99299E+00  3.70868E+00 -3.93378E+00  8.01449E-01  2.01870E+00  4.57796E-01 -1.16903E-01 -4.96569E+00
  -9.25445E-01  5.27186E-01  8.90211E-01 -2.75201E+00 -6.12848E+00  4.79553E-01 -1.01670E+00  7.14232E+00  1.67918E+00 -3.39281E+00
  -2.22403E+00 -3.84501E+00 -1.04435E+00 -1.80234E+00 -3.00960E+00 -5.99004E+00 -5.32178E+00 -1.01131E+01 -7.70837E+00 -7.69976E+00
  -7.95537E+00 -5.63471E+00 -1.05050E+01 -1.01740E+01 -8.86100E+00 -6.89964E+00 -9.20029E+00 -8.70730E+00 -5.04997E+00  2.67340E+00
  -6.41726E+00 -4.95145E+00 -3.70107E-01  1.14738E+00  4.79354E-01  2.24308E-01 -8.27487E+00 -8.00763E+00 -5.56754E+00 -6.02708E+00
  -6.84550E+00 -1.92545E+00  3.32317E+00 -2.37966E+00 -1.39595E+00 -4.25781E+00 -5.59684E+00 -9.13245E+00 -3.68852E+00 -4.15668E+00
  -3.94054E+00 -6.44039E+00 -2.70023E+00 -3.69475E-01  4.10357E+00  1.00693E+01  7.66804E+00  5.30254E+00  3.35567E+00 -1.92112E-01
  -5.37501E+00 -6.27140E+00 -6.38769E+00 -2.11073E+00 -4.25116E+00 -2.01715E+00  2.05620E+00 -1.97730E-01  5.07541E+00  2.82460E+00
  -8.46449E-01 -3.54382E-01 -1.50103E+00  9.75290E-01  3.75857E+00  5.81315E-02  3.02372E+00  8.96250E-01  4.32214E+00 -1.60487E+00
  -1.24039E+00  7.30596E-01  5.90785E+00 -1.64240E+00  1.02245E+01  4.82928E+00  5.03173E+00  1.39152E+01  8.86649E+00  1.75819E+01
   1.29020E+01  1.22657E+01  1.54013E+01  1.15390E+01  1.69803E+01  2.25922E+01  2.80913E+01  3.89234E+01  4.99138E+01  5.87296E+01
   6.28727E+01  5.17890E+01  3.28389E+01  1.68869E+01  5.35252E+00 -5.78554E+00 -1.83190E-01 -7.80384E+00 -4.06038E+00  2.43081E+00
  -2.46057E+00 -2.08012E+00 -4.40653E+00 -8.46627E+00 -5.36911E-02 -4.01797E+00 -1.93774E+00 -6.78581E+00 -3.94321E+00 -4.36280E-01
  -3.59880E-01 -1.69838E+00 -8.18527E+00 -6.86787E+00 -6.80610E+00 -5.20773E+00 -7.20860E+00  1.20430E+00 -7.66101E+00 -7.35801E+00
  -1.02575E+01  1.98704E+00 -3.78453E+00 -4.95401E+00  2.22886E+00  1.46583E+00 -7.61755E+00 -5.97894E+00 -2.80933E+00 -4.29462E-01
  -3.96944E+00 -5.66561E+00 -6.71008E+00  3.12563E+00 -6.42419E+00 -1.42285E-01 -1.37655E+00 -3.89350E+00  4.46457E+00  5.25396E-01
   7.96073E-02 -5.08716E+00 -1.89371E-01 -2.26736E-02  6.25344E-01  1.01559E+00  4.78752E+00 -3.28098E+00  6.66754E-01 -5.14096E+00
  -4.38726E+00 -3.21629E+00 -4.79041E+00 -4.71381E+00 -9.64670E+00 -6.64382E+00 -7.47552E+00 -2.75586E+00 -8.47444E+00 -5.14599E+00
  -1.00064E+01 -5.72420E+00  2.02026E+00  1.65451E-01  3.23171E+00  4.33145E+00  7.11260E+00  6.33958E+00  5.32412E+00  1.03122E+01
   1.46580E+01  8.52617E+00  1.86430E+01  1.47697E+01  2.31612E+01  1.81399E+01  2.21501E+01  2.03217E+01  2.10254E+01  2.00337E+01
   2.04026E+01  2.72400E+01  2.35223E+01  3.43068E+01  2.72762E+01  3.33530E+01  2.90570E+01  2.29859E+01  2.57976E+01  2.48225E+01
   2.07367E+01  2.09417E+01  1.98444E+01  2.23940E+01  3.20972E+01  1.65902E+01  2.04565E+01  1.88789E+01  2.41803E+01  2.12580E+01
   1.83005E+01  1.63342E+01  1.26591E+01  1.49922E+01  1.65396E+01  1.62036E+01  1.25768E+01  1.41586E+01  1.37660E+01  1.56956E+01
   1.19617E+01  1.05462E+01  5.35477E+00  1.19750E+01  1.30637E+01  6.01904E+00  1.40109E+01  8.68431E+00  9.40234E+00  1.33949E+01
   1.87151E+01  2.19159E+01  1.32565E+01  1.54918E+01  1.06227E+01  8.05317E+00  2.19477E+01  1.99854E+01  1.35298E+01  1.41563E+01
   1.57794E+01  1.22638E+01  1.78421E+01  1.51294E+01  1.00748E+01  9.48571E+00  8.34524E+00  1.22060E+01  8.60243E+00  7.70998E+00
   1.10231E+01  1.22273E+01  7.27137E+00  9.03314E+00  1.17654E+01  4.73699E+00  9.08732E+00  6.84429E+00 -1.18455E+00  5.11547E+00
   3.45648E+00  8.33699E-01  7.78036E+00  1.35002E+00  2.66198E+00 -1.06313E+00  4.78844E+00  1.21836E+00  2.43200E+00  1.57041E+00
   6.84949E-03 -7.31486E-02  4.39019E+00 -3.12608E+00 -3.66448E+00 -4.17563E-01 -2.82056E+00 -2.70018E+00  3.05602E+00 -3.09226E+00
  -9.56920E-01  3.58042E+00 -3.92241E+00  4.14258E+00 -5.78836E-01 -1.44457E+00  1.87159E+00  1.06601E+00  1.83466E+00 -3.85845E+00
   1.37838E+00  4.66664E+00 -9.22858E-01  2.81706E-01  1.46866E+00 -4.10225E+00  1.33213E+00 -3.81131E-01 -2.62534E+00 -3.83824E+00
  -4.67271E-01  2.92763E+00  8.17516E-01 -6.38830E+00  3.51561E+00  3.40722E+00 -8.24225E-01 -1.06040E+00 -3.16397E+00 -4.08220E+00
   2.11890E+00 -3.59458E+00  2.11726E+00  2.48261E-01 -4.07815E+00  1.47125E+00  8.14101E-01  5.89166E-01 -9.18169E-01 -2.63226E+00
   3.14648E+00 -3.02160E+00 -1.06645E-01 -2.44862E+00 -5.72213E+00 -3.90172E+00 -7.79322E-01  1.23086E+00 -2.77955E+00 -3.69297E+00
  -4.79513E+00 -1.50614E+00 -3.61153E+00 -7.85903E-01 -7.83302E-01 -7.98951E-01 -2.55196E+00 -3.14416E+00
 NY points of the fit to the data follow
   3.03299E+00  2.53782E+00  2.22311E+00  1.95742E+00  1.24388E+00  1.90259E-01 -1.07200E+00 -1.61275E+00  5.01593E-01  5.03595E+00
   9.55569E+00  1.19925E+01  1.17836E+01  9.54468E+00  5.99932E+00  2.50869E+00  1.32871E+00  1.57912E+00  1.69390E+00  1.83262E+00
   2.08461E+00  2.40051E+00  2.69915E+00  2.85474E+00  2.79045E+00  2.52604E+00  2.14710E+00  2.02859E+00  2.52662E+00  3.52731E+00
   4.69606E+00  5.72303E+00  6.29083E+00  6.10904E+00  5.08515E+00  3.71841E+00  2.53747E+00  1.62048E+00  1.06229E+00  9.37788E-01
   1.05726E+00  1.18130E+00  1.22101E+00  1.42138E+00  2.05660E+00  3.36089E+00  5.31102E+00  7.25002E+00  8.17600E+00  7.49933E+00
   5.48085E+00  2.95871E+00  7.56796E-01 -5.16326E-01 -6.33014E-01 -3.44724E-02  6.55399E-01  1.29291E+00  2.02901E+00  2.84058E+00
   3.48203E+00  3.66974E+00  3.29494E+00  2.48729E+00  1.50462E+00  7.00548E-01  3.68968E-01  4.97840E-01  9.13592E-01  1.42089E+00
   1.90190E+00  2.33250E+00  2.62914E+00  2.74550E+00  2.67598E+00  2.42052E+00  2.00981E+00  1.52706E+00  1.12784E+00  8.91690E-01
   7.72945E-01  7.80015E-01  8.41857E-01  8.45839E-01  7.14421E-01  3.20645E-01 -3.89119E-01 -1.25951E+00 -1.99548E+00 -2.34675E+00
  -2.23307E+00 -1.74187E+00 -1.03936E+00 -3.72010E-01  9.29147E-02  3.61731E-01  4.43565E-01  3.62632E-01  2.30637E-01  5.81855E-01
   2.09411E+00  5.33693E+00  1.04394E+01  1.56885E+01  1.84442E+01  1.75388E+01  1.36414E+01  8.42666E+00  3.50781E+00  2.22777E-01
  -6.34460E-01 -2.65268E-01 -1.47724E-01 -1.02980E-01 -5.43917E-02 -1.22904E-02  2.15339E-02  5.05996E-02  8.24118E-02  1.46088E-01
   2.84238E-01  5.64064E-01  1.22657E+00  3.06515E+00  6.81731E+00  1.31928E+01  2.18530E+01  2.95525E+01  3.25764E+01  2.98222E+01
   2.28526E+01  1.43712E+01  6.76859E+00  1.97420E+00  7.12070E-01  6.32015E-01  2.03374E-01 -9.53011E-02 -1.02227E-01  1.47655E-01
   4.88791E-01  7.08704E-01  7.46627E-01  6.35964E-01  4.36418E-01  2.22148E-01  3.35872E-02 -1.24609E-01 -2.51524E-01 -3.84793E-01
  -5.23125E-01 -6.65704E-01 -8.11616E-01 -9.38611E-01 -9.95746E-01 -9.86256E-01 -9.91156E-01 -1.12808E+00 -1.51848E+00 -2.06077E+00
  -2.46480E+00 -2.51080E+00 -2.16915E+00 -1.72109E+00 -1.50721E+00 -1.67695E+00 -2.22690E+00 -2.91166E+00 -3.43027E+00 -3.69206E+00
  -3.71804E+00 -3.75056E+00 -3.99429E+00 -4.39860E+00 -4.80277E+00 -4.93865E+00 -4.74994E+00 -4.40451E+00 -4.20223E+00 -4.24855E+00
  -4.40977E+00 -4.58491E+00 -4.67162E+00 -4.53678E+00 -4.35435E+00 -4.13304E+00 -3.71848E+00 -3.04450E+00 -2.14601E+00 -1.28803E+00
  -6.75453E-01 -4.80773E-01 -7.26301E-01 -1.16785E+00 -1.51858E+00 -1.89476E+00 -2.33472E+00 -2.67787E+00 -2.74797E+00 -2.51316E+00
  -1.96879E+00 -1.13306E+00 -2.55485E-01  2.56553E-01  1.89015E-01 -3.83775E-01 -1.35325E+00 -2.59421E+00 -3.86599E+00 -4.78984E+00
  -5.21707E+00 -4.89629E+00 -3.62484E+00 -1.55739E+00  8.41628E-01  2.68016E+00  3.15929E+00  2.19824E+00  7.95400E-02 -2.58891E+00
  -5.03939E+00 -6.57685E+00 -6.53216E+00 -5.09425E+00 -2.88789E+00 -4.97606E-01  1.46687E+00  2.58984E+00  2.73036E+00  2.19788E+00
   1.59363E+00  1.26522E+00  1.26933E+00  1.64703E+00  2.28580E+00  3.01540E+00  3.61961E+00  3.87641E+00  3.73424E+00  3.35677E+00
   2.93485E+00  2.69808E+00  2.90475E+00  3.69723E+00  4.89905E+00  6.13790E+00  7.10720E+00  7.64687E+00  7.72830E+00  7.48897E+00
   7.41855E+00  8.04616E+00  9.61182E+00  1.22806E+01  1.62243E+01  2.17289E+01  2.87625E+01  3.87990E+01  5.09219E+01  5.91080E+01
   5.86363E+01  4.97703E+01  3.62264E+01  2.16364E+01  9.49756E+00  3.31494E+00  3.09677E+00  3.09391E+00  2.44935E+00  1.85069E+00
   1.38992E+00  1.04589E+00  8.01665E-01  6.52084E-01  4.85983E-01  2.31617E-01 -1.15269E-01 -5.12623E-01 -9.16562E-01 -1.27136E+00
  -1.53634E+00 -1.71640E+00 -1.84752E+00 -1.96084E+00 -2.06677E+00 -2.17677E+00 -2.30407E+00 -2.44510E+00 -2.57496E+00 -2.67169E+00
  -2.72798E+00 -2.75146E+00 -2.75400E+00 -2.75505E+00 -2.76816E+00 -2.79658E+00 -2.84055E+00 -2.89042E+00 -2.92707E+00 -2.94410E+00
  -2.94111E+00 -2.91997E+00 -2.88688E+00 -2.84898E+00 -2.81370E+00 -2.78333E+00 -2.75140E+00 -2.71497E+00 -2.67369E+00 -2.62599E+00
  -2.57159E+00 -2.51011E+00 -2.44116E+00 -2.36384E+00 -2.27735E+00 -2.17987E+00 -2.06931E+00 -1.94239E+00 -1.79518E+00 -1.62148E+00
  -1.41053E+00 -1.13711E+00 -7.65089E-01 -3.09588E-01  1.85465E-01  5.58501E-01  5.71137E-01  1.95832E-01 -3.65139E-01 -8.48574E-01
  -1.02606E+00 -7.62108E-01  6.28442E-02  1.45431E+00  3.09219E+00  4.71790E+00  6.14843E+00  7.29266E+00  8.19892E+00  8.98635E+00
   9.84655E+00  1.09950E+01  1.23808E+01  1.38763E+01  1.54468E+01  1.70221E+01  1.84811E+01  1.97592E+01  2.08881E+01  2.19411E+01
   2.29889E+01  2.40644E+01  2.51954E+01  2.63601E+01  2.73940E+01  2.81590E+01  2.85943E+01  2.86773E+01  2.84353E+01  2.79243E+01
   2.72317E+01  2.64444E+01  2.55472E+01  2.45313E+01  2.34224E+01  2.22475E+01  2.10325E+01  1.98031E+01  1.85828E+01  1.73935E+01
   1.62543E+01  1.51819E+01  1.41903E+01  1.32914E+01  1.24938E+01  1.18044E+01  1.12277E+01  1.07664E+01  1.04215E+01  1.01924E+01
   1.00764E+01  1.00694E+01  1.01655E+01  1.03574E+01  1.06359E+01  1.09902E+01  1.14074E+01  1.18736E+01  1.23732E+01  1.28902E+01
   1.34076E+01  1.39083E+01  1.43757E+01  1.47942E+01  1.51497E+01  1.54303E+01  1.56263E+01  1.57307E+01  1.57394E+01  1.56513E+01
   1.54681E+01  1.51941E+01  1.48356E+01  1.44009E+01  1.38991E+01  1.33410E+01  1.27371E+01  1.20982E+01  1.14342E+01  1.07550E+01
   1.00689E+01  9.38386E+00  8.70641E+00  8.04226E+00  7.39568E+00  6.77046E+00  6.16922E+00  5.59429E+00  5.04691E+00  4.52807E+00
   4.03791E+00  3.57665E+00  3.14386E+00  2.73926E+00  2.36183E+00  2.01077E+00  1.68472E+00  1.38273E+00  1.10341E+00  8.45686E-01
   6.07965E-01  3.89067E-01  1.87455E-01  2.11874E-03 -1.68323E-01 -3.24839E-01 -4.68819E-01 -6.01144E-01 -7.22973E-01 -8.34927E-01
  -9.38009E-01 -1.03281E+00 -1.12029E+00 -1.20092E+00 -1.27542E+00 -1.34406E+00 -1.40751E+00 -1.46607E+00 -1.52037E+00 -1.57056E+00
  -1.61711E+00 -1.66004E+00 -1.69988E+00 -1.73670E+00 -1.77097E+00 -1.80262E+00 -1.83200E+00 -1.85903E+00 -1.88414E+00 -1.90731E+00
  -1.92887E+00 -1.94867E+00 -1.96698E+00 -1.98370E+00 -1.99920E+00 -2.01337E+00 -2.02648E+00 -2.03832E+00 -2.04916E+00 -2.05889E+00
  -2.06782E+00 -2.07581E+00 -2.08306E+00 -2.08935E+00 -2.09496E+00 -2.09975E+00 -2.10403E+00 -2.10759E+00 -2.11062E+00 -2.11291E+00
  -2.11473E+00 -2.11596E+00 -2.11685E+00 -2.11716E+00 -2.11707E+00 -2.11640E+00 -2.11543E+00 -2.11400E+00 -2.11234E+00 -2.11018E+00
  -2.10774E+00 -2.10483E+00 -2.10173E+00 -2.09828E+00 -2.09464E+00 -2.09058E+00 -2.08630E+00 -2.08165E+00
 NY background values follow
     1.437E+00    1.411E+00    1.386E+00    1.360E+00    1.335E+00    1.310E+00    1.284E+00    1.259E+00    1.233E+00    1.208E+00
     1.182E+00    1.157E+00    1.131E+00    1.106E+00    1.080E+00    1.055E+00    1.029E+00    1.004E+00    9.782E-01    9.527E-01
     9.272E-01    9.017E-01    8.762E-01    8.507E-01    8.252E-01    7.997E-01    7.742E-01    7.487E-01    7.232E-01    6.976E-01
     6.721E-01    6.466E-01    6.211E-01    5.955E-01    5.700E-01    5.445E-01    5.189E-01    4.934E-01    4.679E-01    4.423E-01
     4.167E-01    3.912E-01    3.656E-01    3.401E-01    3.145E-01    2.889E-01    2.633E-01    2.378E-01    2.122E-01    1.866E-01
     1.610E-01    1.354E-01    1.098E-01    8.420E-02    5.860E-02    3.299E-02    7.384E-03   -1.823E-02   -4.384E-02   -6.945E-02
    -9.507E-02   -1.207E-01   -1.463E-01   -1.719E-01   -1.975E-01   -2.231E-01   -2.488E-01   -2.744E-01   -3.000E-01   -3.256E-01
    -3.512E-01   -3.768E-01   -4.024E-01   -4.280E-01   -4.537E-01   -4.793E-01   -5.049E-01   -5.305E-01   -5.561E-01   -5.816E-01
    -6.072E-01   -6.328E-01   -6.584E-01   -6.840E-01   -7.095E-01   -7.351E-01   -7.607E-01   -7.862E-01   -8.118E-01   -8.373E-01
    -8.629E-01   -8.884E-01   -9.139E-01   -9.395E-01   -9.650E-01   -9.905E-01   -1.016E+00   -1.041E+00   -1.067E+00   -1.092E+00
    -1.118E+00   -1.143E+00   -1.169E+00   -1.194E+00   -1.220E+00   -1.245E+00   -1.270E+00   -1.296E+00   -1.321E+00   -1.347E+00
    -1.372E+00   -1.397E+00   -1.423E+00   -1.448E+00   -1.473E+00   -1.499E+00   -1.524E+00   -1.549E+00   -1.574E+00   -1.600E+00
    -1.625E+00   -1.650E+00   -1.675E+00   -1.700E+00   -1.726E+00   -1.751E+00   -1.776E+00   -1.801E+00   -1.826E+00   -1.851E+00
    -1.876E+00   -1.901E+00   -1.926E+00   -1.951E+00   -1.976E+00   -2.001E+00   -2.026E+00   -2.051E+00   -2.076E+00   -2.101E+00
    -2.126E+00   -2.150E+00   -2.175E+00   -2.200E+00   -2.225E+00   -2.249E+00   -2.274E+00   -2.299E+00   -2.323E+00   -2.348E+00
    -2.372E+00   -2.396E+00   -2.421E+00   -2.445E+00   -2.469E+00   -2.494E+00   -2.518E+00   -2.542E+00   -2.566E+00   -2.590E+00
    -2.614E+00   -2.637E+00   -2.661E+00   -2.685E+00   -2.708E+00   -2.732E+00   -2.755E+00   -2.779E+00   -2.802E+00   -2.825E+00
    -2.848E+00   -2.871E+00   -2.894E+00   -2.917E+00   -2.940E+00   -2.962E+00   -2.985E+00   -3.007E+00   -3.029E+00   -3.052E+00
    -3.074E+00   -3.096E+00   -3.118E+00   -3.139E+00   -3.161E+00   -3.183E+00   -3.204E+00   -3.225E+00   -3.246E+00   -3.268E+00
    -3.289E+00   -3.309E+00   -3.330E+00   -3.351E+00   -3.371E+00   -3.391E+00   -3.412E+00   -3.432E+00   -3.452E+00   -3.471E+00
    -3.491E+00   -3.511E+00   -3.530E+00   -3.549E+00   -3.569E+00   -3.588E+00   -3.606E+00   -3.625E+00   -3.644E+00   -3.662E+00
    -3.681E+00   -3.699E+00   -3.717E+00   -3.735E+00   -3.752E+00   -3.770E+00   -3.787E+00   -3.805E+00   -3.822E+00   -3.839E+00
    -3.856E+00   -3.872E+00   -3.889E+00   -3.905E+00   -3.921E+00   -3.938E+00   -3.953E+00   -3.969E+00   -3.985E+00   -4.000E+00
    -4.015E+00   -4.030E+00   -4.045E+00   -4.060E+00   -4.075E+00   -4.089E+00   -4.103E+00   -4.117E+00   -4.131E+00   -4.145E+00
    -4.159E+00   -4.172E+00   -4.185E+00   -4.198E+00   -4.211E+00   -4.224E+00   -4.236E+00   -4.249E+00   -4.261E+00   -4.273E+00
    -4.284E+00   -4.296E+00   -4.307E+00   -4.319E+00   -4.330E+00   -4.340E+00   -4.351E+00   -4.362E+00   -4.372E+00   -4.382E+00
    -4.392E+00   -4.401E+00   -4.411E+00   -4.420E+00   -4.429E+00   -4.438E+00   -4.447E+00   -4.455E+00   -4.464E+00   -4.472E+00
    -4.480E+00   -4.487E+00   -4.495E+00   -4.502E+00   -4.509E+00   -4.516E+00   -4.522E+00   -4.529E+00   -4.535E+00   -4.541E+00
    -4.547E+00   -4.553E+00   -4.558E+00   -4.563E+00   -4.568E+00   -4.573E+00   -4.578E+00   -4.582E+00   -4.586E+00   -4.590E+00
    -4.594E+00   -4.598E+00   -4.601E+00   -4.605E+00   -4.608E+00   -4.610E+00   -4.613E+00   -4.616E+00   -4.618E+00   -4.620E+00
    -4.622E+00   -4.624E+00   -4.625E+00   -4.626E+00   -4.627E+00   -4.628E+00   -4.629E+00   -4.630E+00   -4.630E+00   -4.630E+00
    -4.630E+00   -4.630E+00   -4.630E+00   -4.629E+00   -4.628E+00   -4.627E+00   -4.626E+00   -4.625E+00   -4.623E+00   -4.622E+00
    -4.620E+00   -4.618E+00   -4.616E+00   -4.613E+00   -4.611E+00   -4.608E+00   -4.605E+00   -4.602E+00   -4.599E+00   -4.595E+00
    -4.592E+00   -4.588E+00   -4.584E+00   -4.580E+00   -4.576E+00   -4.571E+00   -4.567E+00   -4.562E+00   -4.557E+00   -4.552E+00
    -4.547E+00   -4.542E+00   -4.536E+00   -4.531E+00   -4.525E+00   -4.519E+00   -4.513E+00   -4.507E+00   -4.501E+00   -4.494E+00
    -4.488E+00   -4.481E+00   -4.474E+00   -4.467E+00   -4.460E+00   -4.453E+00   -4.445E+00   -4.438E+00   -4.430E+00   -4.422E+00
    -4.414E+00   -4.406E+00   -4.398E+00   -4.390E+00   -4.382E+00   -4.373E+00   -4.365E+00   -4.356E+00   -4.347E+00   -4.338E+00
    -4.329E+00   -4.320E+00   -4.311E+00   -4.302E+00   -4.292E+00   -4.283E+00   -4.273E+00   -4.263E+00   -4.253E+00   -4.243E+00
    -4.233E+00   -4.223E+00   -4.213E+00   -4.202E+00   -4.192E+00   -4.181E+00   -4.171E+00   -4.160E+00   -4.149E+00   -4.138E+00
    -4.127E+00   -4.116E+00   -4.105E+00   -4.094E+00   -4.083E+00   -4.071E+00   -4.060E+00   -4.048E+00   -4.037E+00   -4.025E+00
    -4.013E+00   -4.001E+00   -3.990E+00   -3.978E+00   -3.965E+00   -3.953E+00   -3.941E+00   -3.929E+00   -3.917E+00   -3.904E+00
    -3.892E+00   -3.879E+00   -3.867E+00   -3.854E+00   -3.841E+00   -3.829E+00   -3.816E+00   -3.803E+00   -3.790E+00   -3.777E+00
    -3.764E+00   -3.751E+00   -3.738E+00   -3.725E+00   -3.712E+00   -3.698E+00   -3.685E+00   -3.672E+00   -3.658E+00   -3.645E+00
    -3.632E+00   -3.618E+00   -3.605E+00   -3.591E+00   -3.577E+00   -3.564E+00   -3.550E+00   -3.537E+00   -3.523E+00   -3.509E+00
    -3.495E+00   -3.482E+00   -3.468E+00   -3.454E+00   -3.440E+00   -3.426E+00   -3.412E+00   -3.398E+00   -3.385E+00   -3.371E+00
    -3.357E+00   -3.343E+00   -3.329E+00   -3.315E+00   -3.301E+00   -3.287E+00   -3.273E+00   -3.259E+00   -3.245E+00   -3.231E+00
    -3.217E+00   -3.203E+00   -3.189E+00   -3.175E+00   -3.161E+00   -3.147E+00   -3.132E+00   -3.118E+00   -3.104E+00   -3.090E+00
    -3.076E+00   -3.062E+00   -3.048E+00   -3.034E+00   -3.020E+00   -3.006E+00   -2.992E+00   -2.977E+00   -2.963E+00   -2.949E+00
    -2.935E+00   -2.921E+00   -2.907E+00   -2.893E+00   -2.879E+00   -2.865E+00   -2.850E+00   -2.836E+00   -2.822E+00   -2.808E+00
    -2.794E+00   -2.780E+00   -2.766E+00   -2.752E+00   -2.738E+00   -2.723E+00   -2.709E+00   -2.695E+00
 Ala      Conc. = 1.00E+02
