 LCModel (Version 6.3-1L) Copyright: S.W. Provencher.          Ref.: Magn. Reson. Med. 30:672-679 (1993).                
 Slice#3 Row#3 Col#7  K_02_press_1_raw_act
 36 lines in following concentration table = NCONC+1
    Conc.  %SD /Cr+PCr  Metabolite                                         
    0.000 999%   0.000 Ala                                                 
  288.423  73%   0.174 Asp                                                 
  718.086  26%   0.433 Cr                                                  
  940.172  21%   0.567 PCr                                                 
    0.000 999%   0.000 GABA                                                
    0.000 999%   0.000 Glc                                                 
  684.214  28%   0.413 Gln                                                 
 1.64E+03  13%   0.991 Glu                                                 
  465.187   4%   0.281 GPC                                                 
    0.000 999%   0.000 PCh                                                 
  462.770  14%   0.279 GSH                                                 
  481.003  43%   0.290 Ins                                                 
   46.778 215% 2.8E-02 Lac                                                 
 2.13E+03   5%   1.282 NAA                                                 
  182.454  60%   0.110 NAAG                                                
    0.000 999%   0.000 Scyllo                                              
    0.000 999%   0.000 Tau                                                 
   48.408 220% 2.9E-02 -CrCH2                                              
  465.187   4%   0.281 GPC+PCh                                             
 2.31E+03   4%   1.392 NAA+NAAG                                            
 1.66E+03   3%   1.000 Cr+PCr                                              
 2.33E+03  13%   1.404 Glu+Gln                                             
 2.08E+03  38%   1.252 Lip13a                                              
   63.184 342% 3.8E-02 Lip13b                                              
    0.000 999%   0.000 Lip09                                               
 2.20E+03  14%   1.328 MM09                                                
  182.360 135%   0.110 Lip20                                               
 4.44E+03  11%   2.677 MM20                                                
 1.02E+03  31%   0.617 MM12                                                
 5.49E+03  13%   3.311 MM14                                                
 1.67E+03  28%   1.005 MM17                                                
 2.14E+03  32%   1.291 Lip13a+Lip13b                                       
 8.65E+03   8%   5.218 MM14+Lip13a+Lip13b+MM12                             
 2.20E+03  14%   1.328 MM09+Lip09                                          
 4.62E+03  11%   2.787 MM20+Lip20                                          
   6 lines in following misc. output table
  FWHM = 0.038 ppm    S/N =  14                                            
  Data shift = 0.015 ppm                                                   
  Ph:  14 deg      -2.6 deg/ppm                                            
  alphaB,S = 9.2E-01,   8.1E+01                                            
   14 spline knots.   Ns = 6(1)                                            
  ( 9) 4 infls.   ( 3) 1 extrs.                                            
  498 points on ppm-axis = NY
      4.000000     3.992357     3.984714     3.977070     3.969427     3.961784     3.954141     3.946497     3.938854     3.931211
      3.923568     3.915925     3.908281     3.900638     3.892995     3.885352     3.877708     3.870065     3.862422     3.854779
      3.847136     3.839492     3.831849     3.824206     3.816563     3.808919     3.801276     3.793633     3.785990     3.778347
      3.770703     3.763060     3.755417     3.747774     3.740130     3.732487     3.724844     3.717201     3.709558     3.701914
      3.694271     3.686628     3.678985     3.671341     3.663698     3.656055     3.648412     3.640769     3.633125     3.625482
      3.617839     3.610196     3.602552     3.594909     3.587266     3.579623     3.571980     3.564336     3.556693     3.549050
      3.541407     3.533763     3.526120     3.518477     3.510834     3.503191     3.495547     3.487904     3.480261     3.472618
      3.464974     3.457331     3.449688     3.442045     3.434402     3.426758     3.419115     3.411472     3.403829     3.396185
      3.388542     3.380899     3.373256     3.365613     3.357969     3.350326     3.342683     3.335040     3.327396     3.319753
      3.312110     3.304467     3.296824     3.289180     3.281537     3.273894     3.266251     3.258607     3.250964     3.243321
      3.235678     3.228034     3.220391     3.212748     3.205105     3.197462     3.189818     3.182175     3.174532     3.166889
      3.159245     3.151602     3.143959     3.136316     3.128673     3.121029     3.113386     3.105743     3.098100     3.090456
      3.082813     3.075170     3.067527     3.059884     3.052240     3.044597     3.036954     3.029311     3.021667     3.014024
      3.006381     2.998738     2.991095     2.983451     2.975808     2.968165     2.960522     2.952878     2.945235     2.937592
      2.929949     2.922306     2.914662     2.907019     2.899376     2.891733     2.884089     2.876446     2.868803     2.861160
      2.853517     2.845873     2.838230     2.830587     2.822944     2.815300     2.807657     2.800014     2.792371     2.784728
      2.777084     2.769441     2.761798     2.754155     2.746511     2.738868     2.731225     2.723582     2.715939     2.708295
      2.700652     2.693009     2.685366     2.677722     2.670079     2.662436     2.654793     2.647150     2.639506     2.631863
      2.624220     2.616577     2.608933     2.601290     2.593647     2.586004     2.578361     2.570717     2.563074     2.555431
      2.547788     2.540144     2.532501     2.524858     2.517215     2.509572     2.501928     2.494285     2.486642     2.478999
      2.471355     2.463712     2.456069     2.448426     2.440783     2.433139     2.425496     2.417853     2.410210     2.402566
      2.394923     2.387280     2.379637     2.371994     2.364350     2.356707     2.349064     2.341421     2.333777     2.326134
      2.318491     2.310848     2.303205     2.295561     2.287918     2.280275     2.272632     2.264988     2.257345     2.249702
      2.242059     2.234416     2.226772     2.219129     2.211486     2.203843     2.196199     2.188556     2.180913     2.173270
      2.165627     2.157983     2.150340     2.142697     2.135054     2.127410     2.119767     2.112124     2.104481     2.096838
      2.089194     2.081551     2.073908     2.066265     2.058621     2.050978     2.043335     2.035692     2.028049     2.020405
      2.012762     2.005119     1.997476     1.989833     1.982190     1.974546     1.966903     1.959260     1.951617     1.943974
      1.936331     1.928688     1.921045     1.913402     1.905759     1.898115     1.890472     1.882829     1.875186     1.867543
      1.859900     1.852257     1.844614     1.836971     1.829327     1.821684     1.814041     1.806398     1.798755     1.791112
      1.783469     1.775826     1.768183     1.760540     1.752896     1.745253     1.737610     1.729967     1.722324     1.714681
      1.707038     1.699395     1.691752     1.684108     1.676465     1.668822     1.661179     1.653536     1.645893     1.638250
      1.630607     1.622964     1.615321     1.607677     1.600034     1.592391     1.584748     1.577105     1.569462     1.561819
      1.554176     1.546533     1.538890     1.531246     1.523603     1.515960     1.508317     1.500674     1.493031     1.485388
      1.477745     1.470102     1.462458     1.454815     1.447172     1.439529     1.431886     1.424243     1.416600     1.408957
      1.401314     1.393671     1.386027     1.378384     1.370741     1.363098     1.355455     1.347812     1.340169     1.332526
      1.324883     1.317240     1.309596     1.301953     1.294310     1.286667     1.279024     1.271381     1.263738     1.256095
      1.248452     1.240808     1.233165     1.225522     1.217879     1.210236     1.202593     1.194950     1.187307     1.179664
      1.172021     1.164377     1.156734     1.149091     1.141448     1.133805     1.126162     1.118519     1.110876     1.103233
      1.095590     1.087946     1.080303     1.072660     1.065017     1.057374     1.049731     1.042088     1.034445     1.026802
      1.019158     1.011515     1.003872     0.996229     0.988586     0.980943     0.973300     0.965657     0.958014     0.950371
      0.942727     0.935084     0.927441     0.919798     0.912155     0.904512     0.896869     0.889226     0.881583     0.873940
      0.866296     0.858653     0.851010     0.843367     0.835724     0.828081     0.820438     0.812795     0.805152     0.797508
      0.789865     0.782222     0.774579     0.766936     0.759293     0.751650     0.744007     0.736364     0.728721     0.721077
      0.713434     0.705791     0.698148     0.690505     0.682862     0.675219     0.667576     0.659933     0.652290     0.644646
      0.637003     0.629360     0.621717     0.614074     0.606431     0.598788     0.591145     0.583502     0.575858     0.568215
      0.560572     0.552929     0.545286     0.537643     0.530000     0.522357     0.514714     0.507071     0.499427     0.491784
      0.484141     0.476498     0.468855     0.461212     0.453569     0.445925     0.438282     0.430639     0.422996     0.415353
      0.407710     0.400067     0.392424     0.384780     0.377137     0.369494     0.361851     0.354208     0.346565     0.338922
      0.331278     0.323635     0.315992     0.308349     0.300706     0.293063     0.285420     0.277777     0.270133     0.262490
      0.254847     0.247204     0.239561     0.231918     0.224275     0.216631     0.208988     0.201345
 NY phased data points follow
   5.39624E+01  6.04103E+01  5.40638E+01  5.81935E+01  6.04525E+01  6.29410E+01  6.53642E+01  6.74372E+01  7.95532E+01  8.20177E+01
   8.59159E+01  8.87942E+01  8.00892E+01  8.19627E+01  6.80125E+01  6.29757E+01  5.40683E+01  5.36991E+01  5.50950E+01  5.32677E+01
   4.78874E+01  4.82024E+01  5.07410E+01  5.16615E+01  5.18422E+01  5.12192E+01  5.07494E+01  4.84279E+01  4.75936E+01  5.21517E+01
   5.44296E+01  5.61779E+01  5.73055E+01  4.91461E+01  4.97271E+01  4.39658E+01  4.77068E+01  4.13057E+01  4.18723E+01  4.64768E+01
   4.79045E+01  4.51392E+01  4.67771E+01  4.58288E+01  4.54348E+01  4.49329E+01  4.33061E+01  4.67744E+01  4.77926E+01  4.34707E+01
   3.85937E+01  3.72510E+01  3.90136E+01  3.73671E+01  3.28358E+01  3.34497E+01  3.63835E+01  3.70799E+01  3.50207E+01  3.66275E+01
   3.17613E+01  3.35842E+01  2.69261E+01  2.44701E+01  1.96934E+01  2.28216E+01  2.44401E+01  2.69456E+01  2.04165E+01  2.73285E+01
   2.60573E+01  2.13191E+01  2.41238E+01  2.34558E+01  2.61143E+01  2.53926E+01  2.39241E+01  2.27695E+01  2.15314E+01  2.04150E+01
   2.39758E+01  1.89116E+01  2.03550E+01  2.27023E+01  2.02588E+01  2.14591E+01  1.96192E+01  2.20756E+01  1.56902E+01  2.56264E+01
   2.08692E+01  2.24464E+01  2.10390E+01  2.01164E+01  2.54396E+01  1.87311E+01  2.26135E+01  2.70387E+01  2.67107E+01  3.37311E+01
   4.04297E+01  5.16937E+01  5.96537E+01  6.61076E+01  6.76791E+01  5.87126E+01  4.97274E+01  4.28979E+01  3.29731E+01  2.91276E+01
   2.39710E+01  2.36304E+01  2.27369E+01  2.03496E+01  2.36693E+01  2.32234E+01  1.92843E+01  1.76883E+01  2.14663E+01  2.09408E+01
   2.03705E+01  2.65122E+01  3.15116E+01  3.41497E+01  4.37252E+01  5.26863E+01  6.45270E+01  7.63338E+01  8.03667E+01  7.12676E+01
   5.53271E+01  4.42399E+01  3.27773E+01  2.79960E+01  2.65589E+01  2.19943E+01  1.86472E+01  1.85119E+01  1.99503E+01  1.64862E+01
   1.47452E+01  8.07757E+00  1.54364E+01  1.74601E+01  4.51146E+00  1.44775E+01  1.17945E+01  1.40556E+01  1.40086E+01  1.31412E+01
   1.46353E+01  8.73993E+00  8.63998E+00  8.00389E+00  5.47525E+00  9.91609E+00  8.13589E+00  1.05194E+01  4.75401E+00  5.30056E+00
   1.30946E+00  7.42906E+00  9.31609E-01  3.08914E+00  7.26996E-01  6.09854E+00  5.43171E+00  8.60183E+00  4.94078E+00  2.03546E+00
   2.24351E+00  4.42946E+00  1.15403E+00  1.68066E+00 -1.81326E+00 -4.25130E+00 -3.34872E+00  4.55788E-01 -2.38795E+00  5.61320E+00
  -3.11731E+00 -8.23352E-01 -8.72978E+00 -4.38629E+00 -2.63158E+00 -9.08869E-02  1.07534E+00  1.24753E+00 -1.31274E-01  1.86683E+00
   9.28694E+00  1.01949E+01  1.05385E+01  1.30522E+01  1.03716E+01  1.17228E+01  9.13049E+00  5.29799E+00  4.08480E+00  2.35919E+00
   3.69399E+00  3.58517E+00  1.21044E+01  6.48361E+00  7.16779E+00  8.95721E+00  6.36085E+00  5.86188E+00  1.81195E+00  4.29599E+00
   1.64457E+00  4.46810E+00  6.73694E+00  1.19474E+01  1.49458E+01  2.22415E+01  2.22671E+01  2.27263E+01  1.40598E+01  1.23388E+01
   6.91764E+00  4.47204E+00  9.67076E-02  3.40428E+00  3.73433E+00  9.44707E+00  1.33857E+01  1.49030E+01  1.60712E+01  1.59749E+01
   1.68327E+01  1.32889E+01  1.37998E+01  1.29606E+01  9.56791E+00  1.19044E+01  1.84523E+01  1.24772E+01  1.41598E+01  1.30185E+01
   1.27877E+01  1.23978E+01  7.55443E+00  1.15623E+01  1.05869E+01  1.45887E+01  1.46675E+01  2.17016E+01  1.82638E+01  2.67996E+01
   2.93684E+01  2.86923E+01  3.15480E+01  3.04103E+01  3.46898E+01  4.12636E+01  4.59860E+01  5.76432E+01  7.53748E+01  8.80607E+01
   9.96412E+01  1.05951E+02  9.03247E+01  6.60408E+01  4.51947E+01  3.68839E+01  2.85437E+01  2.33094E+01  1.62260E+01  1.61833E+01
   1.60741E+01  1.49699E+01  1.16419E+01  1.42183E+01  1.52224E+01  1.54900E+01  4.91623E+00  9.87446E+00  1.02760E+01  6.35638E+00
   1.37172E+01  5.55490E+00  9.80063E+00  7.77314E+00  1.04997E+01  6.94417E+00  8.77407E+00  8.72455E+00  1.30093E+01  6.06316E+00
   6.38242E+00  1.02084E+01  1.49455E+01  1.09110E+01  1.16978E+01  1.17227E+01  9.13348E+00  1.28568E+01  1.20096E+01  1.08151E+01
   1.48195E+01  1.35112E+01  1.30107E+01  1.62238E+01  1.68630E+01  1.73253E+01  1.84345E+01  2.06657E+01  2.03330E+01  2.27627E+01
   2.22995E+01  2.43904E+01  2.14747E+01  2.55163E+01  2.29370E+01  2.67913E+01  2.21700E+01  1.99710E+01  2.56532E+01  2.59453E+01
   3.09208E+01  2.81973E+01  2.52525E+01  3.15559E+01  3.28002E+01  3.44764E+01  3.49858E+01  3.95900E+01  4.08034E+01  4.12090E+01
   4.26306E+01  4.30954E+01  4.32421E+01  4.69452E+01  4.37874E+01  4.20720E+01  4.01371E+01  3.96053E+01  3.44454E+01  3.41590E+01
   3.33869E+01  3.32073E+01  3.52974E+01  3.51902E+01  3.15464E+01  3.42510E+01  3.11073E+01  3.32790E+01  2.92659E+01  2.62171E+01
   2.48924E+01  2.34867E+01  2.53574E+01  2.73131E+01  2.54576E+01  2.59907E+01  2.59925E+01  2.26411E+01  2.52470E+01  2.20594E+01
   2.15089E+01  1.98834E+01  2.12630E+01  1.85441E+01  2.21873E+01  2.08519E+01  1.80427E+01  1.96362E+01  2.06067E+01  1.98564E+01
   1.98444E+01  1.95627E+01  1.66526E+01  1.54941E+01  1.70255E+01  1.80308E+01  1.77438E+01  1.80288E+01  1.72941E+01  1.81425E+01
   2.03372E+01  1.77661E+01  1.90855E+01  1.36762E+01  1.82501E+01  1.61136E+01  1.65128E+01  1.55768E+01  1.20862E+01  1.88128E+01
   1.74672E+01  1.89200E+01  2.03212E+01  1.90679E+01  1.76265E+01  1.77510E+01  1.77885E+01  1.92157E+01  2.04041E+01  1.69768E+01
   1.83292E+01  2.09898E+01  1.69806E+01  1.59493E+01  1.89586E+01  2.03487E+01  1.52009E+01  2.21463E+01  1.61275E+01  2.14500E+01
   1.98236E+01  1.51884E+01  1.86629E+01  1.97643E+01  2.05578E+01  1.61479E+01  1.76611E+01  1.64975E+01  1.45779E+01  1.37238E+01
   1.64191E+01  1.37998E+01  1.48505E+01  1.43641E+01  1.13876E+01  1.34598E+01  1.28803E+01  1.11245E+01  1.59350E+01  1.30271E+01
   1.18740E+01  1.21517E+01  9.40787E+00  1.19203E+01  1.07089E+01  1.44739E+01  8.59309E+00  8.22526E+00  1.19092E+01  1.04744E+01
   6.53586E+00  3.87222E+00  5.14829E+00  8.16011E+00  2.99642E+00  9.50346E+00  6.62121E+00  1.06898E+01  9.78029E+00  8.39524E+00
   9.48383E+00  8.86648E+00  8.75189E+00  1.16604E+01  7.86712E+00  5.13031E+00  9.99998E+00  1.11684E+01  7.29762E+00  1.13444E+01
   8.80566E+00  8.23167E+00  7.96060E+00  8.46034E+00  3.70208E+00  5.25479E+00  6.89770E+00  4.29177E+00  1.21175E+01  5.88588E+00
   8.07627E+00  1.27129E+00  1.01579E+01  7.15419E+00  6.49846E+00  7.88392E+00  4.23096E+00  6.81820E+00  6.40686E+00  6.12923E+00
   5.98296E+00  7.97958E+00  7.61748E+00  2.11114E+00  8.04958E+00  3.88737E+00  7.61167E+00  5.89516E+00  8.25586E+00  7.19401E+00
   6.31464E+00  6.63440E+00  6.74959E+00  6.20946E+00  6.31832E+00  5.80482E+00  9.25604E+00  7.18393E+00
 NY points of the fit to the data follow
   5.39327E+01  5.38234E+01  5.40974E+01  5.54337E+01  5.77407E+01  6.07696E+01  6.53605E+01  7.10417E+01  7.72715E+01  8.31469E+01
   8.69168E+01  8.69636E+01  8.31952E+01  7.68835E+01  6.97436E+01  6.32923E+01  5.82200E+01  5.48232E+01  5.24329E+01  5.03764E+01
   4.92027E+01  4.86281E+01  4.80405E+01  4.72954E+01  4.68082E+01  4.67100E+01  4.67631E+01  4.75156E+01  4.94600E+01  5.24712E+01
   5.56842E+01  5.78118E+01  5.76310E+01  5.49477E+01  5.11047E+01  4.73407E+01  4.39523E+01  4.12186E+01  3.97635E+01  3.96743E+01
   4.03022E+01  4.11683E+01  4.18567E+01  4.22735E+01  4.25344E+01  4.27541E+01  4.28647E+01  4.26164E+01  4.18713E+01  4.05767E+01
   3.90196E+01  3.76666E+01  3.66557E+01  3.57909E+01  3.50159E+01  3.44903E+01  3.41884E+01  3.39350E+01  3.36867E+01  3.34351E+01
   3.30843E+01  3.25408E+01  3.17862E+01  3.09550E+01  3.02131E+01  2.96617E+01  2.93090E+01  2.91001E+01  2.89655E+01  2.88520E+01
   2.87210E+01  2.85327E+01  2.82608E+01  2.78821E+01  2.74140E+01  2.69302E+01  2.64879E+01  2.61013E+01  2.57352E+01  2.53793E+01
   2.50232E+01  2.46331E+01  2.42025E+01  2.37302E+01  2.32095E+01  2.26331E+01  2.20308E+01  2.14904E+01  2.11207E+01  2.09780E+01
   2.10461E+01  2.12108E+01  2.13760E+01  2.15203E+01  2.16507E+01  2.18192E+01  2.24263E+01  2.49774E+01  2.93012E+01  3.41281E+01
   4.07222E+01  4.97890E+01  5.97469E+01  6.72547E+01  6.85781E+01  6.21037E+01  5.07065E+01  3.96541E+01  3.19441E+01  2.68559E+01
   2.26078E+01  1.97582E+01  1.87816E+01  1.84137E+01  1.82164E+01  1.81011E+01  1.80507E+01  1.80620E+01  1.81600E+01  1.84608E+01
   1.94910E+01  2.30200E+01  2.87494E+01  3.51168E+01  4.35312E+01  5.47941E+01  6.70110E+01  7.62214E+01  7.79888E+01  7.03574E+01
   5.68125E+01  4.37510E+01  3.46478E+01  2.84104E+01  2.27709E+01  1.82875E+01  1.57695E+01  1.42158E+01  1.35245E+01  1.36236E+01
   1.41592E+01  1.47092E+01  1.50401E+01  1.50399E+01  1.47005E+01  1.41666E+01  1.35362E+01  1.28320E+01  1.21093E+01  1.14049E+01
   1.08145E+01  1.03154E+01  9.85864E+00  9.44149E+00  9.05597E+00  8.64066E+00  8.27047E+00  7.91373E+00  7.43967E+00  6.83520E+00
   6.10047E+00  5.54784E+00  5.49697E+00  5.89833E+00  6.36409E+00  6.49914E+00  6.16113E+00  5.55838E+00  4.99011E+00  4.49625E+00
   3.99798E+00  3.51038E+00  3.10971E+00  2.72070E+00  2.20675E+00  1.63042E+00  1.32118E+00  1.43745E+00  1.80854E+00  2.03689E+00
   1.83585E+00  1.38229E+00  1.25667E+00  1.61783E+00  2.05565E+00  2.35727E+00  2.73118E+00  3.45726E+00  4.74362E+00  6.30225E+00
   7.59618E+00  8.22347E+00  7.97010E+00  7.19919E+00  6.32674E+00  5.48824E+00  4.85915E+00  4.64118E+00  5.04104E+00  6.08437E+00
   7.72836E+00  9.52989E+00  1.08586E+01  1.13128E+01  1.08344E+01  9.63223E+00  7.45967E+00  4.54936E+00  1.93658E+00  4.54916E-01
   6.22879E-01  2.22198E+00  4.75035E+00  7.89456E+00  1.13380E+01  1.43889E+01  1.58586E+01  1.48211E+01  1.15262E+01  7.32872E+00
   3.31258E+00  2.04786E-01 -1.37165E+00 -9.73325E-01  1.72264E+00  5.83724E+00  9.65887E+00  1.22642E+01  1.36176E+01  1.40255E+01
   1.37745E+01  1.31239E+01  1.25753E+01  1.26455E+01  1.34082E+01  1.46825E+01  1.61419E+01  1.74265E+01  1.81783E+01  1.79679E+01
   1.67874E+01  1.52241E+01  1.41286E+01  1.40054E+01  1.49588E+01  1.67249E+01  1.87560E+01  2.05296E+01  2.17582E+01  2.25801E+01
   2.33622E+01  2.41198E+01  2.51072E+01  2.73346E+01  3.36810E+01  4.24940E+01  5.08137E+01  6.09256E+01  7.43572E+01  8.91086E+01
   1.00123E+02  1.01123E+02  8.90944E+01  6.91930E+01  5.07361E+01  3.83007E+01  2.98366E+01  2.22048E+01  1.71427E+01  1.52436E+01
   1.41403E+01  1.33116E+01  1.27575E+01  1.24412E+01  1.22017E+01  1.19425E+01  1.15888E+01  1.11416E+01  1.06662E+01  1.02243E+01
   9.82300E+00  9.47179E+00  9.20826E+00  9.04570E+00  8.95122E+00  8.88620E+00  8.84682E+00  8.85059E+00  8.90964E+00  9.02372E+00
   9.20441E+00  9.46311E+00  9.79884E+00  1.01988E+01  1.06545E+01  1.11601E+01  1.17119E+01  1.23076E+01  1.29437E+01  1.36155E+01
   1.43198E+01  1.50472E+01  1.57826E+01  1.65102E+01  1.72174E+01  1.78958E+01  1.85395E+01  1.91451E+01  1.97160E+01  2.02592E+01
   2.07841E+01  2.13032E+01  2.18314E+01  2.23851E+01  2.29825E+01  2.36414E+01  2.43779E+01  2.52045E+01  2.61291E+01  2.71549E+01
   2.82795E+01  2.94944E+01  3.07840E+01  3.21265E+01  3.34948E+01  3.48579E+01  3.61824E+01  3.74329E+01  3.85743E+01  3.95728E+01
   4.03990E+01  4.10285E+01  4.14435E+01  4.16331E+01  4.15936E+01  4.13290E+01  4.08517E+01  4.01811E+01  3.93431E+01  3.83694E+01
   3.72992E+01  3.61801E+01  3.50189E+01  3.38287E+01  3.26629E+01  3.15348E+01  3.04183E+01  2.92819E+01  2.81251E+01  2.70369E+01
   2.61145E+01  2.54086E+01  2.49237E+01  2.46192E+01  2.44492E+01  2.43758E+01  2.42959E+01  2.40909E+01  2.37472E+01  2.33273E+01
   2.28938E+01  2.24576E+01  2.20001E+01  2.15441E+01  2.11043E+01  2.06715E+01  2.02411E+01  1.98118E+01  1.93831E+01  1.89561E+01
   1.85331E+01  1.81176E+01  1.77136E+01  1.73254E+01  1.69576E+01  1.66154E+01  1.63036E+01  1.60269E+01  1.57892E+01  1.55940E+01
   1.54440E+01  1.53420E+01  1.52898E+01  1.52887E+01  1.53388E+01  1.54399E+01  1.55908E+01  1.57899E+01  1.60347E+01  1.63215E+01
   1.66455E+01  1.70012E+01  1.73822E+01  1.77813E+01  1.81903E+01  1.86003E+01  1.90016E+01  1.93844E+01  1.97393E+01  2.00569E+01
   2.03283E+01  2.05453E+01  2.07010E+01  2.07901E+01  2.08092E+01  2.07565E+01  2.06316E+01  2.04363E+01  2.01740E+01  1.98498E+01
   1.94703E+01  1.90429E+01  1.85754E+01  1.80763E+01  1.75542E+01  1.70176E+01  1.64746E+01  1.59324E+01  1.53972E+01  1.48745E+01
   1.43691E+01  1.38846E+01  1.34237E+01  1.29882E+01  1.25789E+01  1.21961E+01  1.18400E+01  1.15098E+01  1.12046E+01  1.09230E+01
   1.06633E+01  1.04244E+01  1.02047E+01  1.00028E+01  9.81699E+00  9.64578E+00  9.48779E+00  9.34195E+00  9.20719E+00  9.08246E+00
   8.96660E+00  8.85870E+00  8.75804E+00  8.66410E+00  8.57626E+00  8.49388E+00  8.41628E+00  8.34302E+00  8.27380E+00  8.20841E+00
   8.14646E+00  8.08754E+00  8.03128E+00  7.97752E+00  7.92618E+00  7.87715E+00  7.83015E+00  7.78492E+00  7.74124E+00  7.69914E+00
   7.65860E+00  7.61954E+00  7.58170E+00  7.54493E+00  7.50916E+00  7.47448E+00  7.44088E+00  7.40825E+00  7.37636E+00  7.34516E+00
   7.31466E+00  7.28500E+00  7.25611E+00  7.22786E+00  7.20010E+00  7.17283E+00  7.14615E+00  7.12013E+00  7.09467E+00  7.06964E+00
   7.04494E+00  7.02067E+00  6.99690E+00  6.97369E+00  6.95088E+00  6.92838E+00  6.90616E+00  6.88435E+00  6.86302E+00  6.84216E+00
   6.82159E+00  6.80127E+00  6.78123E+00  6.76164E+00  6.74251E+00  6.72376E+00  6.70526E+00  6.68702E+00
 NY background values follow
     5.144E+01    5.108E+01    5.071E+01    5.034E+01    4.998E+01    4.961E+01    4.925E+01    4.888E+01    4.851E+01    4.815E+01
     4.778E+01    4.741E+01    4.705E+01    4.668E+01    4.632E+01    4.595E+01    4.558E+01    4.522E+01    4.485E+01    4.449E+01
     4.412E+01    4.376E+01    4.339E+01    4.303E+01    4.267E+01    4.230E+01    4.194E+01    4.158E+01    4.122E+01    4.085E+01
     4.049E+01    4.013E+01    3.977E+01    3.942E+01    3.906E+01    3.870E+01    3.834E+01    3.799E+01    3.763E+01    3.728E+01
     3.693E+01    3.657E+01    3.622E+01    3.587E+01    3.552E+01    3.517E+01    3.483E+01    3.448E+01    3.414E+01    3.379E+01
     3.345E+01    3.311E+01    3.277E+01    3.243E+01    3.209E+01    3.175E+01    3.142E+01    3.108E+01    3.075E+01    3.042E+01
     3.009E+01    2.976E+01    2.943E+01    2.911E+01    2.879E+01    2.846E+01    2.814E+01    2.782E+01    2.751E+01    2.719E+01
     2.688E+01    2.657E+01    2.626E+01    2.595E+01    2.564E+01    2.534E+01    2.503E+01    2.473E+01    2.443E+01    2.414E+01
     2.384E+01    2.355E+01    2.326E+01    2.297E+01    2.269E+01    2.240E+01    2.212E+01    2.184E+01    2.156E+01    2.129E+01
     2.101E+01    2.074E+01    2.048E+01    2.021E+01    1.995E+01    1.968E+01    1.943E+01    1.917E+01    1.891E+01    1.866E+01
     1.841E+01    1.816E+01    1.792E+01    1.768E+01    1.744E+01    1.720E+01    1.696E+01    1.673E+01    1.649E+01    1.626E+01
     1.603E+01    1.581E+01    1.558E+01    1.536E+01    1.514E+01    1.492E+01    1.471E+01    1.450E+01    1.428E+01    1.407E+01
     1.387E+01    1.366E+01    1.346E+01    1.325E+01    1.305E+01    1.286E+01    1.266E+01    1.247E+01    1.227E+01    1.208E+01
     1.189E+01    1.171E+01    1.152E+01    1.134E+01    1.116E+01    1.098E+01    1.080E+01    1.062E+01    1.045E+01    1.028E+01
     1.011E+01    9.939E+00    9.772E+00    9.606E+00    9.443E+00    9.282E+00    9.122E+00    8.965E+00    8.809E+00    8.656E+00
     8.504E+00    8.354E+00    8.206E+00    8.060E+00    7.917E+00    7.775E+00    7.635E+00    7.498E+00    7.362E+00    7.228E+00
     7.097E+00    6.968E+00    6.841E+00    6.716E+00    6.593E+00    6.472E+00    6.353E+00    6.237E+00    6.123E+00    6.011E+00
     5.901E+00    5.794E+00    5.689E+00    5.586E+00    5.485E+00    5.387E+00    5.291E+00    5.197E+00    5.106E+00    5.017E+00
     4.931E+00    4.846E+00    4.765E+00    4.685E+00    4.608E+00    4.533E+00    4.461E+00    4.390E+00    4.322E+00    4.256E+00
     4.192E+00    4.129E+00    4.069E+00    4.011E+00    3.955E+00    3.901E+00    3.848E+00    3.797E+00    3.748E+00    3.701E+00
     3.655E+00    3.611E+00    3.569E+00    3.528E+00    3.488E+00    3.450E+00    3.414E+00    3.378E+00    3.345E+00    3.312E+00
     3.281E+00    3.251E+00    3.222E+00    3.194E+00    3.167E+00    3.142E+00    3.117E+00    3.094E+00    3.071E+00    3.049E+00
     3.028E+00    3.008E+00    2.989E+00    2.970E+00    2.952E+00    2.935E+00    2.918E+00    2.902E+00    2.887E+00    2.872E+00
     2.857E+00    2.844E+00    2.830E+00    2.818E+00    2.806E+00    2.795E+00    2.784E+00    2.774E+00    2.764E+00    2.755E+00
     2.747E+00    2.739E+00    2.732E+00    2.726E+00    2.720E+00    2.715E+00    2.711E+00    2.707E+00    2.704E+00    2.701E+00
     2.700E+00    2.699E+00    2.698E+00    2.698E+00    2.699E+00    2.701E+00    2.703E+00    2.706E+00    2.710E+00    2.714E+00
     2.719E+00    2.725E+00    2.732E+00    2.739E+00    2.747E+00    2.755E+00    2.765E+00    2.775E+00    2.786E+00    2.797E+00
     2.810E+00    2.823E+00    2.837E+00    2.851E+00    2.866E+00    2.882E+00    2.899E+00    2.917E+00    2.935E+00    2.953E+00
     2.973E+00    2.993E+00    3.013E+00    3.034E+00    3.056E+00    3.079E+00    3.101E+00    3.125E+00    3.149E+00    3.173E+00
     3.198E+00    3.224E+00    3.250E+00    3.276E+00    3.303E+00    3.330E+00    3.358E+00    3.386E+00    3.414E+00    3.443E+00
     3.472E+00    3.502E+00    3.532E+00    3.562E+00    3.592E+00    3.623E+00    3.654E+00    3.685E+00    3.717E+00    3.748E+00
     3.780E+00    3.812E+00    3.845E+00    3.877E+00    3.910E+00    3.943E+00    3.976E+00    4.009E+00    4.042E+00    4.075E+00
     4.108E+00    4.142E+00    4.175E+00    4.209E+00    4.242E+00    4.276E+00    4.309E+00    4.343E+00    4.376E+00    4.410E+00
     4.443E+00    4.477E+00    4.510E+00    4.544E+00    4.577E+00    4.610E+00    4.643E+00    4.676E+00    4.709E+00    4.742E+00
     4.775E+00    4.807E+00    4.840E+00    4.872E+00    4.904E+00    4.936E+00    4.968E+00    4.999E+00    5.030E+00    5.061E+00
     5.092E+00    5.123E+00    5.153E+00    5.183E+00    5.213E+00    5.242E+00    5.271E+00    5.300E+00    5.329E+00    5.357E+00
     5.385E+00    5.412E+00    5.439E+00    5.466E+00    5.492E+00    5.518E+00    5.544E+00    5.569E+00    5.594E+00    5.618E+00
     5.643E+00    5.666E+00    5.690E+00    5.713E+00    5.735E+00    5.758E+00    5.779E+00    5.801E+00    5.822E+00    5.843E+00
     5.863E+00    5.883E+00    5.903E+00    5.922E+00    5.941E+00    5.959E+00    5.978E+00    5.995E+00    6.013E+00    6.030E+00
     6.046E+00    6.062E+00    6.078E+00    6.094E+00    6.109E+00    6.123E+00    6.138E+00    6.152E+00    6.165E+00    6.178E+00
     6.191E+00    6.203E+00    6.215E+00    6.227E+00    6.238E+00    6.249E+00    6.259E+00    6.269E+00    6.279E+00    6.288E+00
     6.297E+00    6.306E+00    6.314E+00    6.322E+00    6.329E+00    6.336E+00    6.343E+00    6.349E+00    6.355E+00    6.360E+00
     6.366E+00    6.370E+00    6.375E+00    6.379E+00    6.383E+00    6.386E+00    6.390E+00    6.392E+00    6.395E+00    6.397E+00
     6.399E+00    6.400E+00    6.401E+00    6.402E+00    6.403E+00    6.403E+00    6.403E+00    6.402E+00    6.401E+00    6.400E+00
     6.399E+00    6.397E+00    6.395E+00    6.393E+00    6.391E+00    6.388E+00    6.385E+00    6.381E+00    6.378E+00    6.374E+00
     6.369E+00    6.365E+00    6.360E+00    6.355E+00    6.350E+00    6.344E+00    6.338E+00    6.332E+00    6.326E+00    6.319E+00
     6.313E+00    6.306E+00    6.299E+00    6.291E+00    6.284E+00    6.276E+00    6.268E+00    6.260E+00    6.252E+00    6.244E+00
     6.236E+00    6.227E+00    6.219E+00    6.210E+00    6.201E+00    6.192E+00    6.183E+00    6.174E+00    6.165E+00    6.156E+00
     6.147E+00    6.137E+00    6.128E+00    6.119E+00    6.110E+00    6.100E+00    6.091E+00    6.082E+00    6.072E+00    6.063E+00
     6.054E+00    6.045E+00    6.035E+00    6.026E+00    6.017E+00    6.008E+00    6.000E+00    5.991E+00
 Asp      Conc. = 2.88E+02
