 LCModel (Version 6.3-1L) Copyright: S.W. Provencher.          Ref.: Magn. Reson. Med. 30:672-679 (1993).                
 Slice#3 Row#7 Col#4  K_02_press_1_raw_act
 36 lines in following concentration table = NCONC+1
    Conc.  %SD /Cr+PCr  Metabolite                                         
   20.821 531% 1.1E-02 Ala                                                 
    0.000 999%   0.000 Asp                                                 
 1.31E+03  18%   0.667 Cr                                                  
  653.758  35%   0.333 PCr                                                 
    0.000 999%   0.000 GABA                                                
    0.000 999%   0.000 Glc                                                 
  151.536 153% 7.7E-02 Gln                                                 
 1.70E+03  15%   0.867 Glu                                                 
  566.752   4%   0.288 GPC                                                 
    0.000 999%   0.000 PCh                                                 
  537.383  14%   0.274 GSH                                                 
  578.350  45%   0.294 Ins                                                 
    0.000 999%   0.000 Lac                                                 
 2.24E+03   6%   1.140 NAA                                                 
  713.302  19%   0.363 NAAG                                                
    0.000 999%   0.000 Scyllo                                              
    0.000 999%   0.000 Tau                                                 
    0.000 999%   0.000 -CrCH2                                              
  566.752   4%   0.288 GPC+PCh                                             
 2.95E+03   3%   1.503 NAA+NAAG                                            
 1.96E+03   3%   1.000 Cr+PCr                                              
 1.85E+03  20%   0.944 Glu+Gln                                             
    0.000 999%   0.000 Lip13a                                              
    1.571 999% 8.0E-04 Lip13b                                              
    0.000 999%   0.000 Lip09                                               
 2.07E+03  14%   1.052 MM09                                                
    0.711 999% 3.6E-04 Lip20                                               
 5.28E+03  10%   2.688 MM20                                                
  660.573  28%   0.336 MM12                                                
    0.000 999%   0.000 MM14                                                
 1.78E+03  20%   0.907 MM17                                                
    1.571 999% 8.0E-04 Lip13a+Lip13b                                       
  662.144  29%   0.337 MM14+Lip13a+Lip13b+MM12                             
 2.07E+03  14%   1.052 MM09+Lip09                                          
 5.28E+03  10%   2.688 MM20+Lip20                                          
   6 lines in following misc. output table
  FWHM = 0.046 ppm    S/N =  14                                            
  Data shift = 0.008 ppm                                                   
  Ph:   8 deg       2.9 deg/ppm                                            
  alphaB,S = 2.8E-01,   9.8E+01                                            
   14 spline knots.   Ns = 7(1)                                            
  (13) 3 infls.   ( 7) 1 extrs.                                            
  498 points on ppm-axis = NY
      4.000000     3.992357     3.984714     3.977070     3.969427     3.961784     3.954141     3.946497     3.938854     3.931211
      3.923568     3.915925     3.908281     3.900638     3.892995     3.885352     3.877708     3.870065     3.862422     3.854779
      3.847136     3.839492     3.831849     3.824206     3.816563     3.808919     3.801276     3.793633     3.785990     3.778347
      3.770703     3.763060     3.755417     3.747774     3.740130     3.732487     3.724844     3.717201     3.709558     3.701914
      3.694271     3.686628     3.678985     3.671341     3.663698     3.656055     3.648412     3.640769     3.633125     3.625482
      3.617839     3.610196     3.602552     3.594909     3.587266     3.579623     3.571980     3.564336     3.556693     3.549050
      3.541407     3.533763     3.526120     3.518477     3.510834     3.503191     3.495547     3.487904     3.480261     3.472618
      3.464974     3.457331     3.449688     3.442045     3.434402     3.426758     3.419115     3.411472     3.403829     3.396185
      3.388542     3.380899     3.373256     3.365613     3.357969     3.350326     3.342683     3.335040     3.327396     3.319753
      3.312110     3.304467     3.296824     3.289180     3.281537     3.273894     3.266251     3.258607     3.250964     3.243321
      3.235678     3.228034     3.220391     3.212748     3.205105     3.197462     3.189818     3.182175     3.174532     3.166889
      3.159245     3.151602     3.143959     3.136316     3.128673     3.121029     3.113386     3.105743     3.098100     3.090456
      3.082813     3.075170     3.067527     3.059884     3.052240     3.044597     3.036954     3.029311     3.021667     3.014024
      3.006381     2.998738     2.991095     2.983451     2.975808     2.968165     2.960522     2.952878     2.945235     2.937592
      2.929949     2.922306     2.914662     2.907019     2.899376     2.891733     2.884089     2.876446     2.868803     2.861160
      2.853517     2.845873     2.838230     2.830587     2.822944     2.815300     2.807657     2.800014     2.792371     2.784728
      2.777084     2.769441     2.761798     2.754155     2.746511     2.738868     2.731225     2.723582     2.715939     2.708295
      2.700652     2.693009     2.685366     2.677722     2.670079     2.662436     2.654793     2.647150     2.639506     2.631863
      2.624220     2.616577     2.608933     2.601290     2.593647     2.586004     2.578361     2.570717     2.563074     2.555431
      2.547788     2.540144     2.532501     2.524858     2.517215     2.509572     2.501928     2.494285     2.486642     2.478999
      2.471355     2.463712     2.456069     2.448426     2.440783     2.433139     2.425496     2.417853     2.410210     2.402566
      2.394923     2.387280     2.379637     2.371994     2.364350     2.356707     2.349064     2.341421     2.333777     2.326134
      2.318491     2.310848     2.303205     2.295561     2.287918     2.280275     2.272632     2.264988     2.257345     2.249702
      2.242059     2.234416     2.226772     2.219129     2.211486     2.203843     2.196199     2.188556     2.180913     2.173270
      2.165627     2.157983     2.150340     2.142697     2.135054     2.127410     2.119767     2.112124     2.104481     2.096838
      2.089194     2.081551     2.073908     2.066265     2.058621     2.050978     2.043335     2.035692     2.028049     2.020405
      2.012762     2.005119     1.997476     1.989833     1.982190     1.974546     1.966903     1.959260     1.951617     1.943974
      1.936331     1.928688     1.921045     1.913402     1.905759     1.898115     1.890472     1.882829     1.875186     1.867543
      1.859900     1.852257     1.844614     1.836971     1.829327     1.821684     1.814041     1.806398     1.798755     1.791112
      1.783469     1.775826     1.768183     1.760540     1.752896     1.745253     1.737610     1.729967     1.722324     1.714681
      1.707038     1.699395     1.691752     1.684108     1.676465     1.668822     1.661179     1.653536     1.645893     1.638250
      1.630607     1.622964     1.615321     1.607677     1.600034     1.592391     1.584748     1.577105     1.569462     1.561819
      1.554176     1.546533     1.538890     1.531246     1.523603     1.515960     1.508317     1.500674     1.493031     1.485388
      1.477745     1.470102     1.462458     1.454815     1.447172     1.439529     1.431886     1.424243     1.416600     1.408957
      1.401314     1.393671     1.386027     1.378384     1.370741     1.363098     1.355455     1.347812     1.340169     1.332526
      1.324883     1.317240     1.309596     1.301953     1.294310     1.286667     1.279024     1.271381     1.263738     1.256095
      1.248452     1.240808     1.233165     1.225522     1.217879     1.210236     1.202593     1.194950     1.187307     1.179664
      1.172021     1.164377     1.156734     1.149091     1.141448     1.133805     1.126162     1.118519     1.110876     1.103233
      1.095590     1.087946     1.080303     1.072660     1.065017     1.057374     1.049731     1.042088     1.034445     1.026802
      1.019158     1.011515     1.003872     0.996229     0.988586     0.980943     0.973300     0.965657     0.958014     0.950371
      0.942727     0.935084     0.927441     0.919798     0.912155     0.904512     0.896869     0.889226     0.881583     0.873940
      0.866296     0.858653     0.851010     0.843367     0.835724     0.828081     0.820438     0.812795     0.805152     0.797508
      0.789865     0.782222     0.774579     0.766936     0.759293     0.751650     0.744007     0.736364     0.728721     0.721077
      0.713434     0.705791     0.698148     0.690505     0.682862     0.675219     0.667576     0.659933     0.652290     0.644646
      0.637003     0.629360     0.621717     0.614074     0.606431     0.598788     0.591145     0.583502     0.575858     0.568215
      0.560572     0.552929     0.545286     0.537643     0.530000     0.522357     0.514714     0.507071     0.499427     0.491784
      0.484141     0.476498     0.468855     0.461212     0.453569     0.445925     0.438282     0.430639     0.422996     0.415353
      0.407710     0.400067     0.392424     0.384780     0.377137     0.369494     0.361851     0.354208     0.346565     0.338922
      0.331278     0.323635     0.315992     0.308349     0.300706     0.293063     0.285420     0.277777     0.270133     0.262490
      0.254847     0.247204     0.239561     0.231918     0.224275     0.216631     0.208988     0.201345
 NY phased data points follow
   6.19432E+01  6.29699E+01  6.96310E+01  7.09961E+01  6.93448E+01  7.77930E+01  8.40877E+01  8.95908E+01  9.45459E+01  1.04307E+02
   1.05443E+02  1.02008E+02  9.68786E+01  8.67595E+01  7.78076E+01  6.83326E+01  6.50715E+01  5.75602E+01  5.68369E+01  5.30006E+01
   5.33694E+01  5.67838E+01  5.37289E+01  5.56364E+01  5.72536E+01  6.02835E+01  5.79115E+01  6.11172E+01  5.93591E+01  5.59821E+01
   5.59584E+01  6.14394E+01  5.73062E+01  5.84853E+01  5.45778E+01  4.95440E+01  4.66979E+01  4.86938E+01  4.86664E+01  4.85554E+01
   4.62166E+01  4.53637E+01  4.72430E+01  4.71153E+01  4.69733E+01  4.94629E+01  4.95634E+01  5.75328E+01  5.62530E+01  5.02893E+01
   4.39878E+01  4.73457E+01  4.50784E+01  4.05343E+01  3.54511E+01  4.13784E+01  3.91284E+01  4.08691E+01  3.98555E+01  4.24583E+01
   3.21428E+01  3.50321E+01  3.02698E+01  3.16348E+01  2.77363E+01  2.47471E+01  2.58397E+01  2.65707E+01  2.32000E+01  2.80285E+01
   2.86322E+01  2.70057E+01  2.20408E+01  2.92402E+01  2.73604E+01  2.92187E+01  2.41446E+01  2.53828E+01  2.02645E+01  2.72701E+01
   2.58052E+01  1.78555E+01  2.35484E+01  2.19591E+01  2.61598E+01  2.33759E+01  2.46757E+01  2.49885E+01  2.63546E+01  2.83858E+01
   2.70255E+01  2.77928E+01  2.65507E+01  3.27794E+01  2.91511E+01  3.56743E+01  3.03328E+01  3.92593E+01  4.55182E+01  4.27628E+01
   5.77760E+01  6.95873E+01  7.75709E+01  8.14897E+01  7.32868E+01  6.35656E+01  5.05156E+01  4.49070E+01  3.53548E+01  3.64863E+01
   3.08073E+01  2.84521E+01  2.96679E+01  2.78716E+01  2.78761E+01  2.92030E+01  2.82384E+01  3.32047E+01  3.55500E+01  3.42419E+01
   4.15895E+01  4.53365E+01  4.67841E+01  5.38024E+01  6.38720E+01  7.07441E+01  8.63892E+01  9.12489E+01  8.53720E+01  7.22229E+01
   5.59469E+01  4.18458E+01  3.78619E+01  3.09696E+01  2.92821E+01  2.73034E+01  1.98969E+01  2.32393E+01  2.40582E+01  2.27742E+01
   2.58517E+01  2.68674E+01  2.04392E+01  2.62461E+01  2.06990E+01  1.98323E+01  1.59052E+01  2.24187E+01  1.92565E+01  1.84220E+01
   1.77614E+01  1.90527E+01  1.93793E+01  1.67211E+01  2.09618E+01  1.35328E+01  1.87531E+01  1.52415E+01  1.53010E+01  1.59213E+01
   1.23212E+01  1.36130E+01  9.99271E+00  1.03042E+01  1.00595E+01  1.19535E+01  1.21599E+01  1.16105E+01  9.39490E+00  7.63038E+00
   2.72708E+00  6.18830E+00  4.63750E+00 -3.50930E-01  1.51498E+00  1.12521E-01  2.34641E+00 -8.92398E-01 -1.40512E+00  2.90447E+00
   2.12246E-01  1.71800E+00 -1.04004E+00 -4.55560E-01  4.40297E+00  2.62879E+00  4.40452E+00  8.04517E+00  1.10753E+01  1.51395E+01
   1.68481E+01  2.00721E+01  2.04795E+01  1.77371E+01  1.24098E+01  1.52668E+01  1.46977E+01  1.02326E+01  9.03617E+00  1.21244E+01
   9.70971E+00  1.38495E+01  1.19606E+01  1.53316E+01  1.06392E+01  9.91564E+00  9.84783E+00  8.63746E+00  7.40624E+00  1.09058E+01
   9.47004E+00  1.07261E+01  1.57881E+01  2.08885E+01  1.76741E+01  2.21340E+01  2.09130E+01  1.88373E+01  1.52434E+01  1.08664E+01
   9.19939E+00  6.01416E+00  6.49917E+00  9.61030E+00  1.36833E+01  1.58429E+01  2.08451E+01  1.99024E+01  2.22079E+01  2.55103E+01
   2.09955E+01  1.68878E+01  2.02359E+01  1.68195E+01  1.97414E+01  1.98680E+01  1.66580E+01  2.09477E+01  1.80400E+01  1.52185E+01
   1.43755E+01  1.63795E+01  1.54503E+01  1.96628E+01  1.56959E+01  2.58485E+01  2.95040E+01  2.95815E+01  2.75419E+01  3.45315E+01
   3.76597E+01  4.23565E+01  4.20728E+01  5.23838E+01  6.09690E+01  7.47010E+01  8.30493E+01  9.04728E+01  9.65550E+01  1.04947E+02
   1.10747E+02  1.15709E+02  8.65367E+01  5.91782E+01  4.15871E+01  2.84357E+01  2.49273E+01  2.03195E+01  1.70439E+01  1.55586E+01
   1.77112E+01  1.86975E+01  1.98176E+01  1.73317E+01  1.82237E+01  1.82200E+01  1.84743E+01  1.58090E+01  1.56700E+01  1.55983E+01
   1.78436E+01  1.14087E+01  9.71890E+00  1.55538E+01  1.29888E+01  1.09212E+01  7.83707E+00  8.40185E+00  1.11535E+01  8.77372E+00
   7.14463E+00  8.24381E+00  5.68998E+00  7.97796E+00  7.53340E+00  5.45629E+00  4.97047E+00  8.96530E+00  7.12631E+00  5.02544E+00
   8.89927E+00  4.67298E+00  8.03111E+00  2.63353E+00  6.65751E+00  6.73775E+00  8.89560E+00  8.66853E+00  6.09907E+00  2.19475E+00
   4.86060E+00  4.82005E+00  4.86143E+00  2.51829E+00  1.18232E-01  1.37269E+00 -2.35519E+00  2.03760E+00 -3.41795E+00 -2.04596E+00
  -4.40534E+00 -5.32130E+00 -5.02236E+00 -8.12981E+00 -7.29704E+00 -3.67434E+00 -6.20224E+00 -3.80919E+00 -4.36798E+00 -9.71623E+00
  -7.86936E+00 -1.23617E+01 -1.27604E+01 -1.13359E+01 -1.69622E+01 -9.35999E+00 -1.33962E+01 -1.09392E+01 -1.39593E+01 -1.32721E+01
  -1.16401E+01 -1.28197E+01 -1.34061E+01 -7.08050E+00 -1.10442E+01 -8.95753E+00 -1.04244E+01 -1.10614E+01 -1.06146E+01 -8.91021E+00
  -8.05423E+00 -9.39649E+00 -1.23628E+01 -9.20083E+00 -7.97676E+00 -6.63577E+00 -5.15834E+00 -3.32648E+00 -5.23907E+00 -8.60365E+00
  -6.41804E+00 -8.53684E+00 -9.66349E+00 -6.75460E+00 -4.72205E+00 -4.46506E+00 -7.21174E+00 -6.66778E+00 -5.81073E+00 -6.06598E+00
  -6.22648E+00 -7.55873E-01 -4.10589E+00 -4.06958E+00 -2.34419E+00 -6.33428E+00 -4.90802E+00 -4.79216E+00 -7.74323E+00 -4.52661E+00
  -5.70220E-01 -4.86417E+00 -6.01943E+00 -5.63713E+00 -1.14207E+00 -4.24842E+00 -7.71450E+00 -2.65031E+00 -2.36062E+00 -3.14729E+00
  -4.74257E+00 -2.33843E+00 -5.72079E-01  4.56935E+00  6.99107E-01  5.73619E+00  1.63641E+00  1.42253E+00  9.07672E-01  2.20933E+00
   1.32197E+00  3.68226E+00  3.45698E+00  3.60307E+00  4.16970E+00  2.33384E+00  4.74403E+00  5.39121E+00  5.16131E+00  7.23477E+00
   7.97619E+00  8.12115E+00  5.88389E+00  5.36454E+00  3.04551E+00  2.26356E+00  5.70812E+00  6.14363E+00  3.34105E+00  3.95495E+00
   1.35228E+00  8.05168E-01  3.89589E+00  4.45120E+00  3.61429E+00  8.64753E-01  2.28032E+00  1.82407E+00  9.09449E-01 -8.87255E-01
   2.78333E+00  5.47032E+00  3.31362E+00  3.79802E+00  2.73042E+00  4.60497E+00  1.77636E+00  5.00238E+00  8.14764E+00  2.66199E+00
   3.09470E+00  5.27432E+00  5.52824E+00  5.05049E+00  5.03015E+00  5.20485E+00  1.86761E+00  4.22358E+00  1.61305E+00  1.21113E+00
   4.27415E+00  5.77607E+00  3.53210E+00  1.95692E+00  8.66152E+00  2.89415E+00  1.22832E+00  3.78072E+00 -8.16922E-02  3.73696E+00
   1.78158E+00  4.58318E-01  8.89021E+00  6.69526E+00  2.85605E+00  3.45561E+00  8.09643E+00  7.51386E+00  3.26878E+00  2.44424E+00
   3.43410E+00  2.67271E+00  6.01071E+00  5.83024E+00  7.88281E-01 -6.82202E-01  3.60123E+00  6.44142E+00  6.24554E+00  2.02891E+00
   6.38474E+00  4.32366E+00  1.57640E+00  7.29714E+00  3.57472E+00  4.92633E+00  3.37932E+00 -7.54326E-01  2.90362E+00  4.75359E+00
   4.78939E+00  3.62586E+00  5.96213E+00  6.79534E+00  3.93663E+00  5.79736E+00  5.91983E+00  3.66073E+00
 NY points of the fit to the data follow
   6.37375E+01  6.39945E+01  6.54974E+01  6.83652E+01  7.28200E+01  7.76689E+01  8.24207E+01  8.77411E+01  9.38926E+01  9.97053E+01
   1.02925E+02  1.01397E+02  9.47370E+01  8.49943E+01  7.54759E+01  6.84113E+01  6.39221E+01  6.09565E+01  5.87773E+01  5.71615E+01
   5.59647E+01  5.48428E+01  5.41335E+01  5.44180E+01  5.49041E+01  5.52778E+01  5.59240E+01  5.71938E+01  5.90157E+01  6.10461E+01
   6.25317E+01  6.23674E+01  6.02818E+01  5.71823E+01  5.38266E+01  5.06704E+01  4.80958E+01  4.63330E+01  4.54905E+01  4.55861E+01
   4.62440E+01  4.69124E+01  4.72480E+01  4.73487E+01  4.73578E+01  4.73596E+01  4.73540E+01  4.71449E+01  4.64469E+01  4.51676E+01
   4.35239E+01  4.18960E+01  4.05800E+01  3.96260E+01  3.89345E+01  3.84363E+01  3.80479E+01  3.77142E+01  3.74146E+01  3.71258E+01
   3.67695E+01  3.62296E+01  3.54773E+01  3.46113E+01  3.38124E+01  3.32488E+01  3.29193E+01  3.27419E+01  3.26357E+01  3.25380E+01
   3.24065E+01  3.22174E+01  3.19469E+01  3.15736E+01  3.11102E+01  3.06188E+01  3.01664E+01  2.97769E+01  2.94342E+01  2.90950E+01
   2.87046E+01  2.82681E+01  2.78056E+01  2.73407E+01  2.68621E+01  2.63505E+01  2.58243E+01  2.53647E+01  2.50725E+01  2.50359E+01
   2.52330E+01  2.55464E+01  2.58931E+01  2.62831E+01  2.68913E+01  2.86805E+01  3.37202E+01  3.99418E+01  4.51541E+01  5.05093E+01
   5.77892E+01  6.70295E+01  7.59548E+01  8.05098E+01  7.71277E+01  6.61368E+01  5.23654E+01  4.09706E+01  3.37529E+01  2.96154E+01
   2.70058E+01  2.52946E+01  2.44976E+01  2.42373E+01  2.41592E+01  2.41935E+01  2.43394E+01  2.46621E+01  2.54449E+01  2.81554E+01
   3.49492E+01  4.25941E+01  4.91330E+01  5.62105E+01  6.56644E+01  7.70921E+01  8.75010E+01  9.19187E+01  8.64215E+01  7.24152E+01
   5.62815E+01  4.36483E+01  3.58250E+01  3.09791E+01  2.72153E+01  2.40946E+01  2.20289E+01  2.10224E+01  2.09440E+01  2.15219E+01
   2.22941E+01  2.28274E+01  2.28822E+01  2.24229E+01  2.16168E+01  2.07331E+01  1.99374E+01  1.92196E+01  1.85596E+01  1.79737E+01
   1.74388E+01  1.69376E+01  1.64663E+01  1.59468E+01  1.53304E+01  1.48699E+01  1.46629E+01  1.45803E+01  1.43975E+01  1.37803E+01
   1.28577E+01  1.20805E+01  1.17834E+01  1.18845E+01  1.20228E+01  1.17832E+01  1.10189E+01  9.97166E+00  8.97326E+00  8.15874E+00
   7.70510E+00  7.60632E+00  7.51644E+00  7.13329E+00  6.38906E+00  5.68570E+00  5.45908E+00  5.82353E+00  6.34404E+00  6.47746E+00
   6.06612E+00  5.70195E+00  5.86137E+00  6.53960E+00  7.41940E+00  8.27699E+00  9.14549E+00  1.02973E+01  1.18974E+01  1.36758E+01
   1.49789E+01  1.52713E+01  1.47750E+01  1.38316E+01  1.26834E+01  1.16092E+01  1.09494E+01  1.08576E+01  1.12479E+01  1.20988E+01
   1.31893E+01  1.42499E+01  1.49930E+01  1.52040E+01  1.48980E+01  1.39826E+01  1.24142E+01  1.07341E+01  9.54578E+00  9.34102E+00
   9.68686E+00  1.04860E+01  1.19997E+01  1.42216E+01  1.65477E+01  1.78884E+01  1.74726E+01  1.53564E+01  1.20734E+01  8.46998E+00
   5.53657E+00  3.88639E+00  3.95046E+00  5.96357E+00  9.42248E+00  1.32398E+01  1.63035E+01  1.81158E+01  1.88568E+01  1.89141E+01
   1.86849E+01  1.84859E+01  1.85858E+01  1.91843E+01  2.01926E+01  2.11453E+01  2.15598E+01  2.13869E+01  2.07538E+01  1.98043E+01
   1.88520E+01  1.84845E+01  1.90556E+01  2.05107E+01  2.25555E+01  2.47552E+01  2.66084E+01  2.78022E+01  2.89646E+01  3.11640E+01
   3.34429E+01  3.56255E+01  3.98065E+01  5.06837E+01  6.46917E+01  7.60681E+01  8.44973E+01  9.18747E+01  9.95624E+01  1.07199E+02
   1.10857E+02  1.04701E+02  8.74341E+01  6.54692E+01  4.69721E+01  3.51006E+01  2.80510E+01  2.32760E+01  1.97574E+01  1.76404E+01
   1.64129E+01  1.55160E+01  1.48532E+01  1.43176E+01  1.37615E+01  1.30926E+01  1.23169E+01  1.15079E+01  1.07668E+01  1.01590E+01
   9.68200E+00  9.31035E+00  9.03282E+00  8.82157E+00  8.63503E+00  8.45404E+00  8.27755E+00  8.12513E+00  8.01914E+00  7.97491E+00
   8.00106E+00  8.09094E+00  8.21292E+00  8.33019E+00  8.40451E+00  8.41646E+00  8.36625E+00  8.25933E+00  8.10132E+00  7.90126E+00
   7.66943E+00  7.40512E+00  7.09136E+00  6.71166E+00  6.26144E+00  5.74682E+00  5.17792E+00  4.56436E+00  3.91568E+00  3.24343E+00
   2.55828E+00  1.86961E+00  1.18550E+00  5.12668E-01 -1.42680E-01 -7.74353E-01 -1.37686E+00 -1.94622E+00 -2.47967E+00 -2.97329E+00
  -3.42095E+00 -3.83946E+00 -4.24500E+00 -4.62733E+00 -4.98020E+00 -5.31346E+00 -5.64789E+00 -6.00409E+00 -6.37230E+00 -6.71731E+00
  -7.01749E+00 -7.25803E+00 -7.43745E+00 -7.56227E+00 -7.63911E+00 -7.67980E+00 -7.71288E+00 -7.77555E+00 -7.88126E+00 -8.00898E+00
  -8.13060E+00 -8.23199E+00 -8.31284E+00 -8.37592E+00 -8.42004E+00 -8.44340E+00 -8.44769E+00 -8.43397E+00 -8.40249E+00 -8.35323E+00
  -8.28651E+00 -8.20320E+00 -8.10468E+00 -7.99242E+00 -7.86794E+00 -7.73298E+00 -7.58985E+00 -7.44130E+00 -7.29023E+00 -7.13928E+00
  -6.99082E+00 -6.84719E+00 -6.71083E+00 -6.58408E+00 -6.46878E+00 -6.36596E+00 -6.27595E+00 -6.19865E+00 -6.13356E+00 -6.07951E+00
  -6.03444E+00 -5.99547E+00 -5.95927E+00 -5.92238E+00 -5.88125E+00 -5.83202E+00 -5.77053E+00 -5.69251E+00 -5.59400E+00 -5.47147E+00
  -5.32171E+00 -5.14162E+00 -4.92820E+00 -4.67884E+00 -4.39160E+00 -4.06519E+00 -3.69880E+00 -3.29196E+00 -2.84475E+00 -2.35813E+00
  -1.83418E+00 -1.27596E+00 -6.87411E-01 -7.32890E-02  5.60608E-01  1.20726E+00  1.85850E+00  2.50539E+00  3.13861E+00  3.74865E+00
   4.32587E+00  4.86066E+00  5.34399E+00  5.76788E+00  6.12588E+00  6.41317E+00  6.62652E+00  6.76440E+00  6.82726E+00  6.81760E+00
   6.73990E+00  6.60010E+00  6.40525E+00  6.16324E+00  5.88266E+00  5.57262E+00  5.24222E+00  4.90009E+00  4.55407E+00  4.21118E+00
   3.87764E+00  3.55887E+00  3.25921E+00  2.98179E+00  2.72866E+00  2.50106E+00  2.29964E+00  2.12454E+00  1.97522E+00  1.85060E+00
   1.74920E+00  1.66950E+00  1.61004E+00  1.56928E+00  1.54553E+00  1.53699E+00  1.54195E+00  1.55899E+00  1.58689E+00  1.62444E+00
   1.67038E+00  1.72347E+00  1.78266E+00  1.84718E+00  1.91638E+00  1.98952E+00  2.06580E+00  2.14447E+00  2.22502E+00  2.30711E+00
   2.39037E+00  2.47431E+00  2.55840E+00  2.64225E+00  2.72579E+00  2.80905E+00  2.89195E+00  2.97427E+00  3.05579E+00  3.13645E+00
   3.21634E+00  3.29556E+00  3.37401E+00  3.45154E+00  3.52804E+00  3.60361E+00  3.67839E+00  3.75244E+00  3.82567E+00  3.89797E+00
   3.96933E+00  4.03993E+00  4.10992E+00  4.17932E+00  4.24803E+00  4.31598E+00  4.38327E+00  4.45011E+00  4.51661E+00  4.58273E+00
   4.64838E+00  4.71357E+00  4.77849E+00  4.84332E+00  4.90813E+00  4.97283E+00  5.03736E+00  5.10184E+00  5.16647E+00  5.23140E+00
   5.29663E+00  5.36206E+00  5.42770E+00  5.49373E+00  5.56037E+00  5.62769E+00  5.69563E+00  5.76413E+00
 NY background values follow
     6.002E+01    5.955E+01    5.908E+01    5.860E+01    5.813E+01    5.765E+01    5.718E+01    5.670E+01    5.622E+01    5.575E+01
     5.527E+01    5.479E+01    5.431E+01    5.384E+01    5.336E+01    5.288E+01    5.241E+01    5.193E+01    5.146E+01    5.098E+01
     5.051E+01    5.004E+01    4.957E+01    4.910E+01    4.863E+01    4.816E+01    4.770E+01    4.724E+01    4.677E+01    4.631E+01
     4.586E+01    4.540E+01    4.495E+01    4.450E+01    4.405E+01    4.360E+01    4.316E+01    4.272E+01    4.228E+01    4.185E+01
     4.142E+01    4.099E+01    4.057E+01    4.014E+01    3.973E+01    3.931E+01    3.890E+01    3.850E+01    3.809E+01    3.770E+01
     3.730E+01    3.691E+01    3.652E+01    3.614E+01    3.576E+01    3.539E+01    3.501E+01    3.465E+01    3.428E+01    3.393E+01
     3.357E+01    3.322E+01    3.287E+01    3.253E+01    3.219E+01    3.186E+01    3.153E+01    3.120E+01    3.088E+01    3.056E+01
     3.025E+01    2.994E+01    2.963E+01    2.933E+01    2.904E+01    2.875E+01    2.846E+01    2.818E+01    2.790E+01    2.762E+01
     2.735E+01    2.709E+01    2.683E+01    2.657E+01    2.632E+01    2.607E+01    2.583E+01    2.559E+01    2.536E+01    2.513E+01
     2.490E+01    2.468E+01    2.447E+01    2.426E+01    2.405E+01    2.385E+01    2.365E+01    2.346E+01    2.327E+01    2.308E+01
     2.289E+01    2.271E+01    2.254E+01    2.236E+01    2.219E+01    2.202E+01    2.185E+01    2.169E+01    2.153E+01    2.136E+01
     2.121E+01    2.105E+01    2.089E+01    2.074E+01    2.059E+01    2.044E+01    2.029E+01    2.014E+01    1.999E+01    1.984E+01
     1.969E+01    1.955E+01    1.940E+01    1.925E+01    1.910E+01    1.896E+01    1.881E+01    1.866E+01    1.851E+01    1.836E+01
     1.821E+01    1.805E+01    1.790E+01    1.774E+01    1.759E+01    1.743E+01    1.727E+01    1.710E+01    1.694E+01    1.677E+01
     1.660E+01    1.643E+01    1.626E+01    1.609E+01    1.592E+01    1.575E+01    1.557E+01    1.540E+01    1.522E+01    1.505E+01
     1.487E+01    1.469E+01    1.452E+01    1.434E+01    1.417E+01    1.400E+01    1.382E+01    1.365E+01    1.348E+01    1.331E+01
     1.314E+01    1.298E+01    1.281E+01    1.265E+01    1.249E+01    1.233E+01    1.217E+01    1.201E+01    1.186E+01    1.171E+01
     1.157E+01    1.142E+01    1.128E+01    1.114E+01    1.101E+01    1.088E+01    1.075E+01    1.063E+01    1.051E+01    1.040E+01
     1.029E+01    1.018E+01    1.008E+01    9.981E+00    9.888E+00    9.799E+00    9.713E+00    9.632E+00    9.554E+00    9.479E+00
     9.408E+00    9.340E+00    9.274E+00    9.212E+00    9.152E+00    9.095E+00    9.040E+00    8.987E+00    8.937E+00    8.888E+00
     8.841E+00    8.795E+00    8.751E+00    8.708E+00    8.667E+00    8.626E+00    8.586E+00    8.547E+00    8.508E+00    8.470E+00
     8.432E+00    8.394E+00    8.356E+00    8.318E+00    8.279E+00    8.240E+00    8.200E+00    8.159E+00    8.117E+00    8.074E+00
     8.030E+00    7.984E+00    7.937E+00    7.888E+00    7.837E+00    7.784E+00    7.729E+00    7.671E+00    7.611E+00    7.549E+00
     7.484E+00    7.417E+00    7.347E+00    7.275E+00    7.200E+00    7.123E+00    7.043E+00    6.960E+00    6.875E+00    6.787E+00
     6.697E+00    6.604E+00    6.508E+00    6.409E+00    6.308E+00    6.203E+00    6.096E+00    5.987E+00    5.874E+00    5.758E+00
     5.639E+00    5.518E+00    5.393E+00    5.266E+00    5.135E+00    5.002E+00    4.865E+00    4.725E+00    4.582E+00    4.436E+00
     4.287E+00    4.135E+00    3.979E+00    3.820E+00    3.658E+00    3.493E+00    3.324E+00    3.152E+00    2.977E+00    2.798E+00
     2.616E+00    2.430E+00    2.241E+00    2.048E+00    1.853E+00    1.654E+00    1.453E+00    1.248E+00    1.042E+00    8.323E-01
     6.209E-01    4.073E-01    1.917E-01   -2.568E-02   -2.447E-01   -4.652E-01   -6.871E-01   -9.102E-01   -1.134E+00   -1.359E+00
    -1.585E+00   -1.811E+00   -2.038E+00   -2.265E+00   -2.493E+00   -2.720E+00   -2.947E+00   -3.174E+00   -3.400E+00   -3.625E+00
    -3.850E+00   -4.074E+00   -4.297E+00   -4.519E+00   -4.739E+00   -4.958E+00   -5.175E+00   -5.390E+00   -5.603E+00   -5.814E+00
    -6.023E+00   -6.229E+00   -6.433E+00   -6.634E+00   -6.832E+00   -7.027E+00   -7.219E+00   -7.407E+00   -7.592E+00   -7.774E+00
    -7.952E+00   -8.126E+00   -8.297E+00   -8.464E+00   -8.627E+00   -8.787E+00   -8.943E+00   -9.095E+00   -9.243E+00   -9.387E+00
    -9.527E+00   -9.663E+00   -9.795E+00   -9.922E+00   -1.005E+01   -1.016E+01   -1.028E+01   -1.039E+01   -1.050E+01   -1.060E+01
    -1.070E+01   -1.079E+01   -1.088E+01   -1.096E+01   -1.104E+01   -1.111E+01   -1.118E+01   -1.125E+01   -1.131E+01   -1.136E+01
    -1.141E+01   -1.146E+01   -1.149E+01   -1.153E+01   -1.156E+01   -1.158E+01   -1.160E+01   -1.161E+01   -1.162E+01   -1.163E+01
    -1.162E+01   -1.161E+01   -1.160E+01   -1.158E+01   -1.156E+01   -1.153E+01   -1.149E+01   -1.145E+01   -1.141E+01   -1.135E+01
    -1.130E+01   -1.124E+01   -1.117E+01   -1.111E+01   -1.103E+01   -1.095E+01   -1.087E+01   -1.078E+01   -1.069E+01   -1.060E+01
    -1.050E+01   -1.040E+01   -1.029E+01   -1.018E+01   -1.007E+01   -9.948E+00   -9.828E+00   -9.704E+00   -9.577E+00   -9.447E+00
    -9.314E+00   -9.178E+00   -9.039E+00   -8.897E+00   -8.753E+00   -8.607E+00   -8.457E+00   -8.306E+00   -8.152E+00   -7.996E+00
    -7.838E+00   -7.678E+00   -7.517E+00   -7.353E+00   -7.188E+00   -7.021E+00   -6.853E+00   -6.683E+00   -6.512E+00   -6.339E+00
    -6.166E+00   -5.991E+00   -5.816E+00   -5.640E+00   -5.463E+00   -5.285E+00   -5.107E+00   -4.928E+00   -4.749E+00   -4.570E+00
    -4.391E+00   -4.211E+00   -4.032E+00   -3.853E+00   -3.674E+00   -3.495E+00   -3.317E+00   -3.139E+00   -2.962E+00   -2.785E+00
    -2.610E+00   -2.435E+00   -2.261E+00   -2.088E+00   -1.917E+00   -1.747E+00   -1.578E+00   -1.411E+00   -1.245E+00   -1.081E+00
    -9.186E-01   -7.581E-01   -5.997E-01   -4.432E-01   -2.890E-01   -1.370E-01    1.271E-02    1.599E-01    3.046E-01    4.467E-01
     5.860E-01    7.225E-01    8.560E-01    9.866E-01    1.114E+00    1.239E+00    1.361E+00    1.481E+00    1.598E+00    1.712E+00
     1.824E+00    1.933E+00    2.041E+00    2.146E+00    2.249E+00    2.350E+00    2.449E+00    2.546E+00    2.641E+00    2.735E+00
     2.827E+00    2.917E+00    3.006E+00    3.094E+00    3.180E+00    3.265E+00    3.349E+00    3.432E+00    3.514E+00    3.594E+00
     3.674E+00    3.754E+00    3.832E+00    3.910E+00    3.988E+00    4.065E+00    4.142E+00    4.218E+00    4.294E+00    4.370E+00
     4.447E+00    4.523E+00    4.599E+00    4.675E+00    4.752E+00    4.829E+00    4.907E+00    4.985E+00
 Ala      Conc. = 2.08E+01
