 LCModel (Version 6.3-1L) Copyright: S.W. Provencher.          Ref.: Magn. Reson. Med. 30:672-679 (1993).                
 Slice#3 Row#5 Col#6  K_02_press_1_raw_act
 36 lines in following concentration table = NCONC+1
    Conc.  %SD /Cr+PCr  Metabolite                                         
    0.000 999%   0.000 Ala                                                 
    0.000 999%   0.000 Asp                                                 
 1.45E+03  19%   0.610 Cr                                                  
  931.403  31%   0.390 PCr                                                 
    0.000 999%   0.000 GABA                                                
    0.000 999%   0.000 Glc                                                 
  850.208  35%   0.356 Gln                                                 
 2.06E+03  16%   0.864 Glu                                                 
  795.559   3%   0.334 GPC                                                 
    0.000 999%   0.000 PCh                                                 
  773.021  11%   0.324 GSH                                                 
  645.674  45%   0.271 Ins                                                 
    0.000 999%   0.000 Lac                                                 
 2.70E+03   6%   1.132 NAA                                                 
  191.921  85% 8.0E-02 NAAG                                                
    0.000 999%   0.000 Scyllo                                              
    0.000 999%   0.000 Tau                                                 
    0.000 999%   0.000 -CrCH2                                              
  795.559   3%   0.334 GPC+PCh                                             
 2.89E+03   3%   1.212 NAA+NAAG                                            
 2.39E+03   3%   1.000 Cr+PCr                                              
 2.91E+03  17%   1.221 Glu+Gln                                             
  192.673 463% 8.1E-02 Lip13a                                              
  614.655  91%   0.258 Lip13b                                              
    0.000 999%   0.000 Lip09                                               
 1.36E+03  18%   0.568 MM09                                                
  172.353 109% 7.2E-02 Lip20                                               
 2.86E+03  15%   1.198 MM20                                                
  495.980  28%   0.208 MM12                                                
 1.51E+03  23%   0.632 MM14                                                
  817.094  34%   0.343 MM17                                                
  807.328  55%   0.338 Lip13a+Lip13b                                       
 2.81E+03  20%   1.178 MM14+Lip13a+Lip13b+MM12                             
 1.36E+03  18%   0.568 MM09+Lip09                                          
 3.03E+03  14%   1.271 MM20+Lip20                                          
   6 lines in following misc. output table
  FWHM = 0.054 ppm    S/N =  12                                            
  Data shift = 0.038 ppm                                                   
  Ph:   6 deg      -5.4 deg/ppm                                            
  alphaB,S = 1.3E+00,   5.2E+01                                            
   14 spline knots.   Ns = 7(1)                                            
  (12) 5 infls.   ( 7) 3 extrs.                                            
  498 points on ppm-axis = NY
      4.000000     3.992357     3.984714     3.977070     3.969427     3.961784     3.954141     3.946497     3.938854     3.931211
      3.923568     3.915925     3.908281     3.900638     3.892995     3.885352     3.877708     3.870065     3.862422     3.854779
      3.847136     3.839492     3.831849     3.824206     3.816563     3.808919     3.801276     3.793633     3.785990     3.778347
      3.770703     3.763060     3.755417     3.747774     3.740130     3.732487     3.724844     3.717201     3.709558     3.701914
      3.694271     3.686628     3.678985     3.671341     3.663698     3.656055     3.648412     3.640769     3.633125     3.625482
      3.617839     3.610196     3.602552     3.594909     3.587266     3.579623     3.571980     3.564336     3.556693     3.549050
      3.541407     3.533763     3.526120     3.518477     3.510834     3.503191     3.495547     3.487904     3.480261     3.472618
      3.464974     3.457331     3.449688     3.442045     3.434402     3.426758     3.419115     3.411472     3.403829     3.396185
      3.388542     3.380899     3.373256     3.365613     3.357969     3.350326     3.342683     3.335040     3.327396     3.319753
      3.312110     3.304467     3.296824     3.289180     3.281537     3.273894     3.266251     3.258607     3.250964     3.243321
      3.235678     3.228034     3.220391     3.212748     3.205105     3.197462     3.189818     3.182175     3.174532     3.166889
      3.159245     3.151602     3.143959     3.136316     3.128673     3.121029     3.113386     3.105743     3.098100     3.090456
      3.082813     3.075170     3.067527     3.059884     3.052240     3.044597     3.036954     3.029311     3.021667     3.014024
      3.006381     2.998738     2.991095     2.983451     2.975808     2.968165     2.960522     2.952878     2.945235     2.937592
      2.929949     2.922306     2.914662     2.907019     2.899376     2.891733     2.884089     2.876446     2.868803     2.861160
      2.853517     2.845873     2.838230     2.830587     2.822944     2.815300     2.807657     2.800014     2.792371     2.784728
      2.777084     2.769441     2.761798     2.754155     2.746511     2.738868     2.731225     2.723582     2.715939     2.708295
      2.700652     2.693009     2.685366     2.677722     2.670079     2.662436     2.654793     2.647150     2.639506     2.631863
      2.624220     2.616577     2.608933     2.601290     2.593647     2.586004     2.578361     2.570717     2.563074     2.555431
      2.547788     2.540144     2.532501     2.524858     2.517215     2.509572     2.501928     2.494285     2.486642     2.478999
      2.471355     2.463712     2.456069     2.448426     2.440783     2.433139     2.425496     2.417853     2.410210     2.402566
      2.394923     2.387280     2.379637     2.371994     2.364350     2.356707     2.349064     2.341421     2.333777     2.326134
      2.318491     2.310848     2.303205     2.295561     2.287918     2.280275     2.272632     2.264988     2.257345     2.249702
      2.242059     2.234416     2.226772     2.219129     2.211486     2.203843     2.196199     2.188556     2.180913     2.173270
      2.165627     2.157983     2.150340     2.142697     2.135054     2.127410     2.119767     2.112124     2.104481     2.096838
      2.089194     2.081551     2.073908     2.066265     2.058621     2.050978     2.043335     2.035692     2.028049     2.020405
      2.012762     2.005119     1.997476     1.989833     1.982190     1.974546     1.966903     1.959260     1.951617     1.943974
      1.936331     1.928688     1.921045     1.913402     1.905759     1.898115     1.890472     1.882829     1.875186     1.867543
      1.859900     1.852257     1.844614     1.836971     1.829327     1.821684     1.814041     1.806398     1.798755     1.791112
      1.783469     1.775826     1.768183     1.760540     1.752896     1.745253     1.737610     1.729967     1.722324     1.714681
      1.707038     1.699395     1.691752     1.684108     1.676465     1.668822     1.661179     1.653536     1.645893     1.638250
      1.630607     1.622964     1.615321     1.607677     1.600034     1.592391     1.584748     1.577105     1.569462     1.561819
      1.554176     1.546533     1.538890     1.531246     1.523603     1.515960     1.508317     1.500674     1.493031     1.485388
      1.477745     1.470102     1.462458     1.454815     1.447172     1.439529     1.431886     1.424243     1.416600     1.408957
      1.401314     1.393671     1.386027     1.378384     1.370741     1.363098     1.355455     1.347812     1.340169     1.332526
      1.324883     1.317240     1.309596     1.301953     1.294310     1.286667     1.279024     1.271381     1.263738     1.256095
      1.248452     1.240808     1.233165     1.225522     1.217879     1.210236     1.202593     1.194950     1.187307     1.179664
      1.172021     1.164377     1.156734     1.149091     1.141448     1.133805     1.126162     1.118519     1.110876     1.103233
      1.095590     1.087946     1.080303     1.072660     1.065017     1.057374     1.049731     1.042088     1.034445     1.026802
      1.019158     1.011515     1.003872     0.996229     0.988586     0.980943     0.973300     0.965657     0.958014     0.950371
      0.942727     0.935084     0.927441     0.919798     0.912155     0.904512     0.896869     0.889226     0.881583     0.873940
      0.866296     0.858653     0.851010     0.843367     0.835724     0.828081     0.820438     0.812795     0.805152     0.797508
      0.789865     0.782222     0.774579     0.766936     0.759293     0.751650     0.744007     0.736364     0.728721     0.721077
      0.713434     0.705791     0.698148     0.690505     0.682862     0.675219     0.667576     0.659933     0.652290     0.644646
      0.637003     0.629360     0.621717     0.614074     0.606431     0.598788     0.591145     0.583502     0.575858     0.568215
      0.560572     0.552929     0.545286     0.537643     0.530000     0.522357     0.514714     0.507071     0.499427     0.491784
      0.484141     0.476498     0.468855     0.461212     0.453569     0.445925     0.438282     0.430639     0.422996     0.415353
      0.407710     0.400067     0.392424     0.384780     0.377137     0.369494     0.361851     0.354208     0.346565     0.338922
      0.331278     0.323635     0.315992     0.308349     0.300706     0.293063     0.285420     0.277777     0.270133     0.262490
      0.254847     0.247204     0.239561     0.231918     0.224275     0.216631     0.208988     0.201345
 NY phased data points follow
   4.40049E+01  4.62964E+01  4.55906E+01  4.64177E+01  5.79335E+01  6.41422E+01  6.54232E+01  7.46053E+01  8.13884E+01  8.76344E+01
   9.33545E+01  9.47886E+01  8.58430E+01  7.36891E+01  6.95717E+01  6.56817E+01  5.43323E+01  4.88874E+01  4.42086E+01  3.91214E+01
   4.11062E+01  4.00747E+01  4.02580E+01  4.40017E+01  4.32374E+01  4.59215E+01  4.36248E+01  4.52289E+01  5.31227E+01  4.93248E+01
   5.09417E+01  5.28605E+01  5.23056E+01  4.56845E+01  5.05306E+01  4.10429E+01  4.01643E+01  4.71713E+01  4.65763E+01  4.76618E+01
   3.91541E+01  4.26311E+01  4.31059E+01  4.27334E+01  4.24191E+01  4.57301E+01  4.74820E+01  4.14513E+01  4.73046E+01  3.78302E+01
   3.96676E+01  3.87027E+01  3.77227E+01  3.58257E+01  2.87774E+01  3.37267E+01  3.21709E+01  3.16810E+01  2.92534E+01  3.27135E+01
   3.05729E+01  2.53074E+01  2.37637E+01  2.47334E+01  2.13766E+01  2.19543E+01  1.97992E+01  2.43496E+01  1.88405E+01  1.99207E+01
   2.05357E+01  2.00947E+01  1.98655E+01  2.45196E+01  1.70353E+01  2.34365E+01  2.77522E+01  2.07844E+01  2.06172E+01  2.06784E+01
   2.04725E+01  2.28232E+01  2.34007E+01  1.95124E+01  1.89569E+01  1.82607E+01  1.92171E+01  2.13582E+01  2.11594E+01  2.27052E+01
   2.35739E+01  2.39630E+01  2.30653E+01  2.54913E+01  2.37693E+01  3.14973E+01  3.53213E+01  4.19915E+01  5.00483E+01  5.58430E+01
   7.01988E+01  7.93243E+01  8.43587E+01  8.56785E+01  7.86553E+01  7.17815E+01  6.44197E+01  5.30789E+01  4.16234E+01  3.44540E+01
   3.32939E+01  2.91603E+01  2.59699E+01  2.49016E+01  1.94205E+01  2.73173E+01  2.74619E+01  2.47383E+01  3.05118E+01  3.26544E+01
   3.62556E+01  4.23503E+01  4.36393E+01  4.97724E+01  6.64415E+01  8.13636E+01  8.68821E+01  9.15216E+01  8.20957E+01  7.77627E+01
   6.30525E+01  5.51517E+01  4.43864E+01  3.20548E+01  3.34188E+01  2.70736E+01  1.79722E+01  2.33080E+01  2.07687E+01  1.59069E+01
   2.10639E+01  1.81763E+01  1.77445E+01  1.94890E+01  2.44804E+01  1.75928E+01  1.77872E+01  1.95635E+01  1.47709E+01  1.69385E+01
   1.77418E+01  1.72934E+01  1.54546E+01  1.77257E+01  1.34841E+01  1.48572E+01  1.33471E+01  1.39910E+01  1.42678E+01  1.50565E+01
   1.49675E+01  1.01803E+01  9.99225E+00  1.57948E+01  1.25917E+01  1.22889E+01  1.03647E+01  1.17017E+01  8.05517E+00  7.27624E+00
   7.41630E+00  5.82316E+00  1.18149E+00  2.49385E+00 -5.60127E+00  1.63435E+00 -1.59955E+00  4.05348E-01  8.24883E-03 -1.27110E+00
   9.39879E-01 -3.55361E+00 -2.42088E+00 -1.36841E+00 -1.06698E+00  5.89697E+00  9.31481E-01  5.04481E+00  5.99547E+00  1.21722E+01
   1.30443E+01  1.64952E+01  1.95187E+01  2.02783E+01  1.57989E+01  1.42551E+01  1.67774E+01  1.57242E+01  1.10374E+01  1.30414E+01
   9.67586E+00  1.61380E+01  1.64185E+01  1.63817E+01  1.77636E+01  1.30347E+01  7.76254E+00  7.54610E+00  1.05126E+01  9.58561E+00
   1.11680E+01  9.95301E+00  1.86257E+01  1.82969E+01  2.22888E+01  2.66303E+01  2.19716E+01  1.93150E+01  2.14264E+01  1.36873E+01
   1.08914E+01  1.08560E+01  7.75343E+00  9.30083E+00  9.97531E+00  1.79648E+01  2.04303E+01  2.06796E+01  2.07262E+01  1.89110E+01
   1.99534E+01  1.75720E+01  1.88946E+01  1.81623E+01  2.25846E+01  1.85368E+01  1.67715E+01  1.77371E+01  2.18552E+01  1.51743E+01
   1.39859E+01  8.69863E+00  1.47647E+01  1.69730E+01  2.05203E+01  2.17618E+01  2.69379E+01  2.41839E+01  2.69966E+01  3.07340E+01
   3.28784E+01  3.29194E+01  3.79310E+01  5.27613E+01  5.80195E+01  5.83948E+01  5.80021E+01  7.80683E+01  1.04294E+02  1.12775E+02
   1.11562E+02  1.02032E+02  8.19990E+01  6.92213E+01  5.14959E+01  4.60304E+01  3.15981E+01  2.93151E+01  2.50777E+01  2.46402E+01
   2.27387E+01  1.95035E+01  2.33653E+01  2.69269E+01  2.15689E+01  2.23410E+01  1.78705E+01  1.62386E+01  1.93344E+01  1.83471E+01
   1.97699E+01  1.93154E+01  1.37149E+01  1.80374E+01  1.64189E+01  1.96113E+01  1.50059E+01  1.86656E+01  1.76901E+01  1.53517E+01
   1.33029E+01  1.87472E+01  1.69064E+01  1.49930E+01  1.41643E+01  1.85713E+01  1.54485E+01  1.76401E+01  1.82369E+01  1.53087E+01
   1.10196E+01  1.63009E+01  1.85967E+01  1.83368E+01  1.86108E+01  1.86451E+01  2.38520E+01  1.58495E+01  2.03425E+01  2.20814E+01
   1.75887E+01  2.08379E+01  2.10302E+01  2.35528E+01  2.02576E+01  2.23532E+01  2.34020E+01  2.05177E+01  2.85528E+01  2.54550E+01
   2.58803E+01  2.78804E+01  2.08664E+01  2.68404E+01  2.07979E+01  2.76198E+01  2.55726E+01  2.78355E+01  2.40766E+01  2.55596E+01
   2.40075E+01  2.39646E+01  2.01296E+01  1.85964E+01  2.14526E+01  1.42109E+01  1.71384E+01  1.90774E+01  1.50426E+01  2.12588E+01
   1.30493E+01  1.41809E+01  1.28094E+01  1.26281E+01  1.75544E+01  1.61215E+01  1.31001E+01  1.91733E+01  2.16619E+01  2.57681E+01
   1.98969E+01  2.19580E+01  2.58122E+01  2.11557E+01  2.34217E+01  2.74124E+01  2.62507E+01  2.26316E+01  2.37265E+01  2.56232E+01
   1.81530E+01  1.91305E+01  1.95916E+01  2.16965E+01  2.29483E+01  1.51667E+01  2.11489E+01  1.81581E+01  1.63482E+01  1.94470E+01
   1.86453E+01  2.18176E+01  1.64684E+01  1.45209E+01  2.09103E+01  1.65525E+01  2.14142E+01  1.97249E+01  1.62317E+01  1.89850E+01
   2.12999E+01  2.25394E+01  1.54022E+01  1.52963E+01  1.48474E+01  1.85011E+01  1.41894E+01  1.05153E+01  1.67851E+01  1.74304E+01
   1.59839E+01  1.52456E+01  1.96507E+01  2.10695E+01  1.60889E+01  2.14315E+01  1.55773E+01  1.94937E+01  1.94443E+01  1.95742E+01
   1.43045E+01  1.93193E+01  2.15259E+01  1.65818E+01  1.92315E+01  1.55712E+01  1.65692E+01  2.44166E+01  2.12119E+01  1.33724E+01
   1.43728E+01  1.61020E+01  2.08298E+01  1.72062E+01  1.33870E+01  1.69505E+01  1.60955E+01  1.60050E+01  1.43670E+01  1.25649E+01
   1.58148E+01  1.64163E+01  1.37846E+01  1.10249E+01  1.35838E+01  8.29431E+00  1.05485E+01  1.34784E+01  1.25145E+01  9.80716E+00
   1.14436E+01  1.36923E+01  1.22322E+01  1.45460E+01  1.38028E+01  1.42318E+01  1.72185E+01  1.64675E+01  1.49880E+01  1.41432E+01
   1.19906E+01  8.57996E+00  1.48496E+01  1.35197E+01  1.65660E+01  8.02447E+00  9.78096E+00  8.80468E+00  9.12846E+00  1.13084E+01
   1.24956E+01  1.09461E+01  1.19442E+01  5.99363E+00  1.24305E+01  1.32318E+01  1.24528E+01  1.07383E+01  1.03998E+01  9.24733E+00
   1.00825E+01  1.05325E+01  1.13621E+01  1.13494E+01  9.42381E+00  6.78290E+00  8.12382E+00  1.16453E+01  1.06505E+01  1.50964E+01
   1.55261E+01  1.17057E+01  8.24195E+00  6.27306E+00  6.75751E+00  1.45140E+01  6.69205E+00  8.65922E+00  8.59845E+00  1.19666E+01
   1.00936E+01  1.33304E+01  1.33553E+01  1.01291E+01  1.13198E+01  1.33315E+01  8.94209E+00  1.13845E+01  8.53876E+00  1.11938E+01
   6.61830E+00  1.33117E+01  8.79215E+00  1.02408E+01  9.19935E+00  7.10366E+00  1.20188E+01  9.14167E+00
 NY points of the fit to the data follow
   4.27972E+01  4.33132E+01  4.56194E+01  5.05653E+01  5.65965E+01  6.05622E+01  6.44130E+01  7.15374E+01  8.10960E+01  8.87632E+01
   9.14456E+01  8.89883E+01  8.29936E+01  7.56347E+01  6.84207E+01  6.18798E+01  5.63893E+01  5.19300E+01  4.80873E+01  4.49286E+01
   4.31923E+01  4.17280E+01  4.07814E+01  4.19301E+01  4.34086E+01  4.31950E+01  4.32007E+01  4.57012E+01  4.98583E+01  5.32806E+01
   5.51924E+01  5.54881E+01  5.39379E+01  5.11140E+01  4.73747E+01  4.34908E+01  4.07071E+01  3.89848E+01  3.75313E+01  3.70355E+01
   3.77522E+01  3.84996E+01  3.87211E+01  3.90017E+01  3.96009E+01  4.00983E+01  4.01913E+01  3.98875E+01  3.91078E+01  3.80776E+01
   3.68475E+01  3.54568E+01  3.43123E+01  3.34997E+01  3.27424E+01  3.20024E+01  3.14142E+01  3.10732E+01  3.08294E+01  3.05812E+01
   3.02241E+01  2.97034E+01  2.90717E+01  2.83923E+01  2.78054E+01  2.74371E+01  2.71964E+01  2.69843E+01  2.68368E+01  2.67887E+01
   2.67535E+01  2.66586E+01  2.64672E+01  2.61907E+01  2.58675E+01  2.55261E+01  2.51936E+01  2.48715E+01  2.45804E+01  2.42717E+01
   2.38626E+01  2.34436E+01  2.30624E+01  2.27007E+01  2.22713E+01  2.17625E+01  2.12737E+01  2.09247E+01  2.07545E+01  2.07931E+01
   2.09743E+01  2.12329E+01  2.16108E+01  2.22251E+01  2.35109E+01  2.78927E+01  3.77178E+01  4.44480E+01  4.70327E+01  5.33195E+01
   6.66214E+01  8.08786E+01  8.88774E+01  8.89229E+01  8.23391E+01  7.19838E+01  6.10186E+01  5.07078E+01  4.14642E+01  3.45037E+01
   2.95738E+01  2.46315E+01  2.19079E+01  2.09686E+01  2.05471E+01  2.03853E+01  2.04057E+01  2.06566E+01  2.16300E+01  2.58603E+01
   3.56870E+01  4.32455E+01  4.63739E+01  5.27674E+01  6.64103E+01  8.16770E+01  9.10355E+01  9.21548E+01  8.57945E+01  7.49832E+01
   6.36545E+01  5.32707E+01  4.37889E+01  3.60879E+01  2.99060E+01  2.37314E+01  1.96144E+01  1.80040E+01  1.76900E+01  1.81481E+01
   1.89185E+01  1.94930E+01  1.96526E+01  1.95342E+01  1.91706E+01  1.86207E+01  1.80452E+01  1.74306E+01  1.67558E+01  1.62005E+01
   1.56780E+01  1.52348E+01  1.48363E+01  1.43234E+01  1.36896E+01  1.34160E+01  1.34204E+01  1.33679E+01  1.30097E+01  1.21977E+01
   1.15476E+01  1.14742E+01  1.17888E+01  1.19512E+01  1.17203E+01  1.12338E+01  1.06109E+01  9.89124E+00  9.12713E+00  8.33401E+00
   7.92757E+00  7.87821E+00  7.50816E+00  6.61254E+00  5.79039E+00  5.72573E+00  6.14879E+00  6.50731E+00  6.39294E+00  5.91302E+00
   5.56213E+00  5.90874E+00  6.43812E+00  6.74771E+00  7.10714E+00  7.76442E+00  8.77945E+00  1.01248E+01  1.17817E+01  1.35530E+01
   1.46623E+01  1.46005E+01  1.41829E+01  1.38657E+01  1.33193E+01  1.23652E+01  1.16255E+01  1.18837E+01  1.28189E+01  1.41212E+01
   1.54846E+01  1.66701E+01  1.72034E+01  1.70448E+01  1.64960E+01  1.49138E+01  1.24323E+01  1.02188E+01  9.07573E+00  9.52644E+00
   1.02594E+01  1.11169E+01  1.30953E+01  1.62843E+01  1.91581E+01  1.99713E+01  1.88853E+01  1.73267E+01  1.53342E+01  1.20115E+01
   8.48227E+00  6.37189E+00  6.32849E+00  8.11408E+00  1.03839E+01  1.28718E+01  1.55301E+01  1.77319E+01  1.87221E+01  1.88169E+01
   1.90478E+01  1.94804E+01  1.94425E+01  1.93182E+01  1.98749E+01  2.07728E+01  2.15147E+01  2.18993E+01  2.16469E+01  2.07644E+01
   1.93518E+01  1.80115E+01  1.74370E+01  1.78967E+01  1.90548E+01  2.05322E+01  2.21855E+01  2.37175E+01  2.50473E+01  2.64952E+01
   2.77044E+01  2.88944E+01  3.39614E+01  4.85668E+01  5.87511E+01  6.11819E+01  6.73073E+01  8.31462E+01  1.00641E+02  1.09827E+02
   1.08991E+02  9.98417E+01  8.59787E+01  7.16352E+01  5.82142E+01  4.60946E+01  3.71635E+01  3.12775E+01  2.45987E+01  2.08128E+01
   1.95673E+01  1.89970E+01  1.86853E+01  1.84979E+01  1.83342E+01  1.81028E+01  1.78509E+01  1.75643E+01  1.72303E+01  1.68918E+01
   1.66082E+01  1.63701E+01  1.61652E+01  1.60034E+01  1.58803E+01  1.57916E+01  1.57220E+01  1.56630E+01  1.56282E+01  1.56336E+01
   1.56722E+01  1.57408E+01  1.58355E+01  1.59622E+01  1.61171E+01  1.62937E+01  1.64907E+01  1.67085E+01  1.69496E+01  1.72169E+01
   1.75078E+01  1.78206E+01  1.81488E+01  1.84865E+01  1.88294E+01  1.91732E+01  1.95146E+01  1.98519E+01  2.01805E+01  2.04991E+01
   2.08079E+01  2.11054E+01  2.13907E+01  2.16630E+01  2.19215E+01  2.21659E+01  2.23956E+01  2.26090E+01  2.28037E+01  2.29767E+01
   2.31249E+01  2.32451E+01  2.33337E+01  2.33865E+01  2.33991E+01  2.33679E+01  2.32906E+01  2.31661E+01  2.29939E+01  2.27745E+01
   2.25098E+01  2.22034E+01  2.18606E+01  2.14879E+01  2.10919E+01  2.06801E+01  2.02606E+01  1.98426E+01  1.94360E+01  1.90514E+01
   1.87005E+01  1.83968E+01  1.81573E+01  1.80023E+01  1.79555E+01  1.80419E+01  1.82848E+01  1.87020E+01  1.92998E+01  2.00664E+01
   2.09669E+01  2.19413E+01  2.29083E+01  2.37740E+01  2.44453E+01  2.48447E+01  2.49233E+01  2.46702E+01  2.41138E+01  2.33166E+01
   2.23628E+01  2.13431E+01  2.03401E+01  1.94184E+01  1.86187E+01  1.79588E+01  1.74369E+01  1.70374E+01  1.67381E+01  1.65151E+01
   1.63473E+01  1.62184E+01  1.61168E+01  1.60352E+01  1.59697E+01  1.59193E+01  1.58847E+01  1.58679E+01  1.58710E+01  1.58961E+01
   1.59451E+01  1.60198E+01  1.61219E+01  1.62526E+01  1.64121E+01  1.66001E+01  1.68155E+01  1.70566E+01  1.73212E+01  1.76060E+01
   1.79067E+01  1.82178E+01  1.85334E+01  1.88473E+01  1.91525E+01  1.94414E+01  1.97065E+01  1.99401E+01  2.01353E+01  2.02862E+01
   2.03876E+01  2.04354E+01  2.04267E+01  2.03605E+01  2.02373E+01  2.00594E+01  1.98301E+01  1.95542E+01  1.92371E+01  1.88854E+01
   1.85064E+01  1.81074E+01  1.76955E+01  1.72774E+01  1.68592E+01  1.64467E+01  1.60450E+01  1.56581E+01  1.52889E+01  1.49394E+01
   1.46112E+01  1.43052E+01  1.40216E+01  1.37602E+01  1.35199E+01  1.32997E+01  1.30984E+01  1.29148E+01  1.27477E+01  1.25953E+01
   1.24563E+01  1.23292E+01  1.22130E+01  1.21066E+01  1.20091E+01  1.19193E+01  1.18362E+01  1.17591E+01  1.16876E+01  1.16212E+01
   1.15591E+01  1.15008E+01  1.14459E+01  1.13941E+01  1.13452E+01  1.12990E+01  1.12550E+01  1.12129E+01  1.11726E+01  1.11340E+01
   1.10971E+01  1.10617E+01  1.10274E+01  1.09941E+01  1.09619E+01  1.09307E+01  1.09005E+01  1.08712E+01  1.08425E+01  1.08145E+01
   1.07870E+01  1.07604E+01  1.07343E+01  1.07088E+01  1.06836E+01  1.06588E+01  1.06345E+01  1.06107E+01  1.05874E+01  1.05642E+01
   1.05414E+01  1.05188E+01  1.04966E+01  1.04749E+01  1.04534E+01  1.04320E+01  1.04108E+01  1.03899E+01  1.03694E+01  1.03491E+01
   1.03290E+01  1.03089E+01  1.02891E+01  1.02696E+01  1.02503E+01  1.02313E+01  1.02123E+01  1.01935E+01  1.01749E+01  1.01566E+01
   1.01386E+01  1.01207E+01  1.01030E+01  1.00854E+01  1.00682E+01  1.00514E+01  1.00349E+01  1.00185E+01
 NY background values follow
     3.976E+01    3.954E+01    3.932E+01    3.909E+01    3.887E+01    3.864E+01    3.842E+01    3.820E+01    3.797E+01    3.775E+01
     3.752E+01    3.730E+01    3.708E+01    3.685E+01    3.663E+01    3.640E+01    3.618E+01    3.596E+01    3.573E+01    3.551E+01
     3.529E+01    3.506E+01    3.484E+01    3.462E+01    3.439E+01    3.417E+01    3.395E+01    3.373E+01    3.351E+01    3.329E+01
     3.307E+01    3.284E+01    3.262E+01    3.241E+01    3.219E+01    3.197E+01    3.175E+01    3.153E+01    3.131E+01    3.110E+01
     3.088E+01    3.066E+01    3.045E+01    3.023E+01    3.002E+01    2.981E+01    2.959E+01    2.938E+01    2.917E+01    2.896E+01
     2.875E+01    2.854E+01    2.833E+01    2.812E+01    2.791E+01    2.770E+01    2.750E+01    2.729E+01    2.709E+01    2.688E+01
     2.668E+01    2.648E+01    2.628E+01    2.608E+01    2.588E+01    2.568E+01    2.548E+01    2.529E+01    2.509E+01    2.490E+01
     2.470E+01    2.451E+01    2.432E+01    2.413E+01    2.394E+01    2.375E+01    2.357E+01    2.338E+01    2.320E+01    2.301E+01
     2.283E+01    2.265E+01    2.247E+01    2.229E+01    2.212E+01    2.194E+01    2.177E+01    2.159E+01    2.142E+01    2.125E+01
     2.108E+01    2.092E+01    2.075E+01    2.059E+01    2.042E+01    2.026E+01    2.010E+01    1.994E+01    1.978E+01    1.963E+01
     1.947E+01    1.932E+01    1.916E+01    1.901E+01    1.886E+01    1.871E+01    1.857E+01    1.842E+01    1.828E+01    1.813E+01
     1.799E+01    1.785E+01    1.771E+01    1.757E+01    1.743E+01    1.729E+01    1.716E+01    1.702E+01    1.689E+01    1.676E+01
     1.663E+01    1.650E+01    1.637E+01    1.624E+01    1.611E+01    1.599E+01    1.586E+01    1.574E+01    1.562E+01    1.549E+01
     1.537E+01    1.525E+01    1.513E+01    1.502E+01    1.490E+01    1.478E+01    1.467E+01    1.455E+01    1.444E+01    1.433E+01
     1.422E+01    1.411E+01    1.400E+01    1.389E+01    1.378E+01    1.368E+01    1.357E+01    1.347E+01    1.337E+01    1.326E+01
     1.316E+01    1.307E+01    1.297E+01    1.287E+01    1.278E+01    1.269E+01    1.260E+01    1.251E+01    1.242E+01    1.234E+01
     1.225E+01    1.217E+01    1.209E+01    1.201E+01    1.193E+01    1.186E+01    1.178E+01    1.171E+01    1.164E+01    1.157E+01
     1.151E+01    1.144E+01    1.138E+01    1.132E+01    1.126E+01    1.121E+01    1.115E+01    1.110E+01    1.105E+01    1.101E+01
     1.096E+01    1.092E+01    1.088E+01    1.084E+01    1.081E+01    1.077E+01    1.074E+01    1.071E+01    1.069E+01    1.066E+01
     1.064E+01    1.062E+01    1.060E+01    1.058E+01    1.057E+01    1.056E+01    1.054E+01    1.054E+01    1.053E+01    1.052E+01
     1.052E+01    1.051E+01    1.051E+01    1.051E+01    1.051E+01    1.051E+01    1.052E+01    1.052E+01    1.053E+01    1.053E+01
     1.054E+01    1.055E+01    1.056E+01    1.057E+01    1.059E+01    1.060E+01    1.061E+01    1.063E+01    1.065E+01    1.066E+01
     1.068E+01    1.070E+01    1.072E+01    1.074E+01    1.076E+01    1.078E+01    1.080E+01    1.082E+01    1.084E+01    1.086E+01
     1.089E+01    1.091E+01    1.093E+01    1.095E+01    1.098E+01    1.100E+01    1.103E+01    1.105E+01    1.108E+01    1.110E+01
     1.113E+01    1.115E+01    1.118E+01    1.120E+01    1.123E+01    1.125E+01    1.128E+01    1.130E+01    1.133E+01    1.136E+01
     1.138E+01    1.141E+01    1.143E+01    1.146E+01    1.148E+01    1.151E+01    1.153E+01    1.156E+01    1.158E+01    1.161E+01
     1.163E+01    1.166E+01    1.168E+01    1.171E+01    1.173E+01    1.175E+01    1.178E+01    1.180E+01    1.182E+01    1.184E+01
     1.187E+01    1.189E+01    1.191E+01    1.193E+01    1.195E+01    1.197E+01    1.199E+01    1.201E+01    1.202E+01    1.204E+01
     1.206E+01    1.208E+01    1.209E+01    1.211E+01    1.213E+01    1.214E+01    1.216E+01    1.217E+01    1.218E+01    1.220E+01
     1.221E+01    1.222E+01    1.224E+01    1.225E+01    1.226E+01    1.227E+01    1.228E+01    1.229E+01    1.230E+01    1.231E+01
     1.232E+01    1.233E+01    1.234E+01    1.235E+01    1.235E+01    1.236E+01    1.237E+01    1.237E+01    1.238E+01    1.238E+01
     1.239E+01    1.239E+01    1.240E+01    1.240E+01    1.241E+01    1.241E+01    1.241E+01    1.241E+01    1.241E+01    1.242E+01
     1.242E+01    1.242E+01    1.242E+01    1.242E+01    1.242E+01    1.241E+01    1.241E+01    1.241E+01    1.241E+01    1.241E+01
     1.240E+01    1.240E+01    1.239E+01    1.239E+01    1.239E+01    1.238E+01    1.238E+01    1.237E+01    1.236E+01    1.236E+01
     1.235E+01    1.234E+01    1.234E+01    1.233E+01    1.232E+01    1.231E+01    1.230E+01    1.229E+01    1.228E+01    1.227E+01
     1.226E+01    1.225E+01    1.224E+01    1.223E+01    1.222E+01    1.221E+01    1.220E+01    1.218E+01    1.217E+01    1.216E+01
     1.214E+01    1.213E+01    1.212E+01    1.210E+01    1.209E+01    1.207E+01    1.206E+01    1.204E+01    1.203E+01    1.201E+01
     1.200E+01    1.198E+01    1.196E+01    1.195E+01    1.193E+01    1.191E+01    1.190E+01    1.188E+01    1.186E+01    1.185E+01
     1.183E+01    1.181E+01    1.179E+01    1.177E+01    1.176E+01    1.174E+01    1.172E+01    1.170E+01    1.169E+01    1.167E+01
     1.165E+01    1.163E+01    1.161E+01    1.160E+01    1.158E+01    1.156E+01    1.154E+01    1.152E+01    1.151E+01    1.149E+01
     1.147E+01    1.145E+01    1.144E+01    1.142E+01    1.140E+01    1.138E+01    1.137E+01    1.135E+01    1.133E+01    1.132E+01
     1.130E+01    1.129E+01    1.127E+01    1.125E+01    1.124E+01    1.122E+01    1.121E+01    1.119E+01    1.118E+01    1.116E+01
     1.115E+01    1.113E+01    1.112E+01    1.110E+01    1.109E+01    1.107E+01    1.106E+01    1.105E+01    1.103E+01    1.102E+01
     1.100E+01    1.099E+01    1.098E+01    1.096E+01    1.095E+01    1.093E+01    1.092E+01    1.091E+01    1.089E+01    1.088E+01
     1.086E+01    1.085E+01    1.084E+01    1.082E+01    1.081E+01    1.080E+01    1.078E+01    1.077E+01    1.075E+01    1.074E+01
     1.073E+01    1.071E+01    1.070E+01    1.068E+01    1.067E+01    1.065E+01    1.064E+01    1.063E+01    1.061E+01    1.060E+01
     1.058E+01    1.057E+01    1.055E+01    1.054E+01    1.052E+01    1.051E+01    1.049E+01    1.048E+01    1.046E+01    1.045E+01
     1.043E+01    1.042E+01    1.040E+01    1.039E+01    1.037E+01    1.036E+01    1.034E+01    1.033E+01    1.031E+01    1.030E+01
     1.028E+01    1.027E+01    1.025E+01    1.024E+01    1.022E+01    1.021E+01    1.019E+01    1.017E+01    1.016E+01    1.014E+01
     1.013E+01    1.011E+01    1.010E+01    1.008E+01    1.007E+01    1.005E+01    1.004E+01    1.002E+01
 Cr       Conc. = 1.45E+03
