 LCModel (Version 6.3-1L) Copyright: S.W. Provencher.          Ref.: Magn. Reson. Med. 30:672-679 (1993).                
 Slice#2 Row#14 Col#13  K_02_press_1_raw_act
 36 lines in following concentration table = NCONC+1
    Conc.  %SD /Cr+PCr  Metabolite                                         
  149.600  20%  15.313 Ala                                                 
    2.842  80%   0.291 Asp                                                 
    0.000 999%   0.000 Cr                                                  
    9.770 113%   1.000 PCr                                                 
    1.766  77%   0.181 GABA                                                
    1.736  79%   0.178 Glc                                                 
    0.000 999%   0.000 Gln                                                 
   46.623 118%   4.772 Glu                                                 
    1.699 254%   0.174 GPC                                                 
    0.000 999%   0.000 PCh                                                 
   27.457  60%   2.810 GSH                                                 
   32.715 157%   3.349 Ins                                                 
   26.439 107%   2.706 Lac                                                 
   22.198  71%   2.272 NAA                                                 
   20.891  75%   2.138 NAAG                                                
    0.566  81% 5.8E-02 Scyllo                                              
    2.740  83%   0.280 Tau                                                 
    0.557 388% 5.7E-02 -CrCH2                                              
    1.699 254%   0.174 GPC+PCh                                             
   43.088  36%   4.410 NAA+NAAG                                            
    9.770 113%   1.000 Cr+PCr                                              
   46.623 118%   4.772 Glu+Gln                                             
 3.96E+03   7% 405.728 Lip13a                                              
    0.000 999%   0.000 Lip13b                                              
  253.215  51%  25.918 Lip09                                               
   22.733 336%   2.327 MM09                                                
    2.488 999%   0.255 Lip20                                               
    0.000 999%   0.000 MM20                                                
   16.114 261%   1.649 MM12                                                
  554.475  21%  56.754 MM14                                                
    0.000 999%   0.000 MM17                                                
 3.96E+03   7% 405.728 Lip13a+Lip13b                                       
 4.53E+03   5% 464.131 MM14+Lip13a+Lip13b+MM12                             
  275.948  31%  28.245 MM09+Lip09                                          
    2.488 999%   0.255 MM20+Lip20                                          
   6 lines in following misc. output table
  FWHM = 0.061 ppm    S/N =   6                                            
  Data shift =-0.038 ppm                                                   
  Ph:-170 deg     -13.5 deg/ppm                                            
  alphaB,S = 8.5E+01,   5.1E+01                                            
   14 spline knots.   Ns = 5(1)                                            
   2 inflections.     1 extrema                                            
  498 points on ppm-axis = NY
      4.000000     3.992357     3.984714     3.977070     3.969427     3.961784     3.954141     3.946497     3.938854     3.931211
      3.923568     3.915925     3.908281     3.900638     3.892995     3.885352     3.877708     3.870065     3.862422     3.854779
      3.847136     3.839492     3.831849     3.824206     3.816563     3.808919     3.801276     3.793633     3.785990     3.778347
      3.770703     3.763060     3.755417     3.747774     3.740130     3.732487     3.724844     3.717201     3.709558     3.701914
      3.694271     3.686628     3.678985     3.671341     3.663698     3.656055     3.648412     3.640769     3.633125     3.625482
      3.617839     3.610196     3.602552     3.594909     3.587266     3.579623     3.571980     3.564336     3.556693     3.549050
      3.541407     3.533763     3.526120     3.518477     3.510834     3.503191     3.495547     3.487904     3.480261     3.472618
      3.464974     3.457331     3.449688     3.442045     3.434402     3.426758     3.419115     3.411472     3.403829     3.396185
      3.388542     3.380899     3.373256     3.365613     3.357969     3.350326     3.342683     3.335040     3.327396     3.319753
      3.312110     3.304467     3.296824     3.289180     3.281537     3.273894     3.266251     3.258607     3.250964     3.243321
      3.235678     3.228034     3.220391     3.212748     3.205105     3.197462     3.189818     3.182175     3.174532     3.166889
      3.159245     3.151602     3.143959     3.136316     3.128673     3.121029     3.113386     3.105743     3.098100     3.090456
      3.082813     3.075170     3.067527     3.059884     3.052240     3.044597     3.036954     3.029311     3.021667     3.014024
      3.006381     2.998738     2.991095     2.983451     2.975808     2.968165     2.960522     2.952878     2.945235     2.937592
      2.929949     2.922306     2.914662     2.907019     2.899376     2.891733     2.884089     2.876446     2.868803     2.861160
      2.853517     2.845873     2.838230     2.830587     2.822944     2.815300     2.807657     2.800014     2.792371     2.784728
      2.777084     2.769441     2.761798     2.754155     2.746511     2.738868     2.731225     2.723582     2.715939     2.708295
      2.700652     2.693009     2.685366     2.677722     2.670079     2.662436     2.654793     2.647150     2.639506     2.631863
      2.624220     2.616577     2.608933     2.601290     2.593647     2.586004     2.578361     2.570717     2.563074     2.555431
      2.547788     2.540144     2.532501     2.524858     2.517215     2.509572     2.501928     2.494285     2.486642     2.478999
      2.471355     2.463712     2.456069     2.448426     2.440783     2.433139     2.425496     2.417853     2.410210     2.402566
      2.394923     2.387280     2.379637     2.371994     2.364350     2.356707     2.349064     2.341421     2.333777     2.326134
      2.318491     2.310848     2.303205     2.295561     2.287918     2.280275     2.272632     2.264988     2.257345     2.249702
      2.242059     2.234416     2.226772     2.219129     2.211486     2.203843     2.196199     2.188556     2.180913     2.173270
      2.165627     2.157983     2.150340     2.142697     2.135054     2.127410     2.119767     2.112124     2.104481     2.096838
      2.089194     2.081551     2.073908     2.066265     2.058621     2.050978     2.043335     2.035692     2.028049     2.020405
      2.012762     2.005119     1.997476     1.989833     1.982190     1.974546     1.966903     1.959260     1.951617     1.943974
      1.936331     1.928688     1.921045     1.913402     1.905759     1.898115     1.890472     1.882829     1.875186     1.867543
      1.859900     1.852257     1.844614     1.836971     1.829327     1.821684     1.814041     1.806398     1.798755     1.791112
      1.783469     1.775826     1.768183     1.760540     1.752896     1.745253     1.737610     1.729967     1.722324     1.714681
      1.707038     1.699395     1.691752     1.684108     1.676465     1.668822     1.661179     1.653536     1.645893     1.638250
      1.630607     1.622964     1.615321     1.607677     1.600034     1.592391     1.584748     1.577105     1.569462     1.561819
      1.554176     1.546533     1.538890     1.531246     1.523603     1.515960     1.508317     1.500674     1.493031     1.485388
      1.477745     1.470102     1.462458     1.454815     1.447172     1.439529     1.431886     1.424243     1.416600     1.408957
      1.401314     1.393671     1.386027     1.378384     1.370741     1.363098     1.355455     1.347812     1.340169     1.332526
      1.324883     1.317240     1.309596     1.301953     1.294310     1.286667     1.279024     1.271381     1.263738     1.256095
      1.248452     1.240808     1.233165     1.225522     1.217879     1.210236     1.202593     1.194950     1.187307     1.179664
      1.172021     1.164377     1.156734     1.149091     1.141448     1.133805     1.126162     1.118519     1.110876     1.103233
      1.095590     1.087946     1.080303     1.072660     1.065017     1.057374     1.049731     1.042088     1.034445     1.026802
      1.019158     1.011515     1.003872     0.996229     0.988586     0.980943     0.973300     0.965657     0.958014     0.950371
      0.942727     0.935084     0.927441     0.919798     0.912155     0.904512     0.896869     0.889226     0.881583     0.873940
      0.866296     0.858653     0.851010     0.843367     0.835724     0.828081     0.820438     0.812795     0.805152     0.797508
      0.789865     0.782222     0.774579     0.766936     0.759293     0.751650     0.744007     0.736364     0.728721     0.721077
      0.713434     0.705791     0.698148     0.690505     0.682862     0.675219     0.667576     0.659933     0.652290     0.644646
      0.637003     0.629360     0.621717     0.614074     0.606431     0.598788     0.591145     0.583502     0.575858     0.568215
      0.560572     0.552929     0.545286     0.537643     0.530000     0.522357     0.514714     0.507071     0.499427     0.491784
      0.484141     0.476498     0.468855     0.461212     0.453569     0.445925     0.438282     0.430639     0.422996     0.415353
      0.407710     0.400067     0.392424     0.384780     0.377137     0.369494     0.361851     0.354208     0.346565     0.338922
      0.331278     0.323635     0.315992     0.308349     0.300706     0.293063     0.285420     0.277777     0.270133     0.262490
      0.254847     0.247204     0.239561     0.231918     0.224275     0.216631     0.208988     0.201345
 NY phased data points follow
   3.07203E+00  2.68053E+00  1.64173E+00  1.29430E+00  3.08378E+00  3.20030E+00  2.74801E+00  1.81838E+00  2.61599E+00  9.20179E-01
   2.15396E+00  3.32344E+00  3.50216E-01  2.22677E+00  1.23084E+00  1.68514E+00  1.28333E+00  2.00249E+00  2.10316E+00  1.04759E-01
   3.21353E+00  3.20213E+00  4.90615E-01  3.69353E+00  8.64953E-01  1.81980E+00  1.46560E+00  1.54082E+00  1.52520E+00  2.10862E+00
   1.56981E+00  2.28365E+00  1.24594E+00  1.05863E+00  1.28377E+00  1.42614E+00  7.63078E-01  1.78966E+00  1.00258E+00  1.63661E+00
   9.47816E-01  6.20860E-01  2.06641E+00  8.00418E-01  2.31913E+00  1.55451E+00  1.80049E+00  1.52661E+00  1.73672E+00  9.31155E-01
   7.15879E-01  1.04556E+00 -9.88486E-01  7.28229E-03  1.15301E+00  2.63187E+00  1.50185E+00  2.24296E+00  4.87791E-01  7.02002E-01
   7.75611E-01 -8.54109E-01  1.34858E+00  9.94261E-01  8.87167E-01  6.10503E-01  4.20691E-01  1.85274E+00  1.06670E-01  7.30690E-01
   1.18285E+00  7.31983E-01  1.36201E+00  3.50065E-01  1.42131E+00  9.88027E-01  6.69154E-01 -1.30144E-01  1.53502E+00  1.12135E+00
   4.87630E-01  1.92676E+00  1.52333E+00  1.41164E-01  1.83230E+00  4.91125E-01  2.07354E+00 -6.05826E-01  1.55628E+00  6.84742E-01
   2.01620E-01  5.18903E-01  1.26105E-02  1.34730E+00  1.80527E+00  4.49503E-01  5.96347E-02  1.03840E+00  8.40970E-01 -9.16040E-01
   1.59007E+00  1.41015E+00  8.82341E-01  5.39336E-01  1.53610E+00  1.06376E+00  9.22171E-01  1.30347E+00  3.79612E-02  1.35865E+00
   9.41869E-01  3.57241E-02  1.11380E+00  5.91992E-01  1.39532E+00  1.03935E+00  1.25872E+00  1.61730E+00  1.42017E+00  8.13824E-01
   1.84527E+00  2.81740E-01  1.77739E+00  9.15643E-04 -3.16277E-01  5.80704E-01  8.31712E-01  7.41662E-01  1.61328E+00  1.00814E+00
   4.65077E-01  1.53949E+00  1.04751E+00 -4.54059E-01  1.34687E+00  5.88331E-01  1.30392E+00  9.47162E-01  3.89044E-01  2.58522E-01
   6.89620E-01  2.41841E-01  9.74020E-01  4.43973E-01  9.12501E-01  1.58112E+00  1.34466E+00 -1.60240E-01 -4.86881E-01  4.46009E-02
   1.72395E+00  1.97488E+00  6.90924E-01  5.14272E-01  2.00210E+00  1.01737E+00  7.93588E-01  1.91480E+00 -1.08041E+00 -7.74325E-02
   1.68448E+00  9.65155E-01  1.28550E+00  1.64345E+00  6.96099E-01  7.12830E-01  2.21767E+00  7.58529E-01  2.24038E+00  5.24579E-01
  -6.25640E-01  1.69134E+00  7.05775E-01  1.22543E+00  3.63427E-01  8.27098E-01  4.86177E-01  6.74919E-01 -6.95502E-01 -1.87175E+00
  -6.46390E-01  2.45345E-01  3.75821E-01  2.80549E-01  9.48550E-01  7.46766E-01  1.80621E-01  1.46013E+00  6.77713E-01  1.26987E-01
   4.15504E-01  2.28512E-01  1.08243E+00  1.04749E-02  8.07279E-01  2.67350E+00  8.49797E-01  2.80383E+00  1.57848E+00  1.36570E+00
   2.38384E+00  1.80277E+00  7.16812E-01 -9.71125E-02  1.46097E+00 -3.79029E-01 -8.85353E-01 -7.71672E-01  8.09516E-01  1.55978E+00
   1.45370E+00  7.90943E-01 -2.61556E-01  6.74672E-01  1.51672E+00  8.19612E-01  4.53378E-01  5.94284E-01  7.41401E-01  4.66036E-01
   9.40849E-02  2.43806E-01  1.01516E+00  4.67777E-01  4.61510E-01  8.77695E-01  6.83298E-01  1.05017E-01  2.37015E+00 -6.08689E-01
  -5.64411E-01  3.94067E-01  9.51101E-01  1.81213E+00  1.41433E+00  1.53846E+00  1.56708E+00  8.64854E-01  1.72850E+00  8.17491E-01
   1.45539E+00  4.49453E-01  7.52668E-01 -1.08787E+00  7.23980E-01  1.91395E+00  1.63632E+00  1.19497E+00  2.25347E+00  6.22294E-01
   9.69672E-01  5.20787E-01  6.23238E-01  1.01816E+00  1.46245E+00  1.49343E+00  1.44414E+00  1.79325E+00  1.53101E+00  4.10170E+00
   7.20598E-01  1.97428E+00  2.91117E+00  1.45627E+00  5.09610E-01 -5.52737E-02  8.79239E-01  3.15934E-02  1.54045E+00  1.12599E+00
   7.19334E-01  1.20459E+00 -9.16449E-01 -2.30047E-01  2.11937E+00  8.43188E-01  1.43878E+00  1.05864E+00  1.27002E+00  1.76522E+00
  -7.43320E-02  1.38847E+00  5.01758E-02  2.04220E+00  1.25061E+00  9.74594E-01  1.25624E+00  8.64159E-01  1.03173E+00  2.56716E-01
   1.23224E+00  1.88102E+00  1.95585E+00  4.07987E-01 -3.30729E-01  1.69810E+00  2.27620E-01  1.11117E+00  7.50557E-01  8.30284E-01
   9.09668E-01  3.04460E-01  2.04882E+00  1.00264E+00  2.13508E+00  1.34759E+00  2.08328E+00  2.97656E-01  2.26931E+00  2.62141E+00
   2.71401E+00  3.54513E+00  2.88861E+00  2.24047E+00  2.24935E+00  3.49858E+00  5.30472E+00  4.81538E+00  4.67915E+00  4.34426E+00
   5.20492E+00  4.31212E+00  4.64255E+00  6.02778E+00  8.10357E+00  7.54895E+00  7.46306E+00  8.07156E+00  9.51293E+00  6.53770E+00
   6.86205E+00  6.12484E+00  8.06450E+00  7.10061E+00  6.07848E+00  8.78914E+00  7.63630E+00  9.47520E+00  1.06103E+01  1.12266E+01
   1.11787E+01  1.19403E+01  1.19710E+01  1.07075E+01  1.11112E+01  1.01996E+01  1.01040E+01  1.10672E+01  1.06783E+01  1.06810E+01
   1.14098E+01  1.01587E+01  1.20444E+01  1.12450E+01  1.03989E+01  1.15569E+01  1.14480E+01  1.16289E+01  1.11817E+01  1.29685E+01
   1.15629E+01  1.34111E+01  1.21354E+01  1.09393E+01  1.17555E+01  1.21460E+01  1.28655E+01  1.20062E+01  1.10428E+01  1.14245E+01
   9.27064E+00  1.02644E+01  8.12374E+00  9.80701E+00  8.32205E+00  8.42726E+00  8.50493E+00  7.79438E+00  8.42366E+00  5.54761E+00
   7.43361E+00  6.60150E+00  5.68968E+00  5.10427E+00  4.76921E+00  5.31615E+00  6.06369E+00  5.94180E+00  4.48164E+00  5.43635E+00
   6.24336E+00  4.59833E+00  4.81991E+00  2.34239E+00  3.79395E+00  3.37418E+00  4.64608E+00  5.52917E+00  4.69492E+00  5.02332E+00
   2.01565E+00  2.73666E+00  2.29251E+00  3.72295E+00  3.22523E+00  1.83957E+00  3.48310E+00  3.49060E+00  2.97568E+00  3.20739E+00
   1.87636E+00  1.21197E+00  3.07512E+00  3.45057E+00  3.26859E+00  2.15344E+00  1.08444E+00  2.90244E+00  1.99359E+00  9.37956E-01
   1.92716E+00  1.81492E+00  8.56368E-01  3.47285E+00  2.47211E+00  2.23257E+00  1.72206E+00  1.00941E+00  7.70578E-01  3.82146E-01
   1.54790E+00  1.91014E+00  7.58722E-01  5.96281E-01  7.00144E-01  2.30828E+00  4.18300E-01  4.95491E-01  1.22377E+00  3.19308E-01
   2.93280E+00 -7.31878E-01  7.74747E-01  5.01501E-01  2.26644E-01 -2.32867E-01  1.20982E+00 -9.68127E-02  1.21124E+00  1.10287E+00
  -4.61946E-01  5.90934E-01  6.71592E-01  5.30261E-01  9.37675E-01  4.76290E-01  3.18800E-01 -2.59836E-01 -5.66591E-01 -4.76246E-01
   4.02911E-01 -9.75580E-01  2.50220E-01  8.54598E-01 -4.44336E-01  4.79430E-01 -4.28900E-02  6.85675E-01  7.45091E-01 -4.35802E-01
   7.45313E-01 -3.14213E-01  1.41323E+00  1.29822E+00  4.69670E-01 -9.33924E-01 -2.90926E-01  8.87106E-01  6.35570E-01  4.01160E-01
   1.15715E-02  9.05413E-01  7.17881E-01  1.76229E+00  1.82298E-01 -1.92115E-03  1.69214E+00 -3.40406E-01  5.52409E-01  3.29734E-01
  -3.81356E-01  3.08944E-01  1.00520E+00  7.98059E-01  9.36931E-02  4.95781E-01  5.07600E-01  2.43567E-01
 NY points of the fit to the data follow
   1.27899E+00  1.25981E+00  1.25103E+00  1.25779E+00  1.28401E+00  1.32092E+00  1.35867E+00  1.39315E+00  1.42132E+00  1.43875E+00
   1.44078E+00  1.42486E+00  1.39057E+00  1.33507E+00  1.25813E+00  1.18494E+00  1.14242E+00  1.12788E+00  1.13488E+00  1.16497E+00
   1.23050E+00  1.33932E+00  1.44669E+00  1.51276E+00  1.54184E+00  1.56338E+00  1.55856E+00  1.51280E+00  1.43658E+00  1.38316E+00
   1.37778E+00  1.40654E+00  1.47381E+00  1.56582E+00  1.61412E+00  1.60283E+00  1.56427E+00  1.53245E+00  1.47254E+00  1.36131E+00
   1.22465E+00  1.12750E+00  1.08872E+00  1.09521E+00  1.13772E+00  1.19908E+00  1.26493E+00  1.32362E+00  1.34963E+00  1.33670E+00
   1.29659E+00  1.23767E+00  1.16974E+00  1.10875E+00  1.07652E+00  1.07943E+00  1.10262E+00  1.13068E+00  1.15552E+00  1.17350E+00
   1.18209E+00  1.18012E+00  1.16909E+00  1.15122E+00  1.12893E+00  1.10571E+00  1.08952E+00  1.08650E+00  1.09479E+00  1.10894E+00
   1.12304E+00  1.13436E+00  1.14048E+00  1.14047E+00  1.13566E+00  1.12673E+00  1.11500E+00  1.10101E+00  1.08720E+00  1.07668E+00
   1.06846E+00  1.06241E+00  1.05686E+00  1.04867E+00  1.03572E+00  1.01904E+00  1.00043E+00  9.81538E-01  9.64711E-01  9.52987E-01
   9.48033E-01  9.51359E-01  9.62651E-01  9.78426E-01  9.91411E-01  9.96378E-01  9.93617E-01  9.89476E-01  9.95230E-01  1.01008E+00
   1.02771E+00  1.04583E+00  1.06279E+00  1.07661E+00  1.08190E+00  1.07447E+00  1.05428E+00  1.02315E+00  9.86840E-01  9.56885E-01
   9.43885E-01  9.39729E-01  9.37444E-01  9.36155E-01  9.34775E-01  9.32218E-01  9.28144E-01  9.23223E-01  9.18041E-01  9.13997E-01
   9.14237E-01  9.27436E-01  9.70274E-01  1.03431E+00  1.10304E+00  1.16830E+00  1.22451E+00  1.26484E+00  1.28737E+00  1.28947E+00
   1.26015E+00  1.19692E+00  1.11143E+00  1.02585E+00  9.63186E-01  9.11857E-01  8.66446E-01  8.34948E-01  8.21764E-01  8.32342E-01
   8.71621E-01  9.29019E-01  9.78665E-01  1.00671E+00  1.01027E+00  9.91153E-01  9.60440E-01  9.28851E-01  9.03469E-01  8.86018E-01
   8.69590E-01  8.53901E-01  8.40445E-01  8.30244E-01  8.24024E-01  8.21012E-01  8.19734E-01  8.18796E-01  8.17934E-01  8.16713E-01
   8.14331E-01  8.07942E-01  7.97488E-01  7.87337E-01  7.79471E-01  7.73682E-01  7.70244E-01  7.67618E-01  7.64148E-01  7.60571E-01
   7.56783E-01  7.51895E-01  7.47292E-01  7.43335E-01  7.39334E-01  7.34042E-01  7.25322E-01  7.13123E-01  7.01576E-01  6.96166E-01
   6.95278E-01  6.95206E-01  6.92282E-01  6.87184E-01  6.87520E-01  7.01265E-01  7.31052E-01  7.74698E-01  8.23428E-01  8.68104E-01
   9.03946E-01  9.27132E-01  9.25994E-01  8.93529E-01  8.40665E-01  7.83623E-01  7.34774E-01  7.04575E-01  7.01628E-01  7.27738E-01
   7.72780E-01  8.24201E-01  8.70622E-01  9.02436E-01  9.09346E-01  8.88623E-01  8.56980E-01  8.23671E-01  7.90125E-01  7.62639E-01
   7.52758E-01  7.75835E-01  8.23168E-01  8.78705E-01  9.29463E-01  9.66397E-01  9.73780E-01  9.33350E-01  8.47396E-01  7.37844E-01
   6.29353E-01  5.43052E-01  5.02159E-01  5.22300E-01  5.85394E-01  6.72042E-01  7.60645E-01  8.31200E-01  8.71004E-01  8.72144E-01
   8.48526E-01  8.28200E-01  8.28594E-01  8.50657E-01  8.84935E-01  9.17245E-01  9.37928E-01  9.35375E-01  8.94528E-01  8.22031E-01
   7.43846E-01  6.81560E-01  6.48301E-01  6.53822E-01  7.00280E-01  7.72552E-01  8.42974E-01  8.93993E-01  9.22102E-01  9.27960E-01
   9.28664E-01  9.76469E-01  1.07989E+00  1.20850E+00  1.34789E+00  1.52142E+00  1.72879E+00  1.90902E+00  2.01940E+00  2.05212E+00
   2.00977E+00  1.89931E+00  1.75509E+00  1.62091E+00  1.47211E+00  1.28900E+00  1.10900E+00  9.96480E-01  9.59446E-01  9.48144E-01
   9.48504E-01  9.57530E-01  9.69800E-01  9.83470E-01  9.98825E-01  1.01332E+00  1.02473E+00  1.03242E+00  1.03741E+00  1.04166E+00
   1.04756E+00  1.05729E+00  1.07104E+00  1.08736E+00  1.10441E+00  1.12154E+00  1.13850E+00  1.15529E+00  1.17219E+00  1.18999E+00
   1.20964E+00  1.23157E+00  1.25549E+00  1.28140E+00  1.30865E+00  1.33682E+00  1.36597E+00  1.39616E+00  1.42793E+00  1.46271E+00
   1.50138E+00  1.54450E+00  1.59268E+00  1.64660E+00  1.70698E+00  1.77450E+00  1.84993E+00  1.93480E+00  2.03089E+00  2.14000E+00
   2.26410E+00  2.40520E+00  2.56534E+00  2.74655E+00  2.95085E+00  3.18019E+00  3.43651E+00  3.72179E+00  4.03833E+00  4.38941E+00
   4.78105E+00  5.22730E+00  5.76762E+00  6.43334E+00  7.06495E+00  7.52904E+00  7.80709E+00  7.89862E+00  7.78496E+00  7.45356E+00
   6.95073E+00  6.51238E+00  6.34033E+00  6.50042E+00  7.04543E+00  7.92957E+00  8.87113E+00  9.71431E+00  1.04020E+01  1.08775E+01
   1.10961E+01  1.10454E+01  1.08320E+01  1.07061E+01  1.07084E+01  1.07559E+01  1.08168E+01  1.08753E+01  1.09192E+01  1.09454E+01
   1.09835E+01  1.10662E+01  1.12005E+01  1.13915E+01  1.16411E+01  1.19097E+01  1.21428E+01  1.23212E+01  1.24316E+01  1.24630E+01
   1.24095E+01  1.22829E+01  1.21254E+01  1.19559E+01  1.17625E+01  1.15409E+01  1.12911E+01  1.10151E+01  1.07158E+01  1.03968E+01
   1.00617E+01  9.71445E+00  9.35901E+00  8.99915E+00  8.63850E+00  8.28045E+00  7.92804E+00  7.58398E+00  7.25063E+00  6.92998E+00
   6.62369E+00  6.33305E+00  6.05903E+00  5.80228E+00  5.56319E+00  5.34190E+00  5.13830E+00  4.95208E+00  4.78272E+00  4.62953E+00
   4.49164E+00  4.36804E+00  4.25756E+00  4.15891E+00  4.07068E+00  3.99137E+00  3.91940E+00  3.85317E+00  3.79105E+00  3.73144E+00
   3.67280E+00  3.61372E+00  3.55291E+00  3.48928E+00  3.42193E+00  3.35018E+00  3.27361E+00  3.19204E+00  3.10551E+00  3.01429E+00
   2.91883E+00  2.81976E+00  2.71781E+00  2.61380E+00  2.50860E+00  2.40310E+00  2.29813E+00  2.19448E+00  2.09287E+00  1.99393E+00
   1.89817E+00  1.80601E+00  1.71775E+00  1.63360E+00  1.55367E+00  1.47799E+00  1.40654E+00  1.33922E+00  1.27588E+00  1.21637E+00
   1.16048E+00  1.10802E+00  1.05877E+00  1.01250E+00  9.69010E-01  9.28094E-01  8.89558E-01  8.53218E-01  8.18901E-01  7.86447E-01
   7.55708E-01  7.26553E-01  6.98858E-01  6.72511E-01  6.47407E-01  6.23453E-01  6.00564E-01  5.78666E-01  5.57688E-01  5.37564E-01
   5.18237E-01  4.99651E-01  4.81761E-01  4.64524E-01  4.47897E-01  4.31842E-01  4.16325E-01  4.01314E-01  3.86781E-01  3.72701E-01
   3.59047E-01  3.45793E-01  3.32921E-01  3.20409E-01  3.08241E-01  2.96400E-01  2.84869E-01  2.73630E-01  2.62671E-01  2.51979E-01
   2.41544E-01  2.31353E-01  2.21393E-01  2.11654E-01  2.02128E-01  1.92807E-01  1.83682E-01  1.74743E-01  1.65982E-01  1.57392E-01
   1.48968E-01  1.40704E-01  1.32592E-01  1.24627E-01  1.16801E-01  1.09111E-01  1.01553E-01  9.41225E-02  8.68134E-02  7.96205E-02
   7.25403E-02  6.55699E-02  5.87068E-02  5.19467E-02  4.52852E-02  3.87185E-02  3.22448E-02  2.58625E-02
 NY background values follow
     1.169E+00    1.167E+00    1.164E+00    1.161E+00    1.158E+00    1.155E+00    1.153E+00    1.150E+00    1.147E+00    1.144E+00
     1.142E+00    1.139E+00    1.136E+00    1.133E+00    1.130E+00    1.128E+00    1.125E+00    1.122E+00    1.119E+00    1.117E+00
     1.114E+00    1.111E+00    1.108E+00    1.105E+00    1.103E+00    1.100E+00    1.097E+00    1.094E+00    1.092E+00    1.089E+00
     1.086E+00    1.083E+00    1.080E+00    1.078E+00    1.075E+00    1.072E+00    1.069E+00    1.067E+00    1.064E+00    1.061E+00
     1.058E+00    1.055E+00    1.053E+00    1.050E+00    1.047E+00    1.044E+00    1.042E+00    1.039E+00    1.036E+00    1.033E+00
     1.030E+00    1.028E+00    1.025E+00    1.022E+00    1.019E+00    1.017E+00    1.014E+00    1.011E+00    1.008E+00    1.005E+00
     1.003E+00    9.999E-01    9.971E-01    9.943E-01    9.916E-01    9.888E-01    9.860E-01    9.832E-01    9.804E-01    9.777E-01
     9.749E-01    9.721E-01    9.693E-01    9.666E-01    9.638E-01    9.610E-01    9.582E-01    9.554E-01    9.527E-01    9.499E-01
     9.471E-01    9.443E-01    9.416E-01    9.388E-01    9.360E-01    9.332E-01    9.305E-01    9.277E-01    9.249E-01    9.221E-01
     9.193E-01    9.166E-01    9.138E-01    9.110E-01    9.082E-01    9.055E-01    9.027E-01    8.999E-01    8.971E-01    8.944E-01
     8.916E-01    8.888E-01    8.860E-01    8.832E-01    8.805E-01    8.777E-01    8.749E-01    8.721E-01    8.694E-01    8.666E-01
     8.638E-01    8.610E-01    8.583E-01    8.555E-01    8.527E-01    8.499E-01    8.472E-01    8.444E-01    8.416E-01    8.388E-01
     8.360E-01    8.333E-01    8.305E-01    8.277E-01    8.249E-01    8.222E-01    8.194E-01    8.166E-01    8.138E-01    8.111E-01
     8.083E-01    8.055E-01    8.027E-01    8.000E-01    7.972E-01    7.944E-01    7.916E-01    7.889E-01    7.861E-01    7.833E-01
     7.805E-01    7.778E-01    7.750E-01    7.722E-01    7.694E-01    7.666E-01    7.639E-01    7.611E-01    7.583E-01    7.555E-01
     7.528E-01    7.500E-01    7.472E-01    7.444E-01    7.417E-01    7.389E-01    7.361E-01    7.333E-01    7.306E-01    7.278E-01
     7.250E-01    7.222E-01    7.195E-01    7.167E-01    7.139E-01    7.111E-01    7.084E-01    7.056E-01    7.028E-01    7.000E-01
     6.973E-01    6.945E-01    6.917E-01    6.889E-01    6.862E-01    6.834E-01    6.806E-01    6.778E-01    6.751E-01    6.723E-01
     6.695E-01    6.667E-01    6.640E-01    6.612E-01    6.584E-01    6.556E-01    6.529E-01    6.501E-01    6.473E-01    6.445E-01
     6.418E-01    6.390E-01    6.362E-01    6.334E-01    6.307E-01    6.279E-01    6.251E-01    6.224E-01    6.196E-01    6.168E-01
     6.140E-01    6.113E-01    6.085E-01    6.057E-01    6.029E-01    6.002E-01    5.974E-01    5.946E-01    5.918E-01    5.891E-01
     5.863E-01    5.835E-01    5.807E-01    5.780E-01    5.752E-01    5.724E-01    5.696E-01    5.669E-01    5.641E-01    5.613E-01
     5.586E-01    5.558E-01    5.530E-01    5.502E-01    5.475E-01    5.447E-01    5.419E-01    5.391E-01    5.364E-01    5.336E-01
     5.308E-01    5.280E-01    5.253E-01    5.225E-01    5.197E-01    5.169E-01    5.142E-01    5.114E-01    5.086E-01    5.059E-01
     5.031E-01    5.003E-01    4.975E-01    4.948E-01    4.920E-01    4.892E-01    4.864E-01    4.837E-01    4.809E-01    4.781E-01
     4.754E-01    4.726E-01    4.698E-01    4.670E-01    4.643E-01    4.615E-01    4.587E-01    4.559E-01    4.532E-01    4.504E-01
     4.476E-01    4.449E-01    4.421E-01    4.393E-01    4.365E-01    4.338E-01    4.310E-01    4.282E-01    4.254E-01    4.227E-01
     4.199E-01    4.171E-01    4.144E-01    4.116E-01    4.088E-01    4.060E-01    4.033E-01    4.005E-01    3.977E-01    3.949E-01
     3.922E-01    3.894E-01    3.866E-01    3.839E-01    3.811E-01    3.783E-01    3.755E-01    3.728E-01    3.700E-01    3.672E-01
     3.645E-01    3.617E-01    3.589E-01    3.561E-01    3.534E-01    3.506E-01    3.478E-01    3.451E-01    3.423E-01    3.395E-01
     3.367E-01    3.340E-01    3.312E-01    3.284E-01    3.257E-01    3.229E-01    3.201E-01    3.173E-01    3.146E-01    3.118E-01
     3.090E-01    3.063E-01    3.035E-01    3.007E-01    2.979E-01    2.952E-01    2.924E-01    2.896E-01    2.869E-01    2.841E-01
     2.813E-01    2.785E-01    2.758E-01    2.730E-01    2.702E-01    2.675E-01    2.647E-01    2.619E-01    2.591E-01    2.564E-01
     2.536E-01    2.508E-01    2.481E-01    2.453E-01    2.425E-01    2.397E-01    2.370E-01    2.342E-01    2.314E-01    2.287E-01
     2.259E-01    2.231E-01    2.203E-01    2.176E-01    2.148E-01    2.120E-01    2.093E-01    2.065E-01    2.037E-01    2.009E-01
     1.982E-01    1.954E-01    1.926E-01    1.899E-01    1.871E-01    1.843E-01    1.816E-01    1.788E-01    1.760E-01    1.732E-01
     1.705E-01    1.677E-01    1.649E-01    1.622E-01    1.594E-01    1.566E-01    1.538E-01    1.511E-01    1.483E-01    1.455E-01
     1.428E-01    1.400E-01    1.372E-01    1.345E-01    1.317E-01    1.289E-01    1.261E-01    1.234E-01    1.206E-01    1.178E-01
     1.151E-01    1.123E-01    1.095E-01    1.067E-01    1.040E-01    1.012E-01    9.844E-02    9.567E-02    9.290E-02    9.013E-02
     8.736E-02    8.459E-02    8.181E-02    7.904E-02    7.627E-02    7.350E-02    7.073E-02    6.796E-02    6.519E-02    6.242E-02
     5.965E-02    5.688E-02    5.411E-02    5.134E-02    4.857E-02    4.580E-02    4.303E-02    4.026E-02    3.749E-02    3.472E-02
     3.195E-02    2.918E-02    2.641E-02    2.364E-02    2.087E-02    1.810E-02    1.533E-02    1.256E-02    9.790E-03    7.020E-03
     4.250E-03    1.480E-03   -1.290E-03   -4.060E-03   -6.830E-03   -9.600E-03   -1.237E-02   -1.514E-02   -1.791E-02   -2.068E-02
    -2.345E-02   -2.622E-02   -2.899E-02   -3.176E-02   -3.453E-02   -3.730E-02   -4.007E-02   -4.284E-02   -4.561E-02   -4.838E-02
    -5.115E-02   -5.392E-02   -5.669E-02   -5.946E-02   -6.223E-02   -6.500E-02   -6.777E-02   -7.054E-02   -7.331E-02   -7.608E-02
    -7.885E-02   -8.162E-02   -8.439E-02   -8.716E-02   -8.993E-02   -9.270E-02   -9.547E-02   -9.824E-02   -1.010E-01   -1.038E-01
    -1.065E-01   -1.093E-01   -1.121E-01   -1.149E-01   -1.176E-01   -1.204E-01   -1.232E-01   -1.259E-01   -1.287E-01   -1.315E-01
    -1.342E-01   -1.370E-01   -1.398E-01   -1.426E-01   -1.453E-01   -1.481E-01   -1.509E-01   -1.536E-01   -1.564E-01   -1.592E-01
    -1.619E-01   -1.647E-01   -1.675E-01   -1.703E-01   -1.730E-01   -1.758E-01   -1.786E-01   -1.813E-01   -1.841E-01   -1.869E-01
    -1.896E-01   -1.924E-01   -1.952E-01   -1.979E-01   -2.007E-01   -2.035E-01   -2.063E-01   -2.090E-01
 Ala      Conc. = 1.50E+02
