 LCModel (Version 6.3-1L) Copyright: S.W. Provencher.          Ref.: Magn. Reson. Med. 30:672-679 (1993).                
 Slice#1 Row#7 Col#1  K_02_press_1_raw_act
 36 lines in following concentration table = NCONC+1
    Conc.  %SD /Cr+PCr  Metabolite                                         
    7.543 529% 7.4E-02 Ala                                                 
   15.887 100%   0.156 Asp                                                 
   46.076 135%   0.454 Cr                                                  
   55.476 110%   0.546 PCr                                                 
    7.728 123% 7.6E-02 GABA                                                
    8.549 112% 8.4E-02 Glc                                                 
   64.672 124%   0.637 Gln                                                 
   91.398  96%   0.900 Glu                                                 
    5.729 702% 5.6E-02 GPC                                                 
   22.315 181%   0.220 PCh                                                 
    6.037 474% 5.9E-02 GSH                                                 
    0.000 999%   0.000 Ins                                                 
    0.000 999%   0.000 Lac                                                 
  110.219  25%   1.085 NAA                                                 
    1.903 999% 1.9E-02 NAAG                                                
    1.060 292% 1.0E-02 Scyllo                                              
    8.958 176% 8.8E-02 Tau                                                 
    0.000 999%   0.000 -CrCH2                                              
   28.044  28%   0.276 GPC+PCh                                             
  112.122  24%   1.104 NAA+NAAG                                            
  101.552  20%   1.000 Cr+PCr                                              
  156.070  74%   1.537 Glu+Gln                                             
    0.000 999%   0.000 Lip13a                                              
  174.692  28%   1.720 Lip13b                                              
   27.932  91%   0.275 Lip09                                               
    0.000 999%   0.000 MM09                                                
   26.809  64%   0.264 Lip20                                               
 1.89E-03 999% 1.9E-05 MM20                                                
 1.18E-04 999% 1.2E-06 MM12                                                
 1.28E-02 999% 1.3E-04 MM14                                                
    0.000 999%   0.000 MM17                                                
  174.692  28%   1.720 Lip13a+Lip13b                                       
  174.705  28%   1.720 MM14+Lip13a+Lip13b+MM12                             
   27.932  91%   0.275 MM09+Lip09                                          
   26.811  64%   0.264 MM20+Lip20                                          
   6 lines in following misc. output table
  FWHM = 0.046 ppm    S/N =   1                                            
  Data shift = 0.008 ppm                                                   
  Ph:  94 deg     -14.5 deg/ppm                                            
  alphaB,S = 6.5E-01,   2.4E+01                                            
   14 spline knots.   Ns = 5(1)                                            
  ( 9) 2 infls.   ( 9) 1 extrs.                                            
  498 points on ppm-axis = NY
      4.000000     3.992357     3.984714     3.977070     3.969427     3.961784     3.954141     3.946497     3.938854     3.931211
      3.923568     3.915925     3.908281     3.900638     3.892995     3.885352     3.877708     3.870065     3.862422     3.854779
      3.847136     3.839492     3.831849     3.824206     3.816563     3.808919     3.801276     3.793633     3.785990     3.778347
      3.770703     3.763060     3.755417     3.747774     3.740130     3.732487     3.724844     3.717201     3.709558     3.701914
      3.694271     3.686628     3.678985     3.671341     3.663698     3.656055     3.648412     3.640769     3.633125     3.625482
      3.617839     3.610196     3.602552     3.594909     3.587266     3.579623     3.571980     3.564336     3.556693     3.549050
      3.541407     3.533763     3.526120     3.518477     3.510834     3.503191     3.495547     3.487904     3.480261     3.472618
      3.464974     3.457331     3.449688     3.442045     3.434402     3.426758     3.419115     3.411472     3.403829     3.396185
      3.388542     3.380899     3.373256     3.365613     3.357969     3.350326     3.342683     3.335040     3.327396     3.319753
      3.312110     3.304467     3.296824     3.289180     3.281537     3.273894     3.266251     3.258607     3.250964     3.243321
      3.235678     3.228034     3.220391     3.212748     3.205105     3.197462     3.189818     3.182175     3.174532     3.166889
      3.159245     3.151602     3.143959     3.136316     3.128673     3.121029     3.113386     3.105743     3.098100     3.090456
      3.082813     3.075170     3.067527     3.059884     3.052240     3.044597     3.036954     3.029311     3.021667     3.014024
      3.006381     2.998738     2.991095     2.983451     2.975808     2.968165     2.960522     2.952878     2.945235     2.937592
      2.929949     2.922306     2.914662     2.907019     2.899376     2.891733     2.884089     2.876446     2.868803     2.861160
      2.853517     2.845873     2.838230     2.830587     2.822944     2.815300     2.807657     2.800014     2.792371     2.784728
      2.777084     2.769441     2.761798     2.754155     2.746511     2.738868     2.731225     2.723582     2.715939     2.708295
      2.700652     2.693009     2.685366     2.677722     2.670079     2.662436     2.654793     2.647150     2.639506     2.631863
      2.624220     2.616577     2.608933     2.601290     2.593647     2.586004     2.578361     2.570717     2.563074     2.555431
      2.547788     2.540144     2.532501     2.524858     2.517215     2.509572     2.501928     2.494285     2.486642     2.478999
      2.471355     2.463712     2.456069     2.448426     2.440783     2.433139     2.425496     2.417853     2.410210     2.402566
      2.394923     2.387280     2.379637     2.371994     2.364350     2.356707     2.349064     2.341421     2.333777     2.326134
      2.318491     2.310848     2.303205     2.295561     2.287918     2.280275     2.272632     2.264988     2.257345     2.249702
      2.242059     2.234416     2.226772     2.219129     2.211486     2.203843     2.196199     2.188556     2.180913     2.173270
      2.165627     2.157983     2.150340     2.142697     2.135054     2.127410     2.119767     2.112124     2.104481     2.096838
      2.089194     2.081551     2.073908     2.066265     2.058621     2.050978     2.043335     2.035692     2.028049     2.020405
      2.012762     2.005119     1.997476     1.989833     1.982190     1.974546     1.966903     1.959260     1.951617     1.943974
      1.936331     1.928688     1.921045     1.913402     1.905759     1.898115     1.890472     1.882829     1.875186     1.867543
      1.859900     1.852257     1.844614     1.836971     1.829327     1.821684     1.814041     1.806398     1.798755     1.791112
      1.783469     1.775826     1.768183     1.760540     1.752896     1.745253     1.737610     1.729967     1.722324     1.714681
      1.707038     1.699395     1.691752     1.684108     1.676465     1.668822     1.661179     1.653536     1.645893     1.638250
      1.630607     1.622964     1.615321     1.607677     1.600034     1.592391     1.584748     1.577105     1.569462     1.561819
      1.554176     1.546533     1.538890     1.531246     1.523603     1.515960     1.508317     1.500674     1.493031     1.485388
      1.477745     1.470102     1.462458     1.454815     1.447172     1.439529     1.431886     1.424243     1.416600     1.408957
      1.401314     1.393671     1.386027     1.378384     1.370741     1.363098     1.355455     1.347812     1.340169     1.332526
      1.324883     1.317240     1.309596     1.301953     1.294310     1.286667     1.279024     1.271381     1.263738     1.256095
      1.248452     1.240808     1.233165     1.225522     1.217879     1.210236     1.202593     1.194950     1.187307     1.179664
      1.172021     1.164377     1.156734     1.149091     1.141448     1.133805     1.126162     1.118519     1.110876     1.103233
      1.095590     1.087946     1.080303     1.072660     1.065017     1.057374     1.049731     1.042088     1.034445     1.026802
      1.019158     1.011515     1.003872     0.996229     0.988586     0.980943     0.973300     0.965657     0.958014     0.950371
      0.942727     0.935084     0.927441     0.919798     0.912155     0.904512     0.896869     0.889226     0.881583     0.873940
      0.866296     0.858653     0.851010     0.843367     0.835724     0.828081     0.820438     0.812795     0.805152     0.797508
      0.789865     0.782222     0.774579     0.766936     0.759293     0.751650     0.744007     0.736364     0.728721     0.721077
      0.713434     0.705791     0.698148     0.690505     0.682862     0.675219     0.667576     0.659933     0.652290     0.644646
      0.637003     0.629360     0.621717     0.614074     0.606431     0.598788     0.591145     0.583502     0.575858     0.568215
      0.560572     0.552929     0.545286     0.537643     0.530000     0.522357     0.514714     0.507071     0.499427     0.491784
      0.484141     0.476498     0.468855     0.461212     0.453569     0.445925     0.438282     0.430639     0.422996     0.415353
      0.407710     0.400067     0.392424     0.384780     0.377137     0.369494     0.361851     0.354208     0.346565     0.338922
      0.331278     0.323635     0.315992     0.308349     0.300706     0.293063     0.285420     0.277777     0.270133     0.262490
      0.254847     0.247204     0.239561     0.231918     0.224275     0.216631     0.208988     0.201345
 NY phased data points follow
   5.32549E+01  5.15219E+01  5.16858E+01  5.05234E+01  5.14795E+01  5.10152E+01  4.99547E+01  4.85729E+01  4.74397E+01  4.55704E+01
   4.66518E+01  5.13502E+01  4.99245E+01  4.47175E+01  4.36417E+01  4.59149E+01  4.47538E+01  4.29989E+01  4.33700E+01  4.37244E+01
   4.21122E+01  4.21847E+01  4.35564E+01  4.08233E+01  4.16273E+01  3.91017E+01  4.06736E+01  3.89111E+01  4.11821E+01  3.84409E+01
   3.81628E+01  4.03310E+01  3.98509E+01  3.63284E+01  3.61696E+01  3.78894E+01  3.47125E+01  3.56969E+01  3.50177E+01  3.33768E+01
   3.46512E+01  3.42338E+01  3.34304E+01  3.27852E+01  3.13992E+01  3.37788E+01  3.65348E+01  3.16882E+01  3.41501E+01  3.13570E+01
   3.24471E+01  3.14475E+01  3.27009E+01  3.44794E+01  3.25818E+01  3.23817E+01  3.13397E+01  2.93361E+01  3.19870E+01  2.61076E+01
   3.24396E+01  2.80017E+01  2.94806E+01  2.76843E+01  2.79433E+01  2.88193E+01  2.96091E+01  2.65302E+01  2.91022E+01  2.59378E+01
   2.82690E+01  2.58430E+01  2.77505E+01  2.70037E+01  2.60862E+01  2.67639E+01  2.71182E+01  2.64281E+01  2.51082E+01  2.64947E+01
   2.63654E+01  2.57184E+01  2.44901E+01  2.47171E+01  2.65785E+01  2.35120E+01  2.14247E+01  2.36652E+01  2.28256E+01  2.37692E+01
   2.27988E+01  2.08332E+01  2.36769E+01  2.38657E+01  2.21115E+01  2.37089E+01  2.10362E+01  2.57084E+01  2.23918E+01  2.13916E+01
   2.22914E+01  2.42952E+01  2.32705E+01  2.45212E+01  2.46129E+01  2.52387E+01  2.29589E+01  2.31500E+01  2.39019E+01  1.96916E+01
   2.30611E+01  1.90080E+01  2.13614E+01  2.04914E+01  2.18031E+01  2.11148E+01  2.08695E+01  1.89323E+01  1.98191E+01  1.74070E+01
   2.03034E+01  1.92029E+01  1.86419E+01  1.50603E+01  1.84673E+01  1.84707E+01  2.05848E+01  2.03594E+01  2.22554E+01  2.17497E+01
   1.84865E+01  1.87496E+01  1.91486E+01  1.80502E+01  1.91638E+01  1.81392E+01  1.82349E+01  1.53930E+01  1.68201E+01  1.48889E+01
   1.80098E+01  1.65619E+01  1.49730E+01  1.55939E+01  1.62648E+01  1.41196E+01  1.68396E+01  1.54248E+01  1.53576E+01  1.72460E+01
   1.73358E+01  1.50359E+01  1.40887E+01  1.68510E+01  1.09380E+01  1.40362E+01  1.34087E+01  1.43004E+01  1.55015E+01  1.47814E+01
   1.10036E+01  1.57715E+01  1.30354E+01  1.30133E+01  1.48974E+01  1.32226E+01  1.44115E+01  1.33795E+01  1.40747E+01  1.54259E+01
   1.13023E+01  1.08780E+01  1.22769E+01  1.26051E+01  1.28610E+01  1.34962E+01  1.43022E+01  1.30528E+01  1.15447E+01  1.24163E+01
   1.50078E+01  1.08626E+01  1.12335E+01  1.40314E+01  1.12132E+01  1.17760E+01  1.44456E+01  1.02100E+01  1.13010E+01  1.23054E+01
   1.00366E+01  1.09266E+01  1.11139E+01  1.19362E+01  1.02496E+01  1.45091E+01  1.28794E+01  1.08756E+01  1.17917E+01  9.20704E+00
   1.15224E+01  1.20660E+01  1.17161E+01  1.51703E+01  1.22987E+01  1.05644E+01  1.06733E+01  1.09851E+01  1.03368E+01  9.60080E+00
   8.69962E+00  1.07963E+01  1.18546E+01  1.08932E+01  9.25398E+00  1.11749E+01  1.18804E+01  1.07392E+01  1.23847E+01  1.06210E+01
   1.03989E+01  9.41337E+00  9.52768E+00  1.10926E+01  6.63183E+00  9.23450E+00  1.24546E+01  6.65216E+00  9.54158E+00  1.01770E+01
   7.95560E+00  9.97894E+00  1.30193E+01  1.08651E+01  9.84069E+00  8.48507E+00  1.11716E+01  8.38101E+00  1.10734E+01  8.64754E+00
   9.93928E+00  9.84472E+00  9.94441E+00  8.75619E+00  8.37590E+00  9.36680E+00  7.94281E+00  1.20296E+01  9.26223E+00  1.21251E+01
   8.46317E+00  1.08378E+01  1.14304E+01  8.20682E+00  1.02602E+01  7.99905E+00  1.16143E+01  9.17953E+00  9.53266E+00  1.26879E+01
   1.61705E+01  1.33936E+01  1.20654E+01  1.21346E+01  1.04167E+01  9.67936E+00  9.72599E+00  1.05735E+01  8.82230E+00  7.25442E+00
   9.94001E+00  5.43898E+00  1.17553E+01  1.06939E+01  9.87587E+00  5.05431E+00  6.06950E+00  8.85918E+00  6.84941E+00  8.21167E+00
   7.83653E+00  9.32091E+00  7.85616E+00  7.24305E+00  1.01156E+01  1.09349E+01  9.28477E+00  1.06273E+01  9.19379E+00  1.10310E+01
   8.24055E+00  9.19455E+00  6.87729E+00  9.26607E+00  8.23476E+00  8.96265E+00  6.58096E+00  8.13010E+00  9.04021E+00  6.64238E+00
   7.88360E+00  9.83021E+00  3.70079E+00  6.93949E+00  6.67996E+00  5.32065E+00  8.54111E+00  6.56778E+00  6.00319E+00  3.94101E+00
   8.46909E+00  6.45287E+00  9.41627E+00  6.05527E+00  8.64807E+00  8.97845E+00  7.00794E+00  9.25171E+00  8.10103E+00  8.03409E+00
   5.97693E+00  1.00844E+01  7.09161E+00  9.98718E+00  5.12735E+00  7.24905E+00  5.28116E+00  6.38007E+00  8.77140E+00  5.62414E+00
   6.51974E+00  7.86281E+00  7.44676E+00  9.30927E+00  7.29996E+00  8.12696E+00  8.34893E+00  1.16716E+01  8.10514E+00  7.56197E+00
   9.81622E+00  6.90720E+00  6.44942E+00  6.38634E+00  7.68903E+00  6.61476E+00  6.49433E+00  5.66994E+00  4.82869E+00  1.01785E+01
   6.69685E+00  9.48251E+00  6.84499E+00  9.86649E+00  7.43709E+00  1.07670E+01  1.15462E+01  8.41656E+00  8.83158E+00  4.88276E+00
   7.68218E+00  8.65050E+00  7.55951E+00  7.22478E+00  6.03171E+00  6.08798E+00  9.01497E+00  6.10369E+00  7.56111E+00  6.26832E+00
   4.86623E+00  6.64103E+00  3.65429E+00  4.91500E+00  6.07881E+00  6.92996E+00  7.29676E+00  6.33762E+00  3.18844E+00  4.80616E+00
   5.69997E+00  3.78128E+00  4.63945E+00  6.50546E+00  4.07214E+00  4.63140E+00  6.67856E+00  6.47659E+00  6.15650E+00  3.02497E+00
   3.90304E+00  4.42516E+00  5.84420E+00  8.44227E+00  4.14138E+00  4.44820E+00  4.50620E+00  6.85443E+00  2.04607E+00  3.29962E+00
   2.52606E+00  4.66389E+00  5.56776E+00  6.24310E+00  2.90260E+00  2.99406E+00  5.19425E+00  2.33831E+00  5.05453E+00  5.86679E+00
   3.53931E+00  2.06188E+00  4.47969E+00  1.93562E+00  3.84088E+00  2.95726E+00  1.05725E+00  1.93709E+00  4.96834E+00  3.57604E+00
   2.78925E+00  5.83266E+00  5.35605E+00  2.67028E+00  3.30817E+00  4.65584E+00  4.47292E+00  7.26557E+00  2.31372E+00  3.60366E+00
   5.36718E+00  3.55258E+00  4.32536E+00  5.04074E+00  2.11711E+00  6.13542E+00  5.50999E+00  1.92435E+00  3.61776E+00  8.68751E+00
   6.70304E+00  1.58871E+00  3.79767E+00  5.07235E+00  6.39607E+00  4.91092E+00  3.14806E+00  1.99121E+00  7.14194E+00  5.72533E+00
   6.05313E+00  1.75336E+00  5.48902E+00  6.32414E+00  2.87498E+00  6.57818E+00  2.51281E+00  3.30482E+00  5.84828E+00  4.35010E+00
   2.57896E+00  5.88276E+00  4.29404E+00  6.25614E+00  2.73592E+00  6.03156E+00  2.98183E+00  1.76167E+00  5.28119E+00  2.32540E+00
   1.22913E+00  5.18622E+00 -3.31638E-01  1.27590E+00  3.53810E-03  4.22249E+00  5.86108E+00 -2.77336E-01  6.27895E+00  3.56506E+00
   1.42964E+00  3.60275E+00  2.95693E+00  3.17780E+00  4.39073E+00  2.69532E+00  4.78279E+00  4.76460E+00  3.69264E+00  2.97159E+00
   3.28120E+00  4.13924E+00  7.95451E-03  1.27126E+00  3.36304E+00  4.33320E+00  1.44988E+00  7.62216E-01
 NY points of the fit to the data follow
   4.79341E+01  4.76415E+01  4.73557E+01  4.70838E+01  4.68516E+01  4.66867E+01  4.66386E+01  4.67508E+01  4.69847E+01  4.72186E+01
   4.72898E+01  4.70742E+01  4.65528E+01  4.58143E+01  4.49846E+01  4.41821E+01  4.35076E+01  4.29590E+01  4.25201E+01  4.21836E+01
   4.18927E+01  4.16252E+01  4.13677E+01  4.11015E+01  4.08047E+01  4.04597E+01  4.00711E+01  3.96800E+01  3.93458E+01  3.91103E+01
   3.89709E+01  3.88794E+01  3.87623E+01  3.85456E+01  3.81969E+01  3.77329E+01  3.72230E+01  3.67514E+01  3.63714E+01  3.61005E+01
   3.59000E+01  3.57131E+01  3.55020E+01  3.52522E+01  3.49694E+01  3.46652E+01  3.43572E+01  3.40607E+01  3.37767E+01  3.35026E+01
   3.32353E+01  3.29744E+01  3.27173E+01  3.24615E+01  3.22045E+01  3.19421E+01  3.16743E+01  3.14060E+01  3.11388E+01  3.08753E+01
   3.06182E+01  3.03663E+01  3.01188E+01  2.98752E+01  2.96352E+01  2.93968E+01  2.91581E+01  2.89181E+01  2.86767E+01  2.84351E+01
   2.81970E+01  2.79663E+01  2.77452E+01  2.75354E+01  2.73335E+01  2.71295E+01  2.69147E+01  2.66849E+01  2.64449E+01  2.62049E+01
   2.59731E+01  2.57532E+01  2.55476E+01  2.53552E+01  2.51705E+01  2.49873E+01  2.47981E+01  2.45970E+01  2.43854E+01  2.41708E+01
   2.39584E+01  2.37477E+01  2.35373E+01  2.33320E+01  2.31367E+01  2.29555E+01  2.27951E+01  2.26658E+01  2.26056E+01  2.26731E+01
   2.29313E+01  2.34481E+01  2.41323E+01  2.46811E+01  2.47787E+01  2.43479E+01  2.35640E+01  2.26744E+01  2.18288E+01  2.10948E+01
   2.05788E+01  2.03016E+01  2.01075E+01  1.99343E+01  1.97704E+01  1.96132E+01  1.94603E+01  1.93106E+01  1.91638E+01  1.90222E+01
   1.88923E+01  1.87966E+01  1.88097E+01  1.90059E+01  1.94861E+01  2.03005E+01  2.12404E+01  2.18761E+01  2.18829E+01  2.12749E+01
   2.03275E+01  1.93247E+01  1.83970E+01  1.76245E+01  1.71588E+01  1.69215E+01  1.67440E+01  1.65933E+01  1.64646E+01  1.63522E+01
   1.62486E+01  1.61469E+01  1.60426E+01  1.59377E+01  1.58333E+01  1.57268E+01  1.56164E+01  1.55020E+01  1.53857E+01  1.52700E+01
   1.51563E+01  1.50460E+01  1.49394E+01  1.48377E+01  1.47394E+01  1.46420E+01  1.45425E+01  1.44368E+01  1.43195E+01  1.41899E+01
   1.40591E+01  1.39448E+01  1.38602E+01  1.38028E+01  1.37540E+01  1.36936E+01  1.36146E+01  1.35192E+01  1.34115E+01  1.33009E+01
   1.31931E+01  1.30892E+01  1.29903E+01  1.28889E+01  1.27828E+01  1.26818E+01  1.25984E+01  1.25370E+01  1.24850E+01  1.24246E+01
   1.23514E+01  1.22777E+01  1.22142E+01  1.21561E+01  1.20949E+01  1.20330E+01  1.19798E+01  1.19479E+01  1.19344E+01  1.19270E+01
   1.19098E+01  1.18692E+01  1.18044E+01  1.17187E+01  1.16196E+01  1.15223E+01  1.14382E+01  1.13712E+01  1.13319E+01  1.13330E+01
   1.13762E+01  1.14465E+01  1.15186E+01  1.15602E+01  1.15415E+01  1.14289E+01  1.12163E+01  1.09197E+01  1.05844E+01  1.02902E+01
   1.01174E+01  1.01079E+01  1.02474E+01  1.04897E+01  1.07735E+01  1.10220E+01  1.11413E+01  1.10636E+01  1.08289E+01  1.05096E+01
   1.01566E+01  9.83636E+00  9.63494E+00  9.61704E+00  9.74776E+00  9.93905E+00  1.01178E+01  1.02426E+01  1.02960E+01  1.02662E+01
   1.01691E+01  1.00518E+01  9.95011E+00  9.86142E+00  9.78358E+00  9.72861E+00  9.71788E+00  9.75344E+00  9.80459E+00  9.83547E+00
   9.81765E+00  9.73870E+00  9.60890E+00  9.45999E+00  9.33772E+00  9.26069E+00  9.22087E+00  9.20598E+00  9.21101E+00  9.22439E+00
   9.23279E+00  9.25368E+00  9.29420E+00  9.34499E+00  9.40359E+00  9.52628E+00  9.78960E+00  1.02969E+01  1.11679E+01  1.22798E+01
   1.32095E+01  1.35312E+01  1.31550E+01  1.23242E+01  1.13599E+01  1.04351E+01  9.63663E+00  9.13902E+00  8.94459E+00  8.83794E+00
   8.75941E+00  8.70533E+00  8.67304E+00  8.65557E+00  8.64818E+00  8.64155E+00  8.62747E+00  8.60229E+00  8.56645E+00  8.52167E+00
   8.47329E+00  8.42752E+00  8.38702E+00  8.35255E+00  8.32374E+00  8.29875E+00  8.27553E+00  8.25227E+00  8.22759E+00  8.20171E+00
   8.17489E+00  8.14712E+00  8.11871E+00  8.09025E+00  8.06190E+00  8.03363E+00  8.00564E+00  7.97810E+00  7.95084E+00  7.92380E+00
   7.89708E+00  7.87054E+00  7.84412E+00  7.81776E+00  7.79139E+00  7.76491E+00  7.73826E+00  7.71147E+00  7.68459E+00  7.65763E+00
   7.63065E+00  7.60368E+00  7.57668E+00  7.54969E+00  7.52273E+00  7.49584E+00  7.46908E+00  7.44251E+00  7.41629E+00  7.39064E+00
   7.36600E+00  7.34333E+00  7.32443E+00  7.30947E+00  7.29777E+00  7.28471E+00  7.25861E+00  7.20847E+00  7.13481E+00  7.04987E+00
   6.96945E+00  6.90331E+00  6.85593E+00  6.83537E+00  6.84674E+00  6.87469E+00  6.89690E+00  6.90115E+00  6.88581E+00  6.85709E+00
   6.82141E+00  6.78390E+00  6.75612E+00  6.74857E+00  6.76437E+00  6.80908E+00  6.88974E+00  7.01284E+00  7.18224E+00  7.39702E+00
   7.64963E+00  7.92495E+00  8.20079E+00  8.45008E+00  8.64460E+00  8.75960E+00  8.77829E+00  8.69501E+00  8.51632E+00  8.25965E+00
   7.94996E+00  7.61518E+00  7.28172E+00  6.97092E+00  6.69703E+00  6.46691E+00  6.28100E+00  6.13522E+00  6.02289E+00  5.93658E+00
   5.86926E+00  5.81506E+00  5.76950E+00  5.72938E+00  5.69259E+00  5.65781E+00  5.62429E+00  5.59159E+00  5.55950E+00  5.52793E+00
   5.49683E+00  5.46623E+00  5.43615E+00  5.40661E+00  5.37764E+00  5.34928E+00  5.32157E+00  5.29454E+00  5.26822E+00  5.24262E+00
   5.21776E+00  5.19363E+00  5.17021E+00  5.14747E+00  5.12535E+00  5.10378E+00  5.08267E+00  5.06190E+00  5.04135E+00  5.02089E+00
   5.00036E+00  4.97962E+00  4.95851E+00  4.93690E+00  4.91467E+00  4.89173E+00  4.86801E+00  4.84345E+00  4.81806E+00  4.79184E+00
   4.76482E+00  4.73708E+00  4.70870E+00  4.67981E+00  4.65055E+00  4.62104E+00  4.59145E+00  4.56190E+00  4.53253E+00  4.50346E+00
   4.47480E+00  4.44664E+00  4.41903E+00  4.39203E+00  4.36566E+00  4.33995E+00  4.31489E+00  4.29048E+00  4.26668E+00  4.24347E+00
   4.22080E+00  4.19866E+00  4.17698E+00  4.15574E+00  4.13489E+00  4.11438E+00  4.09417E+00  4.07424E+00  4.05455E+00  4.03506E+00
   4.01573E+00  3.99654E+00  3.97746E+00  3.95848E+00  3.93955E+00  3.92067E+00  3.90179E+00  3.88291E+00  3.86401E+00  3.84506E+00
   3.82605E+00  3.80696E+00  3.78776E+00  3.76846E+00  3.74905E+00  3.72953E+00  3.70989E+00  3.69015E+00  3.67030E+00  3.65034E+00
   3.63028E+00  3.61012E+00  3.58986E+00  3.56951E+00  3.54905E+00  3.52851E+00  3.50788E+00  3.48717E+00  3.46637E+00  3.44548E+00
   3.42452E+00  3.40349E+00  3.38239E+00  3.36122E+00  3.33998E+00  3.31868E+00  3.29732E+00  3.27591E+00  3.25445E+00  3.23294E+00
   3.21138E+00  3.18978E+00  3.16815E+00  3.14648E+00  3.12478E+00  3.10304E+00  3.08129E+00  3.05951E+00  3.03772E+00  3.01592E+00
   2.99410E+00  2.97227E+00  2.95044E+00  2.92862E+00  2.90680E+00  2.88498E+00  2.86317E+00  2.84138E+00
 NY background values follow
     4.786E+01    4.755E+01    4.725E+01    4.694E+01    4.663E+01    4.633E+01    4.602E+01    4.571E+01    4.541E+01    4.510E+01
     4.479E+01    4.449E+01    4.418E+01    4.388E+01    4.357E+01    4.327E+01    4.296E+01    4.266E+01    4.235E+01    4.205E+01
     4.175E+01    4.145E+01    4.115E+01    4.084E+01    4.055E+01    4.025E+01    3.995E+01    3.965E+01    3.935E+01    3.906E+01
     3.876E+01    3.847E+01    3.818E+01    3.789E+01    3.760E+01    3.731E+01    3.702E+01    3.673E+01    3.645E+01    3.616E+01
     3.588E+01    3.560E+01    3.532E+01    3.504E+01    3.477E+01    3.449E+01    3.422E+01    3.395E+01    3.368E+01    3.341E+01
     3.314E+01    3.287E+01    3.261E+01    3.235E+01    3.209E+01    3.183E+01    3.157E+01    3.132E+01    3.106E+01    3.081E+01
     3.056E+01    3.031E+01    3.006E+01    2.982E+01    2.958E+01    2.933E+01    2.909E+01    2.886E+01    2.862E+01    2.838E+01
     2.815E+01    2.792E+01    2.769E+01    2.746E+01    2.724E+01    2.701E+01    2.679E+01    2.657E+01    2.635E+01    2.613E+01
     2.592E+01    2.571E+01    2.550E+01    2.529E+01    2.508E+01    2.487E+01    2.467E+01    2.447E+01    2.427E+01    2.407E+01
     2.387E+01    2.368E+01    2.348E+01    2.329E+01    2.310E+01    2.292E+01    2.273E+01    2.255E+01    2.237E+01    2.219E+01
     2.201E+01    2.183E+01    2.166E+01    2.149E+01    2.132E+01    2.115E+01    2.098E+01    2.081E+01    2.065E+01    2.049E+01
     2.033E+01    2.017E+01    2.001E+01    1.985E+01    1.970E+01    1.955E+01    1.940E+01    1.925E+01    1.910E+01    1.895E+01
     1.881E+01    1.866E+01    1.852E+01    1.838E+01    1.824E+01    1.811E+01    1.797E+01    1.784E+01    1.770E+01    1.757E+01
     1.744E+01    1.731E+01    1.719E+01    1.706E+01    1.694E+01    1.681E+01    1.669E+01    1.657E+01    1.645E+01    1.633E+01
     1.622E+01    1.610E+01    1.599E+01    1.588E+01    1.576E+01    1.565E+01    1.555E+01    1.544E+01    1.533E+01    1.523E+01
     1.512E+01    1.502E+01    1.492E+01    1.482E+01    1.472E+01    1.462E+01    1.452E+01    1.443E+01    1.433E+01    1.424E+01
     1.415E+01    1.406E+01    1.397E+01    1.388E+01    1.379E+01    1.370E+01    1.362E+01    1.353E+01    1.345E+01    1.336E+01
     1.328E+01    1.320E+01    1.312E+01    1.304E+01    1.297E+01    1.289E+01    1.281E+01    1.274E+01    1.266E+01    1.259E+01
     1.252E+01    1.245E+01    1.238E+01    1.231E+01    1.224E+01    1.217E+01    1.211E+01    1.204E+01    1.197E+01    1.191E+01
     1.185E+01    1.178E+01    1.172E+01    1.166E+01    1.160E+01    1.154E+01    1.148E+01    1.143E+01    1.137E+01    1.131E+01
     1.126E+01    1.120E+01    1.115E+01    1.110E+01    1.104E+01    1.099E+01    1.094E+01    1.089E+01    1.084E+01    1.079E+01
     1.074E+01    1.069E+01    1.064E+01    1.060E+01    1.055E+01    1.050E+01    1.046E+01    1.041E+01    1.037E+01    1.033E+01
     1.028E+01    1.024E+01    1.020E+01    1.016E+01    1.012E+01    1.008E+01    1.004E+01    9.997E+00    9.957E+00    9.919E+00
     9.881E+00    9.843E+00    9.805E+00    9.768E+00    9.732E+00    9.696E+00    9.660E+00    9.624E+00    9.589E+00    9.555E+00
     9.521E+00    9.487E+00    9.453E+00    9.420E+00    9.387E+00    9.354E+00    9.322E+00    9.290E+00    9.259E+00    9.227E+00
     9.196E+00    9.165E+00    9.135E+00    9.105E+00    9.075E+00    9.045E+00    9.016E+00    8.986E+00    8.957E+00    8.929E+00
     8.900E+00    8.872E+00    8.843E+00    8.815E+00    8.788E+00    8.760E+00    8.733E+00    8.705E+00    8.678E+00    8.651E+00
     8.624E+00    8.597E+00    8.571E+00    8.544E+00    8.518E+00    8.492E+00    8.465E+00    8.439E+00    8.413E+00    8.387E+00
     8.361E+00    8.336E+00    8.310E+00    8.284E+00    8.259E+00    8.233E+00    8.207E+00    8.182E+00    8.156E+00    8.131E+00
     8.105E+00    8.080E+00    8.054E+00    8.029E+00    8.003E+00    7.978E+00    7.952E+00    7.927E+00    7.901E+00    7.875E+00
     7.850E+00    7.824E+00    7.798E+00    7.772E+00    7.746E+00    7.720E+00    7.694E+00    7.668E+00    7.641E+00    7.615E+00
     7.588E+00    7.562E+00    7.535E+00    7.508E+00    7.481E+00    7.454E+00    7.426E+00    7.399E+00    7.371E+00    7.343E+00
     7.315E+00    7.287E+00    7.259E+00    7.231E+00    7.202E+00    7.174E+00    7.145E+00    7.116E+00    7.087E+00    7.057E+00
     7.028E+00    6.999E+00    6.969E+00    6.939E+00    6.909E+00    6.879E+00    6.849E+00    6.819E+00    6.788E+00    6.758E+00
     6.727E+00    6.696E+00    6.666E+00    6.635E+00    6.603E+00    6.572E+00    6.541E+00    6.509E+00    6.478E+00    6.446E+00
     6.414E+00    6.383E+00    6.351E+00    6.319E+00    6.286E+00    6.254E+00    6.222E+00    6.189E+00    6.157E+00    6.124E+00
     6.091E+00    6.058E+00    6.025E+00    5.992E+00    5.959E+00    5.926E+00    5.893E+00    5.860E+00    5.826E+00    5.793E+00
     5.760E+00    5.727E+00    5.693E+00    5.660E+00    5.627E+00    5.594E+00    5.561E+00    5.528E+00    5.495E+00    5.462E+00
     5.430E+00    5.397E+00    5.365E+00    5.333E+00    5.300E+00    5.269E+00    5.237E+00    5.205E+00    5.174E+00    5.143E+00
     5.112E+00    5.082E+00    5.051E+00    5.021E+00    4.991E+00    4.962E+00    4.933E+00    4.904E+00    4.875E+00    4.847E+00
     4.819E+00    4.792E+00    4.765E+00    4.738E+00    4.712E+00    4.686E+00    4.660E+00    4.635E+00    4.610E+00    4.586E+00
     4.562E+00    4.539E+00    4.516E+00    4.493E+00    4.471E+00    4.449E+00    4.427E+00    4.406E+00    4.385E+00    4.364E+00
     4.344E+00    4.324E+00    4.304E+00    4.284E+00    4.264E+00    4.245E+00    4.226E+00    4.207E+00    4.189E+00    4.170E+00
     4.152E+00    4.133E+00    4.115E+00    4.097E+00    4.079E+00    4.061E+00    4.043E+00    4.026E+00    4.008E+00    3.990E+00
     3.973E+00    3.955E+00    3.937E+00    3.920E+00    3.902E+00    3.884E+00    3.866E+00    3.848E+00    3.830E+00    3.812E+00
     3.794E+00    3.776E+00    3.757E+00    3.739E+00    3.720E+00    3.701E+00    3.682E+00    3.663E+00    3.643E+00    3.624E+00
     3.604E+00    3.584E+00    3.565E+00    3.545E+00    3.525E+00    3.504E+00    3.484E+00    3.464E+00    3.443E+00    3.423E+00
     3.402E+00    3.381E+00    3.361E+00    3.340E+00    3.319E+00    3.298E+00    3.277E+00    3.255E+00    3.234E+00    3.213E+00
     3.192E+00    3.170E+00    3.149E+00    3.127E+00    3.106E+00    3.084E+00    3.063E+00    3.041E+00    3.020E+00    2.998E+00
     2.976E+00    2.955E+00    2.933E+00    2.912E+00    2.890E+00    2.868E+00    2.847E+00    2.825E+00
 Ala      Conc. = 7.54E+00
