 LCModel (Version 6.3-1L) Copyright: S.W. Provencher.          Ref.: Magn. Reson. Med. 30:672-679 (1993).                
 Slice#1 Row#3 Col#12  K_02_press_1_raw_act
 36 lines in following concentration table = NCONC+1
    Conc.  %SD /Cr+PCr  Metabolite                                         
 7.66E+03  36%  13.255 Ala                                                 
   63.370  17%   0.110 Asp                                                 
    0.000 999%   0.000 Cr                                                  
  577.734  20%   1.000 PCr                                                 
   38.023  17% 6.6E-02 GABA                                                
   38.023  17% 6.6E-02 Glc                                                 
 6.85E+03  18%  11.859 Gln                                                 
 5.20E+03  29%   8.998 Glu                                                 
    0.000 999%   0.000 GPC                                                 
  229.894  19%   0.398 PCh                                                 
   63.106 384%   0.109 GSH                                                 
 2.23E+03  23%   3.861 Ins                                                 
 2.06E+03 127%   3.568 Lac                                                 
    0.000 999%   0.000 NAA                                                 
    0.000 999%   0.000 NAAG                                                
   12.675  17% 2.2E-02 Scyllo                                              
   63.372  17%   0.110 Tau                                                 
   23.298 228% 4.0E-02 -CrCH2                                              
  229.894  19%   0.398 GPC+PCh                                             
    0.000 999%   0.000 NAA+NAAG                                            
  577.734  20%   1.000 Cr+PCr                                              
 1.20E+04  20%  20.857 Glu+Gln                                             
 4.16E+04  16%  71.977 Lip13a                                              
 3.39E+03  66%   5.866 Lip13b                                              
 5.57E+03  29%   9.632 Lip09                                               
 7.26E+03  13%  12.575 MM09                                                
    0.000 999%   0.000 Lip20                                               
 2.69E+03  22%   4.649-MM20                                                
 2.71E+03  18%   4.689 MM12                                                
 1.69E+04   6%  29.180+MM14                                                
 8.69E+03  14%  15.039+MM17                                                
 4.50E+04  14%  77.843 Lip13a+Lip13b                                       
 6.45E+04   9% 111.712 MM14+Lip13a+Lip13b+MM12                             
 1.28E+04  13%  22.207 MM09+Lip09                                          
 2.69E+03  22%   4.649 MM20+Lip20                                          
   6 lines in following misc. output table
  FWHM = 0.153 ppm    S/N =  23                                            
  Data shift = 0.329 ppm                                                   
  Ph: 177 deg      47.6 deg/ppm                                            
  alphaB,S = 4.1E+01,   3.4E+02                                            
    9 spline knots.   Ns = 9(2)                                            
  (10) 2 infls.   ( 3) 1 extrs.                                            
  498 points on ppm-axis = NY
      4.000000     3.992357     3.984714     3.977070     3.969427     3.961784     3.954141     3.946497     3.938854     3.931211
      3.923568     3.915925     3.908281     3.900638     3.892995     3.885352     3.877708     3.870065     3.862422     3.854779
      3.847136     3.839492     3.831849     3.824206     3.816563     3.808919     3.801276     3.793633     3.785990     3.778347
      3.770703     3.763060     3.755417     3.747774     3.740130     3.732487     3.724844     3.717201     3.709558     3.701914
      3.694271     3.686628     3.678985     3.671341     3.663698     3.656055     3.648412     3.640769     3.633125     3.625482
      3.617839     3.610196     3.602552     3.594909     3.587266     3.579623     3.571980     3.564336     3.556693     3.549050
      3.541407     3.533763     3.526120     3.518477     3.510834     3.503191     3.495547     3.487904     3.480261     3.472618
      3.464974     3.457331     3.449688     3.442045     3.434402     3.426758     3.419115     3.411472     3.403829     3.396185
      3.388542     3.380899     3.373256     3.365613     3.357969     3.350326     3.342683     3.335040     3.327396     3.319753
      3.312110     3.304467     3.296824     3.289180     3.281537     3.273894     3.266251     3.258607     3.250964     3.243321
      3.235678     3.228034     3.220391     3.212748     3.205105     3.197462     3.189818     3.182175     3.174532     3.166889
      3.159245     3.151602     3.143959     3.136316     3.128673     3.121029     3.113386     3.105743     3.098100     3.090456
      3.082813     3.075170     3.067527     3.059884     3.052240     3.044597     3.036954     3.029311     3.021667     3.014024
      3.006381     2.998738     2.991095     2.983451     2.975808     2.968165     2.960522     2.952878     2.945235     2.937592
      2.929949     2.922306     2.914662     2.907019     2.899376     2.891733     2.884089     2.876446     2.868803     2.861160
      2.853517     2.845873     2.838230     2.830587     2.822944     2.815300     2.807657     2.800014     2.792371     2.784728
      2.777084     2.769441     2.761798     2.754155     2.746511     2.738868     2.731225     2.723582     2.715939     2.708295
      2.700652     2.693009     2.685366     2.677722     2.670079     2.662436     2.654793     2.647150     2.639506     2.631863
      2.624220     2.616577     2.608933     2.601290     2.593647     2.586004     2.578361     2.570717     2.563074     2.555431
      2.547788     2.540144     2.532501     2.524858     2.517215     2.509572     2.501928     2.494285     2.486642     2.478999
      2.471355     2.463712     2.456069     2.448426     2.440783     2.433139     2.425496     2.417853     2.410210     2.402566
      2.394923     2.387280     2.379637     2.371994     2.364350     2.356707     2.349064     2.341421     2.333777     2.326134
      2.318491     2.310848     2.303205     2.295561     2.287918     2.280275     2.272632     2.264988     2.257345     2.249702
      2.242059     2.234416     2.226772     2.219129     2.211486     2.203843     2.196199     2.188556     2.180913     2.173270
      2.165627     2.157983     2.150340     2.142697     2.135054     2.127410     2.119767     2.112124     2.104481     2.096838
      2.089194     2.081551     2.073908     2.066265     2.058621     2.050978     2.043335     2.035692     2.028049     2.020405
      2.012762     2.005119     1.997476     1.989833     1.982190     1.974546     1.966903     1.959260     1.951617     1.943974
      1.936331     1.928688     1.921045     1.913402     1.905759     1.898115     1.890472     1.882829     1.875186     1.867543
      1.859900     1.852257     1.844614     1.836971     1.829327     1.821684     1.814041     1.806398     1.798755     1.791112
      1.783469     1.775826     1.768183     1.760540     1.752896     1.745253     1.737610     1.729967     1.722324     1.714681
      1.707038     1.699395     1.691752     1.684108     1.676465     1.668822     1.661179     1.653536     1.645893     1.638250
      1.630607     1.622964     1.615321     1.607677     1.600034     1.592391     1.584748     1.577105     1.569462     1.561819
      1.554176     1.546533     1.538890     1.531246     1.523603     1.515960     1.508317     1.500674     1.493031     1.485388
      1.477745     1.470102     1.462458     1.454815     1.447172     1.439529     1.431886     1.424243     1.416600     1.408957
      1.401314     1.393671     1.386027     1.378384     1.370741     1.363098     1.355455     1.347812     1.340169     1.332526
      1.324883     1.317240     1.309596     1.301953     1.294310     1.286667     1.279024     1.271381     1.263738     1.256095
      1.248452     1.240808     1.233165     1.225522     1.217879     1.210236     1.202593     1.194950     1.187307     1.179664
      1.172021     1.164377     1.156734     1.149091     1.141448     1.133805     1.126162     1.118519     1.110876     1.103233
      1.095590     1.087946     1.080303     1.072660     1.065017     1.057374     1.049731     1.042088     1.034445     1.026802
      1.019158     1.011515     1.003872     0.996229     0.988586     0.980943     0.973300     0.965657     0.958014     0.950371
      0.942727     0.935084     0.927441     0.919798     0.912155     0.904512     0.896869     0.889226     0.881583     0.873940
      0.866296     0.858653     0.851010     0.843367     0.835724     0.828081     0.820438     0.812795     0.805152     0.797508
      0.789865     0.782222     0.774579     0.766936     0.759293     0.751650     0.744007     0.736364     0.728721     0.721077
      0.713434     0.705791     0.698148     0.690505     0.682862     0.675219     0.667576     0.659933     0.652290     0.644646
      0.637003     0.629360     0.621717     0.614074     0.606431     0.598788     0.591145     0.583502     0.575858     0.568215
      0.560572     0.552929     0.545286     0.537643     0.530000     0.522357     0.514714     0.507071     0.499427     0.491784
      0.484141     0.476498     0.468855     0.461212     0.453569     0.445925     0.438282     0.430639     0.422996     0.415353
      0.407710     0.400067     0.392424     0.384780     0.377137     0.369494     0.361851     0.354208     0.346565     0.338922
      0.331278     0.323635     0.315992     0.308349     0.300706     0.293063     0.285420     0.277777     0.270133     0.262490
      0.254847     0.247204     0.239561     0.231918     0.224275     0.216631     0.208988     0.201345
 NY phased data points follow
  -2.01503E+01 -1.57596E+01 -1.61763E+01 -1.83849E+01 -1.69926E+01 -1.60041E+01 -1.41585E+01 -1.57725E+01 -2.16127E+01 -1.59607E+01
  -1.77684E+01 -2.26382E+01 -1.67427E+01 -1.95498E+01 -1.89631E+01 -1.54120E+01 -2.06259E+01 -2.00242E+01 -1.82206E+01 -1.58378E+01
  -1.76753E+01 -1.85077E+01 -1.70662E+01 -2.42432E+01 -1.59827E+01 -1.95604E+01 -1.86342E+01 -1.95402E+01 -2.05507E+01 -2.09844E+01
  -2.26433E+01 -1.64740E+01 -2.00433E+01 -2.00217E+01 -2.26192E+01 -1.76609E+01 -1.69991E+01 -1.99968E+01 -1.58507E+01 -2.26430E+01
  -2.09613E+01 -2.04214E+01 -1.68281E+01 -1.86316E+01 -2.30428E+01 -2.09772E+01 -2.20492E+01 -2.24104E+01 -2.27318E+01 -2.29415E+01
  -2.58574E+01 -2.06831E+01 -2.00792E+01 -2.64005E+01 -2.33408E+01 -2.39624E+01 -2.10593E+01 -2.19919E+01 -2.34369E+01 -2.29029E+01
  -2.37558E+01 -2.57045E+01 -2.07953E+01 -2.02801E+01 -2.58505E+01 -2.54030E+01 -2.42747E+01 -2.19422E+01 -2.73533E+01 -2.22562E+01
  -2.42773E+01 -2.18918E+01 -2.46247E+01 -2.50849E+01 -2.23654E+01 -2.73804E+01 -2.31740E+01 -2.32782E+01 -2.56815E+01 -2.07567E+01
  -2.34321E+01 -2.69428E+01 -2.10060E+01 -2.35194E+01 -2.26237E+01 -2.51041E+01 -2.25582E+01 -2.30348E+01 -2.71696E+01 -2.46684E+01
  -2.92970E+01 -2.69757E+01 -2.45277E+01 -2.92979E+01 -2.87643E+01 -2.59772E+01 -3.06704E+01 -2.40999E+01 -2.41421E+01 -2.61604E+01
  -2.59670E+01 -2.18039E+01 -2.39738E+01 -2.21625E+01 -2.58628E+01 -2.10536E+01 -2.29818E+01 -2.42244E+01 -2.19384E+01 -2.33482E+01
  -2.31744E+01 -2.37973E+01 -2.41313E+01 -2.24581E+01 -2.34879E+01 -2.54358E+01 -2.41785E+01 -2.47750E+01 -2.69664E+01 -2.47393E+01
  -2.50915E+01 -2.32065E+01 -2.79939E+01 -2.58038E+01 -2.54921E+01 -2.58178E+01 -2.30087E+01 -2.16641E+01 -2.34379E+01 -2.11522E+01
  -2.19050E+01 -2.48901E+01 -2.32229E+01 -2.31016E+01 -2.32626E+01 -2.21682E+01 -2.41016E+01 -2.53505E+01 -2.20967E+01 -2.72284E+01
  -2.95680E+01 -2.85736E+01 -2.40982E+01 -2.62505E+01 -2.65040E+01 -2.95983E+01 -3.06360E+01 -2.72092E+01 -2.65251E+01 -3.01648E+01
  -3.07106E+01 -2.61621E+01 -2.75198E+01 -3.62120E+01 -3.29330E+01 -2.85532E+01 -2.99504E+01 -2.56548E+01 -2.92281E+01 -3.16886E+01
  -2.98137E+01 -3.32257E+01 -3.06915E+01 -2.71691E+01 -3.23778E+01 -3.45731E+01 -3.26324E+01 -2.69634E+01 -3.47772E+01 -3.19114E+01
  -3.09366E+01 -2.97880E+01 -3.28930E+01 -3.16474E+01 -3.54009E+01 -3.27536E+01 -2.78964E+01 -3.00192E+01 -3.71065E+01 -3.14400E+01
  -3.26723E+01 -3.33456E+01 -3.30470E+01 -2.99203E+01 -3.49023E+01 -3.03728E+01 -3.02784E+01 -3.21230E+01 -3.47574E+01 -2.89377E+01
  -3.36204E+01 -3.16483E+01 -3.13572E+01 -3.04216E+01 -3.46606E+01 -3.08276E+01 -3.37375E+01 -3.14038E+01 -3.51569E+01 -3.51143E+01
  -3.38986E+01 -3.35717E+01 -3.10462E+01 -3.34143E+01 -3.57097E+01 -3.37688E+01 -3.13755E+01 -3.75279E+01 -3.54803E+01 -3.27019E+01
  -3.49943E+01 -3.12451E+01 -3.70535E+01 -3.02077E+01 -3.21754E+01 -3.20801E+01 -2.77888E+01 -3.34627E+01 -3.41119E+01 -2.96149E+01
  -3.12588E+01 -2.91170E+01 -3.38490E+01 -3.07055E+01 -2.90920E+01 -3.03194E+01 -3.00397E+01 -2.65118E+01 -2.37158E+01 -2.62143E+01
  -2.21178E+01 -2.07405E+01 -1.90924E+01 -1.84515E+01 -1.85454E+01 -1.67327E+01 -1.87584E+01 -1.73010E+01 -1.56570E+01 -1.27566E+01
  -1.45919E+01 -1.73857E+01 -1.56555E+01 -1.49807E+01 -1.63778E+01 -1.65362E+01 -1.45367E+01 -1.54671E+01 -1.90156E+01 -1.85004E+01
  -1.58538E+01 -1.72661E+01 -1.73765E+01 -1.67591E+01 -1.71959E+01 -1.76677E+01 -1.62752E+01 -1.83556E+01 -1.92215E+01 -1.50722E+01
  -2.16652E+01 -1.67977E+01 -1.67707E+01 -1.59772E+01 -1.92091E+01 -1.53384E+01 -1.56054E+01 -1.87181E+01 -1.89639E+01 -1.70016E+01
  -1.59716E+01 -1.77204E+01 -1.29033E+01 -1.32239E+01 -1.58227E+01 -7.49685E+00 -8.51315E+00 -5.75776E+00 -3.42051E+00  9.26870E-01
   6.07076E+00  9.92120E+00  1.67521E+01  1.85950E+01  3.36976E+01  4.02094E+01  4.24927E+01  5.88489E+01  6.50143E+01  7.30895E+01
   8.68916E+01  9.49757E+01  1.03682E+02  1.13258E+02  1.21073E+02  1.29498E+02  1.37046E+02  1.44962E+02  1.47802E+02  1.58921E+02
   1.60923E+02  1.62803E+02  1.70853E+02  1.74142E+02  1.69446E+02  1.70553E+02  1.70522E+02  1.71252E+02  1.63807E+02  1.59484E+02
   1.58524E+02  1.47507E+02  1.43992E+02  1.36601E+02  1.34748E+02  1.28695E+02  1.22744E+02  1.19862E+02  1.17807E+02  1.16082E+02
   1.13330E+02  1.14037E+02  1.11639E+02  1.08691E+02  1.09786E+02  1.08215E+02  1.04664E+02  1.06551E+02  1.05684E+02  1.07909E+02
   1.05163E+02  1.06993E+02  1.04940E+02  1.05190E+02  1.09083E+02  1.06623E+02  1.06886E+02  1.08016E+02  1.05037E+02  1.07580E+02
   1.04757E+02  1.04978E+02  1.04538E+02  1.03407E+02  1.02851E+02  1.04503E+02  1.04514E+02  1.03214E+02  1.02933E+02  1.01182E+02
   1.00826E+02  1.05830E+02  1.03842E+02  1.04200E+02  9.79102E+01  1.00112E+02  1.01061E+02  9.86188E+01  9.67104E+01  9.81792E+01
   9.27863E+01  9.27783E+01  9.09820E+01  9.24490E+01  8.90601E+01  8.61394E+01  8.79874E+01  8.48461E+01  8.10362E+01  7.98478E+01
   8.18215E+01  7.64260E+01  7.36302E+01  7.48027E+01  7.33826E+01  6.99579E+01  6.80160E+01  6.40306E+01  6.27736E+01  5.98747E+01
   5.69833E+01  5.81702E+01  5.71100E+01  4.99656E+01  4.99999E+01  4.63689E+01  4.79577E+01  4.35517E+01  4.17575E+01  3.56538E+01
   3.77911E+01  3.76301E+01  3.14350E+01  3.02535E+01  2.89089E+01  2.73416E+01  2.33728E+01  2.36414E+01  2.13564E+01  2.13142E+01
   2.08681E+01  2.00915E+01  1.35801E+01  1.36816E+01  1.32461E+01  1.18442E+01  1.18415E+01  5.49055E+00  6.33818E+00  8.38243E+00
   1.94463E+00  1.64072E+00  8.87014E-01 -7.57140E-01  2.31709E+00 -9.98632E-01 -2.43684E+00 -2.70414E+00 -5.02118E+00 -6.53439E+00
  -9.49108E+00 -8.26754E+00 -8.73450E+00 -8.96935E+00 -8.96974E+00 -9.68410E+00 -9.97721E+00 -1.24825E+01 -1.37785E+01 -1.28956E+01
  -1.55465E+01 -1.49018E+01 -1.38215E+01 -1.61531E+01 -2.00134E+01 -1.68037E+01 -1.87260E+01 -1.84812E+01 -1.81361E+01 -2.09725E+01
  -1.67659E+01 -1.92032E+01 -2.21197E+01 -1.87668E+01 -2.27939E+01 -2.20090E+01 -2.15323E+01 -2.15715E+01 -2.53501E+01 -2.12097E+01
  -2.29687E+01 -2.44979E+01 -2.58108E+01 -2.26543E+01 -2.60997E+01 -2.54680E+01 -2.36560E+01 -2.44183E+01 -2.35199E+01 -2.18239E+01
  -2.64574E+01 -2.78697E+01 -2.68429E+01 -2.60079E+01 -2.44183E+01 -2.38876E+01 -2.61033E+01 -2.59170E+01 -2.78103E+01 -2.48654E+01
  -2.60728E+01 -2.80479E+01 -2.73954E+01 -2.91834E+01 -2.40806E+01 -2.93335E+01 -2.56119E+01 -2.67115E+01 -2.72640E+01 -2.70603E+01
  -2.50580E+01 -2.64090E+01 -2.79453E+01 -3.07548E+01 -2.63037E+01 -2.56532E+01 -2.60575E+01 -2.47098E+01 -2.49506E+01 -2.90226E+01
  -2.61322E+01 -2.71956E+01 -2.75722E+01 -2.58673E+01 -2.59833E+01 -2.55713E+01 -2.55910E+01 -2.42236E+01
 NY points of the fit to the data follow
  -2.06083E+01 -1.95454E+01 -1.99794E+01 -1.90967E+01 -1.93079E+01 -1.85899E+01 -1.87575E+01 -1.82349E+01 -1.87512E+01 -1.89869E+01
  -1.95700E+01 -2.01185E+01 -2.04622E+01 -2.05979E+01 -2.04729E+01 -2.00364E+01 -1.96824E+01 -1.93480E+01 -1.92487E+01 -1.92268E+01
  -1.94752E+01 -1.94318E+01 -1.98567E+01 -1.99100E+01 -2.03761E+01 -2.04382E+01 -2.08527E+01 -2.08456E+01 -2.11877E+01 -2.10175E+01
  -2.11437E+01 -2.05218E+01 -2.05483E+01 -2.01175E+01 -2.02983E+01 -2.00916E+01 -2.03008E+01 -2.01709E+01 -2.02915E+01 -2.01100E+01
  -2.02721E+01 -1.98266E+01 -1.99110E+01 -1.93383E+01 -1.92890E+01 -1.84542E+01 -1.81867E+01 -1.70148E+01 -1.76350E+01 -1.76767E+01
  -1.87418E+01 -1.94481E+01 -2.04211E+01 -2.10425E+01 -2.11206E+01 -2.08130E+01 -2.06681E+01 -2.06092E+01 -2.07973E+01 -2.11734E+01
  -2.17240E+01 -2.17566E+01 -2.25198E+01 -2.26104E+01 -2.34182E+01 -2.34219E+01 -2.42346E+01 -2.41477E+01 -2.48774E+01 -2.45944E+01
  -2.50715E+01 -2.44616E+01 -2.49362E+01 -2.44339E+01 -2.50162E+01 -2.46297E+01 -2.52643E+01 -2.49785E+01 -2.56406E+01 -2.54522E+01
  -2.61082E+01 -2.60574E+01 -2.66448E+01 -2.65910E+01 -2.70204E+01 -2.68112E+01 -2.73750E+01 -2.72447E+01 -2.79002E+01 -2.77806E+01
  -2.83923E+01 -2.81312E+01 -2.86396E+01 -2.81176E+01 -2.85394E+01 -2.76165E+01 -2.80264E+01 -2.67430E+01 -2.72362E+01 -2.56415E+01
  -2.62767E+01 -2.44366E+01 -2.52805E+01 -2.33087E+01 -2.43846E+01 -2.23919E+01 -2.36925E+01 -2.17821E+01 -2.32155E+01 -2.13307E+01
  -2.29654E+01 -2.14474E+01 -2.32574E+01 -2.21036E+01 -2.38856E+01 -2.30319E+01 -2.45771E+01 -2.38997E+01 -2.50644E+01 -2.44946E+01
  -2.52484E+01 -2.48609E+01 -2.51649E+01 -2.48149E+01 -2.44664E+01 -2.37442E+01 -2.33594E+01 -2.27714E+01 -2.24611E+01 -2.20600E+01
  -2.18673E+01 -2.17102E+01 -2.16561E+01 -2.17533E+01 -2.18406E+01 -2.21942E+01 -2.24282E+01 -2.30604E+01 -2.34362E+01 -2.43143E+01
  -2.47937E+01 -2.58058E+01 -2.63365E+01 -2.73714E+01 -2.79080E+01 -2.89221E+01 -2.94049E+01 -3.02175E+01 -3.04959E+01 -3.06891E+01
  -3.07956E+01 -3.09345E+01 -3.10190E+01 -3.11312E+01 -3.12053E+01 -3.12907E+01 -3.13589E+01 -3.14350E+01 -3.15052E+01 -3.15711E+01
  -3.16421E+01 -3.16873E+01 -3.17483E+01 -3.17706E+01 -3.18205E+01 -3.18267E+01 -3.18638E+01 -3.18552E+01 -3.18821E+01 -3.18618E+01
  -3.18791E+01 -3.18536E+01 -3.18630E+01 -3.18313E+01 -3.18320E+01 -3.18069E+01 -3.18505E+01 -3.18518E+01 -3.19378E+01 -3.20080E+01
  -3.20705E+01 -3.21538E+01 -3.21858E+01 -3.21915E+01 -3.20954E+01 -3.20834E+01 -3.20366E+01 -3.20537E+01 -3.21132E+01 -3.22921E+01
  -3.24604E+01 -3.29257E+01 -3.33136E+01 -3.37369E+01 -3.35836E+01 -3.36910E+01 -3.30733E+01 -3.28090E+01 -3.22405E+01 -3.20540E+01
  -3.16951E+01 -3.17128E+01 -3.16341E+01 -3.19190E+01 -3.19378E+01 -3.19902E+01 -3.18388E+01 -3.15958E+01 -3.13680E+01 -3.08313E+01
  -3.06761E+01 -2.99501E+01 -3.00690E+01 -2.92500E+01 -2.96707E+01 -2.88274E+01 -2.95509E+01 -2.87460E+01 -2.97563E+01 -2.89462E+01
  -2.95169E+01 -2.83919E+01 -2.83294E+01 -2.66965E+01 -2.60191E+01 -2.44281E+01 -2.36105E+01 -2.21969E+01 -2.14247E+01 -2.05752E+01
  -2.01674E+01 -2.03809E+01 -2.06862E+01 -2.12717E+01 -2.04433E+01 -2.08145E+01 -1.90448E+01 -1.89690E+01 -1.72257E+01 -1.75413E+01
  -1.60709E+01 -1.69931E+01 -1.60296E+01 -1.77472E+01 -1.70037E+01 -1.85428E+01 -1.74407E+01 -1.88881E+01 -1.73843E+01 -1.87838E+01
  -1.70773E+01 -1.85622E+01 -1.68865E+01 -1.84567E+01 -1.67319E+01 -1.82559E+01 -1.65317E+01 -1.80569E+01 -1.67940E+01 -1.81736E+01
  -1.66078E+01 -1.76145E+01 -1.57765E+01 -1.62905E+01 -1.45108E+01 -1.52877E+01 -1.36963E+01 -1.45913E+01 -1.33564E+01 -1.41258E+01
  -1.30825E+01 -1.36125E+01 -1.25859E+01 -1.22960E+01 -1.07548E+01 -9.48586E+00 -7.29827E+00 -4.98331E+00 -2.01019E+00  1.30946E+00
   5.45212E+00  1.01195E+01  1.57377E+01  2.19693E+01  2.91070E+01  3.69000E+01  4.53148E+01  5.43437E+01  6.37788E+01  7.35807E+01
   8.34943E+01  9.34762E+01  1.03253E+02  1.12791E+02  1.21889E+02  1.30476E+02  1.38374E+02  1.45533E+02  1.51837E+02  1.57252E+02
   1.61710E+02  1.65185E+02  1.67673E+02  1.69170E+02  1.69698E+02  1.69290E+02  1.68014E+02  1.65980E+02  1.63416E+02  1.60428E+02
   1.55893E+02  1.51279E+02  1.45668E+02  1.40452E+02  1.34629E+02  1.29680E+02  1.24122E+02  1.21085E+02  1.17018E+02  1.15434E+02
   1.12106E+02  1.11631E+02  1.08574E+02  1.09049E+02  1.06147E+02  1.07425E+02  1.04699E+02  1.06559E+02  1.04326E+02  1.06660E+02
   1.04743E+02  1.06805E+02  1.05448E+02  1.07050E+02  1.06323E+02  1.07072E+02  1.06787E+02  1.06801E+02  1.07022E+02  1.06043E+02
   1.06719E+02  1.05055E+02  1.06087E+02  1.04085E+02  1.05276E+02  1.03086E+02  1.04538E+02  1.03050E+02  1.04910E+02  1.05265E+02
   1.04935E+02  1.04743E+02  1.03068E+02  1.02881E+02  9.99661E+01  9.99238E+01  9.59781E+01  9.81302E+01  9.54890E+01  9.75903E+01
   9.47466E+01  9.58769E+01  9.24980E+01  9.25326E+01  8.88535E+01  8.80318E+01  8.46827E+01  8.35801E+01  8.10810E+01  8.02604E+01
   7.78943E+01  7.65632E+01  7.44374E+01  7.25813E+01  7.05655E+01  6.82401E+01  6.63413E+01  6.46050E+01  6.28982E+01  6.11622E+01
   5.93619E+01  5.74790E+01  5.55024E+01  5.34309E+01  5.12674E+01  4.90230E+01  4.67112E+01  4.43517E+01  4.19648E+01  3.95750E+01
   3.72043E+01  3.48765E+01  3.26105E+01  3.04245E+01  2.83304E+01  2.63383E+01  2.44515E+01  2.26714E+01  2.09930E+01  1.94109E+01
   1.79145E+01  1.64942E+01  1.51366E+01  1.38310E+01  1.25645E+01  1.13275E+01  1.01094E+01  8.90398E+00  7.70398E+00  6.50661E+00
   5.30833E+00  4.10974E+00  2.91041E+00  1.71356E+00  5.20872E-01 -6.62851E-01 -1.83485E+00 -2.98970E+00 -4.12444E+00 -5.23383E+00
  -6.31547E+00 -7.36493E+00 -8.38069E+00 -9.35933E+00 -1.03004E+01 -1.12016E+01 -1.20634E+01 -1.28847E+01 -1.36667E+01 -1.44089E+01
  -1.51134E+01 -1.57801E+01 -1.64116E+01 -1.70081E+01 -1.75724E+01 -1.81048E+01 -1.86083E+01 -1.90832E+01 -1.95324E+01 -1.99562E+01
  -2.03573E+01 -2.07359E+01 -2.10947E+01 -2.14337E+01 -2.17554E+01 -2.20597E+01 -2.23489E+01 -2.26228E+01 -2.28835E+01 -2.31307E+01
  -2.33664E+01 -2.35902E+01 -2.38040E+01 -2.40072E+01 -2.42016E+01 -2.43867E+01 -2.45641E+01 -2.47330E+01 -2.48953E+01 -2.50499E+01
  -2.51987E+01 -2.53407E+01 -2.54775E+01 -2.56081E+01 -2.57341E+01 -2.58546E+01 -2.59709E+01 -2.60822E+01 -2.61899E+01 -2.62929E+01
  -2.63927E+01 -2.64883E+01 -2.65810E+01 -2.66698E+01 -2.67560E+01 -2.68386E+01 -2.69189E+01 -2.69958E+01 -2.70708E+01 -2.71426E+01
  -2.72125E+01 -2.72796E+01 -2.73450E+01 -2.74077E+01 -2.74690E+01 -2.75276E+01 -2.75850E+01 -2.76399E+01 -2.76936E+01 -2.77450E+01
  -2.77953E+01 -2.78435E+01 -2.78906E+01 -2.79355E+01 -2.79796E+01 -2.80215E+01 -2.80624E+01 -2.81012E+01
 NY background values follow
    -3.023E+01   -3.024E+01   -3.025E+01   -3.026E+01   -3.027E+01   -3.028E+01   -3.030E+01   -3.031E+01   -3.032E+01   -3.033E+01
    -3.034E+01   -3.036E+01   -3.037E+01   -3.038E+01   -3.039E+01   -3.040E+01   -3.042E+01   -3.043E+01   -3.044E+01   -3.045E+01
    -3.046E+01   -3.047E+01   -3.049E+01   -3.050E+01   -3.051E+01   -3.052E+01   -3.053E+01   -3.055E+01   -3.056E+01   -3.057E+01
    -3.058E+01   -3.059E+01   -3.060E+01   -3.062E+01   -3.063E+01   -3.064E+01   -3.065E+01   -3.066E+01   -3.067E+01   -3.069E+01
    -3.070E+01   -3.071E+01   -3.072E+01   -3.073E+01   -3.074E+01   -3.076E+01   -3.077E+01   -3.078E+01   -3.079E+01   -3.080E+01
    -3.081E+01   -3.083E+01   -3.084E+01   -3.085E+01   -3.086E+01   -3.087E+01   -3.088E+01   -3.089E+01   -3.091E+01   -3.092E+01
    -3.093E+01   -3.094E+01   -3.095E+01   -3.096E+01   -3.097E+01   -3.099E+01   -3.100E+01   -3.101E+01   -3.102E+01   -3.103E+01
    -3.104E+01   -3.105E+01   -3.106E+01   -3.107E+01   -3.109E+01   -3.110E+01   -3.111E+01   -3.112E+01   -3.113E+01   -3.114E+01
    -3.115E+01   -3.116E+01   -3.117E+01   -3.118E+01   -3.120E+01   -3.121E+01   -3.122E+01   -3.123E+01   -3.124E+01   -3.125E+01
    -3.126E+01   -3.127E+01   -3.128E+01   -3.129E+01   -3.130E+01   -3.131E+01   -3.132E+01   -3.133E+01   -3.135E+01   -3.136E+01
    -3.137E+01   -3.138E+01   -3.139E+01   -3.140E+01   -3.141E+01   -3.142E+01   -3.143E+01   -3.144E+01   -3.145E+01   -3.146E+01
    -3.147E+01   -3.148E+01   -3.149E+01   -3.150E+01   -3.151E+01   -3.152E+01   -3.153E+01   -3.154E+01   -3.155E+01   -3.156E+01
    -3.157E+01   -3.158E+01   -3.159E+01   -3.160E+01   -3.161E+01   -3.162E+01   -3.163E+01   -3.164E+01   -3.164E+01   -3.165E+01
    -3.166E+01   -3.167E+01   -3.168E+01   -3.169E+01   -3.170E+01   -3.171E+01   -3.172E+01   -3.173E+01   -3.174E+01   -3.174E+01
    -3.175E+01   -3.176E+01   -3.177E+01   -3.178E+01   -3.179E+01   -3.180E+01   -3.181E+01   -3.181E+01   -3.182E+01   -3.183E+01
    -3.184E+01   -3.185E+01   -3.186E+01   -3.186E+01   -3.187E+01   -3.188E+01   -3.189E+01   -3.190E+01   -3.190E+01   -3.191E+01
    -3.192E+01   -3.193E+01   -3.193E+01   -3.194E+01   -3.195E+01   -3.196E+01   -3.196E+01   -3.197E+01   -3.198E+01   -3.199E+01
    -3.199E+01   -3.200E+01   -3.201E+01   -3.201E+01   -3.202E+01   -3.203E+01   -3.203E+01   -3.204E+01   -3.205E+01   -3.205E+01
    -3.206E+01   -3.207E+01   -3.207E+01   -3.208E+01   -3.209E+01   -3.209E+01   -3.210E+01   -3.210E+01   -3.211E+01   -3.212E+01
    -3.212E+01   -3.213E+01   -3.213E+01   -3.214E+01   -3.214E+01   -3.215E+01   -3.216E+01   -3.216E+01   -3.217E+01   -3.217E+01
    -3.218E+01   -3.218E+01   -3.219E+01   -3.219E+01   -3.220E+01   -3.220E+01   -3.221E+01   -3.221E+01   -3.221E+01   -3.222E+01
    -3.222E+01   -3.223E+01   -3.223E+01   -3.224E+01   -3.224E+01   -3.224E+01   -3.225E+01   -3.225E+01   -3.226E+01   -3.226E+01
    -3.226E+01   -3.227E+01   -3.227E+01   -3.227E+01   -3.228E+01   -3.228E+01   -3.228E+01   -3.229E+01   -3.229E+01   -3.229E+01
    -3.230E+01   -3.230E+01   -3.230E+01   -3.231E+01   -3.231E+01   -3.231E+01   -3.231E+01   -3.232E+01   -3.232E+01   -3.232E+01
    -3.232E+01   -3.232E+01   -3.233E+01   -3.233E+01   -3.233E+01   -3.233E+01   -3.233E+01   -3.234E+01   -3.234E+01   -3.234E+01
    -3.234E+01   -3.234E+01   -3.234E+01   -3.234E+01   -3.234E+01   -3.235E+01   -3.235E+01   -3.235E+01   -3.235E+01   -3.235E+01
    -3.235E+01   -3.235E+01   -3.235E+01   -3.235E+01   -3.235E+01   -3.235E+01   -3.235E+01   -3.235E+01   -3.235E+01   -3.235E+01
    -3.235E+01   -3.235E+01   -3.235E+01   -3.235E+01   -3.235E+01   -3.235E+01   -3.235E+01   -3.235E+01   -3.235E+01   -3.235E+01
    -3.235E+01   -3.235E+01   -3.235E+01   -3.234E+01   -3.234E+01   -3.234E+01   -3.234E+01   -3.234E+01   -3.234E+01   -3.234E+01
    -3.234E+01   -3.233E+01   -3.233E+01   -3.233E+01   -3.233E+01   -3.233E+01   -3.233E+01   -3.232E+01   -3.232E+01   -3.232E+01
    -3.232E+01   -3.232E+01   -3.231E+01   -3.231E+01   -3.231E+01   -3.231E+01   -3.230E+01   -3.230E+01   -3.230E+01   -3.230E+01
    -3.229E+01   -3.229E+01   -3.229E+01   -3.229E+01   -3.228E+01   -3.228E+01   -3.228E+01   -3.227E+01   -3.227E+01   -3.227E+01
    -3.227E+01   -3.226E+01   -3.226E+01   -3.226E+01   -3.225E+01   -3.225E+01   -3.225E+01   -3.224E+01   -3.224E+01   -3.223E+01
    -3.223E+01   -3.223E+01   -3.222E+01   -3.222E+01   -3.222E+01   -3.221E+01   -3.221E+01   -3.220E+01   -3.220E+01   -3.220E+01
    -3.219E+01   -3.219E+01   -3.218E+01   -3.218E+01   -3.218E+01   -3.217E+01   -3.217E+01   -3.216E+01   -3.216E+01   -3.215E+01
    -3.215E+01   -3.215E+01   -3.214E+01   -3.214E+01   -3.213E+01   -3.213E+01   -3.212E+01   -3.212E+01   -3.211E+01   -3.211E+01
    -3.210E+01   -3.210E+01   -3.209E+01   -3.209E+01   -3.208E+01   -3.208E+01   -3.207E+01   -3.207E+01   -3.206E+01   -3.206E+01
    -3.205E+01   -3.205E+01   -3.204E+01   -3.204E+01   -3.203E+01   -3.203E+01   -3.202E+01   -3.202E+01   -3.201E+01   -3.201E+01
    -3.200E+01   -3.199E+01   -3.199E+01   -3.198E+01   -3.198E+01   -3.197E+01   -3.197E+01   -3.196E+01   -3.195E+01   -3.195E+01
    -3.194E+01   -3.194E+01   -3.193E+01   -3.193E+01   -3.192E+01   -3.191E+01   -3.191E+01   -3.190E+01   -3.190E+01   -3.189E+01
    -3.188E+01   -3.188E+01   -3.187E+01   -3.187E+01   -3.186E+01   -3.185E+01   -3.185E+01   -3.184E+01   -3.183E+01   -3.183E+01
    -3.182E+01   -3.182E+01   -3.181E+01   -3.180E+01   -3.180E+01   -3.179E+01   -3.178E+01   -3.178E+01   -3.177E+01   -3.176E+01
    -3.176E+01   -3.175E+01   -3.174E+01   -3.174E+01   -3.173E+01   -3.172E+01   -3.172E+01   -3.171E+01   -3.170E+01   -3.170E+01
    -3.169E+01   -3.168E+01   -3.168E+01   -3.167E+01   -3.166E+01   -3.166E+01   -3.165E+01   -3.164E+01   -3.164E+01   -3.163E+01
    -3.162E+01   -3.162E+01   -3.161E+01   -3.160E+01   -3.160E+01   -3.159E+01   -3.158E+01   -3.157E+01   -3.157E+01   -3.156E+01
    -3.155E+01   -3.155E+01   -3.154E+01   -3.153E+01   -3.153E+01   -3.152E+01   -3.151E+01   -3.150E+01   -3.150E+01   -3.149E+01
    -3.148E+01   -3.148E+01   -3.147E+01   -3.146E+01   -3.146E+01   -3.145E+01   -3.144E+01   -3.143E+01   -3.143E+01   -3.142E+01
    -3.141E+01   -3.141E+01   -3.140E+01   -3.139E+01   -3.138E+01   -3.138E+01   -3.137E+01   -3.136E+01   -3.135E+01   -3.135E+01
    -3.134E+01   -3.133E+01   -3.133E+01   -3.132E+01   -3.131E+01   -3.130E+01   -3.130E+01   -3.129E+01   -3.128E+01   -3.128E+01
    -3.127E+01   -3.126E+01   -3.125E+01   -3.125E+01   -3.124E+01   -3.123E+01   -3.123E+01   -3.122E+01
 Ala      Conc. = 7.66E+03
