 LCModel (Version 6.3-1L) Copyright: S.W. Provencher.          Ref.: Magn. Reson. Med. 30:672-679 (1993).                
 Slice#1 Row#10 Col#9  K_02_press_1_raw_act
 36 lines in following concentration table = NCONC+1
    Conc.  %SD /Cr+PCr  Metabolite                                         
  128.504  45%   0.131 Ala                                                 
    0.000 999%   0.000 Asp                                                 
  637.629  13%   0.650 Cr                                                  
  343.380  23%   0.350 PCr                                                 
    0.000 999%   0.000 GABA                                                
   41.310 269% 4.2E-02 Glc                                                 
  175.232  66%   0.179 Gln                                                 
 1.11E+03  12%   1.133 Glu                                                 
  355.636   5%   0.363 GPC                                                 
    0.000 999%   0.000 PCh                                                 
  239.546  19%   0.244 GSH                                                 
  823.982  17%   0.840 Ins                                                 
   92.926  66% 9.5E-02 Lac                                                 
 1.74E+03   4%   1.775 NAA                                                 
  710.670   8%   0.724 NAAG                                                
    0.000 999%   0.000 Scyllo                                              
    0.000 999%   0.000 Tau                                                 
    0.000 999%   0.000 -CrCH2                                              
  355.636   5%   0.363 GPC+PCh                                             
 2.45E+03   3%   2.500 NAA+NAAG                                            
  981.009   4%   1.000 Cr+PCr                                              
 1.29E+03  14%   1.311 Glu+Gln                                             
    0.000 999%   0.000 Lip13a                                              
    0.000 999%   0.000 Lip13b                                              
 4.02E-03 999% 4.1E-06 Lip09                                               
 1.40E+03  12%   1.430 MM09                                                
    0.000 999%   0.000 Lip20                                               
 2.30E+03  14%   2.343 MM20                                                
  199.128  70%   0.203 MM12                                                
  354.603  57%   0.361 MM14                                                
  639.850  29%   0.652 MM17                                                
    0.000 999%   0.000 Lip13a+Lip13b                                       
  553.730  45%   0.564 MM14+Lip13a+Lip13b+MM12                             
 1.40E+03  12%   1.430 MM09+Lip09                                          
 2.30E+03  14%   2.343 MM20+Lip20                                          
   6 lines in following misc. output table
  FWHM = 0.031 ppm    S/N =  16                                            
  Data shift = 0.015 ppm                                                   
  Ph:  16 deg       8.0 deg/ppm                                            
  alphaB,S = 3.0E+00,   4.0E-01                                            
   14 spline knots.   Ns = 5(1)                                            
   2 inflections.     1 extrema                                            
  498 points on ppm-axis = NY
      4.000000     3.992357     3.984714     3.977070     3.969427     3.961784     3.954141     3.946497     3.938854     3.931211
      3.923568     3.915925     3.908281     3.900638     3.892995     3.885352     3.877708     3.870065     3.862422     3.854779
      3.847136     3.839492     3.831849     3.824206     3.816563     3.808919     3.801276     3.793633     3.785990     3.778347
      3.770703     3.763060     3.755417     3.747774     3.740130     3.732487     3.724844     3.717201     3.709558     3.701914
      3.694271     3.686628     3.678985     3.671341     3.663698     3.656055     3.648412     3.640769     3.633125     3.625482
      3.617839     3.610196     3.602552     3.594909     3.587266     3.579623     3.571980     3.564336     3.556693     3.549050
      3.541407     3.533763     3.526120     3.518477     3.510834     3.503191     3.495547     3.487904     3.480261     3.472618
      3.464974     3.457331     3.449688     3.442045     3.434402     3.426758     3.419115     3.411472     3.403829     3.396185
      3.388542     3.380899     3.373256     3.365613     3.357969     3.350326     3.342683     3.335040     3.327396     3.319753
      3.312110     3.304467     3.296824     3.289180     3.281537     3.273894     3.266251     3.258607     3.250964     3.243321
      3.235678     3.228034     3.220391     3.212748     3.205105     3.197462     3.189818     3.182175     3.174532     3.166889
      3.159245     3.151602     3.143959     3.136316     3.128673     3.121029     3.113386     3.105743     3.098100     3.090456
      3.082813     3.075170     3.067527     3.059884     3.052240     3.044597     3.036954     3.029311     3.021667     3.014024
      3.006381     2.998738     2.991095     2.983451     2.975808     2.968165     2.960522     2.952878     2.945235     2.937592
      2.929949     2.922306     2.914662     2.907019     2.899376     2.891733     2.884089     2.876446     2.868803     2.861160
      2.853517     2.845873     2.838230     2.830587     2.822944     2.815300     2.807657     2.800014     2.792371     2.784728
      2.777084     2.769441     2.761798     2.754155     2.746511     2.738868     2.731225     2.723582     2.715939     2.708295
      2.700652     2.693009     2.685366     2.677722     2.670079     2.662436     2.654793     2.647150     2.639506     2.631863
      2.624220     2.616577     2.608933     2.601290     2.593647     2.586004     2.578361     2.570717     2.563074     2.555431
      2.547788     2.540144     2.532501     2.524858     2.517215     2.509572     2.501928     2.494285     2.486642     2.478999
      2.471355     2.463712     2.456069     2.448426     2.440783     2.433139     2.425496     2.417853     2.410210     2.402566
      2.394923     2.387280     2.379637     2.371994     2.364350     2.356707     2.349064     2.341421     2.333777     2.326134
      2.318491     2.310848     2.303205     2.295561     2.287918     2.280275     2.272632     2.264988     2.257345     2.249702
      2.242059     2.234416     2.226772     2.219129     2.211486     2.203843     2.196199     2.188556     2.180913     2.173270
      2.165627     2.157983     2.150340     2.142697     2.135054     2.127410     2.119767     2.112124     2.104481     2.096838
      2.089194     2.081551     2.073908     2.066265     2.058621     2.050978     2.043335     2.035692     2.028049     2.020405
      2.012762     2.005119     1.997476     1.989833     1.982190     1.974546     1.966903     1.959260     1.951617     1.943974
      1.936331     1.928688     1.921045     1.913402     1.905759     1.898115     1.890472     1.882829     1.875186     1.867543
      1.859900     1.852257     1.844614     1.836971     1.829327     1.821684     1.814041     1.806398     1.798755     1.791112
      1.783469     1.775826     1.768183     1.760540     1.752896     1.745253     1.737610     1.729967     1.722324     1.714681
      1.707038     1.699395     1.691752     1.684108     1.676465     1.668822     1.661179     1.653536     1.645893     1.638250
      1.630607     1.622964     1.615321     1.607677     1.600034     1.592391     1.584748     1.577105     1.569462     1.561819
      1.554176     1.546533     1.538890     1.531246     1.523603     1.515960     1.508317     1.500674     1.493031     1.485388
      1.477745     1.470102     1.462458     1.454815     1.447172     1.439529     1.431886     1.424243     1.416600     1.408957
      1.401314     1.393671     1.386027     1.378384     1.370741     1.363098     1.355455     1.347812     1.340169     1.332526
      1.324883     1.317240     1.309596     1.301953     1.294310     1.286667     1.279024     1.271381     1.263738     1.256095
      1.248452     1.240808     1.233165     1.225522     1.217879     1.210236     1.202593     1.194950     1.187307     1.179664
      1.172021     1.164377     1.156734     1.149091     1.141448     1.133805     1.126162     1.118519     1.110876     1.103233
      1.095590     1.087946     1.080303     1.072660     1.065017     1.057374     1.049731     1.042088     1.034445     1.026802
      1.019158     1.011515     1.003872     0.996229     0.988586     0.980943     0.973300     0.965657     0.958014     0.950371
      0.942727     0.935084     0.927441     0.919798     0.912155     0.904512     0.896869     0.889226     0.881583     0.873940
      0.866296     0.858653     0.851010     0.843367     0.835724     0.828081     0.820438     0.812795     0.805152     0.797508
      0.789865     0.782222     0.774579     0.766936     0.759293     0.751650     0.744007     0.736364     0.728721     0.721077
      0.713434     0.705791     0.698148     0.690505     0.682862     0.675219     0.667576     0.659933     0.652290     0.644646
      0.637003     0.629360     0.621717     0.614074     0.606431     0.598788     0.591145     0.583502     0.575858     0.568215
      0.560572     0.552929     0.545286     0.537643     0.530000     0.522357     0.514714     0.507071     0.499427     0.491784
      0.484141     0.476498     0.468855     0.461212     0.453569     0.445925     0.438282     0.430639     0.422996     0.415353
      0.407710     0.400067     0.392424     0.384780     0.377137     0.369494     0.361851     0.354208     0.346565     0.338922
      0.331278     0.323635     0.315992     0.308349     0.300706     0.293063     0.285420     0.277777     0.270133     0.262490
      0.254847     0.247204     0.239561     0.231918     0.224275     0.216631     0.208988     0.201345
 NY phased data points follow
   2.23876E+01  1.54723E+01  1.78636E+01  2.01995E+01  1.72773E+01  2.04343E+01  2.33711E+01  2.85524E+01  3.18202E+01  3.29038E+01
   3.69588E+01  4.11552E+01  3.52493E+01  2.89491E+01  2.43624E+01  2.34920E+01  1.81470E+01  1.44570E+01  1.37539E+01  1.74049E+01
   9.60037E+00  1.42334E+01  1.19402E+01  1.84613E+01  1.22839E+01  1.41040E+01  1.30343E+01  1.99622E+01  1.56797E+01  1.44970E+01
   1.63854E+01  1.54143E+01  1.70998E+01  1.63254E+01  1.50948E+01  1.47643E+01  1.43365E+01  1.23025E+01  1.27837E+01  1.18398E+01
   1.42085E+01  1.58520E+01  1.70557E+01  1.57282E+01  1.35550E+01  2.06508E+01  2.51822E+01  2.04341E+01  1.98054E+01  1.45372E+01
   1.45245E+01  1.35260E+01  8.82164E+00  1.68424E+01  1.12987E+01  1.10424E+01  1.44711E+01  1.54411E+01  1.56421E+01  1.29858E+01
   1.30998E+01  5.52878E+00  9.20877E+00  5.08310E+00  6.66956E+00  5.88440E+00  5.16537E+00  4.27488E+00  7.46707E-01  5.86918E+00
   5.11734E+00  2.78853E+00  5.89030E+00  5.87026E+00  6.35648E+00  5.14696E+00  6.31015E+00  6.29344E+00  6.58945E+00  8.93533E+00
   4.26841E+00  6.30385E+00  5.86488E+00  2.74211E+00  3.40953E+00  4.72754E+00  8.53558E-01  5.64750E+00  2.97543E+00  4.24854E+00
   4.37666E+00  2.00165E+00  5.88118E+00  6.23378E+00  4.80334E+00  4.55494E+00  1.16086E+01  7.18485E+00  3.72260E+00  1.38298E+01
   3.05864E+01  4.65101E+01  5.35128E+01  5.02018E+01  4.02888E+01  2.67946E+01  2.05542E+01  1.37303E+01  7.07900E+00  5.00545E+00
   5.17851E+00  6.75343E+00  3.00707E+00  5.01485E+00  1.97787E+00  3.96230E+00  2.80934E+00  3.45571E+00  5.61551E+00  8.74234E+00
   9.97554E+00  7.13231E+00  1.17591E+01  1.45249E+01  1.92142E+01  3.31583E+01  5.07116E+01  5.27964E+01  4.18515E+01  3.15187E+01
   2.16901E+01  1.50389E+01  1.06028E+01  6.98974E+00  2.35045E+00  7.03028E+00  2.47637E+00  4.56565E+00  5.52216E+00 -1.80805E+00
   4.56125E+00  8.86504E+00  7.01418E+00  6.45528E+00 -3.83444E-01 -3.64864E-01  4.76919E+00  4.64997E+00  2.60967E+00 -1.78744E+00
   2.89010E+00  3.26543E+00 -2.91773E+00  1.60106E+00 -8.09722E-02  1.67701E+00  5.73838E-01  2.56952E+00  5.06191E+00  6.02604E+00
   3.02790E+00 -8.71430E-01  1.56361E+00 -1.60270E+00  2.61311E+00  1.43084E+00 -1.02571E+00 -3.43614E+00 -9.30247E+00 -9.58257E+00
  -6.81138E+00 -6.06231E+00 -5.64612E+00 -1.15188E+01 -1.05325E+01 -1.48963E+01 -8.73955E+00 -1.05093E+01 -7.41527E+00 -9.94306E+00
  -1.52455E+01 -1.15540E+01 -9.16873E+00 -1.06767E+01 -6.50250E+00 -9.02141E-01 -6.28857E+00 -4.00959E+00 -9.80835E-01 -2.10514E+00
   4.53761E-01 -2.86427E+00 -4.35069E+00 -1.47939E+00 -2.18344E+00 -5.60611E+00 -6.30189E+00 -9.22841E+00 -8.08807E+00 -6.74218E+00
  -5.59826E+00 -5.99683E+00 -3.21911E+00  2.77176E+00  8.83836E-01 -1.46966E+00  1.43216E+00 -2.95882E-01 -3.17731E+00 -8.42222E+00
   7.35917E-01 -6.75308E-01 -3.56602E-01  1.38412E+00  3.32744E+00  1.03617E+01  1.72516E+01  9.53107E+00  4.72615E+00 -1.41045E+00
  -5.39495E+00 -8.77208E+00 -1.00982E+01 -8.70694E+00 -1.61661E-01  4.24069E+00  4.21901E+00  7.86349E+00  6.49437E+00  3.41314E+00
   4.19152E+00  2.72462E+00 -8.12522E-01  2.23816E+00  2.95894E+00  5.40404E+00 -3.87309E-01  4.17794E+00  3.60182E+00  2.56694E+00
  -1.55545E+00 -2.48635E+00 -4.83050E+00  2.72499E-01 -6.77179E-01  6.25956E+00  6.02198E+00  1.28648E+01  1.17196E+01  1.00860E+01
   8.78997E+00  9.60684E+00  2.18711E+01  3.13899E+01  4.37666E+01  4.40899E+01  4.16402E+01  4.73255E+01  6.58324E+01  9.32295E+01
   1.03060E+02  8.66656E+01  6.21202E+01  3.74426E+01  1.48156E+01  1.85654E+00  2.30845E-02 -7.69561E-01  1.40376E+00  2.05411E+00
  -3.00901E+00  1.50006E+00  3.75742E+00  9.47082E-01  4.51161E+00 -3.64189E+00  4.77479E-01  1.55454E+00  3.08171E+00 -2.01697E+00
   9.70516E-01 -9.19509E-01  2.49443E+00 -4.16038E+00 -2.42091E+00 -1.38581E+00 -3.61461E+00 -4.65787E-01 -4.68249E+00  2.30636E+00
   2.14343E+00  1.78662E-01 -1.54580E-01 -2.23110E+00 -1.69582E-01 -4.35513E+00 -5.66685E-01  1.89156E+00 -3.01275E+00  5.77235E-01
   9.34592E-01 -1.02236E+00  7.32223E-01  9.22999E-01 -2.52662E+00 -2.12428E+00  2.97334E+00 -1.17188E+00  2.24178E+00 -1.42716E+00
   1.48457E+00 -3.03447E+00  3.00214E-01  1.84232E+00 -3.27949E-01 -8.29051E-01  1.88766E+00 -1.34116E+00  3.07741E-01 -4.12682E-01
   2.78792E+00 -3.67961E+00 -1.44927E+00 -2.95820E+00 -1.08454E+00 -2.45542E-01  1.69413E+00 -4.96437E+00 -6.01449E+00 -2.33481E+00
  -5.77335E+00 -3.90822E+00 -6.57841E+00 -2.17520E+00 -3.25778E+00 -1.53135E+00 -2.58524E+00 -4.75003E+00  1.92772E+00  2.36683E+00
   1.64444E+00  8.07799E-01 -1.38475E+00  3.94574E+00  4.20989E+00  4.17625E+00 -5.04668E-01 -9.51244E-01 -5.39238E+00 -3.78675E+00
  -3.80095E+00 -5.25902E+00 -6.82548E+00 -4.64502E-01 -7.05188E+00 -5.37480E+00 -4.48719E+00 -5.97069E+00 -6.44320E+00 -5.88654E+00
  -3.89747E+00 -5.45233E+00 -4.98262E+00 -3.94633E+00 -2.16447E+00 -5.92411E+00 -5.08903E+00 -1.31119E+00 -1.41955E+00 -3.26893E+00
  -1.77968E+00  7.97788E-01 -1.35259E+00 -4.38786E+00  2.23570E+00 -3.25094E+00 -2.46984E+00  2.92371E+00 -1.81247E+00 -4.37254E-01
  -6.75988E+00  1.12952E+00 -2.99987E+00  2.43477E+00 -3.11196E+00 -1.44264E+00  3.77247E+00 -5.64542E-01 -2.26275E+00 -1.06257E-01
   2.06833E+00  4.35052E+00 -1.02521E+00  3.69161E+00  3.52866E+00  3.93600E+00  6.06975E+00  6.43512E+00  3.59409E+00  4.82295E+00
   4.10575E+00  5.53770E+00  1.13742E+01  5.87955E+00  8.43684E+00  7.91146E+00  4.96210E+00  6.37507E+00  1.08364E+01  5.92630E+00
   4.24465E+00  3.86237E+00  1.15730E+00  7.56742E+00  4.66073E+00  6.28436E+00  3.44719E-01 -1.49043E+00  3.60892E+00  2.85804E+00
  -6.72079E-02 -1.19347E+00 -9.59165E-01  6.18236E+00 -3.48275E+00 -2.06414E+00 -1.30858E+00 -1.48170E+00 -2.85140E+00 -1.97688E+00
  -2.51763E-01  9.41763E-01  4.81436E-01  1.89088E+00 -3.66874E+00  3.04069E+00  7.04086E-01 -4.86370E-01  1.29977E+00 -1.79234E-01
  -2.69116E+00 -2.67709E+00  3.66961E-02 -3.04836E+00 -3.53169E+00 -2.91466E+00  1.28518E+00 -1.64055E+00 -7.23363E+00 -1.08588E+00
   1.63615E+00 -2.27449E+00 -5.36835E+00 -2.85649E-01 -4.39321E+00 -2.91308E+00 -2.38972E+00 -1.17797E+00 -3.87950E+00 -4.46699E-01
  -2.42809E+00 -2.07892E+00  1.85851E+00 -4.64992E+00 -2.90048E+00 -1.14740E+00  2.87423E+00 -2.62736E+00 -2.36707E+00  8.40336E-01
  -2.10412E+00 -5.92988E+00 -3.49515E+00 -5.58276E+00 -4.70844E-01 -4.26689E+00  4.70194E-01 -4.45943E+00 -2.43449E+00 -3.53188E+00
  -2.72490E+00  6.90584E-01  1.32967E+00 -1.83532E+00 -7.54396E+00  2.47849E+00 -9.92508E-01 -2.03448E+00 -3.24882E+00 -8.05196E-01
   1.56940E+00 -1.51189E+00 -1.78765E+00 -3.52478E+00 -2.19882E+00 -8.11240E-01 -5.78736E+00 -9.19870E-01
 NY points of the fit to the data follow
   1.39021E+01  1.39710E+01  1.43200E+01  1.50012E+01  1.63641E+01  1.88807E+01  2.29401E+01  2.78362E+01  3.13624E+01  3.40664E+01
   3.81764E+01  4.01252E+01  3.62150E+01  2.96774E+01  2.41049E+01  1.95397E+01  1.60326E+01  1.42935E+01  1.39330E+01  1.38244E+01
   1.36715E+01  1.34848E+01  1.32958E+01  1.32215E+01  1.32134E+01  1.32656E+01  1.35379E+01  1.46155E+01  1.67768E+01  1.81241E+01
   1.80808E+01  1.82809E+01  1.86412E+01  1.82330E+01  1.66943E+01  1.47786E+01  1.28209E+01  1.08074E+01  9.48493E+00  9.46189E+00
   1.03442E+01  1.15200E+01  1.26123E+01  1.37273E+01  1.57088E+01  1.85689E+01  2.04177E+01  1.96926E+01  1.71828E+01  1.42986E+01
   1.16426E+01  9.66177E+00  8.71739E+00  8.65394E+00  8.95936E+00  9.29022E+00  9.75609E+00  1.06365E+01  1.16144E+01  1.20178E+01
   1.16199E+01  1.05242E+01  9.10640E+00  7.85660E+00  7.14381E+00  7.10531E+00  7.51873E+00  8.08214E+00  8.59974E+00  9.07121E+00
   9.49566E+00  9.55423E+00  9.20498E+00  8.73488E+00  8.30118E+00  7.93438E+00  7.64726E+00  7.47285E+00  7.33895E+00  7.17894E+00
   6.99027E+00  6.78237E+00  6.51516E+00  6.06403E+00  5.25685E+00  4.10907E+00  3.03472E+00  2.49567E+00  2.62683E+00  3.27224E+00
   4.16636E+00  5.10936E+00  5.91119E+00  6.42758E+00  6.64417E+00  6.53814E+00  6.20804E+00  6.37230E+00  8.53869E+00  1.48055E+01
   2.74245E+01  4.51177E+01  5.64984E+01  5.26924E+01  4.05210E+01  2.76666E+01  1.63268E+01  8.18410E+00  4.75717E+00  4.39126E+00
   4.46918E+00  4.43450E+00  4.39696E+00  4.37029E+00  4.35154E+00  4.34376E+00  4.33836E+00  4.32463E+00  4.33349E+00  4.45881E+00
   4.81123E+00  5.66706E+00  7.80904E+00  1.27660E+01  2.22981E+01  3.58751E+01  4.81188E+01  5.13299E+01  4.39952E+01  3.24107E+01
   2.16370E+01  1.32778E+01  7.92472E+00  5.10152E+00  3.55911E+00  2.42497E+00  1.76048E+00  1.85492E+00  2.61352E+00  3.58778E+00
   4.28962E+00  4.39743E+00  4.03178E+00  3.47196E+00  2.91374E+00  2.46249E+00  2.16967E+00  1.99362E+00  1.80312E+00  1.53626E+00
   1.17684E+00  6.75923E-01  1.07854E-01 -1.68667E-01  5.75339E-02  5.60767E-01  1.04141E+00  1.09763E+00  3.53903E-01 -1.15070E+00
  -2.61337E+00 -2.96585E+00 -2.18174E+00 -9.70012E-01 -2.64553E-01 -8.36482E-01 -2.15593E+00 -3.41905E+00 -4.20392E+00 -4.20011E+00
  -3.72640E+00 -3.48622E+00 -3.92620E+00 -5.01701E+00 -6.25097E+00 -6.86201E+00 -6.15759E+00 -4.79242E+00 -4.19060E+00 -4.62904E+00
  -5.44878E+00 -5.44187E+00 -4.67166E+00 -4.08835E+00 -3.91940E+00 -3.95239E+00 -3.53602E+00 -1.88564E+00  4.88093E-01  2.43689E+00
   3.46036E+00  3.17784E+00  1.87340E+00  3.77589E-01 -6.90303E-01 -1.19128E+00 -1.24210E+00 -9.21526E-01 -3.59683E-01  1.39745E-01
   6.17604E-01  1.36953E+00  2.57761E+00  3.50896E+00  3.30713E+00  2.04309E+00 -9.59851E-02 -2.53717E+00 -4.62924E+00 -5.97496E+00
  -6.32982E+00 -5.98922E+00 -4.50105E+00 -1.02949E+00  3.70841E+00  7.60357E+00  8.29918E+00  5.73643E+00  1.80170E+00 -2.84520E+00
  -7.63931E+00 -1.14661E+01 -1.22122E+01 -9.25903E+00 -4.59294E+00 -4.29129E-01  2.63998E+00  4.40524E+00  4.44496E+00  3.18887E+00
   1.83721E+00  1.33881E+00  1.81964E+00  2.83462E+00  3.89958E+00  4.79793E+00  5.18879E+00  4.66606E+00  3.43256E+00  1.86994E+00
   3.76252E-01 -3.42347E-01  2.10790E-01  2.12550E+00  4.63616E+00  6.59241E+00  7.60850E+00  7.94056E+00  7.69626E+00  7.07556E+00
   7.35380E+00  1.04416E+01  1.80814E+01  3.06763E+01  4.24900E+01  4.52618E+01  4.31134E+01  4.77203E+01  6.67671E+01  9.41956E+01
   1.02564E+02  8.49930E+01  6.12151E+01  3.84919E+01  1.91314E+01  6.56268E+00  3.23354E+00  3.07444E+00  2.59877E+00  2.08796E+00
   1.75424E+00  1.49747E+00  1.39355E+00  1.36268E+00  1.07749E+00  5.37783E-01  4.03931E-02 -3.40038E-01 -6.65219E-01 -9.13115E-01
  -9.98131E-01 -9.41138E-01 -9.13075E-01 -9.87587E-01 -1.09921E+00 -1.24895E+00 -1.43699E+00 -1.62630E+00 -1.73943E+00 -1.69003E+00
  -1.47366E+00 -1.22158E+00 -1.01125E+00 -8.44454E-01 -7.28745E-01 -6.75324E-01 -6.68804E-01 -6.53287E-01 -5.64144E-01 -4.09547E-01
  -2.36402E-01 -6.17067E-02  9.46793E-02  2.09061E-01  2.70934E-01  2.93486E-01  2.84081E-01  2.45647E-01  1.80792E-01  9.22006E-02
  -1.73435E-02 -1.45102E-01 -2.86691E-01 -4.35679E-01 -5.86377E-01 -7.33607E-01 -8.71209E-01 -9.92155E-01 -1.08972E+00 -1.15677E+00
  -1.18252E+00 -1.14497E+00 -9.95556E-01 -6.86111E-01 -2.34536E-01  1.32629E-01 -1.87268E-01 -1.42955E+00 -2.82504E+00 -3.80713E+00
  -4.45464E+00 -4.75049E+00 -4.51737E+00 -3.51722E+00 -1.92850E+00 -6.19207E-01 -8.02510E-02 -1.91584E-02 -2.49365E-01 -6.46275E-01
  -1.01065E+00 -1.15100E+00 -1.10089E+00 -9.07647E-01 -6.09673E-01 -4.24252E-01 -8.39761E-01 -1.89997E+00 -2.96978E+00 -3.73959E+00
  -4.24507E+00 -4.41423E+00 -4.04487E+00 -3.06785E+00 -1.99393E+00 -1.41725E+00 -1.28612E+00 -1.39681E+00 -1.65791E+00 -1.97013E+00
  -2.17563E+00 -2.26105E+00 -2.30215E+00 -2.32846E+00 -2.34474E+00 -2.35432E+00 -2.35902E+00 -2.35949E+00 -2.35598E+00 -2.34888E+00
  -2.33845E+00 -2.32429E+00 -2.30511E+00 -2.27918E+00 -2.24496E+00 -2.20123E+00 -2.14653E+00 -2.07874E+00 -1.99509E+00 -1.89274E+00
  -1.76922E+00 -1.62230E+00 -1.44949E+00 -1.24774E+00 -1.01395E+00 -7.45551E-01 -4.40908E-01 -9.90859E-02  2.80460E-01  6.97706E-01
   1.15139E+00  1.63838E+00  2.15364E+00  2.69060E+00  3.24154E+00  3.79748E+00  4.34783E+00  4.88051E+00  5.38265E+00  5.84155E+00
   6.24539E+00  6.58341E+00  6.84597E+00  7.02515E+00  7.11552E+00  7.11480E+00  7.02388E+00  6.84630E+00  6.58777E+00  6.25611E+00
   5.86119E+00  5.41465E+00  4.92895E+00  4.41644E+00  3.88872E+00  3.35661E+00  2.83012E+00  2.31821E+00  1.82812E+00  1.36511E+00
   9.32642E-01  5.32899E-01  1.67175E-01 -1.64167E-01 -4.61897E-01 -7.27833E-01 -9.64333E-01 -1.17372E+00 -1.35813E+00 -1.51976E+00
  -1.66108E+00 -1.78473E+00 -1.89304E+00 -1.98777E+00 -2.07033E+00 -2.14210E+00 -2.20464E+00 -2.25943E+00 -2.30755E+00 -2.34961E+00
  -2.38606E+00 -2.41757E+00 -2.44498E+00 -2.46901E+00 -2.48999E+00 -2.50794E+00 -2.52299E+00 -2.53560E+00 -2.54631E+00 -2.55541E+00
  -2.56287E+00 -2.56855E+00 -2.57255E+00 -2.57529E+00 -2.57710E+00 -2.57804E+00 -2.57789E+00 -2.57654E+00 -2.57420E+00 -2.57123E+00
  -2.56782E+00 -2.56382E+00 -2.55901E+00 -2.55335E+00 -2.54713E+00 -2.54063E+00 -2.53388E+00 -2.52665E+00 -2.51875E+00 -2.51030E+00
  -2.50158E+00 -2.49278E+00 -2.48378E+00 -2.47431E+00 -2.46429E+00 -2.45394E+00 -2.44354E+00 -2.43313E+00 -2.42249E+00 -2.41141E+00
  -2.39992E+00 -2.38832E+00 -2.37678E+00 -2.36522E+00 -2.35337E+00 -2.34111E+00 -2.32862E+00 -2.31616E+00 -2.30381E+00 -2.29137E+00
  -2.27860E+00 -2.26551E+00 -2.25235E+00 -2.23933E+00 -2.22637E+00 -2.21324E+00 -2.19978E+00 -2.18612E+00
 NY background values follow
     1.183E+01    1.175E+01    1.167E+01    1.158E+01    1.150E+01    1.142E+01    1.134E+01    1.125E+01    1.117E+01    1.109E+01
     1.100E+01    1.092E+01    1.084E+01    1.075E+01    1.067E+01    1.059E+01    1.051E+01    1.042E+01    1.034E+01    1.026E+01
     1.017E+01    1.009E+01    1.001E+01    9.926E+00    9.844E+00    9.761E+00    9.678E+00    9.596E+00    9.513E+00    9.431E+00
     9.348E+00    9.266E+00    9.183E+00    9.101E+00    9.019E+00    8.936E+00    8.854E+00    8.772E+00    8.690E+00    8.607E+00
     8.525E+00    8.443E+00    8.361E+00    8.280E+00    8.198E+00    8.116E+00    8.034E+00    7.952E+00    7.871E+00    7.789E+00
     7.708E+00    7.626E+00    7.545E+00    7.464E+00    7.383E+00    7.302E+00    7.221E+00    7.140E+00    7.059E+00    6.978E+00
     6.898E+00    6.817E+00    6.737E+00    6.657E+00    6.576E+00    6.496E+00    6.416E+00    6.337E+00    6.257E+00    6.177E+00
     6.098E+00    6.019E+00    5.939E+00    5.860E+00    5.781E+00    5.703E+00    5.624E+00    5.546E+00    5.467E+00    5.389E+00
     5.311E+00    5.233E+00    5.156E+00    5.078E+00    5.001E+00    4.923E+00    4.846E+00    4.770E+00    4.693E+00    4.616E+00
     4.540E+00    4.464E+00    4.388E+00    4.312E+00    4.237E+00    4.162E+00    4.086E+00    4.011E+00    3.937E+00    3.862E+00
     3.788E+00    3.714E+00    3.640E+00    3.566E+00    3.492E+00    3.419E+00    3.346E+00    3.273E+00    3.200E+00    3.128E+00
     3.056E+00    2.984E+00    2.912E+00    2.840E+00    2.769E+00    2.698E+00    2.627E+00    2.556E+00    2.485E+00    2.415E+00
     2.345E+00    2.275E+00    2.206E+00    2.136E+00    2.067E+00    1.998E+00    1.930E+00    1.861E+00    1.793E+00    1.725E+00
     1.658E+00    1.590E+00    1.523E+00    1.456E+00    1.390E+00    1.323E+00    1.257E+00    1.191E+00    1.125E+00    1.060E+00
     9.949E-01    9.301E-01    8.655E-01    8.012E-01    7.372E-01    6.735E-01    6.101E-01    5.470E-01    4.842E-01    4.216E-01
     3.594E-01    2.975E-01    2.360E-01    1.747E-01    1.138E-01    5.317E-02   -7.094E-03   -6.702E-02   -1.266E-01   -1.858E-01
    -2.447E-01   -3.033E-01   -3.615E-01   -4.193E-01   -4.767E-01   -5.338E-01   -5.905E-01   -6.468E-01   -7.028E-01   -7.583E-01
    -8.135E-01   -8.682E-01   -9.226E-01   -9.766E-01   -1.030E+00   -1.083E+00   -1.136E+00   -1.188E+00   -1.240E+00   -1.292E+00
    -1.343E+00   -1.393E+00   -1.443E+00   -1.493E+00   -1.542E+00   -1.591E+00   -1.640E+00   -1.688E+00   -1.735E+00   -1.782E+00
    -1.829E+00   -1.875E+00   -1.921E+00   -1.966E+00   -2.011E+00   -2.056E+00   -2.100E+00   -2.144E+00   -2.187E+00   -2.230E+00
    -2.273E+00   -2.315E+00   -2.356E+00   -2.398E+00   -2.439E+00   -2.479E+00   -2.519E+00   -2.559E+00   -2.598E+00   -2.637E+00
    -2.675E+00   -2.713E+00   -2.751E+00   -2.788E+00   -2.825E+00   -2.862E+00   -2.898E+00   -2.934E+00   -2.969E+00   -3.004E+00
    -3.039E+00   -3.073E+00   -3.107E+00   -3.140E+00   -3.173E+00   -3.206E+00   -3.238E+00   -3.270E+00   -3.302E+00   -3.333E+00
    -3.364E+00   -3.394E+00   -3.425E+00   -3.454E+00   -3.484E+00   -3.513E+00   -3.542E+00   -3.570E+00   -3.598E+00   -3.625E+00
    -3.653E+00   -3.680E+00   -3.706E+00   -3.732E+00   -3.758E+00   -3.784E+00   -3.809E+00   -3.833E+00   -3.858E+00   -3.882E+00
    -3.906E+00   -3.929E+00   -3.952E+00   -3.975E+00   -3.997E+00   -4.019E+00   -4.041E+00   -4.062E+00   -4.083E+00   -4.103E+00
    -4.124E+00   -4.144E+00   -4.163E+00   -4.182E+00   -4.201E+00   -4.220E+00   -4.238E+00   -4.256E+00   -4.273E+00   -4.291E+00
    -4.308E+00   -4.324E+00   -4.340E+00   -4.356E+00   -4.372E+00   -4.387E+00   -4.402E+00   -4.417E+00   -4.431E+00   -4.445E+00
    -4.458E+00   -4.472E+00   -4.485E+00   -4.497E+00   -4.510E+00   -4.522E+00   -4.534E+00   -4.545E+00   -4.556E+00   -4.567E+00
    -4.578E+00   -4.588E+00   -4.598E+00   -4.607E+00   -4.617E+00   -4.626E+00   -4.634E+00   -4.643E+00   -4.651E+00   -4.659E+00
    -4.666E+00   -4.674E+00   -4.680E+00   -4.687E+00   -4.694E+00   -4.700E+00   -4.705E+00   -4.711E+00   -4.716E+00   -4.721E+00
    -4.726E+00   -4.730E+00   -4.735E+00   -4.738E+00   -4.742E+00   -4.745E+00   -4.748E+00   -4.751E+00   -4.754E+00   -4.756E+00
    -4.758E+00   -4.760E+00   -4.761E+00   -4.762E+00   -4.763E+00   -4.764E+00   -4.765E+00   -4.765E+00   -4.765E+00   -4.764E+00
    -4.764E+00   -4.763E+00   -4.762E+00   -4.761E+00   -4.759E+00   -4.757E+00   -4.755E+00   -4.753E+00   -4.750E+00   -4.748E+00
    -4.745E+00   -4.741E+00   -4.738E+00   -4.734E+00   -4.730E+00   -4.726E+00   -4.722E+00   -4.717E+00   -4.712E+00   -4.707E+00
    -4.702E+00   -4.696E+00   -4.691E+00   -4.685E+00   -4.678E+00   -4.672E+00   -4.665E+00   -4.658E+00   -4.651E+00   -4.644E+00
    -4.637E+00   -4.629E+00   -4.621E+00   -4.613E+00   -4.604E+00   -4.596E+00   -4.587E+00   -4.578E+00   -4.569E+00   -4.560E+00
    -4.550E+00   -4.541E+00   -4.531E+00   -4.521E+00   -4.510E+00   -4.500E+00   -4.489E+00   -4.478E+00   -4.468E+00   -4.456E+00
    -4.445E+00   -4.434E+00   -4.422E+00   -4.410E+00   -4.398E+00   -4.386E+00   -4.374E+00   -4.362E+00   -4.349E+00   -4.336E+00
    -4.324E+00   -4.311E+00   -4.297E+00   -4.284E+00   -4.271E+00   -4.257E+00   -4.244E+00   -4.230E+00   -4.216E+00   -4.202E+00
    -4.188E+00   -4.174E+00   -4.159E+00   -4.145E+00   -4.130E+00   -4.116E+00   -4.101E+00   -4.086E+00   -4.071E+00   -4.056E+00
    -4.041E+00   -4.026E+00   -4.010E+00   -3.995E+00   -3.979E+00   -3.964E+00   -3.948E+00   -3.932E+00   -3.917E+00   -3.901E+00
    -3.885E+00   -3.869E+00   -3.853E+00   -3.836E+00   -3.820E+00   -3.804E+00   -3.787E+00   -3.771E+00   -3.754E+00   -3.738E+00
    -3.721E+00   -3.704E+00   -3.688E+00   -3.671E+00   -3.654E+00   -3.637E+00   -3.620E+00   -3.603E+00   -3.586E+00   -3.569E+00
    -3.552E+00   -3.535E+00   -3.517E+00   -3.500E+00   -3.483E+00   -3.466E+00   -3.448E+00   -3.431E+00   -3.414E+00   -3.396E+00
    -3.379E+00   -3.362E+00   -3.344E+00   -3.327E+00   -3.309E+00   -3.292E+00   -3.274E+00   -3.257E+00   -3.239E+00   -3.222E+00
    -3.204E+00   -3.187E+00   -3.169E+00   -3.151E+00   -3.134E+00   -3.116E+00   -3.099E+00   -3.081E+00   -3.063E+00   -3.046E+00
    -3.028E+00   -3.010E+00   -2.993E+00   -2.975E+00   -2.957E+00   -2.940E+00   -2.922E+00   -2.904E+00   -2.887E+00   -2.869E+00
    -2.851E+00   -2.834E+00   -2.816E+00   -2.798E+00   -2.781E+00   -2.763E+00   -2.745E+00   -2.727E+00   -2.710E+00   -2.692E+00
    -2.674E+00   -2.657E+00   -2.639E+00   -2.621E+00   -2.603E+00   -2.586E+00   -2.568E+00   -2.550E+00
 Ala      Conc. = 1.29E+02
