 LCModel (Version 6.3-1L) Copyright: S.W. Provencher.          Ref.: Magn. Reson. Med. 30:672-679 (1993).                
 Slice#2 Row#11 Col#10  K_02_press_1_raw_act
 36 lines in following concentration table = NCONC+1
    Conc.  %SD /Cr+PCr  Metabolite                                         
  114.887 103% 5.2E-02 Ala                                                 
    0.000 999%   0.000 Asp                                                 
  797.559  31%   0.359 Cr                                                  
 1.42E+03  18%   0.641 PCr                                                 
    0.000 999%   0.000 GABA                                                
    0.000 999%   0.000 Glc                                                 
 1.08E+03  23%   0.485 Gln                                                 
 2.10E+03  13%   0.946 Glu                                                 
  895.133   3%   0.403 GPC                                                 
    0.000 999%   0.000 PCh                                                 
  591.740  13%   0.267 GSH                                                 
 2.22E+03  13%   1.002 Ins                                                 
  372.302  38%   0.168 Lac                                                 
 3.44E+03   5%   1.551 NAA                                                 
   42.823 380% 1.9E-02 NAAG                                                
  222.339  15%   0.100 Scyllo                                              
    0.000 999%   0.000 Tau                                                 
  413.699  30%   0.186 -CrCH2                                              
  895.133   3%   0.403 GPC+PCh                                             
 3.48E+03   3%   1.570 NAA+NAAG                                            
 2.22E+03   3%   1.000 Cr+PCr                                              
 3.17E+03  12%   1.430 Glu+Gln                                             
  176.466 659% 8.0E-02 Lip13a                                              
  492.128 141%   0.222 Lip13b                                              
   70.577 348% 3.2E-02 Lip09                                               
 1.96E+03  17%   0.883 MM09                                                
  150.142 102% 6.8E-02 Lip20                                               
 4.52E+03  11%   2.039 MM20                                                
  551.509  46%   0.249 MM12                                                
 1.59E+03  28%   0.717 MM14                                                
  779.410  38%   0.351 MM17                                                
  668.593  96%   0.301 Lip13a+Lip13b                                       
 2.81E+03  20%   1.267 MM14+Lip13a+Lip13b+MM12                             
 2.03E+03  14%   0.915 MM09+Lip09                                          
 4.67E+03  10%   2.106 MM20+Lip20                                          
   6 lines in following misc. output table
  FWHM = 0.046 ppm    S/N =  18                                            
  Data shift = 0.015 ppm                                                   
  Ph: -39 deg      -9.8 deg/ppm                                            
  alphaB,S = 7.0E-01,   8.1E+01                                            
   14 spline knots.   Ns = 7(1)                                            
  (13) 5 infls.   (13) 3 extrs.                                            
  498 points on ppm-axis = NY
      4.000000     3.992357     3.984714     3.977070     3.969427     3.961784     3.954141     3.946497     3.938854     3.931211
      3.923568     3.915925     3.908281     3.900638     3.892995     3.885352     3.877708     3.870065     3.862422     3.854779
      3.847136     3.839492     3.831849     3.824206     3.816563     3.808919     3.801276     3.793633     3.785990     3.778347
      3.770703     3.763060     3.755417     3.747774     3.740130     3.732487     3.724844     3.717201     3.709558     3.701914
      3.694271     3.686628     3.678985     3.671341     3.663698     3.656055     3.648412     3.640769     3.633125     3.625482
      3.617839     3.610196     3.602552     3.594909     3.587266     3.579623     3.571980     3.564336     3.556693     3.549050
      3.541407     3.533763     3.526120     3.518477     3.510834     3.503191     3.495547     3.487904     3.480261     3.472618
      3.464974     3.457331     3.449688     3.442045     3.434402     3.426758     3.419115     3.411472     3.403829     3.396185
      3.388542     3.380899     3.373256     3.365613     3.357969     3.350326     3.342683     3.335040     3.327396     3.319753
      3.312110     3.304467     3.296824     3.289180     3.281537     3.273894     3.266251     3.258607     3.250964     3.243321
      3.235678     3.228034     3.220391     3.212748     3.205105     3.197462     3.189818     3.182175     3.174532     3.166889
      3.159245     3.151602     3.143959     3.136316     3.128673     3.121029     3.113386     3.105743     3.098100     3.090456
      3.082813     3.075170     3.067527     3.059884     3.052240     3.044597     3.036954     3.029311     3.021667     3.014024
      3.006381     2.998738     2.991095     2.983451     2.975808     2.968165     2.960522     2.952878     2.945235     2.937592
      2.929949     2.922306     2.914662     2.907019     2.899376     2.891733     2.884089     2.876446     2.868803     2.861160
      2.853517     2.845873     2.838230     2.830587     2.822944     2.815300     2.807657     2.800014     2.792371     2.784728
      2.777084     2.769441     2.761798     2.754155     2.746511     2.738868     2.731225     2.723582     2.715939     2.708295
      2.700652     2.693009     2.685366     2.677722     2.670079     2.662436     2.654793     2.647150     2.639506     2.631863
      2.624220     2.616577     2.608933     2.601290     2.593647     2.586004     2.578361     2.570717     2.563074     2.555431
      2.547788     2.540144     2.532501     2.524858     2.517215     2.509572     2.501928     2.494285     2.486642     2.478999
      2.471355     2.463712     2.456069     2.448426     2.440783     2.433139     2.425496     2.417853     2.410210     2.402566
      2.394923     2.387280     2.379637     2.371994     2.364350     2.356707     2.349064     2.341421     2.333777     2.326134
      2.318491     2.310848     2.303205     2.295561     2.287918     2.280275     2.272632     2.264988     2.257345     2.249702
      2.242059     2.234416     2.226772     2.219129     2.211486     2.203843     2.196199     2.188556     2.180913     2.173270
      2.165627     2.157983     2.150340     2.142697     2.135054     2.127410     2.119767     2.112124     2.104481     2.096838
      2.089194     2.081551     2.073908     2.066265     2.058621     2.050978     2.043335     2.035692     2.028049     2.020405
      2.012762     2.005119     1.997476     1.989833     1.982190     1.974546     1.966903     1.959260     1.951617     1.943974
      1.936331     1.928688     1.921045     1.913402     1.905759     1.898115     1.890472     1.882829     1.875186     1.867543
      1.859900     1.852257     1.844614     1.836971     1.829327     1.821684     1.814041     1.806398     1.798755     1.791112
      1.783469     1.775826     1.768183     1.760540     1.752896     1.745253     1.737610     1.729967     1.722324     1.714681
      1.707038     1.699395     1.691752     1.684108     1.676465     1.668822     1.661179     1.653536     1.645893     1.638250
      1.630607     1.622964     1.615321     1.607677     1.600034     1.592391     1.584748     1.577105     1.569462     1.561819
      1.554176     1.546533     1.538890     1.531246     1.523603     1.515960     1.508317     1.500674     1.493031     1.485388
      1.477745     1.470102     1.462458     1.454815     1.447172     1.439529     1.431886     1.424243     1.416600     1.408957
      1.401314     1.393671     1.386027     1.378384     1.370741     1.363098     1.355455     1.347812     1.340169     1.332526
      1.324883     1.317240     1.309596     1.301953     1.294310     1.286667     1.279024     1.271381     1.263738     1.256095
      1.248452     1.240808     1.233165     1.225522     1.217879     1.210236     1.202593     1.194950     1.187307     1.179664
      1.172021     1.164377     1.156734     1.149091     1.141448     1.133805     1.126162     1.118519     1.110876     1.103233
      1.095590     1.087946     1.080303     1.072660     1.065017     1.057374     1.049731     1.042088     1.034445     1.026802
      1.019158     1.011515     1.003872     0.996229     0.988586     0.980943     0.973300     0.965657     0.958014     0.950371
      0.942727     0.935084     0.927441     0.919798     0.912155     0.904512     0.896869     0.889226     0.881583     0.873940
      0.866296     0.858653     0.851010     0.843367     0.835724     0.828081     0.820438     0.812795     0.805152     0.797508
      0.789865     0.782222     0.774579     0.766936     0.759293     0.751650     0.744007     0.736364     0.728721     0.721077
      0.713434     0.705791     0.698148     0.690505     0.682862     0.675219     0.667576     0.659933     0.652290     0.644646
      0.637003     0.629360     0.621717     0.614074     0.606431     0.598788     0.591145     0.583502     0.575858     0.568215
      0.560572     0.552929     0.545286     0.537643     0.530000     0.522357     0.514714     0.507071     0.499427     0.491784
      0.484141     0.476498     0.468855     0.461212     0.453569     0.445925     0.438282     0.430639     0.422996     0.415353
      0.407710     0.400067     0.392424     0.384780     0.377137     0.369494     0.361851     0.354208     0.346565     0.338922
      0.331278     0.323635     0.315992     0.308349     0.300706     0.293063     0.285420     0.277777     0.270133     0.262490
      0.254847     0.247204     0.239561     0.231918     0.224275     0.216631     0.208988     0.201345
 NY phased data points follow
  -3.79435E+01 -3.72428E+01 -3.57933E+01 -3.26971E+01 -3.02734E+01 -2.25178E+01 -2.25857E+01 -1.51748E+01 -5.42621E+00  1.54112E+00
   4.01029E+00  4.36580E+00  4.07161E+00 -8.12066E+00 -1.11433E+01 -2.00974E+01 -2.61567E+01 -3.19067E+01 -3.33107E+01 -2.95082E+01
  -3.20405E+01 -3.53080E+01 -3.18085E+01 -2.90951E+01 -2.99222E+01 -2.85852E+01 -2.69997E+01 -2.69335E+01 -2.36466E+01 -2.60957E+01
  -2.04350E+01 -1.73190E+01 -1.69303E+01 -2.18040E+01 -2.23255E+01 -2.33227E+01 -2.50856E+01 -1.89139E+01 -2.35920E+01 -2.45750E+01
  -1.93227E+01 -2.12197E+01 -2.24847E+01 -1.74514E+01 -1.80109E+01 -1.41495E+01 -1.40467E+01 -7.31796E+00 -9.36651E+00 -1.24076E+01
  -1.45103E+01 -1.76029E+01 -1.99380E+01 -2.37392E+01 -2.20033E+01 -1.97402E+01 -1.92520E+01 -2.14680E+01 -2.27959E+01 -1.86555E+01
  -2.56819E+01 -2.77882E+01 -3.20558E+01 -3.24651E+01 -3.16080E+01 -3.39216E+01 -3.31025E+01 -3.01075E+01 -3.12577E+01 -2.94550E+01
  -2.68416E+01 -2.78517E+01 -2.79087E+01 -2.45868E+01 -2.49407E+01 -2.48480E+01 -2.48208E+01 -2.47642E+01 -2.43214E+01 -2.67390E+01
  -2.23866E+01 -2.23194E+01 -2.30470E+01 -2.41021E+01 -2.36063E+01 -2.10937E+01 -2.11783E+01 -1.87946E+01 -2.02463E+01 -1.78807E+01
  -1.70136E+01 -1.58208E+01 -1.64097E+01 -1.41133E+01 -1.30960E+01 -6.30961E+00 -6.73641E+00 -4.57960E+00  2.11434E+00  9.99796E+00
   2.37480E+01  3.80552E+01  4.96961E+01  5.54516E+01  5.05863E+01  3.74049E+01  2.03666E+01  6.03912E+00  1.15217E+00 -8.64072E+00
  -1.18634E+01 -1.44561E+01 -1.41653E+01 -1.88156E+01 -1.75149E+01 -2.05705E+01 -1.64574E+01 -1.54043E+01 -1.39265E+01 -1.22465E+01
  -8.53974E+00 -6.60937E+00 -3.46278E+00  3.54007E+00  1.44755E+01  3.53881E+01  5.18800E+01  5.36708E+01  4.96010E+01  4.19577E+01
   2.60701E+01  2.05326E+01  7.54361E+00 -1.05389E+00 -1.17939E+01 -1.20754E+01 -1.50858E+01 -1.64536E+01 -2.06662E+01 -1.77389E+01
  -1.63025E+01 -1.63832E+01 -1.81781E+01 -1.47549E+01 -1.52259E+01 -1.66360E+01 -1.55458E+01 -1.81320E+01 -1.56118E+01 -1.74430E+01
  -1.43876E+01 -1.59557E+01 -1.48228E+01 -1.51242E+01 -1.85779E+01 -1.77993E+01 -1.87488E+01 -1.74447E+01 -1.18144E+01 -1.71890E+01
  -1.53078E+01 -1.95447E+01 -2.16859E+01 -2.35305E+01 -2.09490E+01 -1.91642E+01 -2.19774E+01 -2.19666E+01 -2.74048E+01 -2.65712E+01
  -2.75129E+01 -2.82848E+01 -2.90214E+01 -3.64087E+01 -3.60392E+01 -3.93320E+01 -3.43955E+01 -3.48827E+01 -2.86540E+01 -2.90423E+01
  -2.91042E+01 -2.95539E+01 -2.48032E+01 -2.47544E+01 -2.49311E+01 -2.69827E+01 -2.69792E+01 -2.69470E+01 -2.34857E+01 -1.98141E+01
  -1.21248E+01 -1.70640E+01 -1.30923E+01 -1.00769E+01 -1.44052E+01 -1.78984E+01 -1.64887E+01 -1.74490E+01 -1.95027E+01 -1.60987E+01
  -1.87425E+01 -1.52050E+01 -1.42814E+01 -1.13116E+01 -9.79259E+00 -9.22431E+00 -1.30805E+01 -1.18891E+01 -1.76549E+01 -1.70153E+01
  -1.71450E+01 -1.57298E+01 -1.60056E+01 -7.90834E+00  5.01805E-01  3.31612E+00  2.31738E+00  1.74879E+00  7.70344E-01 -3.87935E+00
  -1.14300E+01 -1.83814E+01 -1.79088E+01 -1.41414E+01 -9.43126E+00 -8.58304E+00 -5.05917E+00 -3.45491E+00 -1.69013E+00 -5.00956E+00
   1.69331E+00 -2.47594E+00 -6.08481E+00  2.41429E+00 -3.49013E+00  2.68674E-01 -3.43912E+00 -3.44609E+00 -1.38997E+00 -8.99369E-01
  -7.40585E+00 -5.28088E+00 -8.65079E+00 -6.50299E+00 -7.22976E+00 -2.63632E+00  2.90425E+00  4.65174E+00  9.53298E+00  7.88572E+00
   7.57717E+00  9.18039E+00  2.01266E+01  2.76651E+01  3.41058E+01  3.67750E+01  4.02374E+01  5.50169E+01  8.09725E+01  1.04690E+02
   1.18296E+02  1.15614E+02  9.38226E+01  7.84740E+01  5.79278E+01  3.92429E+01  2.88777E+01  1.80906E+01  1.19596E+01  3.99856E+00
   2.56798E+00 -1.55606E+00 -6.92229E-01 -3.09003E+00 -1.67082E+00 -2.55280E+00 -2.48830E+00 -4.76385E+00 -4.73665E+00 -2.10940E+00
  -2.59318E+00  1.53421E-01 -4.45840E+00 -2.59497E+00 -8.15600E+00 -6.03929E+00 -7.34704E+00 -4.96766E+00 -7.58697E+00 -5.47148E+00
  -4.38768E+00 -6.20442E+00 -4.50469E+00 -2.59180E+00 -2.26586E+00 -5.01686E+00 -6.76952E+00 -5.66769E+00 -3.12034E+00 -4.99143E+00
  -5.14279E+00 -5.11488E+00 -8.46795E+00 -2.08452E+00 -5.73426E+00 -6.52399E+00 -5.47520E+00 -6.74055E+00 -3.22748E+00 -2.88484E+00
  -3.33005E+00 -1.35614E+00 -1.25994E+00  8.86619E-01  1.74118E+00  3.98508E+00  1.51275E+00  1.91667E+00  1.74064E+00  2.92029E+00
   3.03710E+00 -2.49251E+00  1.26670E+00 -2.19469E+00 -2.38927E+00 -2.56093E+00 -3.21704E+00 -1.99125E+00 -6.99058E-01  8.04785E-01
   9.20640E-01  1.92900E+00  6.98436E-01 -1.31685E+00  1.68632E+00  1.31573E-01  2.01335E+00  2.37545E+00  2.01871E+00  2.25857E+00
   7.89987E+00  5.21562E+00  5.99750E+00  7.28691E+00  9.74422E+00  5.54452E+00  4.90823E+00  2.53468E+00  4.40176E+00  1.65709E+00
  -6.90963E-01  1.15676E+00  4.45421E+00  4.93409E-01  3.82826E+00  3.55967E+00  5.22849E+00  8.17567E+00  5.45700E+00  5.18175E+00
   6.02488E+00  5.32912E+00  2.01828E+00  2.06645E+00  1.97306E+00  4.88677E-01  3.32350E-02  2.46361E+00  3.09944E+00 -1.55535E+00
   1.52320E+00  1.64242E+00 -3.59640E+00  1.44534E+00  1.00936E+00 -4.58090E+00 -4.03758E+00 -3.10071E+00 -6.85139E-01 -2.22636E-01
  -5.83712E+00 -4.95910E+00 -2.98131E+00 -2.66551E+00 -4.55326E+00 -1.02197E+00 -1.98203E+00 -6.74838E-01 -1.87203E+00  8.25719E-01
   1.75407E+00  5.23015E+00  1.88801E+00  6.40896E+00  4.92917E+00  7.75291E+00  4.92828E+00  4.76602E+00  4.33179E+00  5.01567E+00
   7.58534E+00  3.95737E+00  4.28390E+00  6.23425E+00  6.44446E+00  8.99963E+00  9.64991E+00  8.89678E+00  1.17749E+01  1.15258E+01
   1.31231E+01  1.16836E+01  1.07037E+01  1.18348E+01  9.58044E+00  8.18237E+00  9.70817E+00  4.65971E+00  6.61877E+00  7.08668E+00
   3.06907E+00  6.30267E+00  4.24849E+00  2.45104E+00  3.12523E+00  1.01041E+00  1.39943E-01  2.89234E+00  4.15093E+00  1.19538E+00
   2.97493E-02  1.88358E+00  1.92122E+00  2.15743E+00 -3.56940E-01  2.82658E+00  1.66013E+00 -2.87562E+00 -2.78475E+00 -2.80161E+00
  -3.23003E+00  1.13640E+00  4.62349E-01  5.71705E-01 -1.86216E+00 -3.19704E+00 -2.77170E+00  1.44971E+00 -3.97919E+00 -5.50977E-01
  -7.01718E-01 -9.87207E-01 -4.90306E+00 -1.60703E+00  4.62755E-01 -8.12203E-01  9.16116E-01  1.49105E+00 -3.35813E-01 -3.62970E-01
   3.31649E-01  4.39599E-01 -2.70464E+00 -1.26633E+00 -1.23474E+00 -2.29425E+00  1.54453E+00  4.97581E-01 -1.53956E+00 -1.64064E+00
  -3.59373E-01 -2.15767E+00 -1.88269E+00 -8.53394E-01  3.25930E+00 -2.62247E+00  3.70511E+00 -3.71475E+00  1.68566E-01 -7.01395E-01
  -2.53134E+00  1.16099E+00  4.49912E+00  3.82818E+00  5.12569E-01  4.13171E-01 -2.05135E+00 -9.65218E-01  3.70560E+00 -3.18898E+00
   1.42742E+00 -7.74162E-01  1.80998E+00 -1.00091E+00 -2.14621E+00  2.25531E+00 -5.01927E+00  1.73513E+00
 NY points of the fit to the data follow
  -3.69644E+01 -3.65892E+01 -3.41223E+01 -3.11355E+01 -2.80689E+01 -2.51124E+01 -2.08068E+01 -1.40387E+01 -5.82194E+00  1.28821E+00
   4.73845E+00  3.64993E+00 -8.79103E-01 -6.93874E+00 -1.28219E+01 -1.77096E+01 -2.17407E+01 -2.52795E+01 -2.79393E+01 -2.97073E+01
  -3.05110E+01 -3.11580E+01 -3.11206E+01 -3.00868E+01 -2.96465E+01 -2.98296E+01 -2.96225E+01 -2.79556E+01 -2.48326E+01 -2.11312E+01
  -1.76959E+01 -1.54952E+01 -1.51696E+01 -1.63797E+01 -1.86039E+01 -2.10825E+01 -2.34890E+01 -2.60692E+01 -2.80066E+01 -2.80574E+01
  -2.66117E+01 -2.50575E+01 -2.39486E+01 -2.24344E+01 -1.97458E+01 -1.62200E+01 -1.30074E+01 -1.14038E+01 -1.21146E+01 -1.47584E+01
  -1.84281E+01 -2.18142E+01 -2.40591E+01 -2.54880E+01 -2.64498E+01 -2.70160E+01 -2.68338E+01 -2.58396E+01 -2.44600E+01 -2.32385E+01
  -2.26405E+01 -2.29472E+01 -2.40102E+01 -2.54293E+01 -2.64563E+01 -2.68659E+01 -2.68913E+01 -2.66086E+01 -2.59697E+01 -2.50829E+01
  -2.41312E+01 -2.34008E+01 -2.30744E+01 -2.31462E+01 -2.34873E+01 -2.39257E+01 -2.43028E+01 -2.45551E+01 -2.47111E+01 -2.49501E+01
  -2.46024E+01 -2.35393E+01 -2.31732E+01 -2.32478E+01 -2.28403E+01 -2.14747E+01 -1.94228E+01 -1.76077E+01 -1.68157E+01 -1.71456E+01
  -1.82978E+01 -1.95753E+01 -2.04051E+01 -2.03842E+01 -1.86122E+01 -1.26703E+01 -6.41242E+00 -3.98798E+00 -9.66534E-01  8.00885E+00
   2.36702E+01  4.12039E+01  5.34581E+01  5.58335E+01  4.86680E+01  3.59571E+01  2.19646E+01  9.59163E+00 -1.30092E-02 -7.68583E+00
  -1.45270E+01 -1.88481E+01 -2.02977E+01 -2.08044E+01 -2.09754E+01 -2.09694E+01 -2.08358E+01 -2.05156E+01 -1.95862E+01 -1.55518E+01
  -7.63694E+00 -3.28064E+00 -1.18960E+00  4.63461E+00  1.70988E+01  3.37963E+01  4.83464E+01  5.47320E+01  5.11772E+01  4.07530E+01
   2.80813E+01  1.63411E+01  7.08129E+00 -2.93531E-01 -7.41389E+00 -1.38046E+01 -1.70189E+01 -1.83176E+01 -1.85517E+01 -1.80341E+01
  -1.72230E+01 -1.65459E+01 -1.61489E+01 -1.60765E+01 -1.63159E+01 -1.67072E+01 -1.71315E+01 -1.75757E+01 -1.79871E+01 -1.83549E+01
  -1.86607E+01 -1.89031E+01 -1.91157E+01 -1.94247E+01 -1.98527E+01 -2.00057E+01 -1.99128E+01 -1.97983E+01 -1.99689E+01 -2.07609E+01
  -2.16331E+01 -2.19580E+01 -2.16024E+01 -2.09304E+01 -2.04757E+01 -2.05328E+01 -2.10889E+01 -2.19112E+01 -2.27517E+01 -2.35532E+01
  -2.40038E+01 -2.41582E+01 -2.45448E+01 -2.53298E+01 -2.62159E+01 -2.65525E+01 -2.61794E+01 -2.55026E+01 -2.50667E+01 -2.50746E+01
  -2.52851E+01 -2.50338E+01 -2.44265E+01 -2.38267E+01 -2.34045E+01 -2.30971E+01 -2.24991E+01 -2.11353E+01 -1.90585E+01 -1.67416E+01
  -1.50010E+01 -1.42626E+01 -1.41280E+01 -1.43259E+01 -1.47394E+01 -1.53524E+01 -1.58802E+01 -1.57843E+01 -1.51037E+01 -1.38825E+01
  -1.23249E+01 -1.06582E+01 -9.42252E+00 -8.77917E+00 -8.66470E+00 -9.81783E+00 -1.24212E+01 -1.54748E+01 -1.79688E+01 -1.88918E+01
  -1.89673E+01 -1.83882E+01 -1.64348E+01 -1.28997E+01 -8.73897E+00 -5.63434E+00 -4.35783E+00 -4.55194E+00 -6.35609E+00 -9.94664E+00
  -1.41626E+01 -1.76763E+01 -1.94071E+01 -1.88550E+01 -1.66146E+01 -1.31006E+01 -9.21475E+00 -6.10331E+00 -4.38942E+00 -3.56985E+00
  -2.97139E+00 -2.81693E+00 -3.18371E+00 -3.41163E+00 -3.02758E+00 -2.17196E+00 -9.86004E-01  3.27708E-01  1.31386E+00  1.45476E+00
   4.79032E-01 -1.00670E+00 -2.05538E+00 -2.14195E+00 -1.39418E+00 -2.02317E-02  1.84045E+00  3.68184E+00  5.11662E+00  6.20174E+00
   7.21022E+00  8.51076E+00  1.30263E+01  2.51726E+01  3.43215E+01  3.74341E+01  4.32112E+01  5.83174E+01  8.14937E+01  1.04116E+02
   1.16446E+02  1.13936E+02  9.92343E+01  7.88291E+01  5.83402E+01  4.12591E+01  2.83912E+01  1.75429E+01  7.66961E+00  2.41945E+00
   4.26442E-01 -6.91413E-01 -1.38183E+00 -1.75886E+00 -2.00932E+00 -2.27578E+00 -2.57662E+00 -2.94110E+00 -3.36507E+00 -3.80714E+00
  -4.22622E+00 -4.61639E+00 -4.95257E+00 -5.20857E+00 -5.39818E+00 -5.54624E+00 -5.66911E+00 -5.76866E+00 -5.83646E+00 -5.87311E+00
  -5.88469E+00 -5.86482E+00 -5.81157E+00 -5.72472E+00 -5.60645E+00 -5.45926E+00 -5.28401E+00 -5.08527E+00 -4.86628E+00 -4.62723E+00
  -4.36939E+00 -4.09585E+00 -3.81165E+00 -3.52338E+00 -3.23750E+00 -2.95955E+00 -2.69380E+00 -2.44442E+00 -2.21504E+00 -2.00775E+00
  -1.82314E+00 -1.66124E+00 -1.52034E+00 -1.39819E+00 -1.29123E+00 -1.19420E+00 -1.09984E+00 -9.99372E-01 -8.80590E-01 -7.20572E-01
  -4.86573E-01 -3.01258E-01 -2.20534E-01 -6.75150E-02  2.15854E-01  5.28057E-01  6.98010E-01  6.11654E-01  3.96955E-01  2.39619E-01
   8.90062E-02 -1.08876E-02  6.91333E-02  4.31980E-01  1.06258E+00  1.83442E+00  2.62277E+00  3.29300E+00  3.78359E+00  4.22590E+00
   4.75716E+00  4.90615E+00  4.74304E+00  4.81693E+00  5.23354E+00  5.66302E+00  5.52013E+00  4.61429E+00  3.55428E+00  2.39667E+00
   1.20207E+00  4.06340E-01  4.46484E-01  1.45015E+00  3.06003E+00  4.72120E+00  6.07883E+00  6.76229E+00  6.70311E+00  6.14636E+00
   5.36000E+00  4.53232E+00  3.66215E+00  2.69502E+00  1.87201E+00  1.24132E+00  7.30574E-01  3.08328E-01 -4.25158E-02 -3.35105E-01
  -5.79941E-01 -7.85488E-01 -9.57748E-01 -1.10121E+00 -1.21879E+00 -1.31253E+00 -1.38305E+00 -1.43012E+00 -1.45252E+00 -1.44904E+00
  -1.41815E+00 -1.35844E+00 -1.26783E+00 -1.14415E+00 -9.84831E-01 -7.87776E-01 -5.50775E-01 -2.71895E-01  5.11497E-02  4.20193E-01
   8.36742E-01  1.30111E+00  1.81289E+00  2.37047E+00  2.97134E+00  3.61119E+00  4.28407E+00  4.98174E+00  5.69448E+00  6.41076E+00
   7.11800E+00  7.80207E+00  8.44819E+00  9.04100E+00  9.56601E+00  1.00097E+01  1.03607E+01  1.06093E+01  1.07489E+01  1.07755E+01
   1.06891E+01  1.04928E+01  1.01932E+01  9.79927E+00  9.32248E+00  8.77595E+00  8.17446E+00  7.53307E+00  6.86688E+00  6.18980E+00
   5.51485E+00  4.85339E+00  4.21545E+00  3.60880E+00  3.03945E+00  2.51110E+00  2.02617E+00  1.58547E+00  1.18895E+00  8.35179E-01
   5.22102E-01  2.46804E-01  6.49308E-03 -2.01931E-01 -3.81283E-01 -5.34751E-01 -6.65190E-01 -7.75523E-01 -8.67965E-01 -9.44699E-01
  -1.00744E+00 -1.05814E+00 -1.09831E+00 -1.12947E+00 -1.15248E+00 -1.16836E+00 -1.17780E+00 -1.18185E+00 -1.18111E+00 -1.17626E+00
  -1.16748E+00 -1.15528E+00 -1.13991E+00 -1.12202E+00 -1.10176E+00 -1.07945E+00 -1.05499E+00 -1.02871E+00 -1.00074E+00 -9.71508E-01
  -9.40978E-01 -9.09291E-01 -8.76287E-01 -8.42264E-01 -8.07278E-01 -7.71644E-01 -7.35196E-01 -6.98022E-01 -6.59969E-01 -6.21351E-01
  -5.82172E-01 -5.42648E-01 -5.02530E-01 -4.61905E-01 -4.20655E-01 -3.79104E-01 -3.37197E-01 -2.95073E-01 -2.52452E-01 -2.09461E-01
  -1.66023E-01 -1.22449E-01 -7.86118E-02 -3.45869E-02  9.90400E-03  5.46845E-02  9.98029E-02  1.44987E-01  1.90440E-01  2.36118E-01
   2.82268E-01  3.28664E-01  3.75357E-01  4.22142E-01  4.69288E-01  5.16764E-01  5.64782E-01  6.13090E-01
 NY background values follow
    -4.262E+01   -4.244E+01   -4.226E+01   -4.207E+01   -4.189E+01   -4.170E+01   -4.152E+01   -4.133E+01   -4.115E+01   -4.096E+01
    -4.077E+01   -4.059E+01   -4.041E+01   -4.022E+01   -4.004E+01   -3.985E+01   -3.967E+01   -3.948E+01   -3.930E+01   -3.911E+01
    -3.893E+01   -3.875E+01   -3.856E+01   -3.838E+01   -3.820E+01   -3.802E+01   -3.784E+01   -3.765E+01   -3.747E+01   -3.729E+01
    -3.711E+01   -3.693E+01   -3.675E+01   -3.658E+01   -3.640E+01   -3.622E+01   -3.604E+01   -3.587E+01   -3.569E+01   -3.551E+01
    -3.534E+01   -3.517E+01   -3.499E+01   -3.482E+01   -3.465E+01   -3.448E+01   -3.431E+01   -3.414E+01   -3.397E+01   -3.380E+01
    -3.363E+01   -3.346E+01   -3.330E+01   -3.313E+01   -3.297E+01   -3.280E+01   -3.264E+01   -3.248E+01   -3.232E+01   -3.216E+01
    -3.200E+01   -3.184E+01   -3.168E+01   -3.152E+01   -3.137E+01   -3.121E+01   -3.106E+01   -3.090E+01   -3.075E+01   -3.060E+01
    -3.045E+01   -3.030E+01   -3.015E+01   -3.000E+01   -2.985E+01   -2.971E+01   -2.956E+01   -2.942E+01   -2.928E+01   -2.913E+01
    -2.899E+01   -2.885E+01   -2.871E+01   -2.857E+01   -2.844E+01   -2.830E+01   -2.817E+01   -2.803E+01   -2.790E+01   -2.777E+01
    -2.763E+01   -2.750E+01   -2.738E+01   -2.725E+01   -2.712E+01   -2.699E+01   -2.687E+01   -2.675E+01   -2.662E+01   -2.650E+01
    -2.638E+01   -2.626E+01   -2.614E+01   -2.603E+01   -2.591E+01   -2.580E+01   -2.568E+01   -2.557E+01   -2.546E+01   -2.535E+01
    -2.524E+01   -2.513E+01   -2.502E+01   -2.491E+01   -2.481E+01   -2.471E+01   -2.460E+01   -2.450E+01   -2.440E+01   -2.430E+01
    -2.420E+01   -2.410E+01   -2.401E+01   -2.391E+01   -2.382E+01   -2.373E+01   -2.363E+01   -2.354E+01   -2.345E+01   -2.336E+01
    -2.328E+01   -2.319E+01   -2.311E+01   -2.302E+01   -2.294E+01   -2.286E+01   -2.278E+01   -2.270E+01   -2.262E+01   -2.254E+01
    -2.246E+01   -2.239E+01   -2.231E+01   -2.224E+01   -2.217E+01   -2.209E+01   -2.202E+01   -2.195E+01   -2.188E+01   -2.181E+01
    -2.174E+01   -2.167E+01   -2.160E+01   -2.153E+01   -2.146E+01   -2.139E+01   -2.132E+01   -2.125E+01   -2.118E+01   -2.112E+01
    -2.105E+01   -2.098E+01   -2.091E+01   -2.084E+01   -2.077E+01   -2.070E+01   -2.062E+01   -2.055E+01   -2.048E+01   -2.041E+01
    -2.033E+01   -2.026E+01   -2.018E+01   -2.011E+01   -2.003E+01   -1.995E+01   -1.987E+01   -1.979E+01   -1.971E+01   -1.963E+01
    -1.954E+01   -1.946E+01   -1.937E+01   -1.929E+01   -1.920E+01   -1.911E+01   -1.902E+01   -1.892E+01   -1.883E+01   -1.873E+01
    -1.864E+01   -1.854E+01   -1.845E+01   -1.835E+01   -1.825E+01   -1.815E+01   -1.805E+01   -1.795E+01   -1.785E+01   -1.775E+01
    -1.765E+01   -1.754E+01   -1.744E+01   -1.734E+01   -1.723E+01   -1.713E+01   -1.703E+01   -1.692E+01   -1.682E+01   -1.672E+01
    -1.661E+01   -1.651E+01   -1.640E+01   -1.630E+01   -1.620E+01   -1.609E+01   -1.599E+01   -1.589E+01   -1.579E+01   -1.569E+01
    -1.559E+01   -1.549E+01   -1.539E+01   -1.529E+01   -1.519E+01   -1.509E+01   -1.500E+01   -1.490E+01   -1.481E+01   -1.471E+01
    -1.462E+01   -1.453E+01   -1.444E+01   -1.435E+01   -1.426E+01   -1.417E+01   -1.408E+01   -1.399E+01   -1.391E+01   -1.382E+01
    -1.374E+01   -1.365E+01   -1.357E+01   -1.348E+01   -1.340E+01   -1.332E+01   -1.324E+01   -1.316E+01   -1.308E+01   -1.300E+01
    -1.292E+01   -1.285E+01   -1.277E+01   -1.269E+01   -1.262E+01   -1.254E+01   -1.247E+01   -1.239E+01   -1.232E+01   -1.225E+01
    -1.217E+01   -1.210E+01   -1.203E+01   -1.196E+01   -1.189E+01   -1.182E+01   -1.175E+01   -1.168E+01   -1.161E+01   -1.154E+01
    -1.147E+01   -1.141E+01   -1.134E+01   -1.127E+01   -1.121E+01   -1.114E+01   -1.108E+01   -1.101E+01   -1.095E+01   -1.088E+01
    -1.082E+01   -1.075E+01   -1.069E+01   -1.063E+01   -1.057E+01   -1.050E+01   -1.044E+01   -1.038E+01   -1.032E+01   -1.026E+01
    -1.020E+01   -1.014E+01   -1.008E+01   -1.002E+01   -9.960E+00   -9.902E+00   -9.843E+00   -9.786E+00   -9.728E+00   -9.671E+00
    -9.614E+00   -9.557E+00   -9.501E+00   -9.445E+00   -9.389E+00   -9.334E+00   -9.279E+00   -9.224E+00   -9.170E+00   -9.116E+00
    -9.062E+00   -9.009E+00   -8.956E+00   -8.903E+00   -8.850E+00   -8.798E+00   -8.746E+00   -8.695E+00   -8.643E+00   -8.592E+00
    -8.541E+00   -8.491E+00   -8.441E+00   -8.390E+00   -8.341E+00   -8.291E+00   -8.242E+00   -8.192E+00   -8.143E+00   -8.095E+00
    -8.046E+00   -7.998E+00   -7.949E+00   -7.901E+00   -7.853E+00   -7.805E+00   -7.758E+00   -7.710E+00   -7.663E+00   -7.615E+00
    -7.568E+00   -7.521E+00   -7.474E+00   -7.427E+00   -7.380E+00   -7.333E+00   -7.286E+00   -7.239E+00   -7.192E+00   -7.145E+00
    -7.098E+00   -7.051E+00   -7.004E+00   -6.958E+00   -6.911E+00   -6.864E+00   -6.817E+00   -6.770E+00   -6.722E+00   -6.675E+00
    -6.628E+00   -6.580E+00   -6.533E+00   -6.485E+00   -6.438E+00   -6.390E+00   -6.342E+00   -6.294E+00   -6.246E+00   -6.197E+00
    -6.149E+00   -6.101E+00   -6.052E+00   -6.003E+00   -5.954E+00   -5.905E+00   -5.856E+00   -5.807E+00   -5.757E+00   -5.708E+00
    -5.658E+00   -5.608E+00   -5.558E+00   -5.508E+00   -5.458E+00   -5.407E+00   -5.357E+00   -5.306E+00   -5.255E+00   -5.204E+00
    -5.153E+00   -5.102E+00   -5.050E+00   -4.998E+00   -4.947E+00   -4.895E+00   -4.842E+00   -4.790E+00   -4.737E+00   -4.685E+00
    -4.632E+00   -4.579E+00   -4.525E+00   -4.472E+00   -4.418E+00   -4.365E+00   -4.311E+00   -4.256E+00   -4.202E+00   -4.147E+00
    -4.093E+00   -4.038E+00   -3.983E+00   -3.928E+00   -3.872E+00   -3.817E+00   -3.761E+00   -3.705E+00   -3.649E+00   -3.594E+00
    -3.537E+00   -3.481E+00   -3.425E+00   -3.369E+00   -3.313E+00   -3.256E+00   -3.200E+00   -3.143E+00   -3.087E+00   -3.030E+00
    -2.974E+00   -2.917E+00   -2.861E+00   -2.804E+00   -2.748E+00   -2.691E+00   -2.635E+00   -2.578E+00   -2.522E+00   -2.466E+00
    -2.410E+00   -2.353E+00   -2.297E+00   -2.241E+00   -2.186E+00   -2.130E+00   -2.074E+00   -2.019E+00   -1.963E+00   -1.908E+00
    -1.853E+00   -1.798E+00   -1.743E+00   -1.689E+00   -1.634E+00   -1.580E+00   -1.526E+00   -1.472E+00   -1.418E+00   -1.364E+00
    -1.311E+00   -1.257E+00   -1.204E+00   -1.151E+00   -1.098E+00   -1.045E+00   -9.927E-01   -9.401E-01   -8.877E-01   -8.353E-01
    -7.831E-01   -7.310E-01   -6.790E-01   -6.271E-01   -5.753E-01   -5.236E-01   -4.720E-01   -4.205E-01   -3.691E-01   -3.177E-01
    -2.665E-01   -2.153E-01   -1.642E-01   -1.131E-01   -6.215E-02   -1.124E-02    3.961E-02    9.041E-02    1.411E-01    1.918E-01
     2.425E-01    2.931E-01    3.436E-01    3.941E-01    4.446E-01    4.951E-01    5.455E-01    5.959E-01
 Ala      Conc. = 1.15E+02
