 LCModel (Version 6.3-1L) Copyright: S.W. Provencher.          Ref.: Magn. Reson. Med. 30:672-679 (1993).                
 Slice#3 Row#8 Col#1  K_02_press_1_raw_act
 36 lines in following concentration table = NCONC+1
    Conc.  %SD /Cr+PCr  Metabolite                                         
    0.000 999%   0.000 Ala                                                 
    0.000 999%   0.000 Asp                                                 
    0.000 999%   0.000 Cr                                                  
 1.36E+03   4%   1.000 PCr                                                 
  109.930  58% 8.1E-02 GABA                                                
   72.145  88% 5.3E-02 Glc                                                 
 4.65E+03  14%   3.420 Gln                                                 
 1.64E+03  47%   1.204 Glu                                                 
    0.000 999%   0.000 GPC                                                 
  315.443   9%   0.232 PCh                                                 
    0.000 999%   0.000 GSH                                                 
 1.53E+03  21%   1.123 Ins                                                 
    0.000 999%   0.000 Lac                                                 
    0.000 999%   0.000 NAA                                                 
  285.866  26%   0.210 NAAG                                                
   22.399  86% 1.6E-02 Scyllo                                              
  173.314  59%   0.127 Tau                                                 
  269.857  72%   0.198 -CrCH2                                              
  315.443   9%   0.232 GPC+PCh                                             
  285.866  26%   0.210 NAA+NAAG                                            
 1.36E+03   4%   1.000 Cr+PCr                                              
 6.29E+03  19%   4.624 Glu+Gln                                             
    0.000 999%   0.000 Lip13a                                              
    0.000 999%   0.000 Lip13b                                              
    0.000 999%   0.000 Lip09                                               
  302.300  30%   0.222 MM09                                                
   35.745 133% 2.6E-02 Lip20                                               
  545.247  30%   0.401 MM20                                                
   90.232  44% 6.6E-02 MM12                                                
    7.456 999% 5.5E-03 MM14                                                
  280.207  26%   0.206 MM17                                                
    0.000 999%   0.000 Lip13a+Lip13b                                       
   97.688 141% 7.2E-02 MM14+Lip13a+Lip13b+MM12                             
  302.300  30%   0.222 MM09+Lip09                                          
  580.991  29%   0.427 MM20+Lip20                                          
   6 lines in following misc. output table
  FWHM = 0.214 ppm    S/N =   4                                            
  Data shift = 0.237 ppm                                                   
  Ph:  47 deg      28.3 deg/ppm                                            
  alphaB,S = 1.1E+00,   2.0E+02                                            
    9 spline knots.   Ns = 9(2)                                            
  (15) 4 infls.   ( 9) 1 extrs.                                            
  498 points on ppm-axis = NY
      4.000000     3.992357     3.984714     3.977070     3.969427     3.961784     3.954141     3.946497     3.938854     3.931211
      3.923568     3.915925     3.908281     3.900638     3.892995     3.885352     3.877708     3.870065     3.862422     3.854779
      3.847136     3.839492     3.831849     3.824206     3.816563     3.808919     3.801276     3.793633     3.785990     3.778347
      3.770703     3.763060     3.755417     3.747774     3.740130     3.732487     3.724844     3.717201     3.709558     3.701914
      3.694271     3.686628     3.678985     3.671341     3.663698     3.656055     3.648412     3.640769     3.633125     3.625482
      3.617839     3.610196     3.602552     3.594909     3.587266     3.579623     3.571980     3.564336     3.556693     3.549050
      3.541407     3.533763     3.526120     3.518477     3.510834     3.503191     3.495547     3.487904     3.480261     3.472618
      3.464974     3.457331     3.449688     3.442045     3.434402     3.426758     3.419115     3.411472     3.403829     3.396185
      3.388542     3.380899     3.373256     3.365613     3.357969     3.350326     3.342683     3.335040     3.327396     3.319753
      3.312110     3.304467     3.296824     3.289180     3.281537     3.273894     3.266251     3.258607     3.250964     3.243321
      3.235678     3.228034     3.220391     3.212748     3.205105     3.197462     3.189818     3.182175     3.174532     3.166889
      3.159245     3.151602     3.143959     3.136316     3.128673     3.121029     3.113386     3.105743     3.098100     3.090456
      3.082813     3.075170     3.067527     3.059884     3.052240     3.044597     3.036954     3.029311     3.021667     3.014024
      3.006381     2.998738     2.991095     2.983451     2.975808     2.968165     2.960522     2.952878     2.945235     2.937592
      2.929949     2.922306     2.914662     2.907019     2.899376     2.891733     2.884089     2.876446     2.868803     2.861160
      2.853517     2.845873     2.838230     2.830587     2.822944     2.815300     2.807657     2.800014     2.792371     2.784728
      2.777084     2.769441     2.761798     2.754155     2.746511     2.738868     2.731225     2.723582     2.715939     2.708295
      2.700652     2.693009     2.685366     2.677722     2.670079     2.662436     2.654793     2.647150     2.639506     2.631863
      2.624220     2.616577     2.608933     2.601290     2.593647     2.586004     2.578361     2.570717     2.563074     2.555431
      2.547788     2.540144     2.532501     2.524858     2.517215     2.509572     2.501928     2.494285     2.486642     2.478999
      2.471355     2.463712     2.456069     2.448426     2.440783     2.433139     2.425496     2.417853     2.410210     2.402566
      2.394923     2.387280     2.379637     2.371994     2.364350     2.356707     2.349064     2.341421     2.333777     2.326134
      2.318491     2.310848     2.303205     2.295561     2.287918     2.280275     2.272632     2.264988     2.257345     2.249702
      2.242059     2.234416     2.226772     2.219129     2.211486     2.203843     2.196199     2.188556     2.180913     2.173270
      2.165627     2.157983     2.150340     2.142697     2.135054     2.127410     2.119767     2.112124     2.104481     2.096838
      2.089194     2.081551     2.073908     2.066265     2.058621     2.050978     2.043335     2.035692     2.028049     2.020405
      2.012762     2.005119     1.997476     1.989833     1.982190     1.974546     1.966903     1.959260     1.951617     1.943974
      1.936331     1.928688     1.921045     1.913402     1.905759     1.898115     1.890472     1.882829     1.875186     1.867543
      1.859900     1.852257     1.844614     1.836971     1.829327     1.821684     1.814041     1.806398     1.798755     1.791112
      1.783469     1.775826     1.768183     1.760540     1.752896     1.745253     1.737610     1.729967     1.722324     1.714681
      1.707038     1.699395     1.691752     1.684108     1.676465     1.668822     1.661179     1.653536     1.645893     1.638250
      1.630607     1.622964     1.615321     1.607677     1.600034     1.592391     1.584748     1.577105     1.569462     1.561819
      1.554176     1.546533     1.538890     1.531246     1.523603     1.515960     1.508317     1.500674     1.493031     1.485388
      1.477745     1.470102     1.462458     1.454815     1.447172     1.439529     1.431886     1.424243     1.416600     1.408957
      1.401314     1.393671     1.386027     1.378384     1.370741     1.363098     1.355455     1.347812     1.340169     1.332526
      1.324883     1.317240     1.309596     1.301953     1.294310     1.286667     1.279024     1.271381     1.263738     1.256095
      1.248452     1.240808     1.233165     1.225522     1.217879     1.210236     1.202593     1.194950     1.187307     1.179664
      1.172021     1.164377     1.156734     1.149091     1.141448     1.133805     1.126162     1.118519     1.110876     1.103233
      1.095590     1.087946     1.080303     1.072660     1.065017     1.057374     1.049731     1.042088     1.034445     1.026802
      1.019158     1.011515     1.003872     0.996229     0.988586     0.980943     0.973300     0.965657     0.958014     0.950371
      0.942727     0.935084     0.927441     0.919798     0.912155     0.904512     0.896869     0.889226     0.881583     0.873940
      0.866296     0.858653     0.851010     0.843367     0.835724     0.828081     0.820438     0.812795     0.805152     0.797508
      0.789865     0.782222     0.774579     0.766936     0.759293     0.751650     0.744007     0.736364     0.728721     0.721077
      0.713434     0.705791     0.698148     0.690505     0.682862     0.675219     0.667576     0.659933     0.652290     0.644646
      0.637003     0.629360     0.621717     0.614074     0.606431     0.598788     0.591145     0.583502     0.575858     0.568215
      0.560572     0.552929     0.545286     0.537643     0.530000     0.522357     0.514714     0.507071     0.499427     0.491784
      0.484141     0.476498     0.468855     0.461212     0.453569     0.445925     0.438282     0.430639     0.422996     0.415353
      0.407710     0.400067     0.392424     0.384780     0.377137     0.369494     0.361851     0.354208     0.346565     0.338922
      0.331278     0.323635     0.315992     0.308349     0.300706     0.293063     0.285420     0.277777     0.270133     0.262490
      0.254847     0.247204     0.239561     0.231918     0.224275     0.216631     0.208988     0.201345
 NY phased data points follow
   2.71652E+01  2.58112E+01  2.82888E+01  2.84271E+01  2.62252E+01  2.37823E+01  2.43785E+01  2.66743E+01  2.42634E+01  2.50514E+01
   2.67928E+01  2.34499E+01  2.22524E+01  2.41315E+01  2.32690E+01  2.48098E+01  2.32486E+01  2.37386E+01  2.50248E+01  2.26543E+01
   2.21484E+01  2.17260E+01  2.11247E+01  2.24709E+01  2.11822E+01  2.27642E+01  2.37414E+01  2.26341E+01  2.49549E+01  2.36874E+01
   2.14249E+01  2.17912E+01  2.05761E+01  2.01986E+01  2.15620E+01  2.14408E+01  2.36486E+01  2.15918E+01  2.24568E+01  2.08394E+01
   2.07051E+01  2.24960E+01  2.15809E+01  2.21455E+01  2.50473E+01  2.12878E+01  2.54447E+01  2.41493E+01  2.43164E+01  2.25001E+01
   2.42588E+01  2.52600E+01  2.28100E+01  2.46639E+01  2.30121E+01  2.44062E+01  2.64518E+01  2.48182E+01  2.27145E+01  2.49388E+01
   2.62073E+01  1.99600E+01  2.31623E+01  2.43782E+01  2.07784E+01  2.18258E+01  2.19029E+01  2.40843E+01  1.88020E+01  2.23632E+01
   2.39394E+01  2.31088E+01  2.48706E+01  2.90965E+01  2.50788E+01  2.41626E+01  2.28650E+01  2.31816E+01  2.47154E+01  2.22788E+01
   2.44709E+01  1.88568E+01  2.26561E+01  2.32242E+01  2.23056E+01  2.50790E+01  2.38629E+01  2.22358E+01  2.28457E+01  2.33036E+01
   2.38881E+01  2.25305E+01  2.48811E+01  2.34200E+01  2.48196E+01  2.47027E+01  2.44251E+01  2.79043E+01  2.73174E+01  2.74616E+01
   2.69855E+01  2.75458E+01  2.62930E+01  2.68330E+01  2.94655E+01  2.94891E+01  3.02187E+01  2.98691E+01  2.93464E+01  3.26329E+01
   3.09931E+01  3.26426E+01  3.28209E+01  3.32558E+01  3.39129E+01  3.55588E+01  3.40592E+01  3.50942E+01  3.56920E+01  3.61163E+01
   3.73473E+01  3.76955E+01  3.80224E+01  3.82935E+01  3.82879E+01  3.88780E+01  3.64764E+01  3.22189E+01  3.55593E+01  3.72997E+01
   3.73808E+01  3.53511E+01  3.61579E+01  3.66452E+01  3.63305E+01  3.48316E+01  3.57056E+01  3.31514E+01  3.32664E+01  3.36073E+01
   3.18295E+01  3.19279E+01  3.19950E+01  3.20938E+01  2.70702E+01  3.03182E+01  2.78885E+01  2.69980E+01  2.81270E+01  2.78743E+01
   2.82405E+01  2.62577E+01  2.82336E+01  2.52128E+01  2.73037E+01  2.73629E+01  2.40437E+01  2.41775E+01  2.43878E+01  2.42171E+01
   2.32235E+01  2.28107E+01  2.09511E+01  2.31826E+01  2.07128E+01  2.30175E+01  2.07120E+01  1.81106E+01  2.08893E+01  1.89813E+01
   1.83036E+01  1.80571E+01  1.87535E+01  1.50369E+01  1.66439E+01  1.63624E+01  1.71331E+01  1.47122E+01  1.21624E+01  1.34229E+01
   1.37891E+01  1.46062E+01  1.18365E+01  1.32183E+01  1.20834E+01  1.08042E+01  9.92503E+00  1.32868E+01  1.02604E+01  1.05750E+01
   9.15993E+00  7.44321E+00  7.62709E+00  5.73322E+00  5.80253E+00  8.56445E+00  7.55617E+00  8.29278E+00  4.55244E+00  5.35364E+00
   5.85984E+00  6.95478E+00  4.57735E+00  3.34200E+00  4.22329E+00  1.50023E+00  3.08960E+00  4.02343E+00  2.00942E+00  2.03714E+00
   4.32610E+00  1.91725E+00  1.97703E+00 -9.72983E-01  2.60426E-01  8.81371E-01  3.93855E-03  3.58270E+00 -2.18427E-01 -1.27570E-01
  -3.31261E-01 -2.30021E+00 -7.49422E-01 -7.65467E-01 -6.63307E-02 -2.04827E-01 -9.25108E-01 -1.63506E-02  1.64560E-02  2.76716E+00
   6.59307E+00  4.15985E+00 -3.72591E-01 -1.48481E+00 -1.56312E+00 -8.17300E-01 -2.02979E+00 -3.53951E-01  2.58509E-01 -3.02729E+00
  -2.26554E+00 -2.82413E+00 -2.40437E+00 -2.80856E+00 -1.63188E+00 -5.16541E-01 -2.16595E+00 -1.49348E+00 -1.36574E+00  3.85659E-01
  -1.44877E-01  1.56984E+00 -3.14269E+00 -2.24805E+00 -2.43221E+00 -1.42822E+00 -7.73095E-01 -3.60897E-01 -2.29412E+00 -4.81395E+00
  -2.17186E+00  1.82646E-01 -1.56010E+00 -2.77154E+00 -3.53850E+00 -2.96781E+00 -5.36564E+00 -3.20071E+00 -2.32969E+00 -1.81110E+00
  -4.87917E+00 -1.68717E+00 -2.71018E-01 -3.27880E+00  5.75595E-01 -3.26141E+00  3.89408E-02 -2.14452E+00 -3.09755E+00 -3.36405E+00
  -3.15809E+00 -4.55231E+00 -3.69734E+00 -2.60768E+00 -3.89031E+00 -2.39229E+00 -5.82052E+00 -4.76565E+00 -3.19845E+00 -4.45538E+00
  -3.86775E+00 -3.70865E+00 -5.17908E+00 -3.45249E+00 -3.99787E+00 -4.37470E+00 -2.15651E+00 -2.83447E+00 -2.38675E+00 -2.31196E+00
  -1.97525E+00 -2.00982E+00 -5.54587E-01 -3.72041E+00 -3.03219E+00 -4.40756E+00 -2.19455E+00 -5.90113E+00 -3.65375E+00 -2.67010E+00
  -5.82495E+00 -1.67656E+00 -1.23584E+00 -2.72618E+00 -7.76925E-01 -2.58543E+00 -1.75994E+00 -3.68101E+00 -1.37323E+00 -1.93427E+00
  -3.91832E+00 -1.69850E+00 -5.11251E+00 -2.47616E+00 -4.83115E-01 -4.53444E+00 -6.35379E+00 -4.49798E+00 -5.84971E+00 -1.23024E+00
  -4.61732E+00 -3.25249E+00 -3.91824E+00 -2.96265E+00 -3.27309E+00 -6.18753E+00 -2.98836E+00 -3.60574E+00 -4.58764E+00 -5.21291E+00
  -6.34027E+00 -2.55433E+00 -5.72772E+00 -6.63203E+00 -5.72684E+00 -6.38991E+00 -6.79505E+00 -5.47443E+00 -6.70768E+00 -6.55509E+00
  -8.98378E+00 -8.07925E+00 -4.64742E+00 -5.85476E+00 -7.39292E+00 -7.47936E+00 -7.76011E+00 -5.83333E+00 -7.23186E+00 -4.16566E+00
  -6.35332E+00 -6.96308E+00 -6.05672E+00 -6.96637E+00 -6.94667E+00 -7.25870E+00 -5.84806E+00 -6.19674E+00 -5.49359E+00 -6.48741E+00
  -6.45417E+00 -8.41550E+00 -7.31150E+00 -5.53513E+00 -7.50257E+00 -6.49926E+00 -5.75688E+00 -5.78020E+00 -6.23987E+00 -7.01742E+00
  -7.78276E+00 -8.45060E+00 -5.88251E+00 -6.15771E+00 -8.74025E+00 -5.43986E+00 -5.60029E+00 -1.04744E+01 -7.71603E+00 -5.89174E+00
  -8.30445E+00 -7.82845E+00 -6.82504E+00 -5.11035E+00 -7.51306E+00 -5.00097E+00 -7.20349E+00 -6.29257E+00 -5.53845E+00 -7.00443E+00
  -7.73169E+00 -3.25859E+00 -7.44777E+00 -4.84777E+00 -7.01861E+00 -6.79641E+00 -4.94306E+00 -5.55285E+00 -5.86367E+00 -6.24269E+00
  -6.64898E+00 -8.06466E+00 -7.36295E+00 -6.65891E+00 -5.86644E+00 -7.53675E+00 -7.36138E+00 -5.74107E+00 -6.80222E+00 -7.40002E+00
  -5.35866E+00 -3.79276E+00 -5.53662E+00 -6.86273E+00 -5.31438E+00 -6.54841E+00 -5.56727E+00 -5.97868E+00 -4.27042E+00 -7.85919E+00
  -5.85000E+00 -8.20355E+00 -8.09912E+00 -4.95246E+00 -6.18294E+00 -7.74633E+00 -5.64552E+00 -6.07761E+00 -8.56679E+00 -3.47376E+00
  -5.49499E+00 -6.45549E+00 -9.48034E+00 -7.47504E+00 -5.57102E+00 -6.23800E+00 -7.02482E+00 -6.77355E+00 -7.75995E+00 -4.61534E+00
  -6.32402E+00 -7.50655E+00 -6.36475E+00 -6.24206E+00 -6.69528E+00 -5.27025E+00 -4.61555E+00 -6.32180E+00 -7.12255E+00 -7.87785E+00
  -6.75408E+00 -6.96655E+00 -5.45021E+00 -6.42007E+00 -4.37741E+00 -5.89784E+00 -6.89171E+00 -2.48654E+00 -7.45542E+00 -4.35019E+00
  -5.86337E+00 -4.16682E+00 -5.61258E+00 -3.65781E+00 -4.63882E+00 -5.27040E+00 -5.58036E+00 -3.80409E+00 -4.81792E+00 -7.37442E+00
  -4.27834E+00 -4.71191E+00 -7.09962E+00 -4.34590E+00 -6.58707E+00 -4.86364E+00 -2.78575E+00 -5.49425E+00 -6.11204E+00 -4.88535E+00
  -4.22659E+00 -6.69425E+00 -4.46696E+00 -5.59628E+00 -4.63818E+00 -5.40307E+00 -4.25630E+00 -2.73898E+00
 NY points of the fit to the data follow
   2.37997E+01  2.39262E+01  2.47525E+01  2.48083E+01  2.52201E+01  2.51932E+01  2.52815E+01  2.52870E+01  2.50538E+01  2.49409E+01
   2.47016E+01  2.45672E+01  2.41810E+01  2.42426E+01  2.42128E+01  2.44442E+01  2.43889E+01  2.45161E+01  2.43413E+01  2.41392E+01
   2.37633E+01  2.35056E+01  2.32018E+01  2.29779E+01  2.28930E+01  2.26433E+01  2.25668E+01  2.21115E+01  2.18481E+01  2.13676E+01
   2.16294E+01  2.12796E+01  2.15655E+01  2.14924E+01  2.21590E+01  2.22191E+01  2.29368E+01  2.28033E+01  2.33004E+01  2.30196E+01
   2.33961E+01  2.32529E+01  2.37024E+01  2.36172E+01  2.40578E+01  2.39377E+01  2.43331E+01  2.42667E+01  2.43408E+01  2.41863E+01
   2.39108E+01  2.37933E+01  2.33368E+01  2.34824E+01  2.36230E+01  2.38999E+01  2.41465E+01  2.42260E+01  2.43764E+01  2.41398E+01
   2.41466E+01  2.39791E+01  2.40377E+01  2.38892E+01  2.39555E+01  2.36947E+01  2.37049E+01  2.33863E+01  2.34531E+01  2.32961E+01
   2.35198E+01  2.33738E+01  2.35411E+01  2.33075E+01  2.34630E+01  2.31570E+01  2.32830E+01  2.28983E+01  2.29990E+01  2.25399E+01
   2.25511E+01  2.20884E+01  2.20667E+01  2.16252E+01  2.17435E+01  2.20731E+01  2.24130E+01  2.28524E+01  2.31746E+01  2.36099E+01
   2.38544E+01  2.43865E+01  2.45832E+01  2.52200E+01  2.54931E+01  2.63687E+01  2.67312E+01  2.76695E+01  2.80149E+01  2.85714E+01
   2.86997E+01  2.88014E+01  2.87002E+01  2.86637E+01  2.85167E+01  2.87232E+01  2.86264E+01  2.89721E+01  2.98811E+01  3.02995E+01
   3.12215E+01  3.14712E+01  3.23419E+01  3.25357E+01  3.35219E+01  3.36362E+01  3.47094E+01  3.47622E+01  3.60896E+01  3.60624E+01
   3.73089E+01  3.69245E+01  3.74579E+01  3.67230E+01  3.66633E+01  3.64388E+01  3.64538E+01  3.63427E+01  3.67351E+01  3.68004E+01
   3.71205E+01  3.71302E+01  3.70539E+01  3.68979E+01  3.65799E+01  3.63313E+01  3.59098E+01  3.55934E+01  3.49776E+01  3.45539E+01
   3.37247E+01  3.31727E+01  3.20233E+01  3.12451E+01  2.96262E+01  2.85743E+01  2.68460E+01  2.58579E+01  2.51965E+01  2.46822E+01
   2.42240E+01  2.38236E+01  2.34375E+01  2.30912E+01  2.27487E+01  2.24265E+01  2.21045E+01  2.17794E+01  2.14649E+01  2.11376E+01
   2.08255E+01  2.05042E+01  2.01945E+01  1.98721E+01  1.95611E+01  1.92291E+01  1.89284E+01  1.86054E+01  1.83062E+01  1.79973E+01
   1.76997E+01  1.73968E+01  1.71061E+01  1.68207E+01  1.65668E+01  1.62974E+01  1.59589E+01  1.56857E+01  1.51543E+01  1.47950E+01
   1.41380E+01  1.37198E+01  1.29697E+01  1.27024E+01  1.21293E+01  1.20596E+01  1.14953E+01  1.17393E+01  1.11640E+01  1.14843E+01
   1.08571E+01  1.08975E+01  9.49599E+00  9.57319E+00  8.30981E+00  8.67981E+00  7.51546E+00  8.14806E+00  6.99373E+00  7.46809E+00
   6.16700E+00  6.28853E+00  4.77374E+00  4.68675E+00  3.17119E+00  3.19946E+00  2.35368E+00  2.74057E+00  2.56335E+00  2.98111E+00
   2.98534E+00  3.05031E+00  2.76142E+00  2.57028E+00  2.30663E+00  2.21206E+00  2.25331E+00  2.20758E+00  1.98161E+00  1.74891E+00
   1.37788E+00  1.05288E+00  7.21619E-01  7.59278E-01  6.68055E-01  6.94777E-01  9.07795E-01  1.20353E+00  1.67345E+00  1.97798E+00
   2.33264E+00  2.16153E+00  1.63737E+00  1.23295E+00  7.90850E-01  2.93567E-01 -1.15888E-01 -7.94305E-01 -9.98489E-01 -1.68130E+00
  -1.77885E+00 -2.30820E+00 -2.12581E+00 -2.42217E+00 -2.15212E+00 -2.54475E+00 -2.11567E+00 -2.60138E+00 -2.11262E+00 -2.54012E+00
  -2.01592E+00 -2.39519E+00 -1.87312E+00 -2.26908E+00 -1.67606E+00 -2.01939E+00 -1.35749E+00 -1.78602E+00 -1.58537E+00 -2.06253E+00
  -2.07996E+00 -2.26200E+00 -2.29558E+00 -1.89000E+00 -1.79180E+00 -1.40842E+00 -1.26116E+00 -9.54982E-01 -9.69665E-01 -8.79278E-01
  -1.03545E+00 -1.18718E+00 -1.52740E+00 -1.78130E+00 -2.16170E+00 -2.45334E+00 -2.76940E+00 -3.03376E+00 -3.13129E+00 -3.24490E+00
  -3.34496E+00 -3.49298E+00 -3.61356E+00 -3.73619E+00 -3.84711E+00 -3.93656E+00 -3.99538E+00 -4.06315E+00 -4.08651E+00 -4.11074E+00
  -4.10173E+00 -4.09743E+00 -4.07505E+00 -4.05603E+00 -4.02868E+00 -3.98046E+00 -3.92504E+00 -3.84375E+00 -3.76185E+00 -3.65655E+00
  -3.56479E+00 -3.45390E+00 -3.37248E+00 -3.27544E+00 -3.21811E+00 -3.14606E+00 -3.11746E+00 -3.07790E+00 -3.08004E+00 -3.07294E+00
  -3.10742E+00 -3.13254E+00 -3.19290E+00 -3.24647E+00 -3.32649E+00 -3.39573E+00 -3.48700E+00 -3.56469E+00 -3.65942E+00 -3.73920E+00
  -3.83174E+00 -3.91037E+00 -3.99962E+00 -4.07382E+00 -4.15798E+00 -4.22627E+00 -4.30473E+00 -4.36764E+00 -4.44074E+00 -4.49898E+00
  -4.56786E+00 -4.62270E+00 -4.68864E+00 -4.74130E+00 -4.80535E+00 -4.85663E+00 -4.91948E+00 -4.97000E+00 -5.03218E+00 -5.08234E+00
  -5.14412E+00 -5.19406E+00 -5.25543E+00 -5.30504E+00 -5.36582E+00 -5.41481E+00 -5.47463E+00 -5.52253E+00 -5.58084E+00 -5.62710E+00
  -5.68334E+00 -5.72739E+00 -5.78104E+00 -5.82244E+00 -5.87314E+00 -5.91167E+00 -5.95940E+00 -5.99520E+00 -6.04029E+00 -6.07391E+00
  -6.11711E+00 -6.14951E+00 -6.19197E+00 -6.22442E+00 -6.26749E+00 -6.30139E+00 -6.34648E+00 -6.38319E+00 -6.43154E+00 -6.47209E+00
  -6.52449E+00 -6.56943E+00 -6.62613E+00 -6.67537E+00 -6.73589E+00 -6.78858E+00 -6.85170E+00 -6.90620E+00 -6.96991E+00 -7.02381E+00
  -7.08529E+00 -7.13537E+00 -7.19101E+00 -7.23334E+00 -7.27889E+00 -7.30896E+00 -7.33974E+00 -7.35279E+00 -7.36417E+00 -7.35585E+00
  -7.34391E+00 -7.31099E+00 -7.27342E+00 -7.21469E+00 -7.15161E+00 -7.06867E+00 -6.98324E+00 -6.88083E+00 -6.77929E+00 -6.66503E+00
  -6.55617E+00 -6.43967E+00 -6.33352E+00 -6.22486E+00 -6.13116E+00 -6.03932E+00 -5.96592E+00 -5.89730E+00 -5.84896E+00 -5.80659E+00
  -5.78457E+00 -5.76800E+00 -5.77031E+00 -5.77623E+00 -5.79846E+00 -5.82169E+00 -5.85821E+00 -5.89293E+00 -5.93798E+00 -5.97865E+00
  -6.02709E+00 -6.06910E+00 -6.11692E+00 -6.15687E+00 -6.20126E+00 -6.23693E+00 -6.27619E+00 -6.30634E+00 -6.33966E+00 -6.36382E+00
  -6.39097E+00 -6.40910E+00 -6.43023E+00 -6.44260E+00 -6.45805E+00 -6.46506E+00 -6.47523E+00 -6.47726E+00 -6.48256E+00 -6.48005E+00
  -6.48088E+00 -6.47417E+00 -6.47087E+00 -6.46028E+00 -6.45315E+00 -6.43899E+00 -6.42830E+00 -6.41079E+00 -6.39674E+00 -6.37608E+00
  -6.35888E+00 -6.33527E+00 -6.31508E+00 -6.28866E+00 -6.26563E+00 -6.23655E+00 -6.21082E+00 -6.17921E+00 -6.15089E+00 -6.11685E+00
  -6.08604E+00 -6.04968E+00 -6.01651E+00 -5.97793E+00 -5.94247E+00 -5.90176E+00 -5.86412E+00 -5.82138E+00 -5.78165E+00 -5.73697E+00
  -5.69523E+00 -5.64868E+00 -5.60504E+00 -5.55675E+00 -5.51131E+00 -5.46137E+00 -5.41423E+00 -5.36275E+00 -5.31405E+00 -5.26118E+00
  -5.21105E+00 -5.15692E+00 -5.10553E+00 -5.05034E+00 -4.99791E+00 -4.94189E+00 -4.88866E+00 -4.83209E+00 -4.77839E+00 -4.72167E+00
  -4.66795E+00 -4.61158E+00 -4.55845E+00 -4.50316E+00 -4.45151E+00 -4.39841E+00 -4.34964E+00 -4.30053E+00
 NY background values follow
     1.475E+01    1.475E+01    1.475E+01    1.476E+01    1.477E+01    1.478E+01    1.480E+01    1.482E+01    1.484E+01    1.487E+01
     1.490E+01    1.493E+01    1.496E+01    1.500E+01    1.504E+01    1.508E+01    1.512E+01    1.517E+01    1.522E+01    1.527E+01
     1.532E+01    1.538E+01    1.544E+01    1.550E+01    1.556E+01    1.563E+01    1.569E+01    1.576E+01    1.583E+01    1.590E+01
     1.597E+01    1.605E+01    1.612E+01    1.620E+01    1.628E+01    1.636E+01    1.644E+01    1.652E+01    1.661E+01    1.669E+01
     1.678E+01    1.686E+01    1.695E+01    1.704E+01    1.713E+01    1.722E+01    1.731E+01    1.740E+01    1.749E+01    1.758E+01
     1.768E+01    1.777E+01    1.786E+01    1.796E+01    1.805E+01    1.814E+01    1.824E+01    1.833E+01    1.843E+01    1.852E+01
     1.861E+01    1.871E+01    1.880E+01    1.889E+01    1.899E+01    1.908E+01    1.917E+01    1.926E+01    1.935E+01    1.944E+01
     1.953E+01    1.962E+01    1.971E+01    1.979E+01    1.988E+01    1.996E+01    2.005E+01    2.013E+01    2.021E+01    2.029E+01
     2.037E+01    2.045E+01    2.052E+01    2.060E+01    2.067E+01    2.074E+01    2.081E+01    2.088E+01    2.095E+01    2.101E+01
     2.108E+01    2.114E+01    2.120E+01    2.125E+01    2.131E+01    2.136E+01    2.141E+01    2.146E+01    2.151E+01    2.155E+01
     2.160E+01    2.163E+01    2.167E+01    2.171E+01    2.174E+01    2.177E+01    2.179E+01    2.182E+01    2.184E+01    2.186E+01
     2.187E+01    2.188E+01    2.189E+01    2.190E+01    2.190E+01    2.190E+01    2.190E+01    2.189E+01    2.188E+01    2.187E+01
     2.185E+01    2.183E+01    2.181E+01    2.178E+01    2.175E+01    2.172E+01    2.168E+01    2.164E+01    2.160E+01    2.155E+01
     2.150E+01    2.144E+01    2.138E+01    2.131E+01    2.125E+01    2.117E+01    2.110E+01    2.102E+01    2.093E+01    2.084E+01
     2.075E+01    2.065E+01    2.055E+01    2.045E+01    2.034E+01    2.022E+01    2.010E+01    1.998E+01    1.985E+01    1.972E+01
     1.958E+01    1.944E+01    1.930E+01    1.915E+01    1.899E+01    1.883E+01    1.867E+01    1.850E+01    1.832E+01    1.814E+01
     1.796E+01    1.777E+01    1.758E+01    1.738E+01    1.718E+01    1.697E+01    1.675E+01    1.654E+01    1.631E+01    1.609E+01
     1.585E+01    1.562E+01    1.538E+01    1.513E+01    1.489E+01    1.463E+01    1.438E+01    1.412E+01    1.386E+01    1.359E+01
     1.333E+01    1.306E+01    1.278E+01    1.251E+01    1.223E+01    1.195E+01    1.167E+01    1.139E+01    1.110E+01    1.082E+01
     1.053E+01    1.024E+01    9.953E+00    9.663E+00    9.372E+00    9.080E+00    8.788E+00    8.495E+00    8.202E+00    7.909E+00
     7.617E+00    7.324E+00    7.032E+00    6.740E+00    6.449E+00    6.159E+00    5.869E+00    5.581E+00    5.294E+00    5.008E+00
     4.723E+00    4.440E+00    4.158E+00    3.879E+00    3.601E+00    3.325E+00    3.052E+00    2.780E+00    2.511E+00    2.245E+00
     1.981E+00    1.719E+00    1.461E+00    1.206E+00    9.532E-01    7.039E-01    4.579E-01    2.153E-01   -2.387E-02   -2.594E-01
    -4.913E-01   -7.195E-01   -9.437E-01   -1.164E+00   -1.380E+00   -1.592E+00   -1.800E+00   -2.003E+00   -2.202E+00   -2.396E+00
    -2.586E+00   -2.771E+00   -2.951E+00   -3.127E+00   -3.297E+00   -3.462E+00   -3.622E+00   -3.777E+00   -3.927E+00   -4.071E+00
    -4.209E+00   -4.343E+00   -4.471E+00   -4.595E+00   -4.713E+00   -4.827E+00   -4.936E+00   -5.040E+00   -5.140E+00   -5.236E+00
    -5.327E+00   -5.414E+00   -5.497E+00   -5.577E+00   -5.652E+00   -5.724E+00   -5.792E+00   -5.856E+00   -5.918E+00   -5.976E+00
    -6.030E+00   -6.082E+00   -6.130E+00   -6.176E+00   -6.219E+00   -6.259E+00   -6.297E+00   -6.332E+00   -6.365E+00   -6.395E+00
    -6.423E+00   -6.449E+00   -6.473E+00   -6.495E+00   -6.515E+00   -6.533E+00   -6.550E+00   -6.565E+00   -6.578E+00   -6.590E+00
    -6.601E+00   -6.610E+00   -6.618E+00   -6.625E+00   -6.631E+00   -6.636E+00   -6.640E+00   -6.644E+00   -6.646E+00   -6.648E+00
    -6.650E+00   -6.651E+00   -6.651E+00   -6.651E+00   -6.651E+00   -6.651E+00   -6.650E+00   -6.650E+00   -6.649E+00   -6.649E+00
    -6.648E+00   -6.648E+00   -6.648E+00   -6.648E+00   -6.649E+00   -6.650E+00   -6.651E+00   -6.653E+00   -6.656E+00   -6.659E+00
    -6.663E+00   -6.668E+00   -6.673E+00   -6.680E+00   -6.687E+00   -6.695E+00   -6.704E+00   -6.715E+00   -6.726E+00   -6.739E+00
    -6.752E+00   -6.767E+00   -6.783E+00   -6.800E+00   -6.819E+00   -6.839E+00   -6.859E+00   -6.881E+00   -6.904E+00   -6.928E+00
    -6.953E+00   -6.978E+00   -7.005E+00   -7.032E+00   -7.060E+00   -7.089E+00   -7.118E+00   -7.148E+00   -7.179E+00   -7.210E+00
    -7.241E+00   -7.274E+00   -7.306E+00   -7.339E+00   -7.372E+00   -7.406E+00   -7.440E+00   -7.474E+00   -7.508E+00   -7.543E+00
    -7.578E+00   -7.612E+00   -7.647E+00   -7.682E+00   -7.717E+00   -7.751E+00   -7.786E+00   -7.821E+00   -7.855E+00   -7.889E+00
    -7.923E+00   -7.957E+00   -7.991E+00   -8.024E+00   -8.057E+00   -8.089E+00   -8.121E+00   -8.153E+00   -8.184E+00   -8.215E+00
    -8.245E+00   -8.275E+00   -8.304E+00   -8.333E+00   -8.361E+00   -8.388E+00   -8.415E+00   -8.441E+00   -8.466E+00   -8.491E+00
    -8.514E+00   -8.537E+00   -8.560E+00   -8.581E+00   -8.601E+00   -8.621E+00   -8.640E+00   -8.658E+00   -8.675E+00   -8.690E+00
    -8.705E+00   -8.719E+00   -8.732E+00   -8.744E+00   -8.755E+00   -8.765E+00   -8.774E+00   -8.781E+00   -8.788E+00   -8.793E+00
    -8.798E+00   -8.801E+00   -8.803E+00   -8.804E+00   -8.803E+00   -8.802E+00   -8.799E+00   -8.795E+00   -8.790E+00   -8.784E+00
    -8.776E+00   -8.767E+00   -8.758E+00   -8.747E+00   -8.734E+00   -8.721E+00   -8.707E+00   -8.691E+00   -8.675E+00   -8.657E+00
    -8.638E+00   -8.618E+00   -8.597E+00   -8.575E+00   -8.551E+00   -8.527E+00   -8.502E+00   -8.475E+00   -8.447E+00   -8.419E+00
    -8.389E+00   -8.358E+00   -8.327E+00   -8.294E+00   -8.260E+00   -8.225E+00   -8.189E+00   -8.152E+00   -8.114E+00   -8.075E+00
    -8.035E+00   -7.994E+00   -7.951E+00   -7.908E+00   -7.864E+00   -7.819E+00   -7.773E+00   -7.726E+00   -7.678E+00   -7.629E+00
    -7.579E+00   -7.528E+00   -7.476E+00   -7.423E+00   -7.369E+00   -7.314E+00   -7.258E+00   -7.201E+00   -7.143E+00   -7.084E+00
    -7.024E+00   -6.963E+00   -6.902E+00   -6.839E+00   -6.775E+00   -6.711E+00   -6.645E+00   -6.579E+00   -6.511E+00   -6.443E+00
    -6.373E+00   -6.303E+00   -6.232E+00   -6.160E+00   -6.087E+00   -6.012E+00   -5.937E+00   -5.861E+00   -5.785E+00   -5.707E+00
    -5.628E+00   -5.548E+00   -5.467E+00   -5.386E+00   -5.303E+00   -5.219E+00   -5.135E+00   -5.049E+00
 PCr      Conc. = 1.36E+03
