 LCModel (Version 6.3-1L) Copyright: S.W. Provencher.          Ref.: Magn. Reson. Med. 30:672-679 (1993).                
 Slice#1 Row#5 Col#7  K_02_press_1_raw_act
 36 lines in following concentration table = NCONC+1
    Conc.  %SD /Cr+PCr  Metabolite                                         
   28.005 396% 2.1E-02 Ala                                                 
    0.000 999%   0.000 Asp                                                 
 1.11E+03  14%   0.845 Cr                                                  
  204.143  79%   0.155 PCr                                                 
    0.000 999%   0.000 GABA                                                
    0.000 999%   0.000 Glc                                                 
  266.404  86%   0.202 Gln                                                 
 1.35E+03  20%   1.027 Glu                                                 
  412.587   6%   0.313 GPC                                                 
    0.000 999%   0.000 PCh                                                 
  378.925  21%   0.288 GSH                                                 
 1.24E+03  22%   0.945 Ins                                                 
   72.175 167% 5.5E-02 Lac                                                 
 1.49E+03  10%   1.132 NAA                                                 
  514.619  31%   0.391 NAAG                                                
    0.000 999%   0.000 Scyllo                                              
    0.000 999%   0.000 Tau                                                 
   81.315 149% 6.2E-02 -CrCH2                                              
  412.587   6%   0.313 GPC+PCh                                             
 2.00E+03   6%   1.523 NAA+NAAG                                            
 1.32E+03   6%   1.000 Cr+PCr                                              
 1.62E+03  22%   1.230 Glu+Gln                                             
 5.46E+03  19%   4.147 Lip13a                                              
    0.000 999%   0.000 Lip13b                                              
 1.93E+03  24%   1.468 Lip09                                               
 2.05E+03  22%   1.555 MM09                                                
 1.67E+03  20%   1.267 Lip20                                               
 1.68E+03  32%   1.276 MM20                                                
  873.219  64%   0.664 MM12                                                
    0.000 999%   0.000 MM14                                                
    0.000 999%   0.000 MM17                                                
 5.46E+03  19%   4.147 Lip13a+Lip13b                                       
 6.33E+03  13%   4.810 MM14+Lip13a+Lip13b+MM12                             
 3.98E+03  10%   3.024 MM09+Lip09                                          
 3.35E+03  14%   2.544 MM20+Lip20                                          
   6 lines in following misc. output table
  FWHM = 0.046 ppm    S/N =   9                                            
  Data shift =-0.008 ppm                                                   
  Ph:  46 deg      21.1 deg/ppm                                            
  alphaB,S = 7.3E-01,   2.6E+01                                            
   14 spline knots.   Ns = 6(1)                                            
  (10) 2 infls.   ( 5) 1 extrs.                                            
  498 points on ppm-axis = NY
      4.000000     3.992357     3.984714     3.977070     3.969427     3.961784     3.954141     3.946497     3.938854     3.931211
      3.923568     3.915925     3.908281     3.900638     3.892995     3.885352     3.877708     3.870065     3.862422     3.854779
      3.847136     3.839492     3.831849     3.824206     3.816563     3.808919     3.801276     3.793633     3.785990     3.778347
      3.770703     3.763060     3.755417     3.747774     3.740130     3.732487     3.724844     3.717201     3.709558     3.701914
      3.694271     3.686628     3.678985     3.671341     3.663698     3.656055     3.648412     3.640769     3.633125     3.625482
      3.617839     3.610196     3.602552     3.594909     3.587266     3.579623     3.571980     3.564336     3.556693     3.549050
      3.541407     3.533763     3.526120     3.518477     3.510834     3.503191     3.495547     3.487904     3.480261     3.472618
      3.464974     3.457331     3.449688     3.442045     3.434402     3.426758     3.419115     3.411472     3.403829     3.396185
      3.388542     3.380899     3.373256     3.365613     3.357969     3.350326     3.342683     3.335040     3.327396     3.319753
      3.312110     3.304467     3.296824     3.289180     3.281537     3.273894     3.266251     3.258607     3.250964     3.243321
      3.235678     3.228034     3.220391     3.212748     3.205105     3.197462     3.189818     3.182175     3.174532     3.166889
      3.159245     3.151602     3.143959     3.136316     3.128673     3.121029     3.113386     3.105743     3.098100     3.090456
      3.082813     3.075170     3.067527     3.059884     3.052240     3.044597     3.036954     3.029311     3.021667     3.014024
      3.006381     2.998738     2.991095     2.983451     2.975808     2.968165     2.960522     2.952878     2.945235     2.937592
      2.929949     2.922306     2.914662     2.907019     2.899376     2.891733     2.884089     2.876446     2.868803     2.861160
      2.853517     2.845873     2.838230     2.830587     2.822944     2.815300     2.807657     2.800014     2.792371     2.784728
      2.777084     2.769441     2.761798     2.754155     2.746511     2.738868     2.731225     2.723582     2.715939     2.708295
      2.700652     2.693009     2.685366     2.677722     2.670079     2.662436     2.654793     2.647150     2.639506     2.631863
      2.624220     2.616577     2.608933     2.601290     2.593647     2.586004     2.578361     2.570717     2.563074     2.555431
      2.547788     2.540144     2.532501     2.524858     2.517215     2.509572     2.501928     2.494285     2.486642     2.478999
      2.471355     2.463712     2.456069     2.448426     2.440783     2.433139     2.425496     2.417853     2.410210     2.402566
      2.394923     2.387280     2.379637     2.371994     2.364350     2.356707     2.349064     2.341421     2.333777     2.326134
      2.318491     2.310848     2.303205     2.295561     2.287918     2.280275     2.272632     2.264988     2.257345     2.249702
      2.242059     2.234416     2.226772     2.219129     2.211486     2.203843     2.196199     2.188556     2.180913     2.173270
      2.165627     2.157983     2.150340     2.142697     2.135054     2.127410     2.119767     2.112124     2.104481     2.096838
      2.089194     2.081551     2.073908     2.066265     2.058621     2.050978     2.043335     2.035692     2.028049     2.020405
      2.012762     2.005119     1.997476     1.989833     1.982190     1.974546     1.966903     1.959260     1.951617     1.943974
      1.936331     1.928688     1.921045     1.913402     1.905759     1.898115     1.890472     1.882829     1.875186     1.867543
      1.859900     1.852257     1.844614     1.836971     1.829327     1.821684     1.814041     1.806398     1.798755     1.791112
      1.783469     1.775826     1.768183     1.760540     1.752896     1.745253     1.737610     1.729967     1.722324     1.714681
      1.707038     1.699395     1.691752     1.684108     1.676465     1.668822     1.661179     1.653536     1.645893     1.638250
      1.630607     1.622964     1.615321     1.607677     1.600034     1.592391     1.584748     1.577105     1.569462     1.561819
      1.554176     1.546533     1.538890     1.531246     1.523603     1.515960     1.508317     1.500674     1.493031     1.485388
      1.477745     1.470102     1.462458     1.454815     1.447172     1.439529     1.431886     1.424243     1.416600     1.408957
      1.401314     1.393671     1.386027     1.378384     1.370741     1.363098     1.355455     1.347812     1.340169     1.332526
      1.324883     1.317240     1.309596     1.301953     1.294310     1.286667     1.279024     1.271381     1.263738     1.256095
      1.248452     1.240808     1.233165     1.225522     1.217879     1.210236     1.202593     1.194950     1.187307     1.179664
      1.172021     1.164377     1.156734     1.149091     1.141448     1.133805     1.126162     1.118519     1.110876     1.103233
      1.095590     1.087946     1.080303     1.072660     1.065017     1.057374     1.049731     1.042088     1.034445     1.026802
      1.019158     1.011515     1.003872     0.996229     0.988586     0.980943     0.973300     0.965657     0.958014     0.950371
      0.942727     0.935084     0.927441     0.919798     0.912155     0.904512     0.896869     0.889226     0.881583     0.873940
      0.866296     0.858653     0.851010     0.843367     0.835724     0.828081     0.820438     0.812795     0.805152     0.797508
      0.789865     0.782222     0.774579     0.766936     0.759293     0.751650     0.744007     0.736364     0.728721     0.721077
      0.713434     0.705791     0.698148     0.690505     0.682862     0.675219     0.667576     0.659933     0.652290     0.644646
      0.637003     0.629360     0.621717     0.614074     0.606431     0.598788     0.591145     0.583502     0.575858     0.568215
      0.560572     0.552929     0.545286     0.537643     0.530000     0.522357     0.514714     0.507071     0.499427     0.491784
      0.484141     0.476498     0.468855     0.461212     0.453569     0.445925     0.438282     0.430639     0.422996     0.415353
      0.407710     0.400067     0.392424     0.384780     0.377137     0.369494     0.361851     0.354208     0.346565     0.338922
      0.331278     0.323635     0.315992     0.308349     0.300706     0.293063     0.285420     0.277777     0.270133     0.262490
      0.254847     0.247204     0.239561     0.231918     0.224275     0.216631     0.208988     0.201345
 NY phased data points follow
   4.20220E+01  4.10722E+01  4.56673E+01  4.86738E+01  4.89274E+01  4.69231E+01  4.65180E+01  4.45358E+01  5.37104E+01  5.96027E+01
   5.84965E+01  7.12891E+01  6.39433E+01  7.24888E+01  6.03352E+01  5.81283E+01  5.62611E+01  4.91350E+01  4.21601E+01  4.77070E+01
   4.25520E+01  2.98669E+01  3.57145E+01  3.51871E+01  3.33100E+01  3.86906E+01  3.36615E+01  4.15898E+01  4.33773E+01  3.78140E+01
   4.31859E+01  4.54165E+01  4.41056E+01  3.62995E+01  4.35232E+01  3.74403E+01  3.64016E+01  3.59645E+01  3.14671E+01  3.37054E+01
   3.31152E+01  3.03791E+01  3.67924E+01  3.36665E+01  3.58511E+01  3.57111E+01  3.56253E+01  4.21440E+01  3.94707E+01  4.18983E+01
   3.96279E+01  4.04891E+01  3.35495E+01  3.48114E+01  3.18933E+01  2.63324E+01  3.01061E+01  3.50224E+01  3.77231E+01  2.86585E+01
   2.91535E+01  3.85075E+01  3.17845E+01  2.41681E+01  2.57186E+01  2.06885E+01  2.43784E+01  2.33626E+01  2.31994E+01  1.73804E+01
   2.39158E+01  2.50440E+01  2.76869E+01  1.99398E+01  1.96951E+01  1.71966E+01  2.43288E+01  2.09711E+01  1.76816E+01  1.88044E+01
   2.10673E+01  1.65839E+01  1.57599E+01  1.60161E+01  9.07122E+00  1.23478E+01  1.89501E+01  1.33174E+01  1.85397E+01  1.33091E+01
   1.16005E+01  1.24342E+01  1.32361E+01  1.36836E+01  1.14741E+01  1.34470E+01  2.13607E+01  1.73572E+01  1.60428E+01  1.96905E+01
   3.40822E+01  4.41946E+01  4.98437E+01  5.92185E+01  5.62870E+01  5.62571E+01  4.65820E+01  3.46345E+01  3.22783E+01  2.44340E+01
   1.25076E+01  2.13764E+01  1.67096E+01  1.49408E+01  1.36310E+01  1.92692E+01  1.11204E+01  8.59500E+00  1.78018E+01  9.61224E+00
   1.44873E+01  1.90217E+01  1.72592E+01  2.68524E+01  2.58968E+01  4.69525E+01  5.18009E+01  6.15240E+01  5.34287E+01  5.14455E+01
   4.64223E+01  4.20737E+01  3.43341E+01  2.49151E+01  1.70107E+01  1.69386E+01  1.65080E+01  1.33118E+01  1.17393E+01  4.91890E+00
   1.12901E+01  1.48973E+01  7.43183E+00  1.53349E+01  1.20711E+01  1.20792E+01  1.12265E+01  1.63854E+01  1.32839E+01  1.05151E+01
   8.87654E+00  1.24272E+01  1.89891E+01  1.14866E+01  8.36605E+00  3.58176E+00  1.08365E+01  1.47555E+01  1.36390E+01  8.87619E+00
   1.76305E+01  1.50891E+01  7.40583E+00  6.42011E+00  6.49826E+00  9.35592E+00  5.94088E+00  1.00581E+01  7.26504E+00  3.27237E+00
   5.05644E+00  2.14592E+00 -3.75526E+00  6.39022E-01  2.41668E+00 -7.27950E+00 -5.81738E+00 -8.78396E+00 -2.79418E+00 -4.65925E+00
  -1.35569E+00 -2.14356E+00 -4.11531E+00 -5.49714E+00 -1.19225E+01  2.92982E+00 -5.77679E+00  7.80671E-01 -2.11440E+00 -2.90907E-01
   2.53375E+00 -7.87089E-01  1.57510E+00 -4.36628E+00 -6.95219E+00 -1.89171E+00 -9.38452E+00  2.02340E+00 -6.18045E+00 -3.07582E+00
  -3.83210E+00 -2.85954E+00  2.55257E+00  2.81289E+00  6.55112E+00  6.28621E+00  4.78425E+00 -1.91898E-01 -1.08644E+00 -5.19577E-01
  -9.04464E+00  7.71884E+00  5.21361E+00  9.27612E+00  5.09099E+00  1.08283E+01  9.67696E+00  1.37197E+01  7.34093E+00  1.80534E-01
  -1.44098E+00 -6.07173E+00 -6.82598E+00 -8.64914E+00 -8.05935E-02  1.39846E+00  1.02712E+01  1.19941E+00  1.26874E+01  2.94847E+00
   5.46186E+00  4.12785E-01  8.41052E+00  1.27476E+01  2.79016E+00  3.89312E+00  6.22457E+00 -4.07500E+00 -3.74085E-01  5.81019E+00
   1.09999E+00 -7.77882E-01 -3.02768E+00 -1.81978E+00  2.27938E+00  3.71912E+00  4.40618E+00  3.43878E+00  2.12058E+00  8.61892E+00
   1.19851E+01  1.08565E+01  1.69477E+01  2.32519E+01  2.78483E+01  3.60514E+01  4.39365E+01  5.47065E+01  7.79399E+01  7.69752E+01
   7.37817E+01  5.86740E+01  4.81202E+01  2.79263E+01  1.74660E+01  6.90117E+00  5.84812E-02 -4.11276E+00 -7.47274E+00 -8.14015E+00
  -7.40766E+00 -8.84784E+00 -8.89563E+00 -1.00869E+00 -2.95751E+00 -6.20678E+00 -4.82719E+00  2.86835E+00  5.38138E-01 -1.44423E+00
  -7.60922E+00 -6.86900E+00 -8.51041E+00 -9.37815E+00 -6.85810E+00 -8.10574E+00 -1.06071E+01 -1.41968E+01 -1.08611E+01 -8.49166E+00
  -4.97379E+00 -1.03763E+01 -9.12794E+00 -1.12271E+01 -9.97966E+00 -6.79257E+00 -9.47819E+00 -1.42224E+01 -7.79414E+00 -6.85283E+00
  -6.57598E+00 -7.54389E+00 -5.12693E+00 -5.51237E+00 -1.21933E+01 -1.23037E+01 -8.18137E+00 -1.61633E+01 -4.70455E+00 -6.77486E+00
  -4.38559E+00 -7.62555E+00 -5.45885E+00 -7.91774E+00 -3.87509E+00 -1.14566E+01 -1.18183E+01 -1.51973E+01 -6.73459E+00 -8.49847E+00
  -7.10985E+00 -1.31014E+01 -1.10752E+01 -1.02441E+01 -1.01192E+01 -1.63932E+01 -9.15229E+00 -1.24870E+01 -1.05574E+01 -1.05286E+01
  -1.44445E+01 -9.51342E+00 -8.63774E+00 -1.12074E+01 -9.77906E+00 -7.07307E+00 -4.16056E+00 -2.88682E+00 -9.84945E+00 -4.74700E+00
  -4.61157E+00  3.96883E+00 -3.81064E-02  9.00684E+00  1.00795E+01  8.90406E+00  1.44494E+01  7.78085E+00  7.66018E+00  7.64828E+00
   8.90938E+00  1.08184E+01  9.06265E+00  1.33295E+01  7.38591E+00  8.07705E+00  1.05185E+01  8.19678E+00  1.18948E+01  1.07053E+01
   1.51706E+01  1.19400E+01  1.95440E+01  2.16680E+01  1.11319E+01  2.08760E+01  1.56982E+01  1.75157E+01  1.10357E+01  1.31312E+01
   1.29423E+01  1.80656E+01  1.42895E+01  7.78836E+00  1.08024E+01  9.14473E+00  1.49983E+01  9.89000E+00  1.23626E+01  1.22624E+01
   1.00716E+01  8.74417E+00  9.65877E+00  1.05449E+01  1.43685E+01  1.15877E+01  8.65996E+00  1.29046E+01  1.17836E+01  1.65847E+01
   8.50647E+00  1.49580E+01  1.74311E+01  1.40171E+01  1.74456E+01  2.01795E+01  9.96546E+00  1.80425E+01  1.06920E+01  1.40221E+01
   1.72074E+01  1.89363E+01  1.17173E+01  1.30619E+01  2.09336E+01  1.70393E+01  1.66305E+01  1.72033E+01  1.68486E+01  1.41323E+01
   1.33158E+01  5.78812E+00  1.37110E+01  1.79859E+01  8.80767E+00  9.58581E+00  1.66610E+01  1.11215E+01  6.54645E+00  1.48018E+01
   1.11047E+01  5.47966E+00  6.20886E+00  3.78087E+00 -4.66552E-01  8.64505E+00  5.12175E+00  7.91389E+00  7.05644E+00  6.11975E+00
   5.37584E+00  4.53183E+00  1.77247E+00  8.11962E+00  9.68534E+00  3.10212E+00  3.77372E+00 -1.48156E+00  3.15845E+00  4.09452E+00
   4.11490E+00  4.36071E+00  1.07649E+00  3.44307E+00  8.26010E-01  3.81484E-01  2.84800E+00  3.21323E+00  4.74477E+00  2.09812E+00
   4.03206E+00  8.87139E-01  1.48184E+00  5.60056E+00  3.46857E+00  6.59288E+00  3.19257E+00  3.61383E+00  5.62037E+00  1.50464E+00
   3.41360E-02  1.33039E+00  5.36860E+00  8.57493E-01 -4.46440E-01  4.77480E+00  5.39174E+00 -5.38065E-01  1.24187E+00  4.07350E+00
  -1.90303E-01 -4.10889E-01  3.45537E+00  8.60839E-01  3.62626E+00  9.99409E-01  1.68876E+00  2.28370E+00  2.04334E+00 -9.03271E-01
   5.49528E+00 -3.29509E+00  5.81498E+00 -4.05537E+00 -3.10480E+00 -3.35599E+00  4.35434E+00  5.18852E+00 -6.94168E+00 -7.10960E+00
   1.24988E-01  1.40636E+00 -1.07421E+00 -6.65820E+00 -2.50615E-01 -3.59600E+00 -1.78506E+00 -2.63363E+00
 NY points of the fit to the data follow
   4.25876E+01  4.18939E+01  4.14989E+01  4.16056E+01  4.22721E+01  4.35162E+01  4.55388E+01  4.84294E+01  5.24954E+01  5.81764E+01
   6.43208E+01  6.82822E+01  6.84592E+01  6.57976E+01  6.14711E+01  5.62384E+01  5.09921E+01  4.60693E+01  4.19680E+01  3.98237E+01
   3.90673E+01  3.84555E+01  3.77941E+01  3.71809E+01  3.67249E+01  3.65175E+01  3.70726E+01  3.88088E+01  4.12838E+01  4.34110E+01
   4.47323E+01  4.52334E+01  4.45690E+01  4.27697E+01  4.02724E+01  3.73945E+01  3.49573E+01  3.35391E+01  3.27545E+01  3.23023E+01
   3.21713E+01  3.24586E+01  3.30620E+01  3.39412E+01  3.54818E+01  3.77017E+01  3.98108E+01  4.08476E+01  4.03822E+01  3.86653E+01
   3.62362E+01  3.35753E+01  3.09985E+01  2.88188E+01  2.74654E+01  2.71088E+01  2.74567E+01  2.81870E+01  2.90810E+01  2.97699E+01
   2.99459E+01  2.94980E+01  2.85078E+01  2.72495E+01  2.60305E+01  2.50064E+01  2.43801E+01  2.42199E+01  2.44243E+01  2.48745E+01
   2.53755E+01  2.56887E+01  2.56596E+01  2.53122E+01  2.47851E+01  2.41731E+01  2.35645E+01  2.30027E+01  2.24803E+01  2.20643E+01
   2.17373E+01  2.13974E+01  2.09697E+01  2.03644E+01  1.94926E+01  1.83361E+01  1.70607E+01  1.59546E+01  1.52455E+01  1.50168E+01
   1.52361E+01  1.58158E+01  1.66087E+01  1.74310E+01  1.80371E+01  1.82715E+01  1.81543E+01  1.82546E+01  1.98708E+01  2.39401E+01
   3.18713E+01  4.30103E+01  5.36906E+01  5.89972E+01  5.83196E+01  5.37257E+01  4.63584E+01  3.75661E+01  2.91629E+01  2.14968E+01
   1.64346E+01  1.48778E+01  1.44983E+01  1.42173E+01  1.39979E+01  1.38055E+01  1.36166E+01  1.34277E+01  1.32740E+01  1.32455E+01
   1.35412E+01  1.45466E+01  1.71886E+01  2.23487E+01  3.06552E+01  4.15994E+01  5.23218E+01  5.88237E+01  5.92539E+01  5.52034E+01
   4.84021E+01  3.98306E+01  3.09062E+01  2.25653E+01  1.58869E+01  1.23582E+01  1.10623E+01  1.05457E+01  1.06503E+01  1.11594E+01
   1.18846E+01  1.25376E+01  1.28719E+01  1.28990E+01  1.26869E+01  1.23216E+01  1.19546E+01  1.16342E+01  1.13765E+01  1.11712E+01
   1.09386E+01  1.06497E+01  1.03464E+01  1.01255E+01  1.00192E+01  9.96340E+00  9.82841E+00  9.45820E+00  8.84894E+00  8.22682E+00
   7.83447E+00  7.64034E+00  7.46966E+00  7.16224E+00  6.58567E+00  5.87213E+00  5.11971E+00  4.25544E+00  3.40708E+00  2.72863E+00
   2.15130E+00  1.62901E+00  1.00412E+00  2.80278E-01 -2.87480E-01 -5.16275E-01 -6.08319E-01 -8.45258E-01 -1.17097E+00 -1.47434E+00
  -1.66107E+00 -1.75748E+00 -1.93483E+00 -2.21984E+00 -2.28193E+00 -1.86607E+00 -8.98424E-01  3.27574E-01  1.60715E+00  2.78041E+00
   3.56118E+00  3.75559E+00  3.33399E+00  2.37739E+00  1.05577E+00 -3.24440E-01 -1.38097E+00 -1.72075E+00 -1.37012E+00 -4.94670E-01
   7.32749E-01  1.99620E+00  2.94927E+00  3.40133E+00  3.06010E+00  1.84434E+00  6.85603E-04 -2.15246E+00 -4.26683E+00 -5.74067E+00
  -5.99099E+00 -4.91485E+00 -2.42990E+00  9.79138E-01  4.18371E+00  6.10358E+00  6.17905E+00  4.51947E+00  1.54503E+00 -2.31515E+00
  -6.03456E+00 -8.35940E+00 -8.49771E+00 -6.55998E+00 -3.62234E+00 -5.00870E-01  2.27091E+00  4.22323E+00  5.08200E+00  4.78672E+00
   3.82630E+00  3.07566E+00  2.82645E+00  2.96779E+00  3.41224E+00  3.90353E+00  4.10384E+00  3.70563E+00  2.67787E+00  1.27075E+00
  -9.08724E-02 -9.50081E-01 -8.74802E-01  7.61679E-02  1.57443E+00  3.23714E+00  4.71152E+00  5.70123E+00  6.24934E+00  6.69255E+00
   7.67558E+00  9.81467E+00  1.37955E+01  1.98249E+01  2.77127E+01  3.62797E+01  4.69946E+01  5.98894E+01  7.08041E+01  7.37273E+01
   6.89812E+01  5.96315E+01  4.76211E+01  3.50970E+01  2.35267E+01  1.26145E+01  5.04998E+00  2.09134E+00  5.64248E-01 -7.11635E-01
  -1.68769E+00 -2.33974E+00 -2.80467E+00 -3.22826E+00 -3.66471E+00 -4.14766E+00 -4.65903E+00 -5.17876E+00 -5.68869E+00 -6.15478E+00
  -6.51662E+00 -6.75763E+00 -6.91680E+00 -7.05747E+00 -7.21633E+00 -7.39939E+00 -7.60047E+00 -7.81567E+00 -8.02568E+00 -8.19595E+00
  -8.30051E+00 -8.35909E+00 -8.40162E+00 -8.43930E+00 -8.48629E+00 -8.55742E+00 -8.65304E+00 -8.76689E+00 -8.87396E+00 -8.95129E+00
  -9.00027E+00 -9.02525E+00 -9.03219E+00 -9.02918E+00 -9.01831E+00 -9.00638E+00 -8.99960E+00 -8.99244E+00 -8.98115E+00 -8.96420E+00
  -8.93958E+00 -8.90711E+00 -8.86743E+00 -8.82020E+00 -8.76450E+00 -8.69913E+00 -8.62300E+00 -8.53509E+00 -8.43413E+00 -8.31755E+00
  -8.18066E+00 -8.01545E+00 -7.82045E+00 -7.59719E+00 -7.36407E+00 -7.16081E+00 -7.01969E+00 -6.92333E+00 -6.82531E+00 -6.69670E+00
  -6.51416E+00 -6.24096E+00 -5.84295E+00 -5.30066E+00 -4.64538E+00 -3.96184E+00 -3.28128E+00 -2.59440E+00 -1.89911E+00 -1.18021E+00
  -4.20809E-01  4.03115E-01  1.33167E+00  2.37049E+00  3.46834E+00  4.51007E+00  5.37963E+00  6.06686E+00  6.67921E+00  7.29817E+00
   7.96608E+00  8.76699E+00  9.77304E+00  1.09875E+01  1.23090E+01  1.35216E+01  1.45149E+01  1.52896E+01  1.58377E+01  1.61859E+01
   1.63464E+01  1.63433E+01  1.62613E+01  1.61216E+01  1.58957E+01  1.55823E+01  1.51890E+01  1.47261E+01  1.42065E+01  1.36445E+01
   1.30557E+01  1.24558E+01  1.18605E+01  1.12847E+01  1.07428E+01  1.02482E+01  9.81347E+00  9.44928E+00  9.16460E+00  8.96661E+00
   8.86072E+00  8.85060E+00  8.93774E+00  9.12136E+00  9.39822E+00  9.76294E+00  1.02081E+01  1.07241E+01  1.12995E+01  1.19209E+01
   1.25731E+01  1.32403E+01  1.39061E+01  1.45544E+01  1.51691E+01  1.57352E+01  1.62392E+01  1.66697E+01  1.70180E+01  1.72776E+01
   1.74445E+01  1.75175E+01  1.74976E+01  1.73883E+01  1.71949E+01  1.69241E+01  1.65833E+01  1.61806E+01  1.57244E+01  1.52233E+01
   1.46854E+01  1.41182E+01  1.35285E+01  1.29225E+01  1.23058E+01  1.16838E+01  1.10610E+01  1.04413E+01  9.82818E+00  9.22489E+00
   8.63447E+00  8.05969E+00  7.50284E+00  6.96584E+00  6.45032E+00  5.95780E+00  5.48953E+00  5.04641E+00  4.62882E+00  4.23687E+00
   3.87042E+00  3.52931E+00  3.21306E+00  2.92097E+00  2.65197E+00  2.40496E+00  2.17885E+00  1.97264E+00  1.78518E+00  1.61523E+00
   1.46143E+00  1.32262E+00  1.19775E+00  1.08591E+00  9.86074E-01  8.97205E-01  8.18283E-01  7.48540E-01  6.87308E-01  6.34000E-01
   5.87881E-01  5.48265E-01  5.14511E-01  4.86244E-01  4.63119E-01  4.44804E-01  4.30799E-01  4.20695E-01  4.14160E-01  4.11069E-01
   4.11228E-01  4.14408E-01  4.20245E-01  4.28515E-01  4.39071E-01  4.51908E-01  4.66885E-01  4.83812E-01  5.02418E-01  5.22613E-01
   5.44362E-01  5.67700E-01  5.92492E-01  6.18579E-01  6.45772E-01  6.74080E-01  7.03521E-01  7.34120E-01  7.65720E-01  7.98193E-01
   8.31429E-01  8.65509E-01  9.00462E-01  9.36284E-01  9.72805E-01  1.00994E+00  1.04766E+00  1.08607E+00  1.12519E+00  1.16496E+00
   1.20523E+00  1.24595E+00  1.28717E+00  1.32899E+00  1.37138E+00  1.41426E+00  1.45749E+00  1.50111E+00
 NY background values follow
     3.885E+01    3.860E+01    3.835E+01    3.809E+01    3.784E+01    3.759E+01    3.734E+01    3.709E+01    3.684E+01    3.659E+01
     3.634E+01    3.609E+01    3.584E+01    3.559E+01    3.534E+01    3.509E+01    3.484E+01    3.459E+01    3.434E+01    3.409E+01
     3.384E+01    3.359E+01    3.334E+01    3.309E+01    3.284E+01    3.259E+01    3.234E+01    3.210E+01    3.185E+01    3.160E+01
     3.135E+01    3.110E+01    3.086E+01    3.061E+01    3.036E+01    3.011E+01    2.987E+01    2.962E+01    2.938E+01    2.913E+01
     2.889E+01    2.864E+01    2.840E+01    2.815E+01    2.791E+01    2.766E+01    2.742E+01    2.718E+01    2.693E+01    2.669E+01
     2.645E+01    2.621E+01    2.597E+01    2.573E+01    2.549E+01    2.525E+01    2.501E+01    2.477E+01    2.453E+01    2.429E+01
     2.406E+01    2.382E+01    2.358E+01    2.335E+01    2.311E+01    2.288E+01    2.265E+01    2.241E+01    2.218E+01    2.195E+01
     2.172E+01    2.149E+01    2.126E+01    2.103E+01    2.080E+01    2.058E+01    2.035E+01    2.013E+01    1.990E+01    1.968E+01
     1.946E+01    1.923E+01    1.901E+01    1.879E+01    1.857E+01    1.836E+01    1.814E+01    1.792E+01    1.771E+01    1.749E+01
     1.728E+01    1.707E+01    1.686E+01    1.665E+01    1.644E+01    1.623E+01    1.602E+01    1.582E+01    1.561E+01    1.541E+01
     1.521E+01    1.500E+01    1.480E+01    1.460E+01    1.440E+01    1.420E+01    1.401E+01    1.381E+01    1.361E+01    1.342E+01
     1.322E+01    1.303E+01    1.284E+01    1.264E+01    1.245E+01    1.226E+01    1.207E+01    1.188E+01    1.170E+01    1.151E+01
     1.132E+01    1.113E+01    1.095E+01    1.076E+01    1.058E+01    1.040E+01    1.021E+01    1.003E+01    9.848E+00    9.666E+00
     9.486E+00    9.305E+00    9.125E+00    8.946E+00    8.767E+00    8.589E+00    8.411E+00    8.234E+00    8.057E+00    7.881E+00
     7.705E+00    7.530E+00    7.355E+00    7.180E+00    7.006E+00    6.833E+00    6.660E+00    6.488E+00    6.316E+00    6.145E+00
     5.975E+00    5.804E+00    5.635E+00    5.466E+00    5.298E+00    5.130E+00    4.963E+00    4.796E+00    4.630E+00    4.464E+00
     4.299E+00    4.135E+00    3.972E+00    3.809E+00    3.646E+00    3.484E+00    3.323E+00    3.163E+00    3.003E+00    2.844E+00
     2.685E+00    2.527E+00    2.370E+00    2.213E+00    2.058E+00    1.902E+00    1.748E+00    1.594E+00    1.441E+00    1.289E+00
     1.137E+00    9.860E-01    8.357E-01    6.862E-01    5.374E-01    3.893E-01    2.419E-01    9.514E-02   -5.088E-02   -1.962E-01
    -3.409E-01   -4.848E-01   -6.281E-01   -7.707E-01   -9.126E-01   -1.054E+00   -1.195E+00   -1.334E+00   -1.474E+00   -1.612E+00
    -1.750E+00   -1.888E+00   -2.025E+00   -2.161E+00   -2.296E+00   -2.431E+00   -2.565E+00   -2.699E+00   -2.832E+00   -2.964E+00
    -3.096E+00   -3.227E+00   -3.358E+00   -3.488E+00   -3.617E+00   -3.746E+00   -3.874E+00   -4.002E+00   -4.129E+00   -4.255E+00
    -4.381E+00   -4.507E+00   -4.632E+00   -4.756E+00   -4.880E+00   -5.003E+00   -5.126E+00   -5.248E+00   -5.369E+00   -5.490E+00
    -5.611E+00   -5.730E+00   -5.850E+00   -5.968E+00   -6.086E+00   -6.203E+00   -6.319E+00   -6.435E+00   -6.550E+00   -6.664E+00
    -6.777E+00   -6.889E+00   -7.001E+00   -7.111E+00   -7.221E+00   -7.330E+00   -7.438E+00   -7.545E+00   -7.651E+00   -7.756E+00
    -7.860E+00   -7.963E+00   -8.064E+00   -8.165E+00   -8.265E+00   -8.363E+00   -8.460E+00   -8.557E+00   -8.652E+00   -8.745E+00
    -8.838E+00   -8.929E+00   -9.019E+00   -9.108E+00   -9.195E+00   -9.281E+00   -9.365E+00   -9.449E+00   -9.530E+00   -9.611E+00
    -9.690E+00   -9.767E+00   -9.843E+00   -9.918E+00   -9.991E+00   -1.006E+01   -1.013E+01   -1.020E+01   -1.027E+01   -1.033E+01
    -1.040E+01   -1.046E+01   -1.052E+01   -1.058E+01   -1.064E+01   -1.069E+01   -1.075E+01   -1.080E+01   -1.085E+01   -1.090E+01
    -1.095E+01   -1.100E+01   -1.104E+01   -1.108E+01   -1.113E+01   -1.117E+01   -1.120E+01   -1.124E+01   -1.128E+01   -1.131E+01
    -1.134E+01   -1.137E+01   -1.140E+01   -1.143E+01   -1.145E+01   -1.148E+01   -1.150E+01   -1.152E+01   -1.154E+01   -1.155E+01
    -1.157E+01   -1.158E+01   -1.160E+01   -1.161E+01   -1.161E+01   -1.162E+01   -1.163E+01   -1.163E+01   -1.163E+01   -1.163E+01
    -1.163E+01   -1.163E+01   -1.162E+01   -1.161E+01   -1.160E+01   -1.159E+01   -1.158E+01   -1.157E+01   -1.156E+01   -1.154E+01
    -1.152E+01   -1.150E+01   -1.148E+01   -1.146E+01   -1.143E+01   -1.141E+01   -1.138E+01   -1.135E+01   -1.133E+01   -1.129E+01
    -1.126E+01   -1.123E+01   -1.119E+01   -1.116E+01   -1.112E+01   -1.108E+01   -1.104E+01   -1.100E+01   -1.096E+01   -1.091E+01
    -1.087E+01   -1.082E+01   -1.077E+01   -1.072E+01   -1.067E+01   -1.062E+01   -1.057E+01   -1.052E+01   -1.046E+01   -1.041E+01
    -1.035E+01   -1.029E+01   -1.024E+01   -1.018E+01   -1.012E+01   -1.005E+01   -9.992E+00   -9.929E+00   -9.865E+00   -9.800E+00
    -9.734E+00   -9.667E+00   -9.599E+00   -9.531E+00   -9.461E+00   -9.391E+00   -9.320E+00   -9.249E+00   -9.176E+00   -9.103E+00
    -9.030E+00   -8.955E+00   -8.880E+00   -8.805E+00   -8.728E+00   -8.652E+00   -8.574E+00   -8.496E+00   -8.418E+00   -8.339E+00
    -8.259E+00   -8.180E+00   -8.099E+00   -8.018E+00   -7.937E+00   -7.856E+00   -7.774E+00   -7.691E+00   -7.609E+00   -7.526E+00
    -7.443E+00   -7.359E+00   -7.275E+00   -7.191E+00   -7.107E+00   -7.023E+00   -6.938E+00   -6.853E+00   -6.768E+00   -6.683E+00
    -6.598E+00   -6.513E+00   -6.428E+00   -6.342E+00   -6.257E+00   -6.171E+00   -6.086E+00   -6.000E+00   -5.915E+00   -5.830E+00
    -5.744E+00   -5.659E+00   -5.573E+00   -5.488E+00   -5.403E+00   -5.318E+00   -5.233E+00   -5.148E+00   -5.064E+00   -4.979E+00
    -4.895E+00   -4.811E+00   -4.727E+00   -4.644E+00   -4.561E+00   -4.477E+00   -4.395E+00   -4.312E+00   -4.230E+00   -4.148E+00
    -4.067E+00   -3.985E+00   -3.905E+00   -3.824E+00   -3.744E+00   -3.664E+00   -3.585E+00   -3.506E+00   -3.428E+00   -3.350E+00
    -3.273E+00   -3.196E+00   -3.120E+00   -3.044E+00   -2.969E+00   -2.894E+00   -2.819E+00   -2.746E+00   -2.672E+00   -2.599E+00
    -2.527E+00   -2.455E+00   -2.383E+00   -2.312E+00   -2.241E+00   -2.171E+00   -2.100E+00   -2.031E+00   -1.961E+00   -1.892E+00
    -1.823E+00   -1.755E+00   -1.687E+00   -1.619E+00   -1.551E+00   -1.484E+00   -1.417E+00   -1.350E+00   -1.284E+00   -1.217E+00
    -1.151E+00   -1.085E+00   -1.019E+00   -9.534E-01   -8.879E-01   -8.225E-01   -7.572E-01   -6.921E-01   -6.270E-01   -5.621E-01
    -4.972E-01   -4.324E-01   -3.677E-01   -3.030E-01   -2.383E-01   -1.737E-01   -1.091E-01   -4.443E-02
 Ala      Conc. = 2.80E+01
