 LCModel (Version 6.3-1L) Copyright: S.W. Provencher.          Ref.: Magn. Reson. Med. 30:672-679 (1993).                
 Slice#2 Row#4 Col#2  K_02_press_1_raw_act
 36 lines in following concentration table = NCONC+1
    Conc.  %SD /Cr+PCr  Metabolite                                         
  135.415  57%   0.924 Ala                                                 
   13.282 120% 9.1E-02 Asp                                                 
  105.474 107%   0.720 Cr                                                  
   41.061 275%   0.280 PCr                                                 
    4.436 216% 3.0E-02 GABA                                                
    5.495 175% 3.7E-02 Glc                                                 
   32.831 463%   0.224 Gln                                                 
    0.000 999%   0.000 Glu                                                 
   17.424  75%   0.119 GPC                                                 
    0.000 999%   0.000 PCh                                                 
   61.562  83%   0.420 GSH                                                 
    0.000 999%   0.000 Ins                                                 
    0.000 999%   0.000 Lac                                                 
    0.000 999%   0.000 NAA                                                 
    0.000 999%   0.000 NAAG                                                
    2.435 131% 1.7E-02 Scyllo                                              
    8.477 188% 5.8E-02 Tau                                                 
    0.000 999%   0.000 -CrCH2                                              
   17.424  75%   0.119 GPC+PCh                                             
    0.000 999%   0.000 NAA+NAAG                                            
  146.535  24%   1.000 Cr+PCr                                              
   32.831 463%   0.224 Glu+Gln                                             
    0.000 999%   0.000 Lip13a                                              
    0.000 999%   0.000 Lip13b                                              
 1.83E-03 999% 1.2E-05 Lip09                                               
  165.858  43%   1.132 MM09                                                
    0.000 999%   0.000 Lip20                                               
    0.000 999%   0.000 MM20                                                
   35.576 114%   0.243 MM12                                                
  698.933  15%   4.770+MM14                                                
  245.088  37%   1.673 MM17                                                
    0.000 999%   0.000 Lip13a+Lip13b                                       
  734.509  16%   5.013 MM14+Lip13a+Lip13b+MM12                             
  165.859  43%   1.132 MM09+Lip09                                          
    0.000 999%   0.000 MM20+Lip20                                          
   6 lines in following misc. output table
  FWHM = 0.061 ppm    S/N =   1                                            
  Data shift =-0.008 ppm                                                   
  Ph:  93 deg      32.2 deg/ppm                                            
  alphaB,S = 2.5E-01,   4.1E+01                                            
   14 spline knots.   Ns = 5(1)                                            
  ( 3) 2 infls.   ( 1) 1 extrs.                                            
  498 points on ppm-axis = NY
      4.000000     3.992357     3.984714     3.977070     3.969427     3.961784     3.954141     3.946497     3.938854     3.931211
      3.923568     3.915925     3.908281     3.900638     3.892995     3.885352     3.877708     3.870065     3.862422     3.854779
      3.847136     3.839492     3.831849     3.824206     3.816563     3.808919     3.801276     3.793633     3.785990     3.778347
      3.770703     3.763060     3.755417     3.747774     3.740130     3.732487     3.724844     3.717201     3.709558     3.701914
      3.694271     3.686628     3.678985     3.671341     3.663698     3.656055     3.648412     3.640769     3.633125     3.625482
      3.617839     3.610196     3.602552     3.594909     3.587266     3.579623     3.571980     3.564336     3.556693     3.549050
      3.541407     3.533763     3.526120     3.518477     3.510834     3.503191     3.495547     3.487904     3.480261     3.472618
      3.464974     3.457331     3.449688     3.442045     3.434402     3.426758     3.419115     3.411472     3.403829     3.396185
      3.388542     3.380899     3.373256     3.365613     3.357969     3.350326     3.342683     3.335040     3.327396     3.319753
      3.312110     3.304467     3.296824     3.289180     3.281537     3.273894     3.266251     3.258607     3.250964     3.243321
      3.235678     3.228034     3.220391     3.212748     3.205105     3.197462     3.189818     3.182175     3.174532     3.166889
      3.159245     3.151602     3.143959     3.136316     3.128673     3.121029     3.113386     3.105743     3.098100     3.090456
      3.082813     3.075170     3.067527     3.059884     3.052240     3.044597     3.036954     3.029311     3.021667     3.014024
      3.006381     2.998738     2.991095     2.983451     2.975808     2.968165     2.960522     2.952878     2.945235     2.937592
      2.929949     2.922306     2.914662     2.907019     2.899376     2.891733     2.884089     2.876446     2.868803     2.861160
      2.853517     2.845873     2.838230     2.830587     2.822944     2.815300     2.807657     2.800014     2.792371     2.784728
      2.777084     2.769441     2.761798     2.754155     2.746511     2.738868     2.731225     2.723582     2.715939     2.708295
      2.700652     2.693009     2.685366     2.677722     2.670079     2.662436     2.654793     2.647150     2.639506     2.631863
      2.624220     2.616577     2.608933     2.601290     2.593647     2.586004     2.578361     2.570717     2.563074     2.555431
      2.547788     2.540144     2.532501     2.524858     2.517215     2.509572     2.501928     2.494285     2.486642     2.478999
      2.471355     2.463712     2.456069     2.448426     2.440783     2.433139     2.425496     2.417853     2.410210     2.402566
      2.394923     2.387280     2.379637     2.371994     2.364350     2.356707     2.349064     2.341421     2.333777     2.326134
      2.318491     2.310848     2.303205     2.295561     2.287918     2.280275     2.272632     2.264988     2.257345     2.249702
      2.242059     2.234416     2.226772     2.219129     2.211486     2.203843     2.196199     2.188556     2.180913     2.173270
      2.165627     2.157983     2.150340     2.142697     2.135054     2.127410     2.119767     2.112124     2.104481     2.096838
      2.089194     2.081551     2.073908     2.066265     2.058621     2.050978     2.043335     2.035692     2.028049     2.020405
      2.012762     2.005119     1.997476     1.989833     1.982190     1.974546     1.966903     1.959260     1.951617     1.943974
      1.936331     1.928688     1.921045     1.913402     1.905759     1.898115     1.890472     1.882829     1.875186     1.867543
      1.859900     1.852257     1.844614     1.836971     1.829327     1.821684     1.814041     1.806398     1.798755     1.791112
      1.783469     1.775826     1.768183     1.760540     1.752896     1.745253     1.737610     1.729967     1.722324     1.714681
      1.707038     1.699395     1.691752     1.684108     1.676465     1.668822     1.661179     1.653536     1.645893     1.638250
      1.630607     1.622964     1.615321     1.607677     1.600034     1.592391     1.584748     1.577105     1.569462     1.561819
      1.554176     1.546533     1.538890     1.531246     1.523603     1.515960     1.508317     1.500674     1.493031     1.485388
      1.477745     1.470102     1.462458     1.454815     1.447172     1.439529     1.431886     1.424243     1.416600     1.408957
      1.401314     1.393671     1.386027     1.378384     1.370741     1.363098     1.355455     1.347812     1.340169     1.332526
      1.324883     1.317240     1.309596     1.301953     1.294310     1.286667     1.279024     1.271381     1.263738     1.256095
      1.248452     1.240808     1.233165     1.225522     1.217879     1.210236     1.202593     1.194950     1.187307     1.179664
      1.172021     1.164377     1.156734     1.149091     1.141448     1.133805     1.126162     1.118519     1.110876     1.103233
      1.095590     1.087946     1.080303     1.072660     1.065017     1.057374     1.049731     1.042088     1.034445     1.026802
      1.019158     1.011515     1.003872     0.996229     0.988586     0.980943     0.973300     0.965657     0.958014     0.950371
      0.942727     0.935084     0.927441     0.919798     0.912155     0.904512     0.896869     0.889226     0.881583     0.873940
      0.866296     0.858653     0.851010     0.843367     0.835724     0.828081     0.820438     0.812795     0.805152     0.797508
      0.789865     0.782222     0.774579     0.766936     0.759293     0.751650     0.744007     0.736364     0.728721     0.721077
      0.713434     0.705791     0.698148     0.690505     0.682862     0.675219     0.667576     0.659933     0.652290     0.644646
      0.637003     0.629360     0.621717     0.614074     0.606431     0.598788     0.591145     0.583502     0.575858     0.568215
      0.560572     0.552929     0.545286     0.537643     0.530000     0.522357     0.514714     0.507071     0.499427     0.491784
      0.484141     0.476498     0.468855     0.461212     0.453569     0.445925     0.438282     0.430639     0.422996     0.415353
      0.407710     0.400067     0.392424     0.384780     0.377137     0.369494     0.361851     0.354208     0.346565     0.338922
      0.331278     0.323635     0.315992     0.308349     0.300706     0.293063     0.285420     0.277777     0.270133     0.262490
      0.254847     0.247204     0.239561     0.231918     0.224275     0.216631     0.208988     0.201345
 NY phased data points follow
   5.44169E+01  5.54067E+01  5.36289E+01  5.76539E+01  5.21103E+01  5.23155E+01  4.85851E+01  5.35413E+01  4.85295E+01  5.08373E+01
   4.72193E+01  4.82108E+01  4.78758E+01  4.93123E+01  4.72658E+01  4.70091E+01  4.38633E+01  4.22784E+01  4.16126E+01  3.62292E+01
   3.84265E+01  3.88589E+01  3.98526E+01  3.68831E+01  3.49651E+01  4.05124E+01  3.65316E+01  3.41534E+01  3.63315E+01  3.35008E+01
   3.30715E+01  3.68615E+01  3.40922E+01  3.41009E+01  3.40606E+01  3.16447E+01  3.20303E+01  3.20993E+01  3.31766E+01  3.11345E+01
   3.03843E+01  3.32042E+01  2.61858E+01  2.93401E+01  2.67041E+01  2.58672E+01  2.46153E+01  2.53460E+01  2.61996E+01  2.84103E+01
   2.63499E+01  2.75846E+01  2.39207E+01  2.63622E+01  2.17707E+01  2.31411E+01  1.96339E+01  2.48918E+01  2.01753E+01  2.15112E+01
   1.88240E+01  2.25033E+01  1.94271E+01  1.72746E+01  1.85895E+01  1.94091E+01  1.62057E+01  1.86883E+01  1.51061E+01  1.92897E+01
   1.76572E+01  1.52056E+01  1.61136E+01  1.56110E+01  1.69104E+01  2.12564E+01  9.41258E+00  1.57608E+01  1.05552E+01  1.56168E+01
   1.64580E+01  1.55172E+01  1.64044E+01  1.47017E+01  1.72696E+01  1.38293E+01  1.05020E+01  1.18773E+01  1.64093E+01  1.52196E+01
   1.44481E+01  1.52078E+01  1.29509E+01  1.14571E+01  9.65384E+00  9.04615E+00  1.24680E+01  1.16670E+01  1.18085E+01  9.52481E+00
   1.15700E+01  1.14499E+01  1.36376E+01  9.64112E+00  1.34087E+01  9.99731E+00  1.17639E+01  1.13869E+01  7.40558E+00  1.03134E+01
   1.13574E+01  9.03126E+00  6.95979E+00  8.19460E+00  1.23999E+01  1.28673E+01  9.42560E+00  8.72586E+00  1.41324E+01  1.25172E+01
   1.01964E+01  7.75449E+00  9.13733E+00  1.24059E+01  8.02970E+00  1.02530E+01  1.06456E+01  1.26077E+01  1.36228E+01  1.05336E+01
   1.29122E+01  7.88087E+00  1.10447E+01  1.02780E+01  1.17411E+01  9.23004E+00  8.02086E+00  8.58064E+00  8.53172E+00  9.73331E+00
   7.01471E+00  7.18449E+00  5.97582E+00  9.49554E+00  8.80966E+00  7.92589E+00  9.29677E+00  1.05215E+01  7.86865E+00  4.10164E+00
   1.09577E+01  6.84074E+00  7.44215E+00  8.14405E+00  2.96987E+00  5.97088E+00  6.89469E+00  4.78800E+00  1.01984E+01  8.42118E+00
   8.59884E+00  9.64625E+00  3.98668E+00  8.51532E+00  6.83877E+00  8.36097E+00  6.66569E+00  9.89504E+00  8.40289E+00  1.09332E+01
   9.98645E+00  9.01025E+00  1.07450E+01  8.60208E+00  1.07295E+01  9.85867E+00  1.20223E+01  9.71427E+00  8.55369E+00  1.33314E+01
   1.25271E+01  1.15185E+01  9.16976E+00  1.41356E+01  1.31436E+01  1.49106E+01  1.84702E+01  1.48945E+01  1.53088E+01  1.78269E+01
   1.66861E+01  1.85823E+01  1.74655E+01  2.11576E+01  1.95388E+01  2.20084E+01  1.83183E+01  2.17051E+01  1.83949E+01  2.36927E+01
   2.33590E+01  1.91186E+01  2.25524E+01  2.07493E+01  2.42589E+01  2.01133E+01  2.01695E+01  1.61361E+01  2.22032E+01  2.07960E+01
   1.86363E+01  2.25980E+01  1.84776E+01  1.91938E+01  1.94576E+01  1.92953E+01  1.88132E+01  2.26777E+01  1.78461E+01  1.58471E+01
   1.95393E+01  1.84862E+01  1.45746E+01  1.54296E+01  1.62947E+01  1.84945E+01  1.47152E+01  1.60867E+01  1.71354E+01  1.50439E+01
   1.20204E+01  1.18437E+01  9.70811E+00  9.94316E+00  8.02207E+00  7.34912E+00  9.15952E+00  1.15463E+01  7.69285E+00  5.60244E+00
   3.74573E+00  7.54425E+00  1.70954E+00  4.08319E+00  2.95836E+00  2.53660E+00  6.34806E-01  2.57559E+00 -3.99115E-01  3.22387E-01
  -1.11327E+00  1.58968E+00  1.19958E+00 -1.96443E+00 -1.39894E+00 -2.54787E+00 -4.03830E+00 -4.43326E+00 -8.86761E-01  4.40790E-01
  -1.26465E+00  1.45054E+00 -3.73214E+00 -6.35603E+00 -6.95653E+00 -6.70740E+00 -8.38498E+00 -8.26685E+00 -6.31399E+00 -1.03456E+01
  -5.09183E+00 -9.39353E+00 -8.67841E+00 -6.21598E+00 -1.01071E+01 -9.56742E+00 -6.48853E+00 -1.31924E+01 -8.32633E+00 -9.59906E+00
  -9.87819E+00 -1.17566E+01 -1.40883E+01 -1.07742E+01 -1.02176E+01 -1.49468E+01 -1.00906E+01 -1.11440E+01 -8.84933E+00 -7.03350E+00
  -1.18943E+01 -1.13566E+01 -1.02970E+01 -8.51279E+00 -9.59510E+00 -1.04910E+01 -1.14215E+01 -1.09470E+01 -1.00913E+01 -8.68390E+00
  -1.09997E+01 -1.25467E+01 -1.02106E+01 -1.00435E+01 -1.19147E+01 -7.95906E+00 -8.26495E+00 -5.19719E+00 -7.55689E+00 -6.91428E+00
  -1.09476E+01 -8.85397E+00 -9.64464E+00 -7.48477E+00 -1.15988E+01 -7.54169E+00 -1.21663E+01 -8.96030E+00 -7.97432E+00 -8.52494E+00
  -7.28505E+00 -7.72950E+00 -8.61660E+00 -7.88983E+00 -6.92918E+00 -7.90829E+00 -1.02518E+01 -7.07997E+00 -8.46040E+00 -6.18671E+00
  -8.36139E+00 -7.67007E+00 -7.32708E+00 -1.11765E+01 -9.50150E+00 -7.05471E+00 -9.33669E+00 -1.22490E+01 -9.53697E+00 -7.83418E+00
  -7.18986E+00 -7.98965E+00 -1.28154E+01 -1.07104E+01 -1.05690E+01 -1.46776E+01 -1.49697E+01 -1.47945E+01 -1.54169E+01 -1.76553E+01
  -1.90642E+01 -1.33636E+01 -1.70721E+01 -1.09524E+01 -1.57361E+01 -1.85772E+01 -1.81155E+01 -1.96562E+01 -1.68574E+01 -2.30356E+01
  -2.13746E+01 -1.92087E+01 -1.78713E+01 -1.95945E+01 -1.87484E+01 -2.07911E+01 -2.09393E+01 -1.82057E+01 -2.34538E+01 -1.91427E+01
  -2.14003E+01 -1.99636E+01 -2.07601E+01 -1.68600E+01 -2.40927E+01 -1.78123E+01 -2.11580E+01 -1.71035E+01 -1.84927E+01 -1.85493E+01
  -2.05180E+01 -1.82742E+01 -1.63997E+01 -1.77893E+01 -1.68071E+01 -1.61710E+01 -1.88249E+01 -2.14135E+01 -1.82255E+01 -1.98279E+01
  -1.77092E+01 -2.06386E+01 -2.00797E+01 -1.94544E+01 -2.07704E+01 -1.93013E+01 -1.76688E+01 -1.71599E+01 -2.12929E+01 -1.56943E+01
  -1.86954E+01 -1.60229E+01 -1.78345E+01 -1.85681E+01 -2.01442E+01 -1.88685E+01 -1.84443E+01 -1.77829E+01 -1.54116E+01 -1.61512E+01
  -1.64911E+01 -1.57177E+01 -1.87437E+01 -1.68544E+01 -1.31473E+01 -1.80980E+01 -1.84758E+01 -1.60919E+01 -1.80748E+01 -1.71538E+01
  -1.88150E+01 -1.54981E+01 -1.71807E+01 -1.70078E+01 -1.77817E+01 -1.89086E+01 -1.69220E+01 -1.96051E+01 -1.69913E+01 -1.53659E+01
  -1.78998E+01 -1.65087E+01 -1.79395E+01 -1.81447E+01 -1.54140E+01 -1.64672E+01 -1.69038E+01 -1.77869E+01 -1.54415E+01 -1.78231E+01
  -1.28874E+01 -1.90841E+01 -1.67993E+01 -1.52536E+01 -1.91999E+01 -1.56693E+01 -1.92006E+01 -1.89108E+01 -1.73503E+01 -1.57084E+01
  -1.76875E+01 -1.65250E+01 -1.98391E+01 -1.78388E+01 -1.39500E+01 -1.39483E+01 -1.59216E+01 -1.78490E+01 -1.55141E+01 -1.61418E+01
  -1.87622E+01 -1.45769E+01 -1.68965E+01 -1.73630E+01 -1.47294E+01 -1.45764E+01 -1.77366E+01 -1.62391E+01 -1.65038E+01 -1.86984E+01
  -1.51184E+01 -1.71791E+01 -1.33166E+01 -1.25212E+01 -1.56569E+01 -1.35397E+01 -1.70104E+01 -1.74799E+01 -1.69333E+01 -1.65896E+01
  -1.27610E+01 -1.77234E+01 -1.58965E+01 -2.00606E+01 -1.94646E+01 -1.54202E+01 -1.54409E+01 -1.85462E+01 -1.43437E+01 -1.23185E+01
  -1.19439E+01 -1.45929E+01 -1.56484E+01 -1.43308E+01 -1.17646E+01 -1.38353E+01 -1.55200E+01 -1.58031E+01
 NY points of the fit to the data follow
   5.26534E+01  5.20645E+01  5.14892E+01  5.09465E+01  5.04881E+01  5.01177E+01  4.99006E+01  4.98233E+01  4.97385E+01  4.95794E+01
   4.93278E+01  4.89495E+01  4.83815E+01  4.75547E+01  4.64577E+01  4.51729E+01  4.38613E+01  4.26706E+01  4.17804E+01  4.11457E+01
   4.05967E+01  4.00735E+01  3.95356E+01  3.89837E+01  3.84413E+01  3.79751E+01  3.75490E+01  3.70922E+01  3.66175E+01  3.61795E+01
   3.57762E+01  3.53701E+01  3.49286E+01  3.43729E+01  3.36520E+01  3.28254E+01  3.20170E+01  3.13677E+01  3.08066E+01  3.02400E+01
   2.96813E+01  2.91615E+01  2.86558E+01  2.81490E+01  2.76599E+01  2.72080E+01  2.67914E+01  2.63816E+01  2.59533E+01  2.55227E+01
   2.51026E+01  2.46886E+01  2.42785E+01  2.38749E+01  2.34720E+01  2.30657E+01  2.26622E+01  2.22692E+01  2.18860E+01  2.15110E+01
   2.11435E+01  2.07849E+01  2.04360E+01  2.00943E+01  1.97586E+01  1.94273E+01  1.90999E+01  1.87774E+01  1.84602E+01  1.81473E+01
   1.78415E+01  1.75451E+01  1.72558E+01  1.69722E+01  1.66937E+01  1.64179E+01  1.61448E+01  1.58726E+01  1.56001E+01  1.53277E+01
   1.50591E+01  1.48064E+01  1.45757E+01  1.43586E+01  1.41459E+01  1.39336E+01  1.37188E+01  1.34978E+01  1.32665E+01  1.30223E+01
   1.27656E+01  1.25025E+01  1.22475E+01  1.20189E+01  1.18157E+01  1.16259E+01  1.14545E+01  1.13466E+01  1.13902E+01  1.15166E+01
   1.16320E+01  1.17135E+01  1.17595E+01  1.17532E+01  1.16575E+01  1.14300E+01  1.10398E+01  1.04950E+01  9.88411E+00  9.37423E+00
   9.09519E+00  8.93537E+00  8.80392E+00  8.68576E+00  8.57760E+00  8.47710E+00  8.38408E+00  8.30102E+00  8.23072E+00  8.18017E+00
   8.17055E+00  8.29485E+00  8.79953E+00  9.58520E+00  1.03761E+01  1.10926E+01  1.17327E+01  1.22520E+01  1.25554E+01  1.25114E+01
   1.19857E+01  1.09656E+01  9.66595E+00  8.52183E+00  7.96628E+00  7.80848E+00  7.73638E+00  7.69926E+00  7.69636E+00  7.75117E+00
   7.89204E+00  8.10731E+00  8.33262E+00  8.52200E+00  8.65923E+00  8.74137E+00  8.79177E+00  8.84193E+00  8.90981E+00  9.00574E+00
   9.11404E+00  9.23113E+00  9.35818E+00  9.49465E+00  9.63785E+00  9.78714E+00  9.94608E+00  1.01133E+01  1.02856E+01  1.04600E+01
   1.06334E+01  1.08039E+01  1.09739E+01  1.11492E+01  1.13312E+01  1.15173E+01  1.17052E+01  1.18937E+01  1.20847E+01  1.22776E+01
   1.24684E+01  1.26527E+01  1.28288E+01  1.29981E+01  1.31638E+01  1.33260E+01  1.34833E+01  1.36354E+01  1.37833E+01  1.39312E+01
   1.40774E+01  1.42192E+01  1.43580E+01  1.44941E+01  1.46314E+01  1.47792E+01  1.49443E+01  1.51241E+01  1.53071E+01  1.54821E+01
   1.56443E+01  1.57836E+01  1.58732E+01  1.58979E+01  1.58808E+01  1.58439E+01  1.58080E+01  1.58034E+01  1.58520E+01  1.59554E+01
   1.61009E+01  1.62664E+01  1.64245E+01  1.65365E+01  1.65651E+01  1.65006E+01  1.63927E+01  1.62806E+01  1.61735E+01  1.60719E+01
   1.59753E+01  1.58872E+01  1.58146E+01  1.57539E+01  1.56938E+01  1.56194E+01  1.55114E+01  1.53583E+01  1.51797E+01  1.49951E+01
   1.48020E+01  1.45941E+01  1.43688E+01  1.41269E+01  1.38672E+01  1.35859E+01  1.32720E+01  1.29195E+01  1.25439E+01  1.21599E+01
   1.17714E+01  1.13786E+01  1.09987E+01  1.06466E+01  1.03042E+01  9.95654E+00  9.60099E+00  9.21930E+00  8.77483E+00  8.25773E+00
   7.69961E+00  7.12941E+00  6.55745E+00  6.00175E+00  5.49847E+00  5.05684E+00  4.64233E+00  4.23330E+00  3.82178E+00  3.38969E+00
   2.91848E+00  2.41241E+00  1.89348E+00  1.38220E+00  8.77629E-01  3.77985E-01 -1.15051E-01 -5.96940E-01 -1.06538E+00 -1.52467E+00
  -1.97676E+00 -2.42092E+00 -2.85477E+00 -3.27856E+00 -3.69378E+00 -4.10115E+00 -4.50192E+00 -4.89425E+00 -5.27608E+00 -5.64559E+00
  -6.00113E+00 -6.34084E+00 -6.66354E+00 -6.96979E+00 -7.26042E+00 -7.53618E+00 -7.79883E+00 -8.04996E+00 -8.28977E+00 -8.51847E+00
  -8.73588E+00 -8.94137E+00 -9.13436E+00 -9.31401E+00 -9.47987E+00 -9.63224E+00 -9.77136E+00 -9.89723E+00 -1.00102E+01 -1.01105E+01
  -1.01984E+01 -1.02737E+01 -1.03358E+01 -1.03844E+01 -1.04194E+01 -1.04414E+01 -1.04506E+01 -1.04479E+01 -1.04345E+01 -1.04122E+01
  -1.03827E+01 -1.03483E+01 -1.03114E+01 -1.02744E+01 -1.02395E+01 -1.02089E+01 -1.01842E+01 -1.01665E+01 -1.01561E+01 -1.01526E+01
  -1.01548E+01 -1.01606E+01 -1.01668E+01 -1.01698E+01 -1.01655E+01 -1.01490E+01 -1.01158E+01 -1.00607E+01 -9.97808E+00 -9.86108E+00
  -9.69940E+00 -9.47071E+00 -9.12796E+00 -8.73701E+00 -8.46981E+00 -8.34911E+00 -8.35098E+00 -8.48748E+00 -8.80019E+00 -9.32937E+00
  -9.99508E+00 -1.05730E+01 -1.09615E+01 -1.10750E+01 -1.08488E+01 -1.04357E+01 -1.00700E+01 -9.79535E+00 -9.66935E+00 -9.78795E+00
  -1.02336E+01 -1.09874E+01 -1.18369E+01 -1.25400E+01 -1.31353E+01 -1.36721E+01 -1.41658E+01 -1.46214E+01 -1.50406E+01 -1.54247E+01
  -1.57746E+01 -1.60918E+01 -1.63778E+01 -1.66348E+01 -1.68651E+01 -1.70713E+01 -1.72559E+01 -1.74214E+01 -1.75702E+01 -1.77043E+01
  -1.78257E+01 -1.79361E+01 -1.80370E+01 -1.81295E+01 -1.82148E+01 -1.82939E+01 -1.83675E+01 -1.84361E+01 -1.85002E+01 -1.85600E+01
  -1.86158E+01 -1.86675E+01 -1.87153E+01 -1.87590E+01 -1.87987E+01 -1.88340E+01 -1.88651E+01 -1.88915E+01 -1.89132E+01 -1.89300E+01
  -1.89415E+01 -1.89476E+01 -1.89479E+01 -1.89423E+01 -1.89304E+01 -1.89120E+01 -1.88868E+01 -1.88546E+01 -1.88151E+01 -1.87685E+01
  -1.87146E+01 -1.86537E+01 -1.85861E+01 -1.85122E+01 -1.84330E+01 -1.83492E+01 -1.82622E+01 -1.81732E+01 -1.80838E+01 -1.79957E+01
  -1.79105E+01 -1.78301E+01 -1.77560E+01 -1.76897E+01 -1.76324E+01 -1.75852E+01 -1.75484E+01 -1.75224E+01 -1.75070E+01 -1.75015E+01
  -1.75051E+01 -1.75164E+01 -1.75342E+01 -1.75568E+01 -1.75826E+01 -1.76100E+01 -1.76375E+01 -1.76638E+01 -1.76876E+01 -1.77079E+01
  -1.77241E+01 -1.77356E+01 -1.77421E+01 -1.77434E+01 -1.77396E+01 -1.77308E+01 -1.77173E+01 -1.76994E+01 -1.76774E+01 -1.76518E+01
  -1.76230E+01 -1.75913E+01 -1.75571E+01 -1.75207E+01 -1.74824E+01 -1.74426E+01 -1.74015E+01 -1.73592E+01 -1.73161E+01 -1.72722E+01
  -1.72277E+01 -1.71828E+01 -1.71376E+01 -1.70921E+01 -1.70465E+01 -1.70010E+01 -1.69554E+01 -1.69100E+01 -1.68648E+01 -1.68198E+01
  -1.67752E+01 -1.67310E+01 -1.66872E+01 -1.66439E+01 -1.66010E+01 -1.65586E+01 -1.65167E+01 -1.64751E+01 -1.64339E+01 -1.63931E+01
  -1.63526E+01 -1.63124E+01 -1.62726E+01 -1.62329E+01 -1.61936E+01 -1.61544E+01 -1.61154E+01 -1.60766E+01 -1.60379E+01 -1.59993E+01
  -1.59607E+01 -1.59223E+01 -1.58838E+01 -1.58453E+01 -1.58068E+01 -1.57682E+01 -1.57295E+01 -1.56907E+01 -1.56517E+01 -1.56125E+01
  -1.55732E+01 -1.55335E+01 -1.54936E+01 -1.54534E+01 -1.54129E+01 -1.53719E+01 -1.53306E+01 -1.52889E+01 -1.52467E+01 -1.52040E+01
  -1.51608E+01 -1.51171E+01 -1.50728E+01 -1.50279E+01 -1.49823E+01 -1.49361E+01 -1.48891E+01 -1.48415E+01
 NY background values follow
     5.247E+01    5.185E+01    5.123E+01    5.062E+01    5.000E+01    4.938E+01    4.877E+01    4.815E+01    4.754E+01    4.693E+01
     4.632E+01    4.571E+01    4.511E+01    4.450E+01    4.390E+01    4.330E+01    4.270E+01    4.211E+01    4.152E+01    4.093E+01
     4.034E+01    3.976E+01    3.918E+01    3.860E+01    3.803E+01    3.746E+01    3.690E+01    3.634E+01    3.578E+01    3.523E+01
     3.468E+01    3.414E+01    3.361E+01    3.307E+01    3.255E+01    3.203E+01    3.151E+01    3.100E+01    3.050E+01    3.000E+01
     2.950E+01    2.902E+01    2.854E+01    2.807E+01    2.760E+01    2.714E+01    2.669E+01    2.625E+01    2.581E+01    2.538E+01
     2.495E+01    2.453E+01    2.412E+01    2.372E+01    2.332E+01    2.293E+01    2.254E+01    2.217E+01    2.179E+01    2.143E+01
     2.106E+01    2.071E+01    2.036E+01    2.002E+01    1.968E+01    1.934E+01    1.902E+01    1.869E+01    1.838E+01    1.807E+01
     1.776E+01    1.746E+01    1.716E+01    1.687E+01    1.658E+01    1.630E+01    1.602E+01    1.575E+01    1.548E+01    1.522E+01
     1.495E+01    1.470E+01    1.445E+01    1.420E+01    1.395E+01    1.371E+01    1.348E+01    1.324E+01    1.301E+01    1.279E+01
     1.256E+01    1.234E+01    1.213E+01    1.191E+01    1.170E+01    1.150E+01    1.130E+01    1.110E+01    1.090E+01    1.071E+01
     1.053E+01    1.035E+01    1.017E+01    9.998E+00    9.830E+00    9.667E+00    9.510E+00    9.357E+00    9.209E+00    9.067E+00
     8.930E+00    8.799E+00    8.674E+00    8.554E+00    8.440E+00    8.332E+00    8.230E+00    8.135E+00    8.045E+00    7.963E+00
     7.887E+00    7.817E+00    7.755E+00    7.699E+00    7.650E+00    7.609E+00    7.575E+00    7.548E+00    7.529E+00    7.517E+00
     7.514E+00    7.518E+00    7.530E+00    7.550E+00    7.579E+00    7.615E+00    7.661E+00    7.714E+00    7.776E+00    7.846E+00
     7.923E+00    8.008E+00    8.099E+00    8.198E+00    8.303E+00    8.414E+00    8.531E+00    8.654E+00    8.782E+00    8.915E+00
     9.054E+00    9.197E+00    9.344E+00    9.495E+00    9.650E+00    9.809E+00    9.971E+00    1.014E+01    1.030E+01    1.047E+01
     1.065E+01    1.082E+01    1.100E+01    1.117E+01    1.135E+01    1.153E+01    1.171E+01    1.189E+01    1.207E+01    1.225E+01
     1.243E+01    1.261E+01    1.278E+01    1.296E+01    1.313E+01    1.331E+01    1.348E+01    1.364E+01    1.381E+01    1.397E+01
     1.413E+01    1.429E+01    1.444E+01    1.458E+01    1.473E+01    1.487E+01    1.500E+01    1.513E+01    1.525E+01    1.537E+01
     1.548E+01    1.558E+01    1.568E+01    1.577E+01    1.586E+01    1.593E+01    1.600E+01    1.606E+01    1.612E+01    1.616E+01
     1.620E+01    1.622E+01    1.624E+01    1.625E+01    1.624E+01    1.623E+01    1.621E+01    1.617E+01    1.613E+01    1.607E+01
     1.600E+01    1.592E+01    1.583E+01    1.573E+01    1.561E+01    1.548E+01    1.533E+01    1.518E+01    1.500E+01    1.482E+01
     1.462E+01    1.440E+01    1.418E+01    1.393E+01    1.367E+01    1.339E+01    1.310E+01    1.279E+01    1.247E+01    1.213E+01
     1.178E+01    1.141E+01    1.103E+01    1.064E+01    1.023E+01    9.820E+00    9.396E+00    8.962E+00    8.520E+00    8.069E+00
     7.612E+00    7.148E+00    6.678E+00    6.202E+00    5.722E+00    5.238E+00    4.751E+00    4.262E+00    3.771E+00    3.279E+00
     2.786E+00    2.293E+00    1.802E+00    1.312E+00    8.250E-01    3.407E-01   -1.399E-01   -6.160E-01   -1.087E+00   -1.552E+00
    -2.011E+00   -2.462E+00   -2.906E+00   -3.341E+00   -3.766E+00   -4.182E+00   -4.587E+00   -4.980E+00   -5.362E+00   -5.731E+00
    -6.086E+00   -6.427E+00   -6.754E+00   -7.066E+00   -7.364E+00   -7.648E+00   -7.919E+00   -8.178E+00   -8.424E+00   -8.658E+00
    -8.880E+00   -9.091E+00   -9.292E+00   -9.482E+00   -9.662E+00   -9.833E+00   -9.995E+00   -1.015E+01   -1.029E+01   -1.043E+01
    -1.056E+01   -1.068E+01   -1.080E+01   -1.091E+01   -1.102E+01   -1.112E+01   -1.121E+01   -1.130E+01   -1.139E+01   -1.147E+01
    -1.155E+01   -1.163E+01   -1.171E+01   -1.178E+01   -1.185E+01   -1.192E+01   -1.199E+01   -1.206E+01   -1.213E+01   -1.220E+01
    -1.228E+01   -1.235E+01   -1.243E+01   -1.250E+01   -1.258E+01   -1.267E+01   -1.276E+01   -1.285E+01   -1.294E+01   -1.304E+01
    -1.315E+01   -1.325E+01   -1.336E+01   -1.348E+01   -1.359E+01   -1.371E+01   -1.384E+01   -1.396E+01   -1.409E+01   -1.421E+01
    -1.434E+01   -1.447E+01   -1.461E+01   -1.474E+01   -1.488E+01   -1.501E+01   -1.515E+01   -1.529E+01   -1.542E+01   -1.556E+01
    -1.570E+01   -1.583E+01   -1.597E+01   -1.611E+01   -1.624E+01   -1.638E+01   -1.651E+01   -1.664E+01   -1.677E+01   -1.690E+01
    -1.702E+01   -1.715E+01   -1.727E+01   -1.739E+01   -1.750E+01   -1.761E+01   -1.772E+01   -1.783E+01   -1.793E+01   -1.803E+01
    -1.813E+01   -1.822E+01   -1.831E+01   -1.839E+01   -1.847E+01   -1.854E+01   -1.861E+01   -1.868E+01   -1.874E+01   -1.880E+01
    -1.885E+01   -1.890E+01   -1.895E+01   -1.899E+01   -1.903E+01   -1.907E+01   -1.910E+01   -1.913E+01   -1.916E+01   -1.918E+01
    -1.920E+01   -1.922E+01   -1.924E+01   -1.925E+01   -1.926E+01   -1.926E+01   -1.927E+01   -1.927E+01   -1.926E+01   -1.926E+01
    -1.925E+01   -1.924E+01   -1.923E+01   -1.922E+01   -1.921E+01   -1.919E+01   -1.917E+01   -1.915E+01   -1.913E+01   -1.910E+01
    -1.907E+01   -1.905E+01   -1.902E+01   -1.899E+01   -1.896E+01   -1.892E+01   -1.889E+01   -1.885E+01   -1.882E+01   -1.878E+01
    -1.874E+01   -1.870E+01   -1.866E+01   -1.862E+01   -1.858E+01   -1.853E+01   -1.849E+01   -1.845E+01   -1.840E+01   -1.835E+01
    -1.831E+01   -1.826E+01   -1.821E+01   -1.817E+01   -1.812E+01   -1.807E+01   -1.802E+01   -1.797E+01   -1.792E+01   -1.787E+01
    -1.782E+01   -1.777E+01   -1.772E+01   -1.767E+01   -1.762E+01   -1.756E+01   -1.751E+01   -1.746E+01   -1.741E+01   -1.736E+01
    -1.731E+01   -1.726E+01   -1.721E+01   -1.716E+01   -1.711E+01   -1.706E+01   -1.701E+01   -1.696E+01   -1.692E+01   -1.687E+01
    -1.682E+01   -1.677E+01   -1.673E+01   -1.668E+01   -1.664E+01   -1.660E+01   -1.655E+01   -1.651E+01   -1.647E+01   -1.642E+01
    -1.638E+01   -1.634E+01   -1.630E+01   -1.626E+01   -1.622E+01   -1.618E+01   -1.614E+01   -1.610E+01   -1.606E+01   -1.602E+01
    -1.598E+01   -1.594E+01   -1.590E+01   -1.586E+01   -1.583E+01   -1.579E+01   -1.575E+01   -1.571E+01   -1.567E+01   -1.563E+01
    -1.559E+01   -1.555E+01   -1.551E+01   -1.547E+01   -1.543E+01   -1.539E+01   -1.534E+01   -1.530E+01   -1.526E+01   -1.522E+01
    -1.517E+01   -1.513E+01   -1.509E+01   -1.504E+01   -1.499E+01   -1.495E+01   -1.490E+01   -1.485E+01
 Ala      Conc. = 1.35E+02
