 LCModel (Version 6.3-1L) Copyright: S.W. Provencher.          Ref.: Magn. Reson. Med. 30:672-679 (1993).                
 Slice#2 Row#12 Col#1  K_02_press_1_raw_act
 36 lines in following concentration table = NCONC+1
    Conc.  %SD /Cr+PCr  Metabolite                                         
   20.730 999% 2.9E-02 Ala                                                 
    0.000 999%   0.000 Asp                                                 
  711.064   8%   1.000 Cr                                                  
    0.000 999%   0.000 PCr                                                 
   81.996  64%   0.115 GABA                                                
   37.647 139% 5.3E-02 Glc                                                 
 2.55E+03  20%   3.584 Gln                                                 
    0.000 999%   0.000 Glu                                                 
  255.083  11%   0.359 GPC                                                 
    0.000 999%   0.000 PCh                                                 
   66.312 182% 9.3E-02 GSH                                                 
 2.85E+03  12%   4.003 Ins                                                 
  484.354  50%   0.681 Lac                                                 
    0.000 999%   0.000 NAA                                                 
  211.299  30%   0.297 NAAG                                                
    9.263 176% 1.3E-02 Scyllo                                              
   82.734 101%   0.116 Tau                                                 
 1.10E+03  17%   1.542+-CrCH2                                              
  255.083  11%   0.359 GPC+PCh                                             
  211.299  30%   0.297 NAA+NAAG                                            
  711.064   8%   1.000 Cr+PCr                                              
 2.55E+03  20%   3.584 Glu+Gln                                             
    0.000 999%   0.000 Lip13a                                              
    0.000 999%   0.000 Lip13b                                              
    0.000 999%   0.000 Lip09                                               
  120.396  69%   0.169 MM09                                                
    2.989 425% 4.2E-03 Lip20                                               
  182.388  69%   0.256 MM20                                                
   36.144  70% 5.1E-02 MM12                                                
   89.734  72%   0.126 MM14                                                
   45.664  73% 6.4E-02 MM17                                                
    0.000 999%   0.000 Lip13a+Lip13b                                       
  125.878  71%   0.177 MM14+Lip13a+Lip13b+MM12                             
  120.396  69%   0.169 MM09+Lip09                                          
  185.377  68%   0.261 MM20+Lip20                                          
   6 lines in following misc. output table
  FWHM = 0.199 ppm    S/N =   3                                            
  Data shift = 0.428 ppm                                                   
  Ph: -39 deg      -7.9 deg/ppm                                            
  alphaB,S = 1.8E+00,   8.0E+01                                            
    9 spline knots.   Ns = 9(2)                                            
  (16) 9 infls.   (15) 3 extrs.                                            
  498 points on ppm-axis = NY
      4.000000     3.992357     3.984714     3.977070     3.969427     3.961784     3.954141     3.946497     3.938854     3.931211
      3.923568     3.915925     3.908281     3.900638     3.892995     3.885352     3.877708     3.870065     3.862422     3.854779
      3.847136     3.839492     3.831849     3.824206     3.816563     3.808919     3.801276     3.793633     3.785990     3.778347
      3.770703     3.763060     3.755417     3.747774     3.740130     3.732487     3.724844     3.717201     3.709558     3.701914
      3.694271     3.686628     3.678985     3.671341     3.663698     3.656055     3.648412     3.640769     3.633125     3.625482
      3.617839     3.610196     3.602552     3.594909     3.587266     3.579623     3.571980     3.564336     3.556693     3.549050
      3.541407     3.533763     3.526120     3.518477     3.510834     3.503191     3.495547     3.487904     3.480261     3.472618
      3.464974     3.457331     3.449688     3.442045     3.434402     3.426758     3.419115     3.411472     3.403829     3.396185
      3.388542     3.380899     3.373256     3.365613     3.357969     3.350326     3.342683     3.335040     3.327396     3.319753
      3.312110     3.304467     3.296824     3.289180     3.281537     3.273894     3.266251     3.258607     3.250964     3.243321
      3.235678     3.228034     3.220391     3.212748     3.205105     3.197462     3.189818     3.182175     3.174532     3.166889
      3.159245     3.151602     3.143959     3.136316     3.128673     3.121029     3.113386     3.105743     3.098100     3.090456
      3.082813     3.075170     3.067527     3.059884     3.052240     3.044597     3.036954     3.029311     3.021667     3.014024
      3.006381     2.998738     2.991095     2.983451     2.975808     2.968165     2.960522     2.952878     2.945235     2.937592
      2.929949     2.922306     2.914662     2.907019     2.899376     2.891733     2.884089     2.876446     2.868803     2.861160
      2.853517     2.845873     2.838230     2.830587     2.822944     2.815300     2.807657     2.800014     2.792371     2.784728
      2.777084     2.769441     2.761798     2.754155     2.746511     2.738868     2.731225     2.723582     2.715939     2.708295
      2.700652     2.693009     2.685366     2.677722     2.670079     2.662436     2.654793     2.647150     2.639506     2.631863
      2.624220     2.616577     2.608933     2.601290     2.593647     2.586004     2.578361     2.570717     2.563074     2.555431
      2.547788     2.540144     2.532501     2.524858     2.517215     2.509572     2.501928     2.494285     2.486642     2.478999
      2.471355     2.463712     2.456069     2.448426     2.440783     2.433139     2.425496     2.417853     2.410210     2.402566
      2.394923     2.387280     2.379637     2.371994     2.364350     2.356707     2.349064     2.341421     2.333777     2.326134
      2.318491     2.310848     2.303205     2.295561     2.287918     2.280275     2.272632     2.264988     2.257345     2.249702
      2.242059     2.234416     2.226772     2.219129     2.211486     2.203843     2.196199     2.188556     2.180913     2.173270
      2.165627     2.157983     2.150340     2.142697     2.135054     2.127410     2.119767     2.112124     2.104481     2.096838
      2.089194     2.081551     2.073908     2.066265     2.058621     2.050978     2.043335     2.035692     2.028049     2.020405
      2.012762     2.005119     1.997476     1.989833     1.982190     1.974546     1.966903     1.959260     1.951617     1.943974
      1.936331     1.928688     1.921045     1.913402     1.905759     1.898115     1.890472     1.882829     1.875186     1.867543
      1.859900     1.852257     1.844614     1.836971     1.829327     1.821684     1.814041     1.806398     1.798755     1.791112
      1.783469     1.775826     1.768183     1.760540     1.752896     1.745253     1.737610     1.729967     1.722324     1.714681
      1.707038     1.699395     1.691752     1.684108     1.676465     1.668822     1.661179     1.653536     1.645893     1.638250
      1.630607     1.622964     1.615321     1.607677     1.600034     1.592391     1.584748     1.577105     1.569462     1.561819
      1.554176     1.546533     1.538890     1.531246     1.523603     1.515960     1.508317     1.500674     1.493031     1.485388
      1.477745     1.470102     1.462458     1.454815     1.447172     1.439529     1.431886     1.424243     1.416600     1.408957
      1.401314     1.393671     1.386027     1.378384     1.370741     1.363098     1.355455     1.347812     1.340169     1.332526
      1.324883     1.317240     1.309596     1.301953     1.294310     1.286667     1.279024     1.271381     1.263738     1.256095
      1.248452     1.240808     1.233165     1.225522     1.217879     1.210236     1.202593     1.194950     1.187307     1.179664
      1.172021     1.164377     1.156734     1.149091     1.141448     1.133805     1.126162     1.118519     1.110876     1.103233
      1.095590     1.087946     1.080303     1.072660     1.065017     1.057374     1.049731     1.042088     1.034445     1.026802
      1.019158     1.011515     1.003872     0.996229     0.988586     0.980943     0.973300     0.965657     0.958014     0.950371
      0.942727     0.935084     0.927441     0.919798     0.912155     0.904512     0.896869     0.889226     0.881583     0.873940
      0.866296     0.858653     0.851010     0.843367     0.835724     0.828081     0.820438     0.812795     0.805152     0.797508
      0.789865     0.782222     0.774579     0.766936     0.759293     0.751650     0.744007     0.736364     0.728721     0.721077
      0.713434     0.705791     0.698148     0.690505     0.682862     0.675219     0.667576     0.659933     0.652290     0.644646
      0.637003     0.629360     0.621717     0.614074     0.606431     0.598788     0.591145     0.583502     0.575858     0.568215
      0.560572     0.552929     0.545286     0.537643     0.530000     0.522357     0.514714     0.507071     0.499427     0.491784
      0.484141     0.476498     0.468855     0.461212     0.453569     0.445925     0.438282     0.430639     0.422996     0.415353
      0.407710     0.400067     0.392424     0.384780     0.377137     0.369494     0.361851     0.354208     0.346565     0.338922
      0.331278     0.323635     0.315992     0.308349     0.300706     0.293063     0.285420     0.277777     0.270133     0.262490
      0.254847     0.247204     0.239561     0.231918     0.224275     0.216631     0.208988     0.201345
 NY phased data points follow
  -4.30546E+01 -4.20005E+01 -4.08012E+01 -3.96536E+01 -4.15617E+01 -3.94857E+01 -3.98167E+01 -3.81359E+01 -3.91060E+01 -3.97384E+01
  -4.13079E+01 -3.74820E+01 -3.66099E+01 -3.63578E+01 -3.72914E+01 -3.76145E+01 -3.73115E+01 -3.52877E+01 -3.59847E+01 -3.53129E+01
  -3.42161E+01 -3.52639E+01 -3.43381E+01 -3.39226E+01 -3.50603E+01 -3.35162E+01 -3.18667E+01 -3.26692E+01 -3.07628E+01 -3.08578E+01
  -3.20348E+01 -3.02298E+01 -2.79963E+01 -2.90011E+01 -2.86787E+01 -2.79729E+01 -2.76754E+01 -2.76169E+01 -2.63905E+01 -2.62164E+01
  -2.52048E+01 -2.56593E+01 -2.65538E+01 -2.57654E+01 -2.57564E+01 -2.54234E+01 -2.04102E+01 -2.35934E+01 -2.15986E+01 -2.05255E+01
  -2.01595E+01 -2.35682E+01 -2.01644E+01 -2.19114E+01 -2.13019E+01 -2.05370E+01 -2.16394E+01 -2.12554E+01 -2.12259E+01 -2.40125E+01
  -2.16251E+01 -2.26208E+01 -2.34816E+01 -2.32836E+01 -2.48916E+01 -2.34058E+01 -2.44148E+01 -2.52452E+01 -2.64551E+01 -2.67260E+01
  -2.61033E+01 -2.50376E+01 -2.66729E+01 -2.70127E+01 -2.53663E+01 -2.33345E+01 -2.41691E+01 -2.46451E+01 -2.58035E+01 -2.65239E+01
  -2.48557E+01 -2.42265E+01 -2.59971E+01 -2.54652E+01 -2.35899E+01 -2.25603E+01 -2.72423E+01 -2.45209E+01 -2.45020E+01 -2.06890E+01
  -2.45505E+01 -2.15880E+01 -2.22063E+01 -2.17927E+01 -2.19811E+01 -2.16380E+01 -2.17646E+01 -2.08132E+01 -1.95595E+01 -2.06457E+01
  -1.98964E+01 -1.82959E+01 -1.98394E+01 -1.98990E+01 -1.98159E+01 -1.96602E+01 -1.79476E+01 -2.05582E+01 -1.92096E+01 -1.82068E+01
  -1.52100E+01 -1.46371E+01 -1.67472E+01 -1.45926E+01 -1.50808E+01 -1.69181E+01 -1.41154E+01 -1.29184E+01 -1.45942E+01 -1.33755E+01
  -1.47782E+01 -1.53924E+01 -1.43501E+01 -1.52109E+01 -1.61568E+01 -1.63895E+01 -1.61387E+01 -1.70551E+01 -1.57621E+01 -1.57332E+01
  -1.76781E+01 -1.77750E+01 -1.56784E+01 -1.84663E+01 -1.90402E+01 -1.57329E+01 -1.91868E+01 -2.00467E+01 -2.12937E+01 -1.92236E+01
  -1.89419E+01 -2.09845E+01 -1.85409E+01 -2.16914E+01 -2.16119E+01 -2.10692E+01 -2.33462E+01 -1.97986E+01 -2.05140E+01 -1.97749E+01
  -1.78931E+01 -2.06622E+01 -2.14565E+01 -2.14337E+01 -1.89259E+01 -1.92184E+01 -1.98833E+01 -2.04665E+01 -1.84000E+01 -1.76109E+01
  -2.03273E+01 -2.04667E+01 -2.01591E+01 -2.03658E+01 -1.92323E+01 -1.74452E+01 -2.01646E+01 -1.98216E+01 -2.05921E+01 -1.82379E+01
  -1.93932E+01 -1.85019E+01 -2.08560E+01 -2.06831E+01 -2.13390E+01 -2.18180E+01 -2.47742E+01 -2.44269E+01 -2.22814E+01 -2.04632E+01
  -2.48528E+01 -2.08010E+01 -2.46214E+01 -2.24590E+01 -2.32934E+01 -2.51683E+01 -2.31290E+01 -2.27935E+01 -2.52286E+01 -2.45294E+01
  -2.55665E+01 -2.42257E+01 -2.50695E+01 -2.40554E+01 -2.44966E+01 -2.39278E+01 -2.44729E+01 -2.18433E+01 -2.31656E+01 -2.54261E+01
  -2.50936E+01 -2.37582E+01 -1.98468E+01 -2.17841E+01 -2.05997E+01 -2.00308E+01 -1.90283E+01 -1.69836E+01 -1.87839E+01 -2.00206E+01
  -2.11738E+01 -2.06928E+01 -2.18339E+01 -2.02707E+01 -2.06908E+01 -2.05393E+01 -1.90780E+01 -2.13422E+01 -2.29410E+01 -2.13384E+01
  -2.02923E+01 -1.91051E+01 -1.95530E+01 -1.98750E+01 -1.82734E+01 -2.01436E+01 -1.86149E+01 -1.92192E+01 -2.03376E+01 -1.74580E+01
  -1.93523E+01 -1.94608E+01 -1.57841E+01 -1.80485E+01 -1.98411E+01 -1.57749E+01 -1.68424E+01 -1.66701E+01 -1.80719E+01 -1.51054E+01
  -1.70691E+01 -1.71413E+01 -1.97692E+01 -1.68226E+01 -1.69856E+01 -1.54883E+01 -1.86420E+01 -1.56075E+01 -1.21931E+01 -1.89515E+01
  -1.73742E+01 -1.52127E+01 -1.47645E+01 -1.75806E+01 -1.63004E+01 -1.85859E+01 -1.62952E+01 -1.71708E+01 -1.74024E+01 -1.72654E+01
  -1.85773E+01 -1.67295E+01 -2.03376E+01 -1.63591E+01 -1.89375E+01 -1.86191E+01 -1.91157E+01 -1.62635E+01 -1.54614E+01 -1.58502E+01
  -1.61947E+01 -1.73826E+01 -1.91944E+01 -1.42714E+01 -1.60920E+01 -1.80563E+01 -1.64914E+01 -1.82738E+01 -1.77743E+01 -1.76229E+01
  -1.79328E+01 -1.90410E+01 -1.84307E+01 -1.63307E+01 -1.84181E+01 -1.67629E+01 -1.96053E+01 -1.79558E+01 -1.83393E+01 -1.94677E+01
  -1.88350E+01 -1.62844E+01 -1.74796E+01 -1.72219E+01 -1.64004E+01 -1.66053E+01 -1.66704E+01 -1.60431E+01 -1.51052E+01 -1.75179E+01
  -1.55305E+01 -1.45372E+01 -1.68839E+01 -1.51804E+01 -1.67370E+01 -1.59648E+01 -1.69933E+01 -1.36944E+01 -1.68988E+01 -1.57558E+01
  -1.54379E+01 -1.65778E+01 -1.43469E+01 -1.59623E+01 -1.57547E+01 -1.45802E+01 -1.61684E+01 -1.70127E+01 -1.67362E+01 -1.41116E+01
  -1.50808E+01 -1.59361E+01 -1.50802E+01 -1.33267E+01 -1.52235E+01 -1.51788E+01 -1.43010E+01 -1.37977E+01 -1.29212E+01 -1.33427E+01
  -1.13299E+01 -1.11771E+01 -1.31201E+01 -1.41397E+01 -1.46884E+01 -1.45174E+01 -1.45004E+01 -1.22976E+01 -1.50987E+01 -1.46877E+01
  -1.35218E+01 -1.12299E+01 -1.54133E+01 -1.14705E+01 -1.43515E+01 -1.24145E+01 -1.23631E+01 -1.39504E+01 -1.39731E+01 -1.30166E+01
  -1.29088E+01 -1.34859E+01 -1.32489E+01 -1.57059E+01 -1.27178E+01 -1.34559E+01 -1.20221E+01 -1.24545E+01 -1.21628E+01 -1.06445E+01
  -1.15593E+01 -1.35387E+01 -1.16713E+01 -1.40793E+01 -1.24373E+01 -1.22222E+01 -1.09388E+01 -1.27256E+01 -1.14517E+01 -1.14878E+01
  -1.32735E+01 -1.05585E+01 -1.25206E+01 -1.25218E+01 -1.16387E+01 -1.04952E+01 -1.09285E+01 -1.09924E+01 -1.24156E+01 -1.23439E+01
  -1.09886E+01 -1.16564E+01 -1.13759E+01 -9.37047E+00 -1.06043E+01 -9.59916E+00 -7.92895E+00 -1.09233E+01 -1.04060E+01 -1.23431E+01
  -1.04456E+01 -1.05316E+01 -9.84319E+00 -1.14986E+01 -1.14435E+01 -8.89153E+00 -8.92247E+00 -1.07475E+01 -1.05196E+01 -9.81502E+00
  -1.07088E+01 -1.16578E+01 -1.00553E+01 -9.82394E+00 -1.02135E+01 -1.11744E+01 -1.22179E+01 -1.28021E+01 -9.24526E+00 -1.03744E+01
  -1.07954E+01 -9.40190E+00 -9.93456E+00 -1.06096E+01 -1.12988E+01 -1.05106E+01 -6.43062E+00 -9.04468E+00 -9.30854E+00 -1.02479E+01
  -7.94877E+00 -1.07923E+01 -9.01922E+00 -9.95432E+00 -1.03135E+01 -8.80838E+00 -9.09017E+00 -1.00981E+01 -8.69081E+00 -8.41827E+00
  -1.04620E+01 -9.52178E+00 -7.93925E+00 -9.69255E+00 -9.97304E+00 -1.02748E+01 -7.72113E+00 -6.58519E+00 -7.48988E+00 -1.03236E+01
  -6.44167E+00 -8.31926E+00 -6.96148E+00 -7.93952E+00 -8.66351E+00 -9.36987E+00 -8.11793E+00 -8.26380E+00 -9.79304E+00 -7.08452E+00
  -6.66025E+00 -5.92888E+00 -7.29734E+00 -8.29678E+00 -9.16901E+00 -8.29837E+00 -6.95150E+00 -8.43825E+00 -8.82682E+00 -7.20616E+00
  -8.55634E+00 -7.46179E+00 -8.42601E+00 -7.18680E+00 -7.16981E+00 -8.29992E+00 -9.24896E+00 -4.79206E+00 -5.46171E+00 -9.42955E+00
  -7.55237E+00 -5.80837E+00 -7.13330E+00 -6.97740E+00 -7.78526E+00 -6.41826E+00 -6.15195E+00 -6.69906E+00 -5.86040E+00 -5.31960E+00
  -7.75321E+00 -5.66960E+00 -6.66591E+00 -6.69631E+00 -7.97065E+00 -5.44019E+00 -6.13876E+00 -6.25563E+00 -5.40836E+00 -7.43673E+00
  -7.21085E+00 -6.65666E+00 -6.75037E+00 -5.54680E+00 -7.50712E+00 -7.43648E+00 -8.73758E+00 -6.03341E+00
 NY points of the fit to the data follow
  -3.88678E+01 -3.92798E+01 -3.90104E+01 -3.90624E+01 -3.88663E+01 -3.85375E+01 -3.82291E+01 -3.82729E+01 -3.86254E+01 -3.90178E+01
  -3.96291E+01 -3.92843E+01 -3.96481E+01 -3.81889E+01 -3.81254E+01 -3.71320E+01 -3.72834E+01 -3.62623E+01 -3.64718E+01 -3.54171E+01
  -3.56205E+01 -3.46472E+01 -3.47967E+01 -3.41852E+01 -3.43630E+01 -3.34562E+01 -3.37029E+01 -3.26483E+01 -3.17732E+01 -3.00086E+01
  -2.93630E+01 -2.86529E+01 -2.83740E+01 -2.79320E+01 -2.77335E+01 -2.74018E+01 -2.68605E+01 -2.63883E+01 -2.60600E+01 -2.58876E+01
  -2.55644E+01 -2.54911E+01 -2.51939E+01 -2.50989E+01 -2.48601E+01 -2.45594E+01 -2.40523E+01 -2.38639E+01 -2.35890E+01 -2.36728E+01
  -2.35465E+01 -2.38022E+01 -2.36021E+01 -2.34705E+01 -2.34038E+01 -2.33992E+01 -2.35858E+01 -2.35513E+01 -2.34244E+01 -2.31877E+01
  -2.28312E+01 -2.25437E+01 -2.26189E+01 -2.26479E+01 -2.29232E+01 -2.29981E+01 -2.33520E+01 -2.35161E+01 -2.38179E+01 -2.39393E+01
  -2.43223E+01 -2.43672E+01 -2.46388E+01 -2.45685E+01 -2.47995E+01 -2.47313E+01 -2.51336E+01 -2.49973E+01 -2.56652E+01 -2.56085E+01
  -2.62551E+01 -2.60792E+01 -2.65818E+01 -2.62876E+01 -2.64645E+01 -2.46015E+01 -2.44230E+01 -2.32153E+01 -2.32736E+01 -2.25107E+01
  -2.26196E+01 -2.20289E+01 -2.19673E+01 -2.10107E+01 -2.07977E+01 -2.01001E+01 -2.00070E+01 -1.96688E+01 -1.97230E+01 -1.97362E+01
  -1.99308E+01 -1.99635E+01 -2.00624E+01 -1.96623E+01 -1.95764E+01 -1.95072E+01 -1.94665E+01 -1.95627E+01 -1.91062E+01 -1.75927E+01
  -1.73415E+01 -1.62879E+01 -1.65339E+01 -1.60069E+01 -1.65025E+01 -1.58046E+01 -1.61410E+01 -1.47690E+01 -1.52361E+01 -1.44270E+01
  -1.52738E+01 -1.48063E+01 -1.58725E+01 -1.57697E+01 -1.67865E+01 -1.62063E+01 -1.68681E+01 -1.58708E+01 -1.65866E+01 -1.59138E+01
  -1.67249E+01 -1.63151E+01 -1.70847E+01 -1.67005E+01 -1.74525E+01 -1.72820E+01 -1.80821E+01 -1.82436E+01 -1.89059E+01 -1.89427E+01
  -1.93770E+01 -1.91765E+01 -1.96386E+01 -1.97660E+01 -2.02436E+01 -2.05151E+01 -2.09585E+01 -2.13878E+01 -2.15850E+01 -2.15930E+01
  -2.16876E+01 -2.16653E+01 -2.17610E+01 -2.17006E+01 -2.17733E+01 -2.16900E+01 -2.17479E+01 -2.16794E+01 -2.17452E+01 -2.16782E+01
  -2.17612E+01 -2.16830E+01 -2.17594E+01 -2.16737E+01 -2.17482E+01 -2.16669E+01 -2.17133E+01 -2.16391E+01 -2.16733E+01 -2.15911E+01
  -2.16206E+01 -2.15241E+01 -2.15243E+01 -2.14031E+01 -2.13827E+01 -2.14166E+01 -2.14952E+01 -2.16582E+01 -2.19738E+01 -2.20865E+01
  -2.24437E+01 -2.24184E+01 -2.25070E+01 -2.20254E+01 -2.19203E+01 -2.14626E+01 -2.12785E+01 -2.07913E+01 -2.08674E+01 -2.05841E+01
  -2.10953E+01 -2.17310E+01 -2.23741E+01 -2.22560E+01 -2.26789E+01 -2.22419E+01 -2.27226E+01 -2.22639E+01 -2.28661E+01 -2.25599E+01
  -2.30827E+01 -2.23124E+01 -2.26376E+01 -2.16837E+01 -2.18446E+01 -2.07908E+01 -2.09695E+01 -2.01703E+01 -2.05355E+01 -2.01343E+01
  -2.05688E+01 -1.98967E+01 -2.02016E+01 -1.94627E+01 -1.96670E+01 -1.89706E+01 -1.92172E+01 -1.91469E+01 -1.94274E+01 -1.90017E+01
  -1.91671E+01 -1.87093E+01 -1.85361E+01 -1.79730E+01 -1.84383E+01 -1.78657E+01 -1.85421E+01 -1.80210E+01 -1.87318E+01 -1.80673E+01
  -1.88288E+01 -1.84430E+01 -1.92566E+01 -1.87010E+01 -1.95625E+01 -1.91575E+01 -1.99742E+01 -1.92054E+01 -1.94112E+01 -1.85830E+01
  -1.86932E+01 -1.79741E+01 -1.83083E+01 -1.77037E+01 -1.80443E+01 -1.74664E+01 -1.76513E+01 -1.72582E+01 -1.75378E+01 -1.73734E+01
  -1.75542E+01 -1.72909E+01 -1.72614E+01 -1.69720E+01 -1.68401E+01 -1.65226E+01 -1.64783E+01 -1.65287E+01 -1.66085E+01 -1.67843E+01
  -1.68605E+01 -1.69841E+01 -1.67867E+01 -1.68566E+01 -1.67042E+01 -1.67659E+01 -1.67525E+01 -1.68521E+01 -1.68752E+01 -1.69662E+01
  -1.70213E+01 -1.71647E+01 -1.72713E+01 -1.73764E+01 -1.74607E+01 -1.75200E+01 -1.76135E+01 -1.75774E+01 -1.75563E+01 -1.74974E+01
  -1.74950E+01 -1.74460E+01 -1.74422E+01 -1.73897E+01 -1.73845E+01 -1.73242E+01 -1.73077E+01 -1.72393E+01 -1.72152E+01 -1.71397E+01
  -1.71100E+01 -1.70334E+01 -1.70014E+01 -1.69197E+01 -1.68842E+01 -1.67981E+01 -1.67615E+01 -1.66690E+01 -1.66287E+01 -1.65356E+01
  -1.64951E+01 -1.64010E+01 -1.63632E+01 -1.62708E+01 -1.62356E+01 -1.61440E+01 -1.61093E+01 -1.60155E+01 -1.59756E+01 -1.58702E+01
  -1.58464E+01 -1.57553E+01 -1.57396E+01 -1.56546E+01 -1.56378E+01 -1.55528E+01 -1.55354E+01 -1.54255E+01 -1.53871E+01 -1.52729E+01
  -1.52228E+01 -1.51042E+01 -1.50406E+01 -1.49091E+01 -1.48220E+01 -1.46557E+01 -1.45158E+01 -1.42697E+01 -1.39577E+01 -1.33982E+01
  -1.34019E+01 -1.32189E+01 -1.33897E+01 -1.33876E+01 -1.36391E+01 -1.37594E+01 -1.40229E+01 -1.35314E+01 -1.37185E+01 -1.32735E+01
  -1.35225E+01 -1.31816E+01 -1.34861E+01 -1.31995E+01 -1.34714E+01 -1.29721E+01 -1.31403E+01 -1.25495E+01 -1.28208E+01 -1.24185E+01
  -1.27292E+01 -1.24684E+01 -1.27785E+01 -1.25406E+01 -1.28511E+01 -1.24985E+01 -1.27343E+01 -1.24467E+01 -1.25964E+01 -1.22994E+01
  -1.24154E+01 -1.20852E+01 -1.22440E+01 -1.20720E+01 -1.22077E+01 -1.21631E+01 -1.22874E+01 -1.22395E+01 -1.22291E+01 -1.19522E+01
  -1.19202E+01 -1.17663E+01 -1.17669E+01 -1.17006E+01 -1.17267E+01 -1.17905E+01 -1.18422E+01 -1.18093E+01 -1.18107E+01 -1.17499E+01
  -1.17318E+01 -1.16562E+01 -1.16253E+01 -1.15384E+01 -1.14968E+01 -1.14001E+01 -1.13488E+01 -1.12431E+01 -1.11832E+01 -1.10696E+01
  -1.10024E+01 -1.08829E+01 -1.08107E+01 -1.06880E+01 -1.06141E+01 -1.04917E+01 -1.04200E+01 -1.03022E+01 -1.02370E+01 -1.01280E+01
  -1.00731E+01 -9.97624E+00 -9.93458E+00 -9.85201E+00 -9.82483E+00 -9.75693E+00 -9.74371E+00 -9.68906E+00 -9.68758E+00 -9.64334E+00
  -9.65028E+00 -9.61279E+00 -9.62434E+00 -9.58977E+00 -9.60225E+00 -9.56728E+00 -9.57778E+00 -9.53990E+00 -9.54640E+00 -9.50410E+00
  -9.50556E+00 -9.45823E+00 -9.45443E+00 -9.40214E+00 -9.39340E+00 -9.33667E+00 -9.32363E+00 -9.26320E+00 -9.24662E+00 -9.18324E+00
  -9.16387E+00 -9.09822E+00 -9.07671E+00 -9.00941E+00 -8.98629E+00 -8.91779E+00 -8.89346E+00 -8.82413E+00 -8.79894E+00 -8.72906E+00
  -8.70323E+00 -8.63301E+00 -8.60672E+00 -8.53631E+00 -8.50972E+00 -8.43924E+00 -8.41243E+00 -8.34196E+00 -8.31503E+00 -8.24465E+00
  -8.21766E+00 -8.14743E+00 -8.12042E+00 -8.05037E+00 -8.02339E+00 -7.95358E+00 -7.92666E+00 -7.85710E+00 -7.83027E+00 -7.76099E+00
  -7.73427E+00 -7.66530E+00 -7.63872E+00 -7.57006E+00 -7.54363E+00 -7.47531E+00 -7.44904E+00 -7.38107E+00 -7.35499E+00 -7.28737E+00
  -7.26148E+00 -7.19423E+00 -7.16854E+00 -7.10167E+00 -7.07619E+00 -7.00970E+00 -6.98444E+00 -6.91834E+00 -6.89332E+00 -6.82761E+00
  -6.80281E+00 -6.73751E+00 -6.71295E+00 -6.64805E+00 -6.62373E+00 -6.55924E+00 -6.53516E+00 -6.47106E+00 -6.44723E+00 -6.38352E+00
  -6.35991E+00 -6.29657E+00 -6.27315E+00 -6.21014E+00 -6.18686E+00 -6.12407E+00 -6.10077E+00 -6.03797E+00
 NY background values follow
    -4.262E+01   -4.243E+01   -4.223E+01   -4.204E+01   -4.184E+01   -4.165E+01   -4.145E+01   -4.126E+01   -4.107E+01   -4.087E+01
    -4.068E+01   -4.048E+01   -4.029E+01   -4.010E+01   -3.991E+01   -3.971E+01   -3.952E+01   -3.933E+01   -3.914E+01   -3.895E+01
    -3.876E+01   -3.857E+01   -3.838E+01   -3.819E+01   -3.800E+01   -3.781E+01   -3.762E+01   -3.744E+01   -3.725E+01   -3.706E+01
    -3.688E+01   -3.669E+01   -3.651E+01   -3.632E+01   -3.614E+01   -3.596E+01   -3.577E+01   -3.559E+01   -3.541E+01   -3.523E+01
    -3.505E+01   -3.487E+01   -3.470E+01   -3.452E+01   -3.434E+01   -3.417E+01   -3.399E+01   -3.382E+01   -3.365E+01   -3.347E+01
    -3.330E+01   -3.313E+01   -3.296E+01   -3.280E+01   -3.263E+01   -3.246E+01   -3.230E+01   -3.213E+01   -3.197E+01   -3.180E+01
    -3.164E+01   -3.148E+01   -3.132E+01   -3.117E+01   -3.101E+01   -3.085E+01   -3.070E+01   -3.054E+01   -3.039E+01   -3.024E+01
    -3.009E+01   -2.994E+01   -2.979E+01   -2.965E+01   -2.950E+01   -2.936E+01   -2.922E+01   -2.908E+01   -2.894E+01   -2.880E+01
    -2.866E+01   -2.853E+01   -2.839E+01   -2.826E+01   -2.813E+01   -2.800E+01   -2.787E+01   -2.774E+01   -2.762E+01   -2.749E+01
    -2.737E+01   -2.725E+01   -2.713E+01   -2.701E+01   -2.689E+01   -2.678E+01   -2.666E+01   -2.655E+01   -2.644E+01   -2.633E+01
    -2.622E+01   -2.611E+01   -2.601E+01   -2.590E+01   -2.580E+01   -2.569E+01   -2.559E+01   -2.549E+01   -2.539E+01   -2.530E+01
    -2.520E+01   -2.510E+01   -2.501E+01   -2.492E+01   -2.483E+01   -2.474E+01   -2.465E+01   -2.456E+01   -2.447E+01   -2.439E+01
    -2.430E+01   -2.422E+01   -2.414E+01   -2.406E+01   -2.398E+01   -2.390E+01   -2.382E+01   -2.374E+01   -2.367E+01   -2.360E+01
    -2.352E+01   -2.345E+01   -2.338E+01   -2.331E+01   -2.324E+01   -2.317E+01   -2.311E+01   -2.304E+01   -2.297E+01   -2.291E+01
    -2.285E+01   -2.279E+01   -2.273E+01   -2.267E+01   -2.261E+01   -2.255E+01   -2.249E+01   -2.244E+01   -2.238E+01   -2.233E+01
    -2.227E+01   -2.222E+01   -2.217E+01   -2.212E+01   -2.207E+01   -2.202E+01   -2.197E+01   -2.193E+01   -2.188E+01   -2.184E+01
    -2.179E+01   -2.175E+01   -2.170E+01   -2.166E+01   -2.162E+01   -2.158E+01   -2.154E+01   -2.150E+01   -2.146E+01   -2.143E+01
    -2.139E+01   -2.136E+01   -2.132E+01   -2.129E+01   -2.125E+01   -2.122E+01   -2.119E+01   -2.115E+01   -2.112E+01   -2.109E+01
    -2.106E+01   -2.103E+01   -2.100E+01   -2.097E+01   -2.095E+01   -2.092E+01   -2.089E+01   -2.087E+01   -2.084E+01   -2.081E+01
    -2.079E+01   -2.076E+01   -2.074E+01   -2.071E+01   -2.069E+01   -2.067E+01   -2.064E+01   -2.062E+01   -2.060E+01   -2.057E+01
    -2.055E+01   -2.053E+01   -2.051E+01   -2.049E+01   -2.047E+01   -2.044E+01   -2.042E+01   -2.040E+01   -2.038E+01   -2.036E+01
    -2.034E+01   -2.032E+01   -2.030E+01   -2.028E+01   -2.026E+01   -2.024E+01   -2.021E+01   -2.019E+01   -2.017E+01   -2.015E+01
    -2.013E+01   -2.011E+01   -2.009E+01   -2.007E+01   -2.005E+01   -2.002E+01   -2.000E+01   -1.998E+01   -1.996E+01   -1.993E+01
    -1.991E+01   -1.989E+01   -1.986E+01   -1.984E+01   -1.982E+01   -1.979E+01   -1.977E+01   -1.974E+01   -1.972E+01   -1.969E+01
    -1.966E+01   -1.964E+01   -1.961E+01   -1.958E+01   -1.955E+01   -1.952E+01   -1.950E+01   -1.947E+01   -1.943E+01   -1.940E+01
    -1.937E+01   -1.934E+01   -1.931E+01   -1.927E+01   -1.924E+01   -1.921E+01   -1.917E+01   -1.913E+01   -1.910E+01   -1.906E+01
    -1.902E+01   -1.899E+01   -1.895E+01   -1.891E+01   -1.887E+01   -1.883E+01   -1.879E+01   -1.875E+01   -1.871E+01   -1.867E+01
    -1.863E+01   -1.858E+01   -1.854E+01   -1.850E+01   -1.845E+01   -1.841E+01   -1.836E+01   -1.832E+01   -1.827E+01   -1.823E+01
    -1.818E+01   -1.813E+01   -1.809E+01   -1.804E+01   -1.799E+01   -1.794E+01   -1.789E+01   -1.784E+01   -1.779E+01   -1.774E+01
    -1.769E+01   -1.764E+01   -1.759E+01   -1.754E+01   -1.749E+01   -1.744E+01   -1.738E+01   -1.733E+01   -1.728E+01   -1.723E+01
    -1.717E+01   -1.712E+01   -1.706E+01   -1.701E+01   -1.696E+01   -1.690E+01   -1.685E+01   -1.679E+01   -1.673E+01   -1.668E+01
    -1.662E+01   -1.657E+01   -1.651E+01   -1.645E+01   -1.640E+01   -1.634E+01   -1.628E+01   -1.622E+01   -1.617E+01   -1.611E+01
    -1.605E+01   -1.599E+01   -1.593E+01   -1.587E+01   -1.581E+01   -1.576E+01   -1.570E+01   -1.564E+01   -1.558E+01   -1.552E+01
    -1.546E+01   -1.540E+01   -1.534E+01   -1.528E+01   -1.522E+01   -1.516E+01   -1.510E+01   -1.504E+01   -1.498E+01   -1.492E+01
    -1.486E+01   -1.479E+01   -1.473E+01   -1.467E+01   -1.461E+01   -1.455E+01   -1.449E+01   -1.443E+01   -1.437E+01   -1.431E+01
    -1.424E+01   -1.418E+01   -1.412E+01   -1.406E+01   -1.400E+01   -1.394E+01   -1.388E+01   -1.381E+01   -1.375E+01   -1.369E+01
    -1.363E+01   -1.357E+01   -1.350E+01   -1.344E+01   -1.338E+01   -1.332E+01   -1.326E+01   -1.320E+01   -1.313E+01   -1.307E+01
    -1.301E+01   -1.295E+01   -1.289E+01   -1.283E+01   -1.276E+01   -1.270E+01   -1.264E+01   -1.258E+01   -1.252E+01   -1.246E+01
    -1.239E+01   -1.233E+01   -1.227E+01   -1.221E+01   -1.215E+01   -1.209E+01   -1.203E+01   -1.197E+01   -1.191E+01   -1.184E+01
    -1.178E+01   -1.172E+01   -1.166E+01   -1.160E+01   -1.154E+01   -1.148E+01   -1.142E+01   -1.136E+01   -1.130E+01   -1.124E+01
    -1.118E+01   -1.112E+01   -1.106E+01   -1.100E+01   -1.094E+01   -1.088E+01   -1.082E+01   -1.076E+01   -1.071E+01   -1.065E+01
    -1.059E+01   -1.053E+01   -1.047E+01   -1.041E+01   -1.036E+01   -1.030E+01   -1.024E+01   -1.018E+01   -1.012E+01   -1.007E+01
    -1.001E+01   -9.954E+00   -9.897E+00   -9.840E+00   -9.784E+00   -9.728E+00   -9.672E+00   -9.616E+00   -9.560E+00   -9.505E+00
    -9.449E+00   -9.394E+00   -9.339E+00   -9.284E+00   -9.229E+00   -9.175E+00   -9.120E+00   -9.066E+00   -9.012E+00   -8.958E+00
    -8.904E+00   -8.851E+00   -8.797E+00   -8.744E+00   -8.691E+00   -8.638E+00   -8.585E+00   -8.533E+00   -8.480E+00   -8.428E+00
    -8.376E+00   -8.324E+00   -8.272E+00   -8.221E+00   -8.170E+00   -8.118E+00   -8.067E+00   -8.017E+00   -7.966E+00   -7.915E+00
    -7.865E+00   -7.815E+00   -7.765E+00   -7.715E+00   -7.666E+00   -7.616E+00   -7.567E+00   -7.518E+00   -7.469E+00   -7.420E+00
    -7.372E+00   -7.323E+00   -7.275E+00   -7.227E+00   -7.179E+00   -7.132E+00   -7.084E+00   -7.037E+00   -6.990E+00   -6.943E+00
    -6.896E+00   -6.850E+00   -6.803E+00   -6.757E+00   -6.711E+00   -6.665E+00   -6.620E+00   -6.574E+00   -6.529E+00   -6.484E+00
    -6.439E+00   -6.394E+00   -6.350E+00   -6.306E+00   -6.261E+00   -6.217E+00   -6.174E+00   -6.130E+00
 Ala      Conc. = 2.07E+01
