 LCModel (Version 6.3-1L) Copyright: S.W. Provencher.          Ref.: Magn. Reson. Med. 30:672-679 (1993).                
 Slice#3 Row#12 Col#3  K_02_press_1_raw_act
 36 lines in following concentration table = NCONC+1
    Conc.  %SD /Cr+PCr  Metabolite                                         
    0.000 999%   0.000 Ala                                                 
   25.838  98%   0.000 Asp                                                 
    0.000 999%   0.000 Cr                                                  
    0.000 999%   0.000 PCr                                                 
   17.704  86%   0.000 GABA                                                
   20.257  75%   0.000 Glc                                                 
 3.53E+03  19%   0.000 Gln                                                 
 3.26E+03  27%   0.000 Glu                                                 
  185.468  14%   0.000 GPC                                                 
    0.000 999%   0.000 PCh                                                 
  308.498  46%   0.000 GSH                                                 
 3.41E+03  10%   0.000 Ins                                                 
 1.12E+03  44%   0.000 Lac                                                 
    0.000 999%   0.000 NAA                                                 
   11.450 970%   0.000 NAAG                                                
    8.881  56%   0.000 Scyllo                                              
   36.600  69%   0.000 Tau                                                 
    0.766 999%   0.000 -CrCH2                                              
  185.468  14%   0.000 GPC+PCh                                             
   11.450 970%   0.000 NAA+NAAG                                            
    0.000 999%   0.000 Cr+PCr                                              
 6.79E+03  20%   0.000 Glu+Gln                                             
 3.34E+03  15%   0.000 Lip13a                                              
    0.000 999%   0.000 Lip13b                                              
    0.000 999%   0.000 Lip09                                               
  950.417  15%   0.000 MM09                                                
 1.17E+03  18%   0.000 Lip20                                               
 2.54E+03  12%   0.000 MM20                                                
  297.785  75%   0.000 MM12                                                
 3.21E+03  10%   0.000 MM14                                                
 1.80E+03  12%   0.000 MM17                                                
 3.34E+03  15%   0.000 Lip13a+Lip13b                                       
 6.85E+03   8%   0.000 MM14+Lip13a+Lip13b+MM12                             
  950.417  15%   0.000 MM09+Lip09                                          
 3.70E+03   8%   0.000 MM20+Lip20                                          
   6 lines in following misc. output table
  FWHM = 0.199 ppm    S/N =   6                                            
  Data shift = 0.275 ppm                                                   
  Ph:-123 deg      34.0 deg/ppm                                            
  alphaB,S = 3.9E+00,   1.5E+02                                            
    7 spline knots.   Ns = 9(2)                                            
  (11) 7 infls.   ( 9) 1 extrs.                                            
  498 points on ppm-axis = NY
      4.000000     3.992357     3.984714     3.977070     3.969427     3.961784     3.954141     3.946497     3.938854     3.931211
      3.923568     3.915925     3.908281     3.900638     3.892995     3.885352     3.877708     3.870065     3.862422     3.854779
      3.847136     3.839492     3.831849     3.824206     3.816563     3.808919     3.801276     3.793633     3.785990     3.778347
      3.770703     3.763060     3.755417     3.747774     3.740130     3.732487     3.724844     3.717201     3.709558     3.701914
      3.694271     3.686628     3.678985     3.671341     3.663698     3.656055     3.648412     3.640769     3.633125     3.625482
      3.617839     3.610196     3.602552     3.594909     3.587266     3.579623     3.571980     3.564336     3.556693     3.549050
      3.541407     3.533763     3.526120     3.518477     3.510834     3.503191     3.495547     3.487904     3.480261     3.472618
      3.464974     3.457331     3.449688     3.442045     3.434402     3.426758     3.419115     3.411472     3.403829     3.396185
      3.388542     3.380899     3.373256     3.365613     3.357969     3.350326     3.342683     3.335040     3.327396     3.319753
      3.312110     3.304467     3.296824     3.289180     3.281537     3.273894     3.266251     3.258607     3.250964     3.243321
      3.235678     3.228034     3.220391     3.212748     3.205105     3.197462     3.189818     3.182175     3.174532     3.166889
      3.159245     3.151602     3.143959     3.136316     3.128673     3.121029     3.113386     3.105743     3.098100     3.090456
      3.082813     3.075170     3.067527     3.059884     3.052240     3.044597     3.036954     3.029311     3.021667     3.014024
      3.006381     2.998738     2.991095     2.983451     2.975808     2.968165     2.960522     2.952878     2.945235     2.937592
      2.929949     2.922306     2.914662     2.907019     2.899376     2.891733     2.884089     2.876446     2.868803     2.861160
      2.853517     2.845873     2.838230     2.830587     2.822944     2.815300     2.807657     2.800014     2.792371     2.784728
      2.777084     2.769441     2.761798     2.754155     2.746511     2.738868     2.731225     2.723582     2.715939     2.708295
      2.700652     2.693009     2.685366     2.677722     2.670079     2.662436     2.654793     2.647150     2.639506     2.631863
      2.624220     2.616577     2.608933     2.601290     2.593647     2.586004     2.578361     2.570717     2.563074     2.555431
      2.547788     2.540144     2.532501     2.524858     2.517215     2.509572     2.501928     2.494285     2.486642     2.478999
      2.471355     2.463712     2.456069     2.448426     2.440783     2.433139     2.425496     2.417853     2.410210     2.402566
      2.394923     2.387280     2.379637     2.371994     2.364350     2.356707     2.349064     2.341421     2.333777     2.326134
      2.318491     2.310848     2.303205     2.295561     2.287918     2.280275     2.272632     2.264988     2.257345     2.249702
      2.242059     2.234416     2.226772     2.219129     2.211486     2.203843     2.196199     2.188556     2.180913     2.173270
      2.165627     2.157983     2.150340     2.142697     2.135054     2.127410     2.119767     2.112124     2.104481     2.096838
      2.089194     2.081551     2.073908     2.066265     2.058621     2.050978     2.043335     2.035692     2.028049     2.020405
      2.012762     2.005119     1.997476     1.989833     1.982190     1.974546     1.966903     1.959260     1.951617     1.943974
      1.936331     1.928688     1.921045     1.913402     1.905759     1.898115     1.890472     1.882829     1.875186     1.867543
      1.859900     1.852257     1.844614     1.836971     1.829327     1.821684     1.814041     1.806398     1.798755     1.791112
      1.783469     1.775826     1.768183     1.760540     1.752896     1.745253     1.737610     1.729967     1.722324     1.714681
      1.707038     1.699395     1.691752     1.684108     1.676465     1.668822     1.661179     1.653536     1.645893     1.638250
      1.630607     1.622964     1.615321     1.607677     1.600034     1.592391     1.584748     1.577105     1.569462     1.561819
      1.554176     1.546533     1.538890     1.531246     1.523603     1.515960     1.508317     1.500674     1.493031     1.485388
      1.477745     1.470102     1.462458     1.454815     1.447172     1.439529     1.431886     1.424243     1.416600     1.408957
      1.401314     1.393671     1.386027     1.378384     1.370741     1.363098     1.355455     1.347812     1.340169     1.332526
      1.324883     1.317240     1.309596     1.301953     1.294310     1.286667     1.279024     1.271381     1.263738     1.256095
      1.248452     1.240808     1.233165     1.225522     1.217879     1.210236     1.202593     1.194950     1.187307     1.179664
      1.172021     1.164377     1.156734     1.149091     1.141448     1.133805     1.126162     1.118519     1.110876     1.103233
      1.095590     1.087946     1.080303     1.072660     1.065017     1.057374     1.049731     1.042088     1.034445     1.026802
      1.019158     1.011515     1.003872     0.996229     0.988586     0.980943     0.973300     0.965657     0.958014     0.950371
      0.942727     0.935084     0.927441     0.919798     0.912155     0.904512     0.896869     0.889226     0.881583     0.873940
      0.866296     0.858653     0.851010     0.843367     0.835724     0.828081     0.820438     0.812795     0.805152     0.797508
      0.789865     0.782222     0.774579     0.766936     0.759293     0.751650     0.744007     0.736364     0.728721     0.721077
      0.713434     0.705791     0.698148     0.690505     0.682862     0.675219     0.667576     0.659933     0.652290     0.644646
      0.637003     0.629360     0.621717     0.614074     0.606431     0.598788     0.591145     0.583502     0.575858     0.568215
      0.560572     0.552929     0.545286     0.537643     0.530000     0.522357     0.514714     0.507071     0.499427     0.491784
      0.484141     0.476498     0.468855     0.461212     0.453569     0.445925     0.438282     0.430639     0.422996     0.415353
      0.407710     0.400067     0.392424     0.384780     0.377137     0.369494     0.361851     0.354208     0.346565     0.338922
      0.331278     0.323635     0.315992     0.308349     0.300706     0.293063     0.285420     0.277777     0.270133     0.262490
      0.254847     0.247204     0.239561     0.231918     0.224275     0.216631     0.208988     0.201345
 NY phased data points follow
  -5.41615E+01 -4.74826E+01 -4.66930E+01 -4.80825E+01 -4.65726E+01 -4.32667E+01 -4.04467E+01 -4.10564E+01 -4.02751E+01 -3.67577E+01
  -3.59701E+01 -3.49138E+01 -3.49873E+01 -3.35117E+01 -3.31803E+01 -3.20718E+01 -3.17842E+01 -2.93390E+01 -2.60103E+01 -2.63643E+01
  -2.42559E+01 -2.36877E+01 -2.31429E+01 -2.17341E+01 -2.06741E+01 -2.14750E+01 -1.58689E+01 -1.54526E+01 -1.56934E+01 -1.21673E+01
  -1.08212E+01 -8.42657E+00 -8.07142E+00 -7.66312E+00 -3.17515E+00 -4.32275E+00 -3.32463E+00 -8.76726E-01 -1.65810E-01  5.63231E-01
   2.66070E+00  1.51294E-02  4.63479E+00  6.73883E+00  8.58431E+00  7.97058E+00  6.42157E+00  9.35076E+00  1.20190E+01  1.02636E+01
   1.03370E+01  1.11196E+01  1.13703E+01  1.48673E+01  1.59358E+01  1.50741E+01  1.76790E+01  1.64337E+01  1.76254E+01  1.79634E+01
   2.00683E+01  1.86626E+01  2.21115E+01  1.74275E+01  1.79742E+01  2.06079E+01  2.01029E+01  2.09331E+01  1.58652E+01  1.94970E+01
   2.28637E+01  1.99444E+01  2.20899E+01  2.37791E+01  2.35129E+01  2.49047E+01  2.54866E+01  2.53086E+01  2.57544E+01  2.56955E+01
   2.52833E+01  2.87294E+01  2.74501E+01  2.81870E+01  2.80715E+01  3.03445E+01  2.86771E+01  3.04443E+01  2.78365E+01  2.90535E+01
   3.09543E+01  3.12802E+01  3.17521E+01  2.88481E+01  2.91951E+01  3.03539E+01  3.11685E+01  3.32878E+01  3.28126E+01  3.22413E+01
   3.40909E+01  3.40057E+01  3.26030E+01  3.63692E+01  3.19318E+01  3.60991E+01  3.57314E+01  3.62534E+01  3.58325E+01  3.67578E+01
   3.97242E+01  3.94980E+01  3.86317E+01  4.13442E+01  3.67539E+01  3.91272E+01  3.98099E+01  4.10752E+01  3.85634E+01  4.05050E+01
   4.13463E+01  4.01700E+01  3.90251E+01  3.99546E+01  4.10256E+01  4.10115E+01  3.73315E+01  4.12189E+01  4.32369E+01  3.88235E+01
   4.01026E+01  4.14315E+01  3.97039E+01  4.08124E+01  4.00065E+01  4.19390E+01  4.22234E+01  4.23256E+01  4.30527E+01  4.47892E+01
   4.49395E+01  4.35207E+01  4.22290E+01  4.31516E+01  4.29242E+01  4.39443E+01  4.53271E+01  4.66131E+01  4.69842E+01  4.71107E+01
   4.66182E+01  4.64394E+01  4.65347E+01  4.86347E+01  4.73216E+01  4.91215E+01  4.76444E+01  5.00804E+01  4.98220E+01  5.07611E+01
   5.00451E+01  4.92369E+01  4.84129E+01  4.90704E+01  4.83807E+01  4.84156E+01  4.95429E+01  4.77454E+01  4.64290E+01  4.70961E+01
   4.73250E+01  4.71030E+01  4.92972E+01  4.76057E+01  4.88773E+01  4.73461E+01  4.63249E+01  4.88374E+01  4.58429E+01  4.83689E+01
   4.69954E+01  4.66288E+01  4.63923E+01  5.09212E+01  4.64026E+01  4.89493E+01  4.70070E+01  4.66455E+01  4.76419E+01  4.84793E+01
   4.57598E+01  4.58763E+01  4.77264E+01  4.92231E+01  4.81269E+01  4.77839E+01  4.89440E+01  4.76873E+01  4.77971E+01  4.78437E+01
   4.68331E+01  4.82055E+01  4.69803E+01  4.86557E+01  4.96636E+01  4.75070E+01  4.86065E+01  4.94378E+01  4.70900E+01  5.33164E+01
   5.07113E+01  5.25875E+01  5.25541E+01  5.48182E+01  5.12689E+01  5.53748E+01  5.34396E+01  5.60078E+01  5.18916E+01  5.40483E+01
   5.13312E+01  5.44252E+01  5.57348E+01  5.47350E+01  5.20444E+01  5.40693E+01  5.50298E+01  5.66373E+01  6.00076E+01  5.96493E+01
   6.09188E+01  6.05821E+01  5.79699E+01  5.82290E+01  6.02598E+01  6.12704E+01  5.98445E+01  6.55611E+01  6.33719E+01  6.43338E+01
   6.03291E+01  6.32627E+01  6.52335E+01  6.69403E+01  6.32553E+01  6.87849E+01  6.71488E+01  7.03658E+01  6.52128E+01  7.12910E+01
   6.93109E+01  6.88560E+01  6.73605E+01  6.74184E+01  6.83701E+01  6.93727E+01  6.62698E+01  6.63999E+01  6.61341E+01  6.81824E+01
   6.52212E+01  6.64610E+01  6.88343E+01  6.86402E+01  6.34745E+01  6.70723E+01  6.40667E+01  6.27122E+01  6.49255E+01  6.37946E+01
   6.22649E+01  6.01347E+01  6.17376E+01  6.36103E+01  6.25400E+01  6.03969E+01  6.00578E+01  5.93712E+01  6.13453E+01  5.93528E+01
   5.95932E+01  6.03326E+01  6.35772E+01  6.04018E+01  6.26568E+01  6.22908E+01  6.45134E+01  6.25422E+01  6.10597E+01  6.46665E+01
   6.64276E+01  6.54517E+01  6.71772E+01  6.77720E+01  6.99315E+01  7.05969E+01  7.05848E+01  7.10095E+01  7.28294E+01  7.29780E+01
   7.37715E+01  7.53044E+01  7.67111E+01  7.68799E+01  7.72064E+01  7.72670E+01  7.98209E+01  7.94403E+01  7.98509E+01  7.86989E+01
   7.74105E+01  7.88193E+01  8.11371E+01  7.73639E+01  7.94397E+01  7.80133E+01  7.85184E+01  7.91096E+01  8.20724E+01  8.00282E+01
   8.14585E+01  8.22137E+01  8.17611E+01  8.32170E+01  8.21715E+01  8.28235E+01  8.37320E+01  8.27706E+01  8.44574E+01  8.39712E+01
   8.28649E+01  8.12676E+01  8.23485E+01  8.23221E+01  8.09386E+01  7.85108E+01  7.97125E+01  8.05042E+01  8.06597E+01  7.95313E+01
   8.31829E+01  7.88776E+01  8.25876E+01  8.02030E+01  8.07628E+01  8.00111E+01  7.88292E+01  7.96283E+01  7.97829E+01  8.13507E+01
   7.84375E+01  7.95066E+01  7.94845E+01  7.73437E+01  7.51706E+01  8.05218E+01  7.51499E+01  7.67403E+01  7.66824E+01  7.65092E+01
   7.76011E+01  7.56499E+01  7.42586E+01  7.43005E+01  7.30020E+01  7.55588E+01  7.15146E+01  7.21319E+01  7.27082E+01  6.96340E+01
   7.04711E+01  6.99276E+01  7.41766E+01  7.18695E+01  7.09236E+01  6.95299E+01  6.92612E+01  7.06791E+01  6.83473E+01  6.65290E+01
   6.69825E+01  6.84326E+01  6.82454E+01  6.71092E+01  6.72213E+01  6.73502E+01  6.70004E+01  6.38556E+01  6.41993E+01  6.56924E+01
   6.54647E+01  6.55907E+01  6.41930E+01  6.52711E+01  6.32159E+01  6.25422E+01  6.47290E+01  6.17981E+01  5.95374E+01  6.11429E+01
   5.95211E+01  5.88949E+01  5.60577E+01  5.85244E+01  5.97973E+01  5.78538E+01  5.68368E+01  5.60319E+01  5.76572E+01  5.80606E+01
   5.38518E+01  5.36349E+01  5.29242E+01  5.25700E+01  5.16356E+01  5.22782E+01  5.21212E+01  5.00283E+01  5.10754E+01  5.18306E+01
   4.73908E+01  4.72825E+01  4.80606E+01  5.02061E+01  5.05198E+01  5.07393E+01  4.90166E+01  4.90432E+01  4.98272E+01  4.94328E+01
   4.71175E+01  4.77910E+01  4.39174E+01  4.54302E+01  4.59347E+01  4.49659E+01  4.64136E+01  4.59404E+01  4.48059E+01  4.82687E+01
   4.41819E+01  4.34994E+01  4.47436E+01  4.26984E+01  4.31607E+01  4.19899E+01  4.39529E+01  4.04117E+01  4.12093E+01  3.96419E+01
   3.90086E+01  4.05915E+01  3.96435E+01  3.91432E+01  3.67038E+01  3.76185E+01  3.73266E+01  3.88064E+01  3.89249E+01  3.56587E+01
   3.42889E+01  3.58621E+01  3.35574E+01  3.66217E+01  3.12717E+01  3.41063E+01  3.34060E+01  3.27088E+01  2.96129E+01  3.22244E+01
   2.99767E+01  3.19653E+01  2.95201E+01  3.07259E+01  2.90048E+01  3.02809E+01  2.83437E+01  3.31546E+01  2.86356E+01  2.99516E+01
   2.87414E+01  3.01497E+01  2.85152E+01  3.25044E+01  2.65599E+01  2.91260E+01  2.80139E+01  2.90498E+01  3.02112E+01  3.09594E+01
   3.03904E+01  2.78067E+01  2.78946E+01  2.63556E+01  2.71430E+01  2.90163E+01  3.01296E+01  2.69111E+01
 NY points of the fit to the data follow
  -4.88557E+01 -4.70999E+01 -4.57690E+01 -4.41436E+01 -4.27883E+01 -4.12135E+01 -4.00064E+01 -3.86945E+01 -3.79707E+01 -3.71666E+01
  -3.68893E+01 -3.62596E+01 -3.58055E+01 -3.47105E+01 -3.37173E+01 -3.22943E+01 -3.09626E+01 -2.98110E+01 -2.82871E+01 -2.72761E+01
  -2.57075E+01 -2.45555E+01 -2.29949E+01 -2.19268E+01 -2.02249E+01 -1.91796E+01 -1.72138E+01 -1.62536E+01 -1.42187E+01 -1.33694E+01
  -1.10516E+01 -1.01966E+01 -8.07977E+00 -7.42184E+00 -5.25236E+00 -4.72151E+00 -2.44214E+00 -2.17155E+00 -3.47532E-02  1.03941E-02
   2.12900E+00  2.17433E+00  4.62088E+00  4.79992E+00  7.28196E+00  7.28653E+00  9.47680E+00  9.33674E+00  1.06935E+01  1.03622E+01
   1.09826E+01  1.10899E+01  1.16425E+01  1.25131E+01  1.37089E+01  1.47890E+01  1.61280E+01  1.68713E+01  1.78830E+01  1.80104E+01
   1.87918E+01  1.89582E+01  1.95978E+01  1.96276E+01  2.01358E+01  2.00286E+01  2.02510E+01  2.00725E+01  2.02204E+01  2.03559E+01
   2.11534E+01  2.17885E+01  2.25559E+01  2.30427E+01  2.36566E+01  2.39983E+01  2.44430E+01  2.46939E+01  2.49391E+01  2.51970E+01
   2.52069E+01  2.54330E+01  2.55417E+01  2.59763E+01  2.65292E+01  2.73302E+01  2.74771E+01  2.82286E+01  2.80633E+01  2.88173E+01
   2.85281E+01  2.93469E+01  2.89265E+01  2.97704E+01  2.94620E+01  3.05525E+01  3.03178E+01  3.16253E+01  3.13006E+01  3.27552E+01
   3.22860E+01  3.38011E+01  3.32561E+01  3.48397E+01  3.44171E+01  3.61807E+01  3.58519E+01  3.77188E+01  3.72966E+01  3.89400E+01
   3.83268E+01  3.96847E+01  3.89347E+01  4.00952E+01  3.93366E+01  4.03393E+01  3.96928E+01  4.04910E+01  3.99107E+01  4.05141E+01
   3.99184E+01  4.01922E+01  3.97367E+01  3.98629E+01  4.02052E+01  4.05950E+01  4.09410E+01  4.12944E+01  4.16413E+01  4.19489E+01
   4.22658E+01  4.25211E+01  4.28080E+01  4.30399E+01  4.33282E+01  4.35650E+01  4.38657E+01  4.40846E+01  4.43828E+01  4.45615E+01
   4.48441E+01  4.50036E+01  4.52713E+01  4.54241E+01  4.56917E+01  4.58272E+01  4.60882E+01  4.62085E+01  4.64497E+01  4.65610E+01
   4.67871E+01  4.68914E+01  4.71001E+01  4.72132E+01  4.74212E+01  4.75821E+01  4.77675E+01  4.78396E+01  4.79333E+01  4.79166E+01
   4.79196E+01  4.78861E+01  4.78556E+01  4.78430E+01  4.78122E+01  4.77875E+01  4.77513E+01  4.76999E+01  4.76603E+01  4.76063E+01
   4.75727E+01  4.75327E+01  4.75291E+01  4.75158E+01  4.75312E+01  4.74632E+01  4.73900E+01  4.73169E+01  4.70655E+01  4.70277E+01
   4.67446E+01  4.68205E+01  4.66084E+01  4.70335E+01  4.69268E+01  4.74443E+01  4.73127E+01  4.80211E+01  4.76501E+01  4.82701E+01
   4.75853E+01  4.77218E+01  4.64945E+01  4.73857E+01  4.63093E+01  4.76694E+01  4.67404E+01  4.85315E+01  4.76884E+01  4.93975E+01
   4.82847E+01  4.98098E+01  4.84309E+01  4.97004E+01  4.79466E+01  4.94791E+01  4.81361E+01  5.00616E+01  4.90504E+01  5.11512E+01
   5.03607E+01  5.21202E+01  5.14606E+01  5.28673E+01  5.22917E+01  5.35685E+01  5.31180E+01  5.38429E+01  5.32372E+01  5.40499E+01
   5.37284E+01  5.45590E+01  5.46345E+01  5.58926E+01  5.59651E+01  5.71563E+01  5.76289E+01  5.90212E+01  5.95643E+01  6.05050E+01
   6.05825E+01  6.02641E+01  5.94455E+01  5.97092E+01  5.87731E+01  5.98465E+01  5.89874E+01  6.10898E+01  6.06085E+01  6.28631E+01
   6.23289E+01  6.46868E+01  6.41002E+01  6.60237E+01  6.47541E+01  6.65073E+01  6.53564E+01  6.70390E+01  6.61261E+01  6.78534E+01
   6.69998E+01  6.85407E+01  6.77042E+01  6.87402E+01  6.79629E+01  6.86253E+01  6.79774E+01  6.77814E+01  6.70890E+01  6.68073E+01
   6.64728E+01  6.62321E+01  6.63016E+01  6.63004E+01  6.59815E+01  6.57878E+01  6.53523E+01  6.50130E+01  6.44280E+01  6.40518E+01
   6.34958E+01  6.30059E+01  6.25985E+01  6.21577E+01  6.20109E+01  6.17338E+01  6.18211E+01  6.16515E+01  6.17896E+01  6.16098E+01
   6.16128E+01  6.15243E+01  6.16353E+01  6.17631E+01  6.19820E+01  6.23489E+01  6.27315E+01  6.32084E+01  6.37577E+01  6.43946E+01
   6.50846E+01  6.58516E+01  6.66610E+01  6.75227E+01  6.84360E+01  6.94250E+01  7.04432E+01  7.14885E+01  7.25280E+01  7.35437E+01
   7.45138E+01  7.54089E+01  7.62115E+01  7.69182E+01  7.75160E+01  7.80074E+01  7.83905E+01  7.86775E+01  7.88773E+01  7.90080E+01
   7.90844E+01  7.91339E+01  7.91684E+01  7.92131E+01  7.92793E+01  7.93836E+01  7.95301E+01  7.97263E+01  7.99679E+01  8.02527E+01
   8.05697E+01  8.09095E+01  8.12586E+01  8.16039E+01  8.19351E+01  8.22429E+01  8.25256E+01  8.27952E+01  8.31051E+01  8.35064E+01
   8.33909E+01  8.33047E+01  8.29616E+01  8.26527E+01  8.21737E+01  8.17224E+01  8.11319E+01  8.11117E+01  8.06708E+01  8.07174E+01
   8.02712E+01  8.03773E+01  7.98403E+01  7.99765E+01  7.94019E+01  7.95097E+01  7.89527E+01  7.91578E+01  7.86868E+01  7.91771E+01
   7.87089E+01  7.92377E+01  7.86191E+01  7.89079E+01  7.81986E+01  7.83559E+01  7.75169E+01  7.76283E+01  7.67205E+01  7.67982E+01
   7.58605E+01  7.57209E+01  7.47393E+01  7.45001E+01  7.36133E+01  7.33590E+01  7.27301E+01  7.26260E+01  7.24390E+01  7.27714E+01
   7.23557E+01  7.21858E+01  7.16177E+01  7.09663E+01  7.02647E+01  6.91824E+01  6.84773E+01  6.79687E+01  6.75659E+01  6.72363E+01
   6.69629E+01  6.67341E+01  6.65405E+01  6.63734E+01  6.62243E+01  6.60846E+01  6.59459E+01  6.57995E+01  6.56373E+01  6.54518E+01
   6.52360E+01  6.49845E+01  6.46925E+01  6.43572E+01  6.39769E+01  6.35518E+01  6.30836E+01  6.25752E+01  6.20309E+01  6.14557E+01
   6.08557E+01  6.02371E+01  5.96063E+01  5.89695E+01  5.83326E+01  5.77007E+01  5.70783E+01  5.64693E+01  5.58765E+01  5.53017E+01
   5.47464E+01  5.42111E+01  5.36957E+01  5.31997E+01  5.27222E+01  5.22620E+01  5.18178E+01  5.13880E+01  5.09714E+01  5.05663E+01
   5.01714E+01  4.97854E+01  4.94072E+01  4.90356E+01  4.86697E+01  4.83087E+01  4.79518E+01  4.75985E+01  4.72481E+01  4.69003E+01
   4.65546E+01  4.62107E+01  4.58682E+01  4.55271E+01  4.51871E+01  4.48480E+01  4.45098E+01  4.41723E+01  4.38353E+01  4.34990E+01
   4.31631E+01  4.28277E+01  4.24928E+01  4.21583E+01  4.18242E+01  4.14905E+01  4.11573E+01  4.08246E+01  4.04923E+01  4.01605E+01
   3.98293E+01  3.94986E+01  3.91685E+01  3.88390E+01  3.85102E+01  3.81822E+01  3.78549E+01  3.75284E+01  3.72028E+01  3.68781E+01
   3.65543E+01  3.62316E+01  3.59100E+01  3.55895E+01  3.52702E+01  3.49521E+01  3.46354E+01  3.43200E+01  3.40061E+01  3.36936E+01
   3.33827E+01  3.30735E+01  3.27659E+01  3.24601E+01  3.21561E+01  3.18540E+01  3.15538E+01  3.12556E+01  3.09596E+01  3.06657E+01
   3.03740E+01  3.00847E+01  2.97977E+01  2.95132E+01  2.92312E+01  2.89519E+01  2.86752E+01  2.84014E+01  2.81303E+01  2.78623E+01
   2.75974E+01  2.73356E+01  2.70771E+01  2.68220E+01  2.65705E+01  2.63228E+01  2.60790E+01  2.58394E+01
 NY background values follow
    -5.764E+01   -5.623E+01   -5.483E+01   -5.344E+01   -5.207E+01   -5.070E+01   -4.936E+01   -4.802E+01   -4.670E+01   -4.538E+01
    -4.409E+01   -4.280E+01   -4.152E+01   -4.026E+01   -3.901E+01   -3.777E+01   -3.655E+01   -3.533E+01   -3.413E+01   -3.294E+01
    -3.176E+01   -3.059E+01   -2.944E+01   -2.830E+01   -2.716E+01   -2.604E+01   -2.493E+01   -2.383E+01   -2.275E+01   -2.167E+01
    -2.061E+01   -1.955E+01   -1.851E+01   -1.748E+01   -1.646E+01   -1.545E+01   -1.445E+01   -1.346E+01   -1.249E+01   -1.152E+01
    -1.056E+01   -9.618E+00   -8.683E+00   -7.759E+00   -6.844E+00   -5.940E+00   -5.046E+00   -4.162E+00   -3.289E+00   -2.425E+00
    -1.571E+00   -7.274E-01    1.066E-01    9.308E-01    1.745E+00    2.550E+00    3.345E+00    4.131E+00    4.907E+00    5.674E+00
     6.431E+00    7.180E+00    7.918E+00    8.648E+00    9.369E+00    1.008E+01    1.078E+01    1.148E+01    1.216E+01    1.284E+01
     1.350E+01    1.416E+01    1.481E+01    1.545E+01    1.609E+01    1.671E+01    1.733E+01    1.794E+01    1.854E+01    1.913E+01
     1.971E+01    2.029E+01    2.085E+01    2.141E+01    2.196E+01    2.251E+01    2.304E+01    2.357E+01    2.409E+01    2.461E+01
     2.511E+01    2.561E+01    2.610E+01    2.658E+01    2.706E+01    2.753E+01    2.799E+01    2.845E+01    2.889E+01    2.934E+01
     2.977E+01    3.020E+01    3.062E+01    3.103E+01    3.144E+01    3.184E+01    3.223E+01    3.262E+01    3.300E+01    3.338E+01
     3.375E+01    3.411E+01    3.447E+01    3.482E+01    3.516E+01    3.550E+01    3.584E+01    3.616E+01    3.649E+01    3.680E+01
     3.711E+01    3.742E+01    3.772E+01    3.801E+01    3.830E+01    3.858E+01    3.886E+01    3.913E+01    3.940E+01    3.966E+01
     3.992E+01    4.018E+01    4.042E+01    4.067E+01    4.091E+01    4.114E+01    4.137E+01    4.159E+01    4.181E+01    4.203E+01
     4.224E+01    4.245E+01    4.265E+01    4.285E+01    4.305E+01    4.324E+01    4.342E+01    4.361E+01    4.378E+01    4.396E+01
     4.413E+01    4.430E+01    4.446E+01    4.462E+01    4.478E+01    4.493E+01    4.508E+01    4.522E+01    4.537E+01    4.551E+01
     4.564E+01    4.578E+01    4.591E+01    4.603E+01    4.616E+01    4.628E+01    4.640E+01    4.651E+01    4.662E+01    4.673E+01
     4.684E+01    4.695E+01    4.705E+01    4.715E+01    4.724E+01    4.734E+01    4.743E+01    4.752E+01    4.761E+01    4.770E+01
     4.778E+01    4.787E+01    4.795E+01    4.803E+01    4.810E+01    4.818E+01    4.825E+01    4.832E+01    4.839E+01    4.846E+01
     4.853E+01    4.860E+01    4.866E+01    4.872E+01    4.879E+01    4.885E+01    4.891E+01    4.897E+01    4.903E+01    4.908E+01
     4.914E+01    4.919E+01    4.925E+01    4.930E+01    4.936E+01    4.941E+01    4.946E+01    4.952E+01    4.957E+01    4.962E+01
     4.967E+01    4.972E+01    4.977E+01    4.983E+01    4.988E+01    4.993E+01    4.998E+01    5.003E+01    5.008E+01    5.013E+01
     5.019E+01    5.024E+01    5.029E+01    5.035E+01    5.040E+01    5.046E+01    5.051E+01    5.057E+01    5.063E+01    5.068E+01
     5.074E+01    5.080E+01    5.086E+01    5.093E+01    5.099E+01    5.106E+01    5.112E+01    5.119E+01    5.126E+01    5.133E+01
     5.140E+01    5.148E+01    5.155E+01    5.163E+01    5.171E+01    5.179E+01    5.187E+01    5.195E+01    5.204E+01    5.213E+01
     5.222E+01    5.231E+01    5.241E+01    5.251E+01    5.260E+01    5.270E+01    5.281E+01    5.291E+01    5.302E+01    5.312E+01
     5.323E+01    5.334E+01    5.345E+01    5.356E+01    5.368E+01    5.379E+01    5.391E+01    5.402E+01    5.414E+01    5.426E+01
     5.438E+01    5.450E+01    5.462E+01    5.475E+01    5.487E+01    5.499E+01    5.511E+01    5.524E+01    5.536E+01    5.549E+01
     5.561E+01    5.574E+01    5.586E+01    5.599E+01    5.611E+01    5.624E+01    5.636E+01    5.649E+01    5.661E+01    5.674E+01
     5.686E+01    5.699E+01    5.711E+01    5.723E+01    5.736E+01    5.748E+01    5.760E+01    5.772E+01    5.784E+01    5.796E+01
     5.807E+01    5.819E+01    5.830E+01    5.842E+01    5.853E+01    5.864E+01    5.875E+01    5.886E+01    5.897E+01    5.908E+01
     5.918E+01    5.928E+01    5.938E+01    5.948E+01    5.958E+01    5.968E+01    5.977E+01    5.986E+01    5.995E+01    6.004E+01
     6.012E+01    6.021E+01    6.029E+01    6.037E+01    6.044E+01    6.052E+01    6.059E+01    6.065E+01    6.072E+01    6.078E+01
     6.084E+01    6.090E+01    6.096E+01    6.101E+01    6.106E+01    6.110E+01    6.114E+01    6.118E+01    6.122E+01    6.125E+01
     6.128E+01    6.131E+01    6.133E+01    6.135E+01    6.136E+01    6.137E+01    6.138E+01    6.139E+01    6.139E+01    6.138E+01
     6.137E+01    6.136E+01    6.135E+01    6.133E+01    6.130E+01    6.127E+01    6.124E+01    6.120E+01    6.116E+01    6.111E+01
     6.106E+01    6.101E+01    6.095E+01    6.088E+01    6.081E+01    6.074E+01    6.066E+01    6.057E+01    6.048E+01    6.039E+01
     6.029E+01    6.018E+01    6.007E+01    5.996E+01    5.984E+01    5.971E+01    5.958E+01    5.944E+01    5.930E+01    5.915E+01
     5.900E+01    5.884E+01    5.868E+01    5.852E+01    5.835E+01    5.817E+01    5.799E+01    5.781E+01    5.762E+01    5.743E+01
     5.723E+01    5.703E+01    5.682E+01    5.661E+01    5.640E+01    5.618E+01    5.596E+01    5.573E+01    5.551E+01    5.527E+01
     5.504E+01    5.480E+01    5.456E+01    5.431E+01    5.406E+01    5.381E+01    5.355E+01    5.329E+01    5.303E+01    5.277E+01
     5.250E+01    5.223E+01    5.196E+01    5.168E+01    5.141E+01    5.113E+01    5.084E+01    5.056E+01    5.027E+01    4.998E+01
     4.969E+01    4.940E+01    4.910E+01    4.880E+01    4.850E+01    4.820E+01    4.790E+01    4.760E+01    4.729E+01    4.698E+01
     4.667E+01    4.636E+01    4.605E+01    4.574E+01    4.543E+01    4.511E+01    4.479E+01    4.448E+01    4.416E+01    4.384E+01
     4.352E+01    4.320E+01    4.288E+01    4.256E+01    4.224E+01    4.192E+01    4.159E+01    4.127E+01    4.095E+01    4.063E+01
     4.030E+01    3.998E+01    3.966E+01    3.934E+01    3.901E+01    3.869E+01    3.837E+01    3.805E+01    3.773E+01    3.741E+01
     3.709E+01    3.677E+01    3.645E+01    3.613E+01    3.582E+01    3.550E+01    3.519E+01    3.488E+01    3.456E+01    3.425E+01
     3.395E+01    3.364E+01    3.333E+01    3.303E+01    3.272E+01    3.242E+01    3.212E+01    3.182E+01    3.153E+01    3.123E+01
     3.094E+01    3.065E+01    3.037E+01    3.008E+01    2.980E+01    2.952E+01    2.924E+01    2.896E+01    2.869E+01    2.842E+01
     2.815E+01    2.788E+01    2.762E+01    2.736E+01    2.710E+01    2.685E+01    2.660E+01    2.635E+01
 Asp      Conc. = 2.58E+01
