 LCModel (Version 6.3-1L) Copyright: S.W. Provencher.          Ref.: Magn. Reson. Med. 30:672-679 (1993).                
 Slice#1 Row#5 Col#4  K_02_press_1_raw_act
 36 lines in following concentration table = NCONC+1
    Conc.  %SD /Cr+PCr  Metabolite                                         
    0.000 999%   0.000 Ala                                                 
    0.000 999%   0.000 Asp                                                 
    0.000 999%   0.000 Cr                                                  
 1.22E+03   6%   1.000 PCr                                                 
   85.258 230% 7.0E-02 GABA                                                
    0.000 999%   0.000 Glc                                                 
  416.995  97%   0.341 Gln                                                 
 1.47E+03  32%   1.203 Glu                                                 
  525.164   6%   0.429 GPC                                                 
    0.000 999%   0.000 PCh                                                 
  377.535  27%   0.308 GSH                                                 
 1.04E+03  33%   0.851 Ins                                                 
    0.000 999%   0.000 Lac                                                 
 2.36E+03   9%   1.931 NAA                                                 
  424.926  51%   0.347 NAAG                                                
  141.453  26%   0.116 Scyllo                                              
   33.350 701% 2.7E-02 Tau                                                 
  570.091  24%   0.466 -CrCH2                                              
  525.164   6%   0.429 GPC+PCh                                             
 2.79E+03   4%   2.278 NAA+NAAG                                            
 1.22E+03   6%   1.000 Cr+PCr                                              
 1.89E+03  39%   1.544 Glu+Gln                                             
    0.000 999%   0.000 Lip13a                                              
    0.000 999%   0.000 Lip13b                                              
    0.000 999%   0.000 Lip09                                               
  884.774  16%   0.723 MM09                                                
 2.39E-02 999% 1.9E-05 Lip20                                               
 2.45E+03  13%   2.003 MM20                                                
   83.623 116% 6.8E-02 MM12                                                
    0.000 999%   0.000 MM14                                                
  364.040  46%   0.297 MM17                                                
    0.000 999%   0.000 Lip13a+Lip13b                                       
   83.623 116% 6.8E-02 MM14+Lip13a+Lip13b+MM12                             
  884.774  16%   0.723 MM09+Lip09                                          
 2.45E+03  13%   2.003 MM20+Lip20                                          
   6 lines in following misc. output table
  FWHM = 0.076 ppm    S/N =  10                                            
  Data shift = 0.046 ppm                                                   
  Ph: -29 deg      -9.2 deg/ppm                                            
  alphaB,S = 1.3E+00,   1.9E+02                                            
   14 spline knots.   Ns =10(1)                                            
  (15) 3 infls.   (11) 1 extrs.                                            
  498 points on ppm-axis = NY
      4.000000     3.992357     3.984714     3.977070     3.969427     3.961784     3.954141     3.946497     3.938854     3.931211
      3.923568     3.915925     3.908281     3.900638     3.892995     3.885352     3.877708     3.870065     3.862422     3.854779
      3.847136     3.839492     3.831849     3.824206     3.816563     3.808919     3.801276     3.793633     3.785990     3.778347
      3.770703     3.763060     3.755417     3.747774     3.740130     3.732487     3.724844     3.717201     3.709558     3.701914
      3.694271     3.686628     3.678985     3.671341     3.663698     3.656055     3.648412     3.640769     3.633125     3.625482
      3.617839     3.610196     3.602552     3.594909     3.587266     3.579623     3.571980     3.564336     3.556693     3.549050
      3.541407     3.533763     3.526120     3.518477     3.510834     3.503191     3.495547     3.487904     3.480261     3.472618
      3.464974     3.457331     3.449688     3.442045     3.434402     3.426758     3.419115     3.411472     3.403829     3.396185
      3.388542     3.380899     3.373256     3.365613     3.357969     3.350326     3.342683     3.335040     3.327396     3.319753
      3.312110     3.304467     3.296824     3.289180     3.281537     3.273894     3.266251     3.258607     3.250964     3.243321
      3.235678     3.228034     3.220391     3.212748     3.205105     3.197462     3.189818     3.182175     3.174532     3.166889
      3.159245     3.151602     3.143959     3.136316     3.128673     3.121029     3.113386     3.105743     3.098100     3.090456
      3.082813     3.075170     3.067527     3.059884     3.052240     3.044597     3.036954     3.029311     3.021667     3.014024
      3.006381     2.998738     2.991095     2.983451     2.975808     2.968165     2.960522     2.952878     2.945235     2.937592
      2.929949     2.922306     2.914662     2.907019     2.899376     2.891733     2.884089     2.876446     2.868803     2.861160
      2.853517     2.845873     2.838230     2.830587     2.822944     2.815300     2.807657     2.800014     2.792371     2.784728
      2.777084     2.769441     2.761798     2.754155     2.746511     2.738868     2.731225     2.723582     2.715939     2.708295
      2.700652     2.693009     2.685366     2.677722     2.670079     2.662436     2.654793     2.647150     2.639506     2.631863
      2.624220     2.616577     2.608933     2.601290     2.593647     2.586004     2.578361     2.570717     2.563074     2.555431
      2.547788     2.540144     2.532501     2.524858     2.517215     2.509572     2.501928     2.494285     2.486642     2.478999
      2.471355     2.463712     2.456069     2.448426     2.440783     2.433139     2.425496     2.417853     2.410210     2.402566
      2.394923     2.387280     2.379637     2.371994     2.364350     2.356707     2.349064     2.341421     2.333777     2.326134
      2.318491     2.310848     2.303205     2.295561     2.287918     2.280275     2.272632     2.264988     2.257345     2.249702
      2.242059     2.234416     2.226772     2.219129     2.211486     2.203843     2.196199     2.188556     2.180913     2.173270
      2.165627     2.157983     2.150340     2.142697     2.135054     2.127410     2.119767     2.112124     2.104481     2.096838
      2.089194     2.081551     2.073908     2.066265     2.058621     2.050978     2.043335     2.035692     2.028049     2.020405
      2.012762     2.005119     1.997476     1.989833     1.982190     1.974546     1.966903     1.959260     1.951617     1.943974
      1.936331     1.928688     1.921045     1.913402     1.905759     1.898115     1.890472     1.882829     1.875186     1.867543
      1.859900     1.852257     1.844614     1.836971     1.829327     1.821684     1.814041     1.806398     1.798755     1.791112
      1.783469     1.775826     1.768183     1.760540     1.752896     1.745253     1.737610     1.729967     1.722324     1.714681
      1.707038     1.699395     1.691752     1.684108     1.676465     1.668822     1.661179     1.653536     1.645893     1.638250
      1.630607     1.622964     1.615321     1.607677     1.600034     1.592391     1.584748     1.577105     1.569462     1.561819
      1.554176     1.546533     1.538890     1.531246     1.523603     1.515960     1.508317     1.500674     1.493031     1.485388
      1.477745     1.470102     1.462458     1.454815     1.447172     1.439529     1.431886     1.424243     1.416600     1.408957
      1.401314     1.393671     1.386027     1.378384     1.370741     1.363098     1.355455     1.347812     1.340169     1.332526
      1.324883     1.317240     1.309596     1.301953     1.294310     1.286667     1.279024     1.271381     1.263738     1.256095
      1.248452     1.240808     1.233165     1.225522     1.217879     1.210236     1.202593     1.194950     1.187307     1.179664
      1.172021     1.164377     1.156734     1.149091     1.141448     1.133805     1.126162     1.118519     1.110876     1.103233
      1.095590     1.087946     1.080303     1.072660     1.065017     1.057374     1.049731     1.042088     1.034445     1.026802
      1.019158     1.011515     1.003872     0.996229     0.988586     0.980943     0.973300     0.965657     0.958014     0.950371
      0.942727     0.935084     0.927441     0.919798     0.912155     0.904512     0.896869     0.889226     0.881583     0.873940
      0.866296     0.858653     0.851010     0.843367     0.835724     0.828081     0.820438     0.812795     0.805152     0.797508
      0.789865     0.782222     0.774579     0.766936     0.759293     0.751650     0.744007     0.736364     0.728721     0.721077
      0.713434     0.705791     0.698148     0.690505     0.682862     0.675219     0.667576     0.659933     0.652290     0.644646
      0.637003     0.629360     0.621717     0.614074     0.606431     0.598788     0.591145     0.583502     0.575858     0.568215
      0.560572     0.552929     0.545286     0.537643     0.530000     0.522357     0.514714     0.507071     0.499427     0.491784
      0.484141     0.476498     0.468855     0.461212     0.453569     0.445925     0.438282     0.430639     0.422996     0.415353
      0.407710     0.400067     0.392424     0.384780     0.377137     0.369494     0.361851     0.354208     0.346565     0.338922
      0.331278     0.323635     0.315992     0.308349     0.300706     0.293063     0.285420     0.277777     0.270133     0.262490
      0.254847     0.247204     0.239561     0.231918     0.224275     0.216631     0.208988     0.201345
 NY phased data points follow
  -1.64558E+01 -1.67923E+01 -1.40305E+01 -1.52270E+01 -1.21356E+01 -1.09953E+01 -7.40593E+00 -2.82516E-01 -3.57683E+00 -3.38192E+00
  -4.64839E-01 -6.34961E-01 -5.93096E+00 -6.73335E+00 -9.13104E+00 -1.41570E+01 -5.84836E+00 -7.31434E+00 -1.14796E+01 -1.43415E+01
  -1.22578E+01 -1.52236E+01 -1.28255E+01 -9.15398E+00 -1.19645E+01 -8.80452E+00 -1.39948E+01 -6.50148E+00 -6.53323E+00 -8.60534E+00
  -1.08694E+01 -1.38948E+01 -8.03047E+00 -9.66373E+00 -8.06678E+00 -5.85380E+00 -1.00816E+01 -8.89300E+00 -9.37918E+00 -8.22723E+00
  -3.01419E+00 -1.11778E+01 -4.38222E+00 -2.52460E+00 -2.76660E+00 -6.18544E-01 -7.65247E+00 -8.49745E+00 -4.47095E+00 -2.58424E+00
  -4.75098E+00 -8.39329E+00 -1.14628E+01 -8.72674E+00 -8.73430E+00 -1.18372E+01 -9.39080E+00 -1.14748E+01 -9.80723E+00 -1.18445E+01
  -9.62173E+00 -1.55149E+01 -1.00645E+01 -1.59457E+01 -1.78201E+01 -1.36824E+01 -1.46740E+01 -1.47470E+01 -1.39397E+01 -1.41636E+01
  -1.19532E+01 -1.20977E+01 -7.75378E+00 -1.25548E+01 -1.52834E+01 -1.14467E+01 -9.77981E+00 -8.00113E+00 -8.88142E+00 -8.22046E+00
  -1.65883E+01 -9.20682E+00 -1.06010E+01 -9.24185E+00 -6.03025E+00 -1.39518E+01 -1.17528E+01 -7.21504E+00 -7.11753E+00 -5.54062E+00
  -5.77778E+00 -4.35710E+00 -6.92976E+00 -7.97916E+00 -5.35360E+00 -2.35069E+00 -8.58789E-01  5.92887E+00  1.20905E+01  1.86590E+01
   2.31353E+01  2.38468E+01  2.10793E+01  2.17428E+01  1.59876E+01  1.52140E+01  1.37903E+01  7.55931E+00  4.70504E+00  1.26481E+00
  -5.64253E+00 -4.42768E+00 -7.43439E+00 -9.30065E+00 -9.79016E+00 -6.76573E+00 -6.86630E+00 -5.25092E+00 -8.09707E+00 -2.46071E+00
  -5.47332E+00 -1.62783E+00  5.83778E+00  1.19163E+01  1.74061E+01  1.98886E+01  1.72172E+01  2.01017E+01  2.07251E+01  1.74448E+01
   1.55599E+01  8.41430E+00  2.59974E+00  4.62435E+00  2.72956E+00 -1.46391E+00 -6.28380E+00 -1.88199E+00 -7.60575E+00 -7.00447E+00
  -7.90535E+00 -8.77192E+00 -3.16244E+00 -6.65093E+00 -9.10888E+00 -5.73672E+00 -5.49662E+00 -7.55530E+00 -6.98326E+00 -5.40514E+00
  -1.53491E+00 -4.50041E+00 -3.14336E+00 -6.48343E+00 -4.94316E+00 -8.67947E+00 -4.34931E+00 -6.71108E+00 -1.34806E+01 -1.09675E+01
  -7.44242E+00 -9.31838E+00 -4.33723E+00 -8.75783E+00 -9.05996E+00 -8.24101E+00 -1.10773E+01 -1.02750E+01 -1.11783E+01 -1.63631E+01
  -1.60654E+01 -2.39405E+01 -1.93072E+01 -1.63879E+01 -1.56044E+01 -1.85264E+01 -1.55345E+01 -1.99356E+01 -2.28576E+01 -1.98858E+01
  -1.28272E+01 -1.39640E+01 -1.67729E+01 -1.90042E+01 -1.61410E+01 -1.16960E+01 -1.09273E+01 -6.53578E+00 -8.88347E+00 -1.18778E+01
  -1.85836E+00 -1.12243E+01 -5.60465E+00 -9.68363E+00 -1.27664E+01 -1.30239E+01 -1.24605E+01 -1.54935E+01 -1.51351E+01 -9.23863E+00
  -1.05803E+01 -7.74548E+00 -9.42221E+00 -1.15962E+01 -6.43478E+00 -4.88300E+00 -8.42524E+00 -6.38240E+00 -8.49113E+00 -5.97008E+00
  -1.24708E+01 -6.49183E+00 -4.01752E+00  7.51008E-01  1.22680E+00 -1.80971E+00  4.12139E+00  1.61624E+00 -4.44577E+00 -1.89415E+00
  -1.23082E+01 -5.94298E+00 -6.41009E+00 -7.02544E+00 -7.55217E+00 -5.04794E+00 -9.01021E+00 -2.08710E+00 -4.16782E+00 -5.40261E+00
  -4.03154E+00 -6.76867E+00 -8.15598E-01 -1.58169E+00 -3.17842E+00 -3.74964E+00  1.71357E+00  1.10917E+00 -3.68924E+00 -4.67978E+00
  -4.05363E+00 -6.91755E+00 -1.12943E+00  5.74266E+00 -2.03998E+00 -2.00649E+00 -6.30515E-01  6.43785E-01  6.44815E+00  1.07425E+01
   1.21498E+01  1.43167E+01  1.96718E+01  1.84715E+01  2.12531E+01  3.36497E+01  3.89162E+01  5.34013E+01  5.50011E+01  6.33369E+01
   6.40486E+01  5.64219E+01  5.37354E+01  4.95217E+01  4.18371E+01  3.68262E+01  2.31107E+01  2.32513E+01  1.65055E+01  8.88195E+00
   5.73005E+00  4.70675E+00 -3.28031E+00 -6.09431E+00 -6.88049E-01 -1.60410E+00 -6.73581E+00 -1.35787E+00 -7.11764E+00 -4.83065E+00
  -4.69778E+00 -4.37486E+00 -1.44190E+00 -9.60884E+00 -5.95080E+00 -5.13110E+00 -1.82517E+00 -7.58640E+00 -3.65141E+00 -5.79046E+00
  -4.85819E+00 -6.95522E+00 -2.87075E+00 -7.58135E+00 -4.94121E+00 -5.88299E+00 -7.45659E+00 -6.07473E+00 -8.89651E+00 -5.39660E+00
  -7.24009E+00 -6.44267E+00 -9.51617E+00 -1.96893E+00 -1.91664E+00 -6.88256E+00 -5.83489E+00 -5.91366E+00 -5.51600E+00 -8.92239E+00
  -7.12346E+00 -8.06193E+00 -5.15726E+00 -1.95117E+00 -6.00607E+00 -6.82976E+00 -6.95894E+00 -6.61604E+00 -2.84097E-01 -1.03303E+01
  -5.33173E+00 -8.69665E+00 -6.40893E+00 -6.71820E+00 -1.71690E+01 -9.09614E+00 -7.42844E+00 -5.76993E+00 -1.29507E+01 -1.32151E+01
  -5.98693E+00 -8.52095E+00 -6.64100E+00 -1.14880E+01 -9.44495E+00 -1.06475E+01 -1.16832E+01 -1.94125E+01 -8.33268E+00 -1.25210E+01
  -8.34008E+00 -9.81629E+00 -1.09836E+01 -8.51945E+00 -6.56156E+00 -6.92808E+00 -6.40464E+00 -4.82343E+00 -5.43603E+00 -1.19189E+01
  -7.16912E+00 -1.52075E+00 -6.92645E+00 -1.01414E+01 -9.64339E+00 -7.65071E+00 -9.18286E+00 -9.64089E+00 -4.93824E+00 -8.66652E+00
  -8.07848E+00 -1.00920E+01 -8.21250E+00 -9.74751E+00 -4.87810E+00 -8.35733E+00 -6.51770E+00 -5.23065E+00 -9.38620E+00 -1.17045E+01
  -6.74057E+00 -7.64748E+00 -8.27176E+00 -9.55360E+00 -1.18673E+01 -7.46249E+00 -1.25730E+01 -6.65346E+00 -7.41637E+00 -7.72485E+00
  -1.03843E+01 -1.01363E+01 -7.52236E+00 -4.46994E+00 -7.92741E+00 -2.69503E+00 -5.04552E+00 -9.76351E+00 -5.87518E+00 -5.44398E+00
  -7.01818E+00 -1.34142E+00 -7.70094E-01 -1.68804E+00  1.06937E+00 -1.34785E+00  1.58958E+00 -3.43539E-01 -8.87128E-01 -6.23959E-01
  -3.11313E+00  1.46821E+00  2.28455E+00  2.96163E+00  8.32997E+00  1.37537E-01  4.29981E+00  1.64288E+00 -1.93687E-01  1.61281E+00
   4.78541E-01  3.74998E+00  3.67273E+00 -1.70340E+00  3.67277E-01 -4.32607E+00  1.57696E+00  2.99902E+00 -8.09750E+00 -1.87164E+00
   8.25505E-01  9.17188E-01  1.28983E+00 -1.39128E+00 -7.05852E+00 -1.84594E+00 -1.04399E+00 -1.90478E+00 -2.22728E-01 -1.65019E+00
  -1.47820E+00 -3.57971E+00 -1.78338E+00  1.54590E+00  4.79049E-01 -1.38727E+00  1.65239E+00  2.18569E+00 -2.94025E+00 -6.38823E-01
  -2.19342E-02  4.12175E-01  7.53438E-01 -1.89623E+00 -1.89817E+00 -5.36120E+00  3.66592E+00  3.29977E-01 -5.26599E+00  1.59609E+00
  -3.82167E-01 -3.06143E+00  8.82374E-01 -9.17078E-01 -3.38224E+00 -1.04968E-01  2.16707E+00 -1.46783E-01  2.03391E-01 -9.05763E-01
  -4.20152E-01  1.24274E+00 -7.66924E-01 -2.78982E+00  8.58755E-02  3.44296E+00 -7.40583E-01  1.86329E+00  1.73140E+00 -3.86642E+00
   5.79717E-01 -1.81849E+00 -2.32937E+00 -2.73026E-01 -1.73100E+00  1.77922E+00 -5.32038E+00  4.05917E+00  2.00455E+00 -4.29816E-02
  -8.90109E-01  1.37283E+00 -2.01850E+00  2.31968E-02  1.33107E+00 -1.32613E-01  2.16589E+00 -6.60623E-01  5.01601E-02 -1.56716E+00
   5.94190E-02 -4.79540E-01 -1.60209E+00  2.01571E+00  3.48995E-01 -1.38734E+00  3.64522E-01 -1.30205E+00
 NY points of the fit to the data follow
  -1.38807E+01 -1.35342E+01 -1.29257E+01 -1.18100E+01 -1.00903E+01 -8.01158E+00 -6.03578E+00 -4.53161E+00 -3.64508E+00 -3.32172E+00
  -3.41162E+00 -3.83454E+00 -4.56945E+00 -5.55869E+00 -6.67249E+00 -7.71474E+00 -8.65243E+00 -9.55461E+00 -1.04692E+01 -1.13769E+01
  -1.20534E+01 -1.23547E+01 -1.24351E+01 -1.23486E+01 -1.19750E+01 -1.12610E+01 -1.02909E+01 -9.19169E+00 -8.07974E+00 -7.13113E+00
  -6.45337E+00 -6.01408E+00 -5.85709E+00 -6.11270E+00 -6.78259E+00 -7.64919E+00 -8.43882E+00 -9.00239E+00 -9.36316E+00 -9.55542E+00
  -9.59445E+00 -9.38112E+00 -8.74432E+00 -7.84784E+00 -6.98042E+00 -6.38334E+00 -6.16100E+00 -6.26626E+00 -6.62034E+00 -7.13091E+00
  -7.75142E+00 -8.46825E+00 -9.21031E+00 -9.81350E+00 -1.01851E+01 -1.03845E+01 -1.05162E+01 -1.06404E+01 -1.08007E+01 -1.09808E+01
  -1.11670E+01 -1.13443E+01 -1.15108E+01 -1.16671E+01 -1.17964E+01 -1.18600E+01 -1.18327E+01 -1.17361E+01 -1.16116E+01 -1.15147E+01
  -1.14671E+01 -1.14486E+01 -1.14450E+01 -1.14502E+01 -1.14741E+01 -1.15192E+01 -1.15124E+01 -1.13877E+01 -1.12795E+01 -1.11595E+01
  -1.08655E+01 -1.02930E+01 -9.52843E+00 -8.76921E+00 -8.21537E+00 -7.97687E+00 -8.01521E+00 -8.23834E+00 -8.56572E+00 -8.96299E+00
  -9.36870E+00 -9.43484E+00 -8.50529E+00 -7.24054E+00 -5.98229E+00 -3.91981E+00 -1.03519E-01  5.48019E+00  1.18513E+01  1.75896E+01
   2.14915E+01  2.32116E+01  2.31062E+01  2.16700E+01  1.91396E+01  1.56753E+01  1.16476E+01  7.67166E+00  4.26712E+00  1.32166E+00
  -1.48916E+00 -4.20187E+00 -6.73448E+00 -8.73484E+00 -9.63067E+00 -9.85662E+00 -9.56841E+00 -8.43015E+00 -7.10573E+00 -5.69653E+00
  -3.46333E+00  2.67920E-01  5.34890E+00  1.08482E+01  1.55741E+01  1.86812E+01  2.00186E+01  1.99522E+01  1.88665E+01  1.68887E+01
   1.40841E+01  1.07135E+01  7.28750E+00  4.22762E+00  1.50237E+00 -1.03298E+00 -3.34518E+00 -5.37397E+00 -6.82822E+00 -7.34810E+00
  -7.45708E+00 -7.51058E+00 -7.58428E+00 -7.69133E+00 -7.83478E+00 -7.98715E+00 -8.12334E+00 -8.27337E+00 -8.45387E+00 -8.67019E+00
  -8.92523E+00 -9.20369E+00 -9.46442E+00 -9.64711E+00 -9.75627E+00 -9.85843E+00 -1.00347E+01 -1.03211E+01 -1.06296E+01 -1.08537E+01
  -1.09623E+01 -1.09986E+01 -1.10468E+01 -1.11725E+01 -1.13811E+01 -1.16470E+01 -1.19548E+01 -1.23005E+01 -1.26295E+01 -1.29455E+01
  -1.32916E+01 -1.36849E+01 -1.40823E+01 -1.44002E+01 -1.45964E+01 -1.47083E+01 -1.48039E+01 -1.48950E+01 -1.49352E+01 -1.48512E+01
  -1.46564E+01 -1.44311E+01 -1.42151E+01 -1.39455E+01 -1.34936E+01 -1.27704E+01 -1.18281E+01 -1.08205E+01 -9.93448E+00 -9.23825E+00
  -8.68512E+00 -8.27672E+00 -8.03411E+00 -7.95773E+00 -7.95892E+00 -7.91214E+00 -7.75898E+00 -7.48625E+00 -7.11659E+00 -6.69638E+00
  -6.30445E+00 -5.96918E+00 -5.76260E+00 -5.83464E+00 -6.24305E+00 -6.88406E+00 -7.61741E+00 -8.27771E+00 -8.87803E+00 -9.28464E+00
  -9.27663E+00 -8.73608E+00 -7.81084E+00 -6.85336E+00 -6.14241E+00 -5.79520E+00 -5.89566E+00 -6.49427E+00 -7.46287E+00 -8.55264E+00
  -9.47590E+00 -9.98975E+00 -1.00159E+01 -9.58563E+00 -8.87063E+00 -8.10913E+00 -7.41150E+00 -6.74062E+00 -6.06354E+00 -5.36700E+00
  -4.69433E+00 -3.99672E+00 -3.26762E+00 -2.58139E+00 -2.03018E+00 -1.68984E+00 -1.58184E+00 -1.68033E+00 -1.92271E+00 -2.16970E+00
  -2.26516E+00 -2.14372E+00 -1.81356E+00 -1.31882E+00 -7.15976E-01  1.10932E-02  9.61307E-01  1.91892E+00  2.85931E+00  4.16358E+00
   6.74117E+00  1.11785E+01  1.59191E+01  2.04589E+01  2.58857E+01  3.32795E+01  4.23091E+01  5.13099E+01  5.82158E+01  6.16997E+01
   6.16946E+01  5.90677E+01  5.46710E+01  4.87710E+01  4.15871E+01  3.37910E+01  2.63881E+01  2.01088E+01  1.48142E+01  9.96768E+00
   5.46283E+00  1.39937E+00 -1.59118E+00 -2.91329E+00 -3.50782E+00 -3.92766E+00 -4.27694E+00 -4.57916E+00 -4.86229E+00 -5.12802E+00
  -5.36045E+00 -5.55878E+00 -5.72949E+00 -5.87936E+00 -6.01452E+00 -6.13554E+00 -6.22956E+00 -6.28710E+00 -6.31169E+00 -6.31135E+00
  -6.29069E+00 -6.25441E+00 -6.20744E+00 -6.15797E+00 -6.10982E+00 -6.06128E+00 -6.01286E+00 -5.96489E+00 -5.91572E+00 -5.86811E+00
  -5.82689E+00 -5.79631E+00 -5.77987E+00 -5.77946E+00 -5.79435E+00 -5.82556E+00 -5.87336E+00 -5.93683E+00 -6.01447E+00 -6.10436E+00
  -6.20472E+00 -6.31436E+00 -6.42980E+00 -6.54791E+00 -6.66590E+00 -6.78123E+00 -6.89155E+00 -6.99541E+00 -7.09168E+00 -7.17969E+00
  -7.25877E+00 -7.32871E+00 -7.38943E+00 -7.44138E+00 -7.48497E+00 -7.52079E+00 -7.54929E+00 -7.57110E+00 -7.58679E+00 -7.59714E+00
  -7.60268E+00 -7.60393E+00 -7.60114E+00 -7.59474E+00 -7.58506E+00 -7.57253E+00 -7.55731E+00 -7.53955E+00 -7.51924E+00 -7.49656E+00
  -7.47159E+00 -7.44454E+00 -7.41531E+00 -7.38392E+00 -7.35027E+00 -7.31448E+00 -7.27658E+00 -7.23669E+00 -7.19471E+00 -7.15070E+00
  -7.10466E+00 -7.05684E+00 -7.00736E+00 -6.95644E+00 -6.90411E+00 -6.85060E+00 -6.79610E+00 -6.74098E+00 -6.68545E+00 -6.62976E+00
  -6.57397E+00 -6.51832E+00 -6.46293E+00 -6.40802E+00 -6.35354E+00 -6.29946E+00 -6.24553E+00 -6.19165E+00 -6.13752E+00 -6.08288E+00
  -6.02717E+00 -5.96987E+00 -5.91025E+00 -5.84775E+00 -5.78158E+00 -5.71094E+00 -5.63478E+00 -5.55205E+00 -5.46157E+00 -5.36217E+00
  -5.25247E+00 -5.13099E+00 -4.99597E+00 -4.84567E+00 -4.67824E+00 -4.49189E+00 -4.28469E+00 -4.05487E+00 -3.80074E+00 -3.52112E+00
  -3.21527E+00 -2.88323E+00 -2.52570E+00 -2.14445E+00 -1.74232E+00 -1.32353E+00 -8.93498E-01 -4.58965E-01 -2.75962E-02  3.91943E-01
   7.90466E-01  1.15840E+00  1.48649E+00  1.76611E+00  1.98988E+00  2.15188E+00  2.24814E+00  2.27665E+00  2.23784E+00  2.13429E+00
   1.97085E+00  1.75406E+00  1.49196E+00  1.19355E+00  8.68513E-01  5.26588E-01  1.77265E-01 -1.70836E-01 -5.10030E-01 -8.33945E-01
  -1.13738E+00 -1.41657E+00 -1.66895E+00 -1.89331E+00 -2.08937E+00 -2.25776E+00 -2.39963E+00 -2.51670E+00 -2.61093E+00 -2.68458E+00
  -2.73985E+00 -2.77893E+00 -2.80379E+00 -2.81633E+00 -2.81824E+00 -2.81111E+00 -2.79624E+00 -2.77479E+00 -2.74766E+00 -2.71572E+00
  -2.67965E+00 -2.64014E+00 -2.59763E+00 -2.55256E+00 -2.50519E+00 -2.45590E+00 -2.40492E+00 -2.35253E+00 -2.29886E+00 -2.24406E+00
  -2.18821E+00 -2.13150E+00 -2.07403E+00 -2.01592E+00 -1.95718E+00 -1.89787E+00 -1.83801E+00 -1.77774E+00 -1.71707E+00 -1.65606E+00
  -1.59468E+00 -1.53297E+00 -1.47095E+00 -1.40871E+00 -1.34623E+00 -1.28355E+00 -1.22062E+00 -1.15749E+00 -1.09417E+00 -1.03072E+00
  -9.67116E-01 -9.03367E-01 -8.39422E-01 -7.75345E-01 -7.11134E-01 -6.46847E-01 -5.82425E-01 -5.17881E-01 -4.53174E-01 -3.88373E-01
  -3.23467E-01 -2.58490E-01 -1.93375E-01 -1.28136E-01 -6.27449E-02  2.73181E-03  6.83213E-02  1.34007E-01  1.99865E-01  2.65871E-01
   3.32049E-01  3.98345E-01  4.64810E-01  5.31445E-01  5.98329E-01  6.65441E-01  7.32815E-01  8.00425E-01
 NY background values follow
    -1.735E+01   -1.730E+01   -1.725E+01   -1.720E+01   -1.715E+01   -1.710E+01   -1.705E+01   -1.700E+01   -1.695E+01   -1.690E+01
    -1.685E+01   -1.679E+01   -1.674E+01   -1.669E+01   -1.664E+01   -1.659E+01   -1.654E+01   -1.649E+01   -1.644E+01   -1.639E+01
    -1.634E+01   -1.629E+01   -1.624E+01   -1.619E+01   -1.614E+01   -1.609E+01   -1.604E+01   -1.599E+01   -1.594E+01   -1.589E+01
    -1.584E+01   -1.579E+01   -1.574E+01   -1.569E+01   -1.564E+01   -1.559E+01   -1.554E+01   -1.549E+01   -1.544E+01   -1.539E+01
    -1.534E+01   -1.529E+01   -1.524E+01   -1.519E+01   -1.514E+01   -1.509E+01   -1.505E+01   -1.500E+01   -1.495E+01   -1.490E+01
    -1.485E+01   -1.480E+01   -1.475E+01   -1.470E+01   -1.466E+01   -1.461E+01   -1.456E+01   -1.451E+01   -1.446E+01   -1.442E+01
    -1.437E+01   -1.432E+01   -1.427E+01   -1.423E+01   -1.418E+01   -1.413E+01   -1.408E+01   -1.404E+01   -1.399E+01   -1.394E+01
    -1.390E+01   -1.385E+01   -1.381E+01   -1.376E+01   -1.371E+01   -1.367E+01   -1.362E+01   -1.358E+01   -1.353E+01   -1.349E+01
    -1.344E+01   -1.340E+01   -1.335E+01   -1.331E+01   -1.326E+01   -1.322E+01   -1.318E+01   -1.313E+01   -1.309E+01   -1.304E+01
    -1.300E+01   -1.296E+01   -1.292E+01   -1.287E+01   -1.283E+01   -1.279E+01   -1.275E+01   -1.270E+01   -1.266E+01   -1.262E+01
    -1.258E+01   -1.254E+01   -1.250E+01   -1.246E+01   -1.242E+01   -1.238E+01   -1.234E+01   -1.230E+01   -1.226E+01   -1.222E+01
    -1.218E+01   -1.214E+01   -1.210E+01   -1.206E+01   -1.203E+01   -1.199E+01   -1.195E+01   -1.191E+01   -1.188E+01   -1.184E+01
    -1.180E+01   -1.177E+01   -1.173E+01   -1.169E+01   -1.166E+01   -1.162E+01   -1.159E+01   -1.156E+01   -1.152E+01   -1.149E+01
    -1.145E+01   -1.142E+01   -1.139E+01   -1.135E+01   -1.132E+01   -1.129E+01   -1.126E+01   -1.123E+01   -1.120E+01   -1.117E+01
    -1.113E+01   -1.110E+01   -1.108E+01   -1.105E+01   -1.102E+01   -1.099E+01   -1.096E+01   -1.093E+01   -1.090E+01   -1.087E+01
    -1.085E+01   -1.082E+01   -1.079E+01   -1.077E+01   -1.074E+01   -1.071E+01   -1.069E+01   -1.066E+01   -1.064E+01   -1.061E+01
    -1.059E+01   -1.056E+01   -1.054E+01   -1.051E+01   -1.049E+01   -1.047E+01   -1.044E+01   -1.042E+01   -1.040E+01   -1.037E+01
    -1.035E+01   -1.033E+01   -1.031E+01   -1.028E+01   -1.026E+01   -1.024E+01   -1.022E+01   -1.020E+01   -1.018E+01   -1.016E+01
    -1.013E+01   -1.011E+01   -1.009E+01   -1.007E+01   -1.005E+01   -1.003E+01   -1.001E+01   -9.995E+00   -9.976E+00   -9.957E+00
    -9.938E+00   -9.919E+00   -9.901E+00   -9.882E+00   -9.864E+00   -9.846E+00   -9.829E+00   -9.811E+00   -9.794E+00   -9.776E+00
    -9.759E+00   -9.743E+00   -9.726E+00   -9.710E+00   -9.693E+00   -9.677E+00   -9.661E+00   -9.646E+00   -9.630E+00   -9.615E+00
    -9.600E+00   -9.585E+00   -9.570E+00   -9.556E+00   -9.542E+00   -9.528E+00   -9.514E+00   -9.500E+00   -9.487E+00   -9.473E+00
    -9.460E+00   -9.447E+00   -9.435E+00   -9.422E+00   -9.410E+00   -9.398E+00   -9.386E+00   -9.375E+00   -9.363E+00   -9.352E+00
    -9.341E+00   -9.330E+00   -9.320E+00   -9.309E+00   -9.299E+00   -9.289E+00   -9.279E+00   -9.269E+00   -9.259E+00   -9.250E+00
    -9.241E+00   -9.231E+00   -9.222E+00   -9.213E+00   -9.204E+00   -9.196E+00   -9.187E+00   -9.179E+00   -9.170E+00   -9.162E+00
    -9.154E+00   -9.146E+00   -9.138E+00   -9.130E+00   -9.122E+00   -9.114E+00   -9.106E+00   -9.098E+00   -9.091E+00   -9.083E+00
    -9.075E+00   -9.068E+00   -9.060E+00   -9.053E+00   -9.045E+00   -9.038E+00   -9.030E+00   -9.023E+00   -9.015E+00   -9.008E+00
    -9.000E+00   -8.993E+00   -8.985E+00   -8.978E+00   -8.970E+00   -8.962E+00   -8.955E+00   -8.947E+00   -8.939E+00   -8.931E+00
    -8.923E+00   -8.915E+00   -8.907E+00   -8.899E+00   -8.890E+00   -8.881E+00   -8.873E+00   -8.864E+00   -8.855E+00   -8.846E+00
    -8.836E+00   -8.827E+00   -8.817E+00   -8.807E+00   -8.797E+00   -8.787E+00   -8.776E+00   -8.766E+00   -8.755E+00   -8.743E+00
    -8.732E+00   -8.720E+00   -8.708E+00   -8.696E+00   -8.683E+00   -8.670E+00   -8.657E+00   -8.644E+00   -8.630E+00   -8.616E+00
    -8.602E+00   -8.587E+00   -8.572E+00   -8.556E+00   -8.540E+00   -8.524E+00   -8.507E+00   -8.491E+00   -8.473E+00   -8.455E+00
    -8.437E+00   -8.419E+00   -8.400E+00   -8.380E+00   -8.360E+00   -8.340E+00   -8.319E+00   -8.298E+00   -8.277E+00   -8.254E+00
    -8.232E+00   -8.209E+00   -8.186E+00   -8.162E+00   -8.137E+00   -8.112E+00   -8.087E+00   -8.061E+00   -8.035E+00   -8.008E+00
    -7.981E+00   -7.953E+00   -7.925E+00   -7.896E+00   -7.866E+00   -7.836E+00   -7.806E+00   -7.775E+00   -7.743E+00   -7.711E+00
    -7.678E+00   -7.645E+00   -7.611E+00   -7.577E+00   -7.542E+00   -7.506E+00   -7.470E+00   -7.433E+00   -7.396E+00   -7.358E+00
    -7.320E+00   -7.281E+00   -7.241E+00   -7.200E+00   -7.159E+00   -7.118E+00   -7.076E+00   -7.033E+00   -6.989E+00   -6.945E+00
    -6.901E+00   -6.856E+00   -6.810E+00   -6.764E+00   -6.717E+00   -6.670E+00   -6.622E+00   -6.574E+00   -6.525E+00   -6.476E+00
    -6.426E+00   -6.376E+00   -6.325E+00   -6.274E+00   -6.222E+00   -6.170E+00   -6.117E+00   -6.064E+00   -6.010E+00   -5.956E+00
    -5.902E+00   -5.847E+00   -5.791E+00   -5.736E+00   -5.680E+00   -5.623E+00   -5.566E+00   -5.509E+00   -5.451E+00   -5.393E+00
    -5.335E+00   -5.276E+00   -5.217E+00   -5.157E+00   -5.098E+00   -5.037E+00   -4.977E+00   -4.916E+00   -4.855E+00   -4.794E+00
    -4.732E+00   -4.670E+00   -4.608E+00   -4.545E+00   -4.482E+00   -4.419E+00   -4.356E+00   -4.293E+00   -4.229E+00   -4.165E+00
    -4.101E+00   -4.036E+00   -3.972E+00   -3.907E+00   -3.842E+00   -3.777E+00   -3.711E+00   -3.646E+00   -3.580E+00   -3.514E+00
    -3.448E+00   -3.382E+00   -3.316E+00   -3.250E+00   -3.183E+00   -3.117E+00   -3.050E+00   -2.984E+00   -2.917E+00   -2.850E+00
    -2.783E+00   -2.716E+00   -2.649E+00   -2.582E+00   -2.515E+00   -2.448E+00   -2.381E+00   -2.313E+00   -2.246E+00   -2.179E+00
    -2.112E+00   -2.045E+00   -1.978E+00   -1.911E+00   -1.844E+00   -1.777E+00   -1.710E+00   -1.643E+00   -1.576E+00   -1.509E+00
    -1.443E+00   -1.376E+00   -1.309E+00   -1.242E+00   -1.176E+00   -1.109E+00   -1.043E+00   -9.759E-01   -9.094E-01   -8.428E-01
    -7.763E-01   -7.099E-01   -6.434E-01   -5.770E-01   -5.106E-01   -4.442E-01   -3.779E-01   -3.115E-01   -2.452E-01   -1.789E-01
    -1.127E-01   -4.642E-02    1.981E-02    8.602E-02    1.522E-01    2.184E-01    2.845E-01    3.507E-01    4.168E-01    4.829E-01
     5.490E-01    6.151E-01    6.812E-01    7.472E-01    8.132E-01    8.793E-01    9.453E-01    1.011E+00
 PCr      Conc. = 1.22E+03
