 LCModel (Version 6.3-1L) Copyright: S.W. Provencher.          Ref.: Magn. Reson. Med. 30:672-679 (1993).                
 Slice#1 Row#14 Col#9  K_02_press_1_raw_act
 36 lines in following concentration table = NCONC+1
    Conc.  %SD /Cr+PCr  Metabolite                                         
    0.000 999%   0.000 Ala                                                 
    1.635 162% 6.5E-02 Asp                                                 
   12.954 170%   0.517 Cr                                                  
   12.123 174%   0.483 PCr                                                 
    1.027 155% 4.1E-02 GABA                                                
    1.035 154% 4.1E-02 Glc                                                 
   10.485 280%   0.418 Gln                                                 
    0.336 999% 1.3E-02 Glu                                                 
    0.000 999%   0.000 GPC                                                 
    0.000 999%   0.000 PCh                                                 
    0.000 999%   0.000 GSH                                                 
    0.000 999%   0.000 Ins                                                 
   30.258  75%   1.207 Lac                                                 
    4.533 253%   0.181 NAA                                                 
    3.360 339%   0.134 NAAG                                                
    0.288 184% 1.1E-02 Scyllo                                              
    1.662 160% 6.6E-02 Tau                                                 
    0.000 999%   0.000 -CrCH2                                              
    0.000 999%   0.000 GPC+PCh                                             
    7.892 212%   0.315 NAA+NAAG                                            
   25.077  57%   1.000 Cr+PCr                                              
   10.821 350%   0.432 Glu+Gln                                             
  551.364  35%  21.987 Lip13a                                              
    0.000 999%   0.000 Lip13b                                              
  154.737  41%   6.170 Lip09                                               
  351.510  25%  14.017 MM09                                                
   86.253  44%   3.440 Lip20                                               
  336.974  32%  13.437 MM20                                                
  125.532  55%   5.006 MM12                                                
   40.028 286%   1.596 MM14                                                
    0.000 999%   0.000 MM17                                                
  551.364  35%  21.987 Lip13a+Lip13b                                       
  716.923  21%  28.589 MM14+Lip13a+Lip13b+MM12                             
  506.248  15%  20.188 MM09+Lip09                                          
  423.228  24%  16.877 MM20+Lip20                                          
   6 lines in following misc. output table
  FWHM = 0.031 ppm    S/N =   1                                            
  Data shift = 0.206 ppm                                                   
  Ph: -69 deg     119.1 deg/ppm                                            
  alphaB,S = 8.5E+01,   6.4E+00                                            
   14 spline knots.   Ns = 5(1)                                            
  ( 4) 2 infls.   ( 4) 1 extrs.                                            
  498 points on ppm-axis = NY
      4.000000     3.992357     3.984714     3.977070     3.969427     3.961784     3.954141     3.946497     3.938854     3.931211
      3.923568     3.915925     3.908281     3.900638     3.892995     3.885352     3.877708     3.870065     3.862422     3.854779
      3.847136     3.839492     3.831849     3.824206     3.816563     3.808919     3.801276     3.793633     3.785990     3.778347
      3.770703     3.763060     3.755417     3.747774     3.740130     3.732487     3.724844     3.717201     3.709558     3.701914
      3.694271     3.686628     3.678985     3.671341     3.663698     3.656055     3.648412     3.640769     3.633125     3.625482
      3.617839     3.610196     3.602552     3.594909     3.587266     3.579623     3.571980     3.564336     3.556693     3.549050
      3.541407     3.533763     3.526120     3.518477     3.510834     3.503191     3.495547     3.487904     3.480261     3.472618
      3.464974     3.457331     3.449688     3.442045     3.434402     3.426758     3.419115     3.411472     3.403829     3.396185
      3.388542     3.380899     3.373256     3.365613     3.357969     3.350326     3.342683     3.335040     3.327396     3.319753
      3.312110     3.304467     3.296824     3.289180     3.281537     3.273894     3.266251     3.258607     3.250964     3.243321
      3.235678     3.228034     3.220391     3.212748     3.205105     3.197462     3.189818     3.182175     3.174532     3.166889
      3.159245     3.151602     3.143959     3.136316     3.128673     3.121029     3.113386     3.105743     3.098100     3.090456
      3.082813     3.075170     3.067527     3.059884     3.052240     3.044597     3.036954     3.029311     3.021667     3.014024
      3.006381     2.998738     2.991095     2.983451     2.975808     2.968165     2.960522     2.952878     2.945235     2.937592
      2.929949     2.922306     2.914662     2.907019     2.899376     2.891733     2.884089     2.876446     2.868803     2.861160
      2.853517     2.845873     2.838230     2.830587     2.822944     2.815300     2.807657     2.800014     2.792371     2.784728
      2.777084     2.769441     2.761798     2.754155     2.746511     2.738868     2.731225     2.723582     2.715939     2.708295
      2.700652     2.693009     2.685366     2.677722     2.670079     2.662436     2.654793     2.647150     2.639506     2.631863
      2.624220     2.616577     2.608933     2.601290     2.593647     2.586004     2.578361     2.570717     2.563074     2.555431
      2.547788     2.540144     2.532501     2.524858     2.517215     2.509572     2.501928     2.494285     2.486642     2.478999
      2.471355     2.463712     2.456069     2.448426     2.440783     2.433139     2.425496     2.417853     2.410210     2.402566
      2.394923     2.387280     2.379637     2.371994     2.364350     2.356707     2.349064     2.341421     2.333777     2.326134
      2.318491     2.310848     2.303205     2.295561     2.287918     2.280275     2.272632     2.264988     2.257345     2.249702
      2.242059     2.234416     2.226772     2.219129     2.211486     2.203843     2.196199     2.188556     2.180913     2.173270
      2.165627     2.157983     2.150340     2.142697     2.135054     2.127410     2.119767     2.112124     2.104481     2.096838
      2.089194     2.081551     2.073908     2.066265     2.058621     2.050978     2.043335     2.035692     2.028049     2.020405
      2.012762     2.005119     1.997476     1.989833     1.982190     1.974546     1.966903     1.959260     1.951617     1.943974
      1.936331     1.928688     1.921045     1.913402     1.905759     1.898115     1.890472     1.882829     1.875186     1.867543
      1.859900     1.852257     1.844614     1.836971     1.829327     1.821684     1.814041     1.806398     1.798755     1.791112
      1.783469     1.775826     1.768183     1.760540     1.752896     1.745253     1.737610     1.729967     1.722324     1.714681
      1.707038     1.699395     1.691752     1.684108     1.676465     1.668822     1.661179     1.653536     1.645893     1.638250
      1.630607     1.622964     1.615321     1.607677     1.600034     1.592391     1.584748     1.577105     1.569462     1.561819
      1.554176     1.546533     1.538890     1.531246     1.523603     1.515960     1.508317     1.500674     1.493031     1.485388
      1.477745     1.470102     1.462458     1.454815     1.447172     1.439529     1.431886     1.424243     1.416600     1.408957
      1.401314     1.393671     1.386027     1.378384     1.370741     1.363098     1.355455     1.347812     1.340169     1.332526
      1.324883     1.317240     1.309596     1.301953     1.294310     1.286667     1.279024     1.271381     1.263738     1.256095
      1.248452     1.240808     1.233165     1.225522     1.217879     1.210236     1.202593     1.194950     1.187307     1.179664
      1.172021     1.164377     1.156734     1.149091     1.141448     1.133805     1.126162     1.118519     1.110876     1.103233
      1.095590     1.087946     1.080303     1.072660     1.065017     1.057374     1.049731     1.042088     1.034445     1.026802
      1.019158     1.011515     1.003872     0.996229     0.988586     0.980943     0.973300     0.965657     0.958014     0.950371
      0.942727     0.935084     0.927441     0.919798     0.912155     0.904512     0.896869     0.889226     0.881583     0.873940
      0.866296     0.858653     0.851010     0.843367     0.835724     0.828081     0.820438     0.812795     0.805152     0.797508
      0.789865     0.782222     0.774579     0.766936     0.759293     0.751650     0.744007     0.736364     0.728721     0.721077
      0.713434     0.705791     0.698148     0.690505     0.682862     0.675219     0.667576     0.659933     0.652290     0.644646
      0.637003     0.629360     0.621717     0.614074     0.606431     0.598788     0.591145     0.583502     0.575858     0.568215
      0.560572     0.552929     0.545286     0.537643     0.530000     0.522357     0.514714     0.507071     0.499427     0.491784
      0.484141     0.476498     0.468855     0.461212     0.453569     0.445925     0.438282     0.430639     0.422996     0.415353
      0.407710     0.400067     0.392424     0.384780     0.377137     0.369494     0.361851     0.354208     0.346565     0.338922
      0.331278     0.323635     0.315992     0.308349     0.300706     0.293063     0.285420     0.277777     0.270133     0.262490
      0.254847     0.247204     0.239561     0.231918     0.224275     0.216631     0.208988     0.201345
 NY phased data points follow
   3.88349E-01  3.23702E+00  3.10051E-01  8.36059E-01  2.03070E-01  3.44802E+00  1.15282E+00  1.67834E+00  2.36852E+00  9.15807E-01
   2.31792E+00  2.47087E+00  1.65270E+00  2.37871E+00  1.08390E+00 -3.97472E-01 -1.67839E-01 -5.03173E-01 -3.06765E-01  1.94385E+00
   4.99492E+00 -2.37629E-01  1.57813E+00  2.67250E+00  1.00590E+00  5.46406E-01  1.91242E+00  1.16551E+00  7.26277E-01  1.84878E+00
   2.83358E+00  5.32392E-01 -9.84853E-01 -7.98839E-01  1.59640E+00  1.64514E+00  3.77478E+00  6.31002E-01  1.52454E+00  1.74482E+00
   2.71641E+00  5.82651E-01  2.47529E+00 -1.36623E+00  4.78593E-01  2.10184E+00 -1.56174E-01  2.55867E+00  7.29268E-01 -3.39689E-01
   1.39312E+00  1.53798E+00  2.78613E+00  1.78673E+00  2.28770E+00  1.35912E+00  9.78003E-01  3.75407E+00  1.57901E+00  8.80597E-01
  -3.79009E-01  2.93881E+00  6.12966E-01  2.61211E-01  6.73601E-01  1.68358E+00  2.08603E+00  3.46259E+00  5.79788E-01  1.91443E+00
   4.66026E-01 -6.46857E-01  1.21530E+00  1.18130E+00 -3.46843E-01  1.49526E+00  2.53886E-01  1.39564E+00  2.25799E-01  1.71549E+00
   1.66140E+00 -2.07529E-01  9.01376E-02 -1.30944E+00  1.09976E+00  8.67405E-01 -7.11230E-01  3.79775E-01 -2.58540E-01  2.68892E+00
   1.02071E+00  1.94692E+00  2.34918E+00  1.32205E+00 -7.13394E-01  1.08437E+00 -9.23909E-01  1.08381E+00  3.24716E+00  1.53029E+00
   2.62827E+00  1.33371E+00 -2.23495E-01  1.53765E+00  4.67268E-01  1.31839E+00 -5.68533E-01  1.22704E+00 -1.35055E+00  3.37178E+00
   2.42429E-01  4.21616E-01  5.69410E-01  3.64004E-01  2.73026E+00 -1.92063E+00 -2.11083E+00  8.37801E-01  2.04263E+00  1.09621E+00
   1.30502E+00 -5.06560E-01 -1.47309E-01 -1.33542E-01  2.41066E+00  2.37572E+00  3.84154E-01  1.79989E+00  2.88576E+00  6.04512E+00
   2.15582E+00  3.60386E+00  1.00677E+00  7.46320E-01  1.81130E+00  2.07924E+00  2.01312E+00  1.82511E+00  1.70556E+00  2.51761E+00
   1.75040E+00  4.31545E+00  1.33649E+00  4.28779E-01  1.67385E+00  1.50429E+00 -4.22183E-01  1.58713E+00  2.13663E+00  1.13476E+00
   1.25145E+00  7.69847E-01 -2.73887E-02  8.92017E-01 -4.61278E-01  8.90907E-01  1.80180E+00  1.28074E+00  2.98048E+00 -2.37994E-01
   1.32975E+00  6.54967E-01  1.29941E+00  1.02259E+00 -3.23378E-02  1.46726E+00  1.36475E+00 -1.56000E+00  1.23938E+00  1.56153E+00
   2.97196E-01 -4.44589E-01  3.48711E+00  1.79402E-01  2.20825E+00  2.90673E+00  2.10176E+00  4.48601E-01  8.07632E-01  2.60658E+00
  -2.01565E-01  1.31198E+00  1.65633E+00  1.59225E+00  1.09926E+00  1.17762E+00  1.06990E+00 -5.58534E-01  9.91286E-01 -1.92297E+00
  -1.20655E+00  3.63856E+00  2.40020E+00  2.64712E+00  2.38621E-01  9.99312E-01  1.28251E+00  1.33332E+00 -1.74007E+00  2.02691E+00
   1.47857E+00  1.29676E+00 -2.16417E+00 -9.22362E-01 -9.04488E-01  3.08317E+00  1.25760E+00  3.91410E+00  8.10166E-01 -1.48376E+00
   9.91202E-01 -1.55890E+00  4.26077E-01  4.20039E-01  2.91508E+00  4.43535E-01  5.64116E-02  2.86379E+00 -6.37809E-01  7.00351E-01
   1.07860E+00  4.43124E-01 -2.04997E-01 -6.46330E-01  1.27531E+00  3.71043E-01  2.21925E+00  2.62019E+00 -1.34293E+00  4.90307E-01
   3.53846E+00  3.60604E+00 -7.88571E-01  4.05470E-01  6.53929E-01 -1.62676E+00  4.01368E-02  8.19873E-01  1.83649E+00 -6.76526E-01
   1.19927E+00 -2.86330E+00  7.88042E-01 -9.47954E-01  3.10176E+00 -1.41812E+00 -2.01896E+00  2.21741E-01 -1.26592E+00  1.73783E+00
   7.17592E-01  1.29779E+00 -1.75154E+00  1.56025E+00  6.65809E-01  1.33032E-01  1.52184E+00  1.06419E+00  8.56410E-01  1.86977E+00
  -9.30142E-01 -1.60008E+00  7.96589E-01  1.66619E+00  1.00213E+00 -1.89066E-01 -1.01377E+00 -2.04143E+00  4.13567E-01  6.24674E-02
  -1.44853E+00 -1.59222E+00  5.82596E-01 -2.32904E+00 -9.46779E-01 -2.24848E+00 -1.66084E+00 -3.04701E+00  1.91623E-01  1.45153E+00
  -9.93239E-01 -1.74479E-01 -4.33975E-01  4.59699E-02  1.53783E-01  1.30874E+00 -3.01752E+00 -2.35942E-01 -1.69025E+00 -3.25090E+00
   2.42784E+00 -1.99334E+00 -1.01993E+00 -1.67028E+00 -5.02870E+00 -2.93458E+00 -3.51338E+00 -2.23582E+00 -4.26784E+00 -2.83165E+00
  -4.90484E+00 -5.14544E+00 -3.99388E+00 -5.73198E+00 -5.34376E+00 -4.68367E+00 -3.98192E+00 -2.63272E+00 -2.60395E+00 -1.12480E+00
  -2.64543E+00 -4.22197E+00 -1.63530E+00 -7.85755E-01 -1.45492E+00 -2.88390E+00 -3.66405E+00 -3.78251E+00 -4.64144E+00 -5.69159E+00
  -1.87666E+00 -3.80819E+00 -3.41440E+00 -2.70977E+00 -1.12145E+00 -3.23355E+00 -2.09037E+00 -2.84128E+00 -1.75928E+00 -3.97201E+00
  -2.20464E+00 -2.64439E+00 -2.78015E+00 -3.95560E+00 -1.17278E+00  1.35187E+00 -5.49882E-01 -2.84537E+00 -1.41654E+00 -2.70073E+00
  -2.12418E+00 -3.90247E+00 -1.50006E+00 -2.58798E+00 -3.28812E+00 -2.58703E+00 -5.21401E-01 -2.66834E+00 -2.37799E+00  4.73161E-01
   8.07016E-01 -2.27143E+00  1.15090E+00 -1.33988E+00 -1.52341E+00 -3.41313E+00 -3.74191E-01 -3.21779E+00 -1.92394E+00 -3.28381E+00
  -1.90226E+00 -2.89912E+00 -1.76391E+00  5.06447E-01  1.54198E-01 -4.70499E-01 -6.81611E-01 -4.88845E-01 -3.26991E+00  1.05231E+00
  -1.32950E+00 -9.58039E-01 -2.44682E+00  3.80769E-01 -2.52124E-01  3.88623E-03  2.29647E-01 -1.56948E+00 -1.86087E+00  6.13933E-01
  -1.85373E+00 -2.75150E+00 -2.47347E+00  4.56411E-01 -2.43187E+00 -1.03368E+00 -3.05057E-01  9.71829E-01  1.39524E+00 -1.04122E+00
   1.58891E+00  7.72213E-01 -2.97980E+00 -4.07835E-01  2.69329E+00  3.23241E-01  1.53642E+00  1.14558E+00 -1.11316E+00  3.66088E-02
   3.24217E-01  7.07746E-01  1.65707E+00  4.21070E-01  1.48664E+00  1.60465E+00 -2.57983E-01  9.30857E-01  3.02333E+00  8.61299E-01
  -6.76938E-02  2.05894E+00  6.96759E-01 -5.75632E-01  4.50153E-01  2.38932E-01 -2.74728E-01  3.24989E-01  7.22739E-01  2.42419E+00
   1.43197E+00  2.19874E+00  2.92705E-01 -7.15801E-01 -4.93693E-01  9.51116E-01  1.60806E+00  2.03471E+00  1.59768E+00  2.49985E+00
   1.29428E+00  1.53376E+00  1.54666E+00  5.06242E-01  2.67346E-01  2.15480E+00 -1.41693E+00  1.22713E+00  1.96433E+00  1.83588E+00
   1.11572E+00 -1.61553E-01  1.80245E+00 -8.23308E-01  1.15723E+00  1.42949E+00  3.05501E+00 -1.04549E-01  1.46600E-01 -9.93296E-02
   2.30720E+00 -8.54160E-01  4.83638E-01  1.00425E+00  3.66003E+00  3.07339E-01  1.43258E+00 -6.24593E-01 -2.14865E+00  4.68965E-01
   9.05626E-01  1.87358E-01 -2.74306E-01  4.87884E-01  2.20690E-01  1.40147E+00  7.85203E-01  5.69964E-01  4.26278E-02  5.80988E-01
   1.19988E+00 -1.50328E+00  1.54827E+00  4.24776E-01 -1.32315E+00  4.43326E+00  2.62285E+00  1.65302E+00  3.95870E-01  1.55719E+00
   1.26618E+00  1.30255E+00  1.49449E+00  6.78787E-02  9.22735E-01 -2.02501E+00 -2.94848E-01  3.85059E-01 -5.12792E-01  1.38021E-01
  -2.48451E-01  1.41857E-01 -1.96862E-01 -4.91032E-01  3.11795E-03  2.07806E+00  1.80220E+00 -4.73998E-01
 NY points of the fit to the data follow
   5.80936E-01  6.42509E-01  7.08343E-01  7.48596E-01  7.65286E-01  8.14006E-01  9.10985E-01  1.08946E+00  1.32793E+00  1.56784E+00
   1.73806E+00  1.76730E+00  1.60595E+00  1.26719E+00  8.53469E-01  5.38174E-01  4.02246E-01  4.15424E-01  5.51204E-01  6.71891E-01
   7.54792E-01  8.23664E-01  8.82483E-01  9.29510E-01  9.63413E-01  9.83392E-01  9.87336E-01  9.83584E-01  9.95734E-01  1.03121E+00
   1.08512E+00  1.15092E+00  1.21353E+00  1.24777E+00  1.24485E+00  1.21317E+00  1.17139E+00  1.14197E+00  1.14761E+00  1.18994E+00
   1.24153E+00  1.28729E+00  1.31932E+00  1.33348E+00  1.33375E+00  1.33333E+00  1.34037E+00  1.35040E+00  1.36114E+00  1.37281E+00
   1.38540E+00  1.39824E+00  1.41057E+00  1.42147E+00  1.43078E+00  1.43951E+00  1.44826E+00  1.45677E+00  1.46477E+00  1.47247E+00
   1.48040E+00  1.48881E+00  1.49816E+00  1.50791E+00  1.51674E+00  1.52538E+00  1.53366E+00  1.54065E+00  1.54587E+00  1.54885E+00
   1.54949E+00  1.55105E+00  1.55718E+00  1.56784E+00  1.58033E+00  1.59341E+00  1.60486E+00  1.60950E+00  1.60648E+00  1.59790E+00
   1.58661E+00  1.57857E+00  1.58372E+00  1.59973E+00  1.61771E+00  1.63378E+00  1.64713E+00  1.65627E+00  1.65933E+00  1.65421E+00
   1.64124E+00  1.62585E+00  1.61619E+00  1.61486E+00  1.61455E+00  1.61425E+00  1.61597E+00  1.62197E+00  1.63444E+00  1.65076E+00
   1.66332E+00  1.66814E+00  1.66583E+00  1.65951E+00  1.65437E+00  1.65527E+00  1.66100E+00  1.66746E+00  1.67459E+00  1.68141E+00
   1.68579E+00  1.68817E+00  1.69020E+00  1.69160E+00  1.69338E+00  1.69557E+00  1.69609E+00  1.69404E+00  1.68827E+00  1.67426E+00
   1.63942E+00  1.54009E+00  1.37204E+00  1.35026E+00  1.53302E+00  1.83860E+00  2.24565E+00  2.76991E+00  3.27935E+00  3.49348E+00
   3.21485E+00  2.51938E+00  1.69376E+00  1.14472E+00  1.06059E+00  1.11310E+00  1.14848E+00  1.16929E+00  1.18107E+00  1.18568E+00
   1.18470E+00  1.17907E+00  1.17041E+00  1.15994E+00  1.14742E+00  1.13454E+00  1.12297E+00  1.11187E+00  1.09898E+00  1.08269E+00
   1.06384E+00  1.04396E+00  1.02472E+00  1.00675E+00  9.88628E-01  9.70624E-01  9.53278E-01  9.36222E-01  9.19435E-01  9.02482E-01
   8.82979E-01  8.59151E-01  8.32165E-01  8.06242E-01  7.85078E-01  7.69943E-01  7.56932E-01  7.40429E-01  7.19506E-01  6.96473E-01
   6.73331E-01  6.51935E-01  6.32629E-01  6.13685E-01  5.95460E-01  5.76576E-01  5.55035E-01  5.30636E-01  5.07411E-01  4.87531E-01
   4.70730E-01  4.55201E-01  4.37275E-01  4.15046E-01  3.93969E-01  3.79852E-01  3.71298E-01  3.62915E-01  3.51312E-01  3.37685E-01
   3.23449E-01  3.12502E-01  3.02474E-01  2.86964E-01  2.62136E-01  2.29515E-01  1.91322E-01  1.51811E-01  1.19795E-01  1.02549E-01
   9.78977E-02  1.07118E-01  1.34442E-01  1.72163E-01  2.10968E-01  2.41961E-01  2.42662E-01  2.03061E-01  1.39018E-01  6.32544E-02
  -2.30134E-02 -1.05490E-01 -1.49588E-01 -1.36016E-01 -7.50379E-02  4.64375E-03  6.49593E-02  8.10453E-02  7.44323E-02  6.72317E-02
   5.84968E-02  4.98745E-02  4.47196E-02  4.40480E-02  4.72849E-02  5.37273E-02  6.20444E-02  6.82924E-02  6.89469E-02  6.41330E-02
   5.95572E-02  6.28811E-02  6.80894E-02  6.93009E-02  6.97701E-02  7.03794E-02  6.66215E-02  6.20264E-02  7.17609E-02  1.05396E-01
   1.67713E-01  2.55157E-01  3.42931E-01  3.94833E-01  4.04553E-01  3.83081E-01  3.44941E-01  3.10413E-01  2.97779E-01  3.01735E-01
   3.01203E-01  2.86057E-01  2.73454E-01  2.76230E-01  2.86091E-01  2.78926E-01  2.58649E-01  2.66861E-01  2.96872E-01  3.05601E-01
   2.78911E-01  2.39394E-01  2.14970E-01  2.08654E-01  1.58274E-01  2.58462E-02 -1.63916E-01 -3.31443E-01 -4.35770E-01 -5.18109E-01
  -5.95170E-01 -6.69403E-01 -7.40155E-01 -8.06304E-01 -8.67749E-01 -9.25372E-01 -9.80647E-01 -1.03533E+00 -1.09013E+00 -1.14498E+00
  -1.19940E+00 -1.25254E+00 -1.30335E+00 -1.35107E+00 -1.39604E+00 -1.43871E+00 -1.47914E+00 -1.51762E+00 -1.55491E+00 -1.59132E+00
  -1.62670E+00 -1.66110E+00 -1.69464E+00 -1.72653E+00 -1.75645E+00 -1.78493E+00 -1.81269E+00 -1.84033E+00 -1.86827E+00 -1.89603E+00
  -1.92333E+00 -1.95022E+00 -1.97652E+00 -2.00193E+00 -2.02632E+00 -2.04986E+00 -2.07301E+00 -2.09590E+00 -2.11839E+00 -2.14044E+00
  -2.16198E+00 -2.18295E+00 -2.20333E+00 -2.22305E+00 -2.24206E+00 -2.26030E+00 -2.27768E+00 -2.29412E+00 -2.30956E+00 -2.32392E+00
  -2.33709E+00 -2.34897E+00 -2.35945E+00 -2.36844E+00 -2.37587E+00 -2.38165E+00 -2.38565E+00 -2.38774E+00 -2.38777E+00 -2.38564E+00
  -2.38123E+00 -2.37436E+00 -2.36485E+00 -2.35246E+00 -2.33701E+00 -2.31834E+00 -2.29629E+00 -2.27077E+00 -2.24187E+00 -2.21013E+00
  -2.17741E+00 -2.15051E+00 -2.15927E+00 -2.22386E+00 -2.21487E+00 -2.07423E+00 -1.83834E+00 -1.51471E+00 -1.07437E+00 -5.62480E-01
  -1.84367E-01 -2.14425E-01 -6.36624E-01 -1.24251E+00 -1.76286E+00 -2.01189E+00 -2.05377E+00 -1.85995E+00 -1.41497E+00 -8.52418E-01
  -3.75537E-01 -1.75012E-01 -2.32924E-01 -3.08391E-01 -3.53553E-01 -3.87521E-01 -4.19673E-01 -4.54123E-01 -4.92701E-01 -5.36131E-01
  -5.84518E-01 -6.37521E-01 -6.94437E-01 -7.54298E-01 -8.15977E-01 -8.78272E-01 -9.39909E-01 -9.99518E-01 -1.05562E+00 -1.10665E+00
  -1.15105E+00 -1.18728E+00 -1.21382E+00 -1.22917E+00 -1.23189E+00 -1.22063E+00 -1.19430E+00 -1.15201E+00 -1.09321E+00 -1.01764E+00
  -9.25425E-01 -8.17124E-01 -6.93787E-01 -5.56933E-01 -4.08499E-01 -2.50791E-01 -8.64407E-02  8.16599E-02  2.50453E-01  4.16848E-01
   5.77855E-01  7.30688E-01  8.72848E-01  1.00218E+00  1.11697E+00  1.21595E+00  1.29838E+00  1.36401E+00  1.41299E+00  1.44588E+00
   1.46354E+00  1.46715E+00  1.45808E+00  1.43782E+00  1.40794E+00  1.36996E+00  1.32541E+00  1.27574E+00  1.22230E+00  1.16631E+00
   1.10885E+00  1.05084E+00  9.93091E-01  9.36282E-01  8.80979E-01  8.27617E-01  7.76519E-01  7.27926E-01  6.82013E-01  6.38901E-01
   5.98647E-01  5.61250E-01  5.26670E-01  4.94849E-01  4.65722E-01  4.39207E-01  4.15202E-01  3.93590E-01  3.74251E-01  3.57080E-01
   3.41979E-01  3.28849E-01  3.17582E-01  3.08069E-01  3.00216E-01  2.93946E-01  2.89187E-01  2.85864E-01  2.83895E-01  2.83207E-01
   2.83742E-01  2.85452E-01  2.88290E-01  2.92201E-01  2.97130E-01  3.03030E-01  3.09870E-01  3.17620E-01  3.26248E-01  3.35711E-01
   3.45973E-01  3.57007E-01  3.68796E-01  3.81319E-01  3.94551E-01  4.08459E-01  4.23020E-01  4.38221E-01  4.54051E-01  4.70494E-01
   4.87527E-01  5.05126E-01  5.23279E-01  5.41978E-01  5.61217E-01  5.80979E-01  6.01245E-01  6.21999E-01  6.43235E-01  6.64950E-01
   6.87136E-01  7.09777E-01  7.32857E-01  7.56367E-01  7.80306E-01  8.04672E-01  8.29454E-01  8.54636E-01  8.80208E-01  9.06166E-01
   9.32511E-01  9.59238E-01  9.86336E-01  1.01379E+00  1.04159E+00  1.06975E+00  1.09826E+00  1.12711E+00
 NY background values follow
     1.326E-01    1.533E-01    1.738E-01    1.941E-01    2.141E-01    2.339E-01    2.534E-01    2.727E-01    2.917E-01    3.106E-01
     3.291E-01    3.475E-01    3.655E-01    3.834E-01    4.010E-01    4.183E-01    4.354E-01    4.523E-01    4.689E-01    4.852E-01
     5.013E-01    5.172E-01    5.328E-01    5.481E-01    5.632E-01    5.781E-01    5.927E-01    6.071E-01    6.212E-01    6.350E-01
     6.486E-01    6.620E-01    6.751E-01    6.879E-01    7.005E-01    7.128E-01    7.249E-01    7.368E-01    7.483E-01    7.597E-01
     7.707E-01    7.816E-01    7.921E-01    8.024E-01    8.125E-01    8.223E-01    8.319E-01    8.412E-01    8.502E-01    8.590E-01
     8.676E-01    8.759E-01    8.839E-01    8.917E-01    8.992E-01    9.065E-01    9.135E-01    9.203E-01    9.268E-01    9.331E-01
     9.392E-01    9.449E-01    9.505E-01    9.558E-01    9.608E-01    9.656E-01    9.701E-01    9.744E-01    9.785E-01    9.822E-01
     9.858E-01    9.891E-01    9.922E-01    9.950E-01    9.976E-01    9.999E-01    1.002E+00    1.004E+00    1.005E+00    1.007E+00
     1.008E+00    1.009E+00    1.010E+00    1.010E+00    1.010E+00    1.010E+00    1.010E+00    1.009E+00    1.008E+00    1.007E+00
     1.006E+00    1.005E+00    1.003E+00    1.001E+00    9.991E-01    9.967E-01    9.941E-01    9.913E-01    9.883E-01    9.850E-01
     9.815E-01    9.778E-01    9.739E-01    9.698E-01    9.654E-01    9.608E-01    9.560E-01    9.510E-01    9.458E-01    9.404E-01
     9.348E-01    9.289E-01    9.229E-01    9.166E-01    9.101E-01    9.035E-01    8.966E-01    8.895E-01    8.823E-01    8.748E-01
     8.671E-01    8.593E-01    8.512E-01    8.430E-01    8.345E-01    8.259E-01    8.171E-01    8.080E-01    7.988E-01    7.895E-01
     7.799E-01    7.702E-01    7.602E-01    7.501E-01    7.399E-01    7.294E-01    7.188E-01    7.080E-01    6.970E-01    6.859E-01
     6.746E-01    6.631E-01    6.515E-01    6.397E-01    6.277E-01    6.156E-01    6.033E-01    5.909E-01    5.783E-01    5.656E-01
     5.527E-01    5.397E-01    5.265E-01    5.132E-01    4.997E-01    4.861E-01    4.724E-01    4.585E-01    4.445E-01    4.303E-01
     4.160E-01    4.016E-01    3.871E-01    3.724E-01    3.576E-01    3.427E-01    3.277E-01    3.125E-01    2.972E-01    2.819E-01
     2.664E-01    2.508E-01    2.350E-01    2.192E-01    2.033E-01    1.873E-01    1.711E-01    1.549E-01    1.386E-01    1.222E-01
     1.056E-01    8.904E-02    7.234E-02    5.556E-02    3.870E-02    2.175E-02    4.725E-03   -1.238E-02   -2.956E-02   -4.682E-02
    -6.414E-02   -8.154E-02   -9.900E-02   -1.165E-01   -1.341E-01   -1.518E-01   -1.695E-01   -1.873E-01   -2.051E-01   -2.230E-01
    -2.409E-01   -2.589E-01   -2.769E-01   -2.950E-01   -3.131E-01   -3.312E-01   -3.494E-01   -3.676E-01   -3.859E-01   -4.042E-01
    -4.225E-01   -4.408E-01   -4.592E-01   -4.776E-01   -4.960E-01   -5.144E-01   -5.328E-01   -5.513E-01   -5.698E-01   -5.882E-01
    -6.067E-01   -6.252E-01   -6.437E-01   -6.622E-01   -6.807E-01   -6.991E-01   -7.176E-01   -7.361E-01   -7.545E-01   -7.730E-01
    -7.914E-01   -8.098E-01   -8.282E-01   -8.465E-01   -8.649E-01   -8.832E-01   -9.015E-01   -9.197E-01   -9.379E-01   -9.561E-01
    -9.743E-01   -9.924E-01   -1.010E+00   -1.028E+00   -1.046E+00   -1.064E+00   -1.082E+00   -1.100E+00   -1.118E+00   -1.135E+00
    -1.153E+00   -1.171E+00   -1.188E+00   -1.206E+00   -1.223E+00   -1.240E+00   -1.258E+00   -1.275E+00   -1.292E+00   -1.309E+00
    -1.326E+00   -1.343E+00   -1.359E+00   -1.376E+00   -1.393E+00   -1.409E+00   -1.425E+00   -1.442E+00   -1.458E+00   -1.474E+00
    -1.490E+00   -1.506E+00   -1.522E+00   -1.537E+00   -1.553E+00   -1.568E+00   -1.584E+00   -1.599E+00   -1.614E+00   -1.629E+00
    -1.644E+00   -1.658E+00   -1.673E+00   -1.687E+00   -1.702E+00   -1.716E+00   -1.730E+00   -1.744E+00   -1.758E+00   -1.771E+00
    -1.785E+00   -1.798E+00   -1.811E+00   -1.824E+00   -1.837E+00   -1.850E+00   -1.863E+00   -1.875E+00   -1.887E+00   -1.899E+00
    -1.911E+00   -1.923E+00   -1.935E+00   -1.946E+00   -1.957E+00   -1.968E+00   -1.979E+00   -1.990E+00   -2.001E+00   -2.011E+00
    -2.021E+00   -2.031E+00   -2.041E+00   -2.051E+00   -2.060E+00   -2.070E+00   -2.079E+00   -2.087E+00   -2.096E+00   -2.105E+00
    -2.113E+00   -2.121E+00   -2.129E+00   -2.137E+00   -2.144E+00   -2.151E+00   -2.159E+00   -2.165E+00   -2.172E+00   -2.178E+00
    -2.185E+00   -2.191E+00   -2.197E+00   -2.202E+00   -2.207E+00   -2.213E+00   -2.217E+00   -2.222E+00   -2.227E+00   -2.231E+00
    -2.235E+00   -2.239E+00   -2.242E+00   -2.246E+00   -2.249E+00   -2.251E+00   -2.254E+00   -2.256E+00   -2.259E+00   -2.260E+00
    -2.262E+00   -2.264E+00   -2.265E+00   -2.266E+00   -2.266E+00   -2.267E+00   -2.267E+00   -2.267E+00   -2.266E+00   -2.266E+00
    -2.265E+00   -2.264E+00   -2.263E+00   -2.261E+00   -2.259E+00   -2.257E+00   -2.255E+00   -2.252E+00   -2.249E+00   -2.246E+00
    -2.243E+00   -2.239E+00   -2.235E+00   -2.231E+00   -2.226E+00   -2.222E+00   -2.217E+00   -2.212E+00   -2.206E+00   -2.200E+00
    -2.194E+00   -2.188E+00   -2.181E+00   -2.174E+00   -2.167E+00   -2.160E+00   -2.152E+00   -2.144E+00   -2.136E+00   -2.127E+00
    -2.118E+00   -2.109E+00   -2.100E+00   -2.090E+00   -2.080E+00   -2.070E+00   -2.060E+00   -2.049E+00   -2.038E+00   -2.027E+00
    -2.015E+00   -2.003E+00   -1.991E+00   -1.979E+00   -1.966E+00   -1.953E+00   -1.940E+00   -1.926E+00   -1.912E+00   -1.898E+00
    -1.884E+00   -1.869E+00   -1.854E+00   -1.839E+00   -1.823E+00   -1.808E+00   -1.792E+00   -1.775E+00   -1.759E+00   -1.742E+00
    -1.724E+00   -1.707E+00   -1.689E+00   -1.671E+00   -1.653E+00   -1.634E+00   -1.615E+00   -1.596E+00   -1.577E+00   -1.557E+00
    -1.537E+00   -1.516E+00   -1.496E+00   -1.475E+00   -1.454E+00   -1.432E+00   -1.411E+00   -1.389E+00   -1.366E+00   -1.344E+00
    -1.321E+00   -1.298E+00   -1.275E+00   -1.251E+00   -1.227E+00   -1.203E+00   -1.178E+00   -1.154E+00   -1.129E+00   -1.103E+00
    -1.078E+00   -1.052E+00   -1.026E+00   -9.996E-01   -9.730E-01   -9.461E-01   -9.189E-01   -8.915E-01   -8.638E-01   -8.359E-01
    -8.077E-01   -7.792E-01   -7.505E-01   -7.215E-01   -6.922E-01   -6.627E-01   -6.330E-01   -6.029E-01   -5.727E-01   -5.421E-01
    -5.114E-01   -4.803E-01   -4.490E-01   -4.175E-01   -3.857E-01   -3.537E-01   -3.214E-01   -2.889E-01   -2.562E-01   -2.232E-01
    -1.899E-01   -1.564E-01   -1.227E-01   -8.875E-02   -5.456E-02   -2.013E-02    1.453E-02    4.942E-02    8.454E-02    1.199E-01
     1.555E-01    1.913E-01    2.273E-01    2.635E-01    3.000E-01    3.367E-01    3.736E-01    4.107E-01
 Asp      Conc. = 1.63E+00
