 LCModel (Version 6.3-1L) Copyright: S.W. Provencher.          Ref.: Magn. Reson. Med. 30:672-679 (1993).                
 Slice#1 Row#5 Col#2  K_02_press_1_raw_act
 36 lines in following concentration table = NCONC+1
    Conc.  %SD /Cr+PCr  Metabolite                                         
  331.699  29%   1.932 Ala                                                 
   24.733 114%   0.144 Asp                                                 
    0.000 999%   0.000 Cr                                                  
  171.648  18%   1.000 PCr                                                 
   16.897 101% 9.8E-02 GABA                                                
   13.668 125% 8.0E-02 Glc                                                 
  495.800  43%   2.888 Gln                                                 
  581.928  41%   3.390 Glu                                                 
    6.893 175% 4.0E-02 GPC                                                 
    0.000 999%   0.000 PCh                                                 
   67.428  76%   0.393 GSH                                                 
    0.000 999%   0.000 Ins                                                 
   68.149 148%   0.397 Lac                                                 
  328.319  12%   1.913 NAA                                                 
    0.000 999%   0.000 NAAG                                                
    0.740 738% 4.3E-03 Scyllo                                              
   12.452 226% 7.3E-02 Tau                                                 
    0.000 999%   0.000 -CrCH2                                              
    6.893 175% 4.0E-02 GPC+PCh                                             
  328.319  12%   1.913 NAA+NAAG                                            
  171.648  18%   1.000 Cr+PCr                                              
 1.08E+03  36%   6.279 Glu+Gln                                             
    0.000 999%   0.000 Lip13a                                              
    0.000 999%   0.000 Lip13b                                              
    0.000 999%   0.000 Lip09                                               
  197.191  46%   1.149 MM09                                                
    2.783 652% 1.6E-02 Lip20                                               
  336.555  42%   1.961 MM20                                                
   53.042  61%   0.309 MM12                                                
  242.336  38%   1.412 MM14                                                
  136.602  43%   0.796 MM17                                                
    0.000 999%   0.000 Lip13a+Lip13b                                       
  295.378  39%   1.721 MM14+Lip13a+Lip13b+MM12                             
  197.191  46%   1.149 MM09+Lip09                                          
  339.338  42%   1.977 MM20+Lip20                                          
   6 lines in following misc. output table
  FWHM = 0.069 ppm    S/N =   2                                            
  Data shift = 0.099 ppm                                                   
  Ph:  90 deg      25.9 deg/ppm                                            
  alphaB,S = 7.1E-01,   9.1E+01                                            
   14 spline knots.   Ns = 7(1)                                            
  (11) 2 infls.   (13) 1 extrs.                                            
  498 points on ppm-axis = NY
      4.000000     3.992357     3.984714     3.977070     3.969427     3.961784     3.954141     3.946497     3.938854     3.931211
      3.923568     3.915925     3.908281     3.900638     3.892995     3.885352     3.877708     3.870065     3.862422     3.854779
      3.847136     3.839492     3.831849     3.824206     3.816563     3.808919     3.801276     3.793633     3.785990     3.778347
      3.770703     3.763060     3.755417     3.747774     3.740130     3.732487     3.724844     3.717201     3.709558     3.701914
      3.694271     3.686628     3.678985     3.671341     3.663698     3.656055     3.648412     3.640769     3.633125     3.625482
      3.617839     3.610196     3.602552     3.594909     3.587266     3.579623     3.571980     3.564336     3.556693     3.549050
      3.541407     3.533763     3.526120     3.518477     3.510834     3.503191     3.495547     3.487904     3.480261     3.472618
      3.464974     3.457331     3.449688     3.442045     3.434402     3.426758     3.419115     3.411472     3.403829     3.396185
      3.388542     3.380899     3.373256     3.365613     3.357969     3.350326     3.342683     3.335040     3.327396     3.319753
      3.312110     3.304467     3.296824     3.289180     3.281537     3.273894     3.266251     3.258607     3.250964     3.243321
      3.235678     3.228034     3.220391     3.212748     3.205105     3.197462     3.189818     3.182175     3.174532     3.166889
      3.159245     3.151602     3.143959     3.136316     3.128673     3.121029     3.113386     3.105743     3.098100     3.090456
      3.082813     3.075170     3.067527     3.059884     3.052240     3.044597     3.036954     3.029311     3.021667     3.014024
      3.006381     2.998738     2.991095     2.983451     2.975808     2.968165     2.960522     2.952878     2.945235     2.937592
      2.929949     2.922306     2.914662     2.907019     2.899376     2.891733     2.884089     2.876446     2.868803     2.861160
      2.853517     2.845873     2.838230     2.830587     2.822944     2.815300     2.807657     2.800014     2.792371     2.784728
      2.777084     2.769441     2.761798     2.754155     2.746511     2.738868     2.731225     2.723582     2.715939     2.708295
      2.700652     2.693009     2.685366     2.677722     2.670079     2.662436     2.654793     2.647150     2.639506     2.631863
      2.624220     2.616577     2.608933     2.601290     2.593647     2.586004     2.578361     2.570717     2.563074     2.555431
      2.547788     2.540144     2.532501     2.524858     2.517215     2.509572     2.501928     2.494285     2.486642     2.478999
      2.471355     2.463712     2.456069     2.448426     2.440783     2.433139     2.425496     2.417853     2.410210     2.402566
      2.394923     2.387280     2.379637     2.371994     2.364350     2.356707     2.349064     2.341421     2.333777     2.326134
      2.318491     2.310848     2.303205     2.295561     2.287918     2.280275     2.272632     2.264988     2.257345     2.249702
      2.242059     2.234416     2.226772     2.219129     2.211486     2.203843     2.196199     2.188556     2.180913     2.173270
      2.165627     2.157983     2.150340     2.142697     2.135054     2.127410     2.119767     2.112124     2.104481     2.096838
      2.089194     2.081551     2.073908     2.066265     2.058621     2.050978     2.043335     2.035692     2.028049     2.020405
      2.012762     2.005119     1.997476     1.989833     1.982190     1.974546     1.966903     1.959260     1.951617     1.943974
      1.936331     1.928688     1.921045     1.913402     1.905759     1.898115     1.890472     1.882829     1.875186     1.867543
      1.859900     1.852257     1.844614     1.836971     1.829327     1.821684     1.814041     1.806398     1.798755     1.791112
      1.783469     1.775826     1.768183     1.760540     1.752896     1.745253     1.737610     1.729967     1.722324     1.714681
      1.707038     1.699395     1.691752     1.684108     1.676465     1.668822     1.661179     1.653536     1.645893     1.638250
      1.630607     1.622964     1.615321     1.607677     1.600034     1.592391     1.584748     1.577105     1.569462     1.561819
      1.554176     1.546533     1.538890     1.531246     1.523603     1.515960     1.508317     1.500674     1.493031     1.485388
      1.477745     1.470102     1.462458     1.454815     1.447172     1.439529     1.431886     1.424243     1.416600     1.408957
      1.401314     1.393671     1.386027     1.378384     1.370741     1.363098     1.355455     1.347812     1.340169     1.332526
      1.324883     1.317240     1.309596     1.301953     1.294310     1.286667     1.279024     1.271381     1.263738     1.256095
      1.248452     1.240808     1.233165     1.225522     1.217879     1.210236     1.202593     1.194950     1.187307     1.179664
      1.172021     1.164377     1.156734     1.149091     1.141448     1.133805     1.126162     1.118519     1.110876     1.103233
      1.095590     1.087946     1.080303     1.072660     1.065017     1.057374     1.049731     1.042088     1.034445     1.026802
      1.019158     1.011515     1.003872     0.996229     0.988586     0.980943     0.973300     0.965657     0.958014     0.950371
      0.942727     0.935084     0.927441     0.919798     0.912155     0.904512     0.896869     0.889226     0.881583     0.873940
      0.866296     0.858653     0.851010     0.843367     0.835724     0.828081     0.820438     0.812795     0.805152     0.797508
      0.789865     0.782222     0.774579     0.766936     0.759293     0.751650     0.744007     0.736364     0.728721     0.721077
      0.713434     0.705791     0.698148     0.690505     0.682862     0.675219     0.667576     0.659933     0.652290     0.644646
      0.637003     0.629360     0.621717     0.614074     0.606431     0.598788     0.591145     0.583502     0.575858     0.568215
      0.560572     0.552929     0.545286     0.537643     0.530000     0.522357     0.514714     0.507071     0.499427     0.491784
      0.484141     0.476498     0.468855     0.461212     0.453569     0.445925     0.438282     0.430639     0.422996     0.415353
      0.407710     0.400067     0.392424     0.384780     0.377137     0.369494     0.361851     0.354208     0.346565     0.338922
      0.331278     0.323635     0.315992     0.308349     0.300706     0.293063     0.285420     0.277777     0.270133     0.262490
      0.254847     0.247204     0.239561     0.231918     0.224275     0.216631     0.208988     0.201345
 NY phased data points follow
   2.67036E+01  2.59371E+01  2.90397E+01  2.87566E+01  2.66372E+01  2.79322E+01  2.41194E+01  2.29774E+01  2.92348E+01  2.82062E+01
   2.60023E+01  2.52534E+01  2.58629E+01  2.18799E+01  2.22145E+01  2.30395E+01  2.37849E+01  2.17954E+01  2.28198E+01  2.30568E+01
   2.34535E+01  1.99662E+01  2.37894E+01  2.09572E+01  2.18204E+01  1.92782E+01  1.97712E+01  2.22283E+01  1.94549E+01  2.03082E+01
   1.84164E+01  1.67450E+01  1.90752E+01  2.06722E+01  2.10386E+01  2.24722E+01  2.13620E+01  1.75976E+01  2.11486E+01  1.88043E+01
   1.95036E+01  1.92481E+01  1.97508E+01  1.86554E+01  1.69836E+01  1.84042E+01  1.60568E+01  1.61344E+01  1.63171E+01  1.26483E+01
   1.43557E+01  1.45333E+01  1.11248E+01  1.56001E+01  1.70876E+01  1.21186E+01  1.51986E+01  1.41083E+01  1.09564E+01  1.14174E+01
   1.50376E+01  1.57969E+01  1.14074E+01  1.18059E+01  1.18947E+01  1.35256E+01  1.14020E+01  1.38176E+01  1.30137E+01  9.81783E+00
   1.20099E+01  1.44861E+01  1.30110E+01  1.15400E+01  1.21781E+01  1.37431E+01  1.06828E+01  1.01059E+01  1.34458E+01  1.22878E+01
   1.05491E+01  1.08630E+01  8.20811E+00  8.82429E+00  9.37415E+00  8.08485E+00  8.48240E+00  6.42998E+00  1.06642E+01  1.15924E+01
   1.01418E+01  8.46920E+00  1.15843E+01  7.98891E+00  9.14552E+00  7.62858E+00  7.29489E+00  1.02656E+01  8.89329E+00  6.21284E+00
   9.76594E+00  1.34155E+01  9.25763E+00  6.05613E+00  1.13507E+01  1.07855E+01  1.03267E+01  3.35932E+00  9.68360E+00  7.48949E+00
   8.21909E+00  8.50748E+00  6.56180E+00  1.02382E+01  7.17411E+00  1.18117E+01  1.25924E+01  9.25056E+00  6.46901E+00  8.68389E+00
   7.39451E+00  9.17946E+00  5.78052E+00  9.53096E+00  7.75755E+00  1.12654E+01  9.70219E+00  1.05029E+01  1.33317E+01  9.06422E+00
   7.82348E+00  8.05664E+00  6.26130E+00  6.56607E+00  7.50852E+00  7.28307E+00  8.34605E+00  8.90025E+00  5.98490E+00  4.11150E+00
   2.06417E+00  6.10573E+00  6.72542E+00  4.16992E+00  7.91658E+00  7.47825E+00  3.37033E+00  4.63438E+00  5.99552E+00  4.71713E+00
   4.35550E+00  7.20256E+00  7.06838E-01  3.72515E+00  3.84885E+00  6.31938E+00  1.54454E+00  1.61018E+00  5.31523E+00  4.68899E+00
   3.89462E+00  2.76100E+00  3.81781E+00  4.64417E+00  1.72843E+00  4.33692E+00  2.92039E+00  1.82410E+00 -4.27357E-02  4.48079E+00
   2.66111E+00  6.41679E+00 -1.34816E-01  1.30907E+00  4.87338E+00 -1.82771E+00  5.00571E+00  8.68909E-01 -1.87481E+00  9.89505E-01
  -3.04555E-01  5.39344E+00  6.80146E-01  5.23202E-01  1.73554E+00 -1.69238E+00 -1.75866E+00  2.54336E+00 -2.03991E+00  2.79299E+00
   6.82704E-01 -3.17573E-01  1.53359E+00  2.53334E+00  4.52688E-01  1.10349E-01 -1.53427E+00 -3.12269E+00 -6.51623E-01 -3.08509E+00
  -2.97154E+00 -1.56983E+00  1.05461E+00  2.21308E+00  1.25479E+00 -1.15355E+00  2.65910E+00  9.76591E-03 -1.95913E+00  1.74152E-01
  -8.36516E-01  2.64769E+00 -1.98115E-01  1.58874E+00  4.11303E+00  1.87788E+00  2.80687E+00  3.17716E+00  5.45014E+00 -5.62641E-01
  -1.40576E+00 -1.12944E+00  7.49192E-01  3.32651E+00  3.17874E+00 -1.95859E+00  1.85049E+00  1.96353E+00  1.50780E+00  2.96223E+00
   9.41114E-02  6.31805E-01 -1.12010E+00  3.79941E+00  2.60208E+00  6.35271E-02  8.29308E-01  2.34859E+00  2.04478E+00  1.57650E+00
   4.09241E+00  5.47324E-01  1.94788E+00 -8.29607E-01  3.69174E-01 -4.46470E+00  1.31819E+00  4.91212E+00  3.89255E+00  2.08453E+00
   5.55308E-01  2.38890E+00  2.08586E+00  1.86432E+00  2.63752E+00  1.08737E-01  8.30306E+00  7.03792E+00  6.45376E+00  7.73578E+00
   9.84991E+00  1.00355E+01  1.09112E+01  7.47365E+00  6.68990E+00  6.25674E+00  8.46213E+00  3.32627E+00  1.24374E+00 -1.10906E+00
   5.09198E+00  2.92896E+00  1.98739E+00 -1.72681E+00  2.32717E+00 -1.16203E+00  2.42829E+00  9.51794E-01  8.95506E-01  5.05885E-01
  -1.60521E+00  3.71372E-01  1.87642E+00  2.17344E+00  2.22410E+00 -4.87634E+00  3.53217E+00 -8.08114E-01 -1.54890E+00  1.91084E+00
   2.14232E+00  2.07210E+00  1.88666E+00  2.47451E+00 -2.26730E-01 -8.95949E-01  4.50607E-01 -2.75748E+00 -2.94483E-01  2.33636E+00
  -7.71728E-01  2.55286E+00 -4.12092E+00  1.53988E+00 -5.72083E-01  2.52019E+00 -9.53413E-01 -5.15015E-01 -2.97238E+00  6.07811E-01
   1.93484E+00 -1.01505E+00  3.08432E+00  1.36519E-01  2.06097E+00  1.23601E+00  1.12415E-01 -9.06819E-01  4.55907E+00  1.40943E-01
   1.68671E+00 -1.41851E+00  4.23395E+00  1.70011E+00  8.06850E-01  1.98452E+00  8.70272E-01 -3.58218E+00 -1.96986E+00 -2.28076E+00
   3.30884E-01 -9.91672E-01 -1.07980E+00 -3.76593E+00  1.33829E+00 -7.34542E-01 -3.48931E-01 -5.33157E-02  4.08562E+00 -8.36255E-01
   2.71817E+00 -1.26905E+00  3.66552E+00 -2.04717E+00  4.19203E-01 -1.24366E+00 -1.64409E+00 -3.71735E+00 -2.66664E+00 -2.73362E+00
  -3.04862E+00 -6.84024E-01 -8.89378E+00 -5.71672E+00 -3.93983E+00 -2.05744E+00 -6.16851E+00  1.50687E+00 -3.48113E+00 -4.71017E+00
  -6.18359E+00 -1.88066E+00 -5.99650E+00 -5.66107E+00 -6.51522E+00 -1.88993E+00 -6.98271E+00 -1.40544E+00 -2.57212E+00 -2.41869E+00
  -2.04025E+00 -5.82739E+00 -4.85251E+00 -6.67369E+00 -4.64580E+00 -2.76172E+00 -3.20460E+00 -1.17520E+00 -6.45635E+00 -2.42684E+00
  -5.93956E+00 -4.68064E+00 -5.22013E+00 -8.32193E-01 -4.40420E+00 -6.90296E+00 -6.32819E+00 -6.46797E+00 -6.80109E+00 -7.27304E+00
  -4.55748E+00 -2.62057E+00 -4.22988E+00 -6.16306E-01 -5.71699E+00 -5.77138E+00 -5.36538E+00 -5.43358E+00 -1.54434E-01 -6.34941E+00
  -2.38731E+00 -2.39305E+00 -7.61117E-01 -2.35270E+00 -7.08268E+00 -3.81790E+00 -4.86026E+00 -5.02288E+00 -4.26417E+00 -5.04419E+00
  -4.06692E+00 -4.02811E+00 -5.20734E+00 -3.23292E+00 -2.59467E+00 -4.41380E+00 -2.40226E+00 -2.86929E+00 -7.11458E+00 -3.39121E+00
  -4.03053E+00 -2.44437E+00 -2.96311E+00 -4.83574E+00 -5.40338E+00 -4.84520E+00 -1.87498E+00 -5.73330E+00 -2.01983E+00 -1.52947E+00
  -3.23488E+00 -5.35834E+00 -6.79298E+00 -4.06140E+00 -6.82529E+00 -4.83816E+00 -4.49797E+00 -5.50467E+00 -4.50633E+00 -5.02435E+00
  -8.26796E+00 -2.86685E+00 -3.01642E+00 -3.54483E+00 -4.89983E+00 -4.63790E+00 -4.38966E+00 -4.01885E+00 -5.60028E+00 -7.68107E+00
  -4.39320E+00 -2.95174E+00 -2.55992E+00 -5.67341E+00 -3.28177E+00 -4.32851E+00 -4.46996E+00 -3.87613E+00 -6.30845E+00 -1.90278E+00
  -1.01894E+00  1.24362E+00 -2.81963E+00 -4.15333E+00 -2.27335E+00 -3.13536E+00 -4.31984E+00 -3.31459E+00 -4.49355E+00 -9.90946E+00
  -6.43149E+00 -3.43966E+00 -8.94885E-01 -3.51221E+00 -2.43655E+00 -9.67818E-01 -2.51881E+00 -4.50190E+00 -3.35549E+00 -8.00622E+00
  -4.12120E+00 -5.29015E+00 -6.22162E+00 -5.64399E+00 -5.26792E+00 -2.92372E+00 -7.36963E-01 -1.77248E+00 -3.57087E+00  3.90238E-01
  -7.95558E-01 -2.42047E+00 -6.92914E+00 -4.52863E+00 -1.95572E+00 -8.77278E+00 -5.73672E+00 -5.18505E+00
 NY points of the fit to the data follow
   2.34446E+01  2.34409E+01  2.36518E+01  2.39916E+01  2.43429E+01  2.46448E+01  2.48884E+01  2.50721E+01  2.51642E+01  2.51200E+01
   2.49055E+01  2.45042E+01  2.39583E+01  2.33423E+01  2.27207E+01  2.21355E+01  2.16498E+01  2.13737E+01  2.13680E+01  2.14379E+01
   2.14271E+01  2.12643E+01  2.09758E+01  2.06593E+01  2.03652E+01  2.01489E+01  2.00606E+01  2.00840E+01  2.01779E+01  2.02904E+01
   2.03881E+01  2.04368E+01  2.04409E+01  2.04110E+01  2.03028E+01  2.00153E+01  1.95164E+01  1.88711E+01  1.82115E+01  1.76554E+01
   1.72510E+01  1.70400E+01  1.70066E+01  1.70565E+01  1.70959E+01  1.70615E+01  1.69284E+01  1.67087E+01  1.64648E+01  1.62372E+01
   1.60238E+01  1.58241E+01  1.56353E+01  1.54543E+01  1.52795E+01  1.51100E+01  1.49438E+01  1.47803E+01  1.46206E+01  1.44660E+01
   1.43163E+01  1.41692E+01  1.40241E+01  1.38800E+01  1.37366E+01  1.35942E+01  1.34526E+01  1.33115E+01  1.31736E+01  1.30416E+01
   1.29136E+01  1.27863E+01  1.26581E+01  1.25288E+01  1.23987E+01  1.22683E+01  1.21372E+01  1.20033E+01  1.18667E+01  1.17288E+01
   1.15918E+01  1.14564E+01  1.13225E+01  1.11906E+01  1.10636E+01  1.09419E+01  1.08206E+01  1.06959E+01  1.05664E+01  1.04331E+01
   1.02987E+01  1.01678E+01  1.00433E+01  9.92425E+00  9.81123E+00  9.71538E+00  9.65986E+00  9.63561E+00  9.61922E+00  9.59594E+00
   9.56245E+00  9.52004E+00  9.46225E+00  9.37943E+00  9.26658E+00  9.12301E+00  8.95394E+00  8.77125E+00  8.58552E+00  8.40068E+00
   8.22451E+00  8.07285E+00  7.95812E+00  7.86123E+00  7.76870E+00  7.68038E+00  7.59816E+00  7.52949E+00  7.50377E+00  7.66041E+00
   8.13672E+00  8.77869E+00  9.41991E+00  9.98446E+00  1.04750E+01  1.08899E+01  1.11751E+01  1.12643E+01  1.11021E+01  1.06650E+01
   9.99691E+00  9.18796E+00  8.31745E+00  7.44730E+00  6.67211E+00  6.14104E+00  5.87951E+00  5.71598E+00  5.58975E+00  5.49413E+00
   5.42341E+00  5.36976E+00  5.32855E+00  5.28954E+00  5.23156E+00  5.14479E+00  5.03104E+00  4.89604E+00  4.75120E+00  4.61014E+00
   4.48006E+00  4.36544E+00  4.25995E+00  4.15780E+00  4.04759E+00  3.92599E+00  3.80204E+00  3.68589E+00  3.58929E+00  3.50567E+00
   3.42134E+00  3.33493E+00  3.25101E+00  3.17378E+00  3.10211E+00  3.03142E+00  2.95730E+00  2.87658E+00  2.78562E+00  2.67434E+00
   2.53507E+00  2.39131E+00  2.26529E+00  2.16232E+00  2.07253E+00  1.98229E+00  1.89768E+00  1.83134E+00  1.78205E+00  1.73753E+00
   1.68442E+00  1.62758E+00  1.58995E+00  1.58442E+00  1.60914E+00  1.65119E+00  1.69925E+00  1.74465E+00  1.78089E+00  1.78482E+00
   1.73661E+00  1.63100E+00  1.48531E+00  1.32817E+00  1.20477E+00  1.15924E+00  1.20788E+00  1.35498E+00  1.62174E+00  1.98950E+00
   2.38180E+00  2.71405E+00  2.87507E+00  2.70777E+00  2.25722E+00  1.66566E+00  1.02163E+00  3.90987E-01 -1.31072E-01 -3.68270E-01
  -2.79493E-01  7.24205E-02  6.05939E-01  1.24785E+00  1.88660E+00  2.32038E+00  2.42760E+00  2.25676E+00  1.85229E+00  1.21985E+00
   5.37439E-01 -2.79667E-02 -4.02850E-01 -5.17781E-01 -3.41644E-01  9.70305E-02  6.43587E-01  1.17595E+00  1.61123E+00  1.84836E+00
   1.86996E+00  1.72295E+00  1.51322E+00  1.35488E+00  1.30539E+00  1.33613E+00  1.36363E+00  1.38134E+00  1.40465E+00  1.41672E+00
   1.36323E+00  1.22820E+00  1.03761E+00  8.09566E-01  5.51434E-01  2.93865E-01  1.41834E-01  1.41531E-01  2.70187E-01  4.99189E-01
   8.00172E-01  1.09468E+00  1.35477E+00  1.89032E+00  3.00121E+00  4.38848E+00  5.73160E+00  6.90535E+00  7.90769E+00  8.73430E+00
   9.30355E+00  9.49953E+00  9.25110E+00  8.53098E+00  7.41068E+00  6.04072E+00  4.55062E+00  3.03417E+00  1.67801E+00  7.82898E-01
   4.21477E-01  2.60982E-01  1.71459E-01  1.25025E-01  9.22498E-02  5.95458E-02  2.74271E-02 -1.18786E-02 -6.29953E-02 -1.26728E-01
  -2.01824E-01 -2.84154E-01 -3.61777E-01 -4.24908E-01 -4.73310E-01 -5.09275E-01 -5.34504E-01 -5.51461E-01 -5.62886E-01 -5.71931E-01
  -5.79950E-01 -5.85462E-01 -5.88061E-01 -5.87882E-01 -5.84664E-01 -5.78292E-01 -5.69355E-01 -5.58970E-01 -5.47887E-01 -5.36758E-01
  -5.26828E-01 -5.19093E-01 -5.14100E-01 -5.12550E-01 -5.14801E-01 -5.20922E-01 -5.30679E-01 -5.43461E-01 -5.58292E-01 -5.73894E-01
  -5.88665E-01 -6.00576E-01 -6.07054E-01 -6.05082E-01 -5.90892E-01 -5.59356E-01 -5.03014E-01 -4.09391E-01 -2.53163E-01  2.88506E-02
   4.86181E-01  9.00436E-01  1.09292E+00  1.04050E+00  7.87977E-01  3.53441E-01 -3.15879E-01 -1.24021E+00 -2.16769E+00 -2.88679E+00
  -3.35823E+00 -3.58225E+00 -3.55788E+00 -3.26353E+00 -2.67436E+00 -1.81136E+00 -8.08431E-01  3.16794E-02  5.77925E-01  8.54019E-01
   9.22579E-01  7.80209E-01  3.97227E-01 -1.44065E-01 -6.23967E-01 -9.95433E-01 -1.33950E+00 -1.69486E+00 -2.02820E+00 -2.30754E+00
  -2.53161E+00 -2.70153E+00 -2.81373E+00 -2.86268E+00 -2.84600E+00 -2.76724E+00 -2.64342E+00 -2.53088E+00 -2.47421E+00 -2.47242E+00
  -2.51590E+00 -2.59985E+00 -2.72006E+00 -2.85687E+00 -2.96825E+00 -3.04844E+00 -3.11329E+00 -3.16971E+00 -3.22069E+00 -3.26780E+00
  -3.31191E+00 -3.35355E+00 -3.39295E+00 -3.43022E+00 -3.46532E+00 -3.49815E+00 -3.52854E+00 -3.55628E+00 -3.58113E+00 -3.60281E+00
  -3.62100E+00 -3.63537E+00 -3.64559E+00 -3.65133E+00 -3.65224E+00 -3.64799E+00 -3.63827E+00 -3.62284E+00 -3.60152E+00 -3.57424E+00
  -3.54104E+00 -3.50211E+00 -3.45782E+00 -3.40876E+00 -3.35575E+00 -3.29980E+00 -3.24215E+00 -3.18424E+00 -3.12764E+00 -3.07407E+00
  -3.02528E+00 -2.98299E+00 -2.94880E+00 -2.92413E+00 -2.91015E+00 -2.90773E+00 -2.91735E+00 -2.93909E+00 -2.97267E+00 -3.01739E+00
  -3.07226E+00 -3.13599E+00 -3.20708E+00 -3.28386E+00 -3.36462E+00 -3.44768E+00 -3.53145E+00 -3.61446E+00 -3.69543E+00 -3.77329E+00
  -3.84719E+00 -3.91653E+00 -3.98089E+00 -4.04008E+00 -4.09403E+00 -4.14283E+00 -4.18667E+00 -4.22584E+00 -4.26065E+00 -4.29147E+00
  -4.31864E+00 -4.34253E+00 -4.36347E+00 -4.38180E+00 -4.39782E+00 -4.41178E+00 -4.42392E+00 -4.43445E+00 -4.44355E+00 -4.45140E+00
  -4.45813E+00 -4.46386E+00 -4.46869E+00 -4.47271E+00 -4.47601E+00 -4.47866E+00 -4.48072E+00 -4.48224E+00 -4.48326E+00 -4.48384E+00
  -4.48401E+00 -4.48381E+00 -4.48327E+00 -4.48240E+00 -4.48123E+00 -4.47978E+00 -4.47809E+00 -4.47615E+00 -4.47398E+00 -4.47159E+00
  -4.46899E+00 -4.46621E+00 -4.46325E+00 -4.46012E+00 -4.45683E+00 -4.45339E+00 -4.44980E+00 -4.44608E+00 -4.44223E+00 -4.43827E+00
  -4.43419E+00 -4.43000E+00 -4.42571E+00 -4.42133E+00 -4.41687E+00 -4.41233E+00 -4.40770E+00 -4.40299E+00 -4.39823E+00 -4.39341E+00
  -4.38854E+00 -4.38361E+00 -4.37863E+00 -4.37361E+00 -4.36856E+00 -4.36347E+00 -4.35836E+00 -4.35322E+00 -4.34805E+00 -4.34287E+00
  -4.33768E+00 -4.33248E+00 -4.32727E+00 -4.32206E+00 -4.31684E+00 -4.31163E+00 -4.30642E+00 -4.30122E+00
 NY background values follow
     2.324E+01    2.309E+01    2.293E+01    2.278E+01    2.262E+01    2.247E+01    2.231E+01    2.216E+01    2.200E+01    2.184E+01
     2.169E+01    2.153E+01    2.138E+01    2.122E+01    2.107E+01    2.091E+01    2.076E+01    2.060E+01    2.045E+01    2.030E+01
     2.014E+01    1.999E+01    1.983E+01    1.968E+01    1.952E+01    1.937E+01    1.922E+01    1.906E+01    1.891E+01    1.876E+01
     1.861E+01    1.846E+01    1.830E+01    1.815E+01    1.800E+01    1.785E+01    1.770E+01    1.755E+01    1.740E+01    1.725E+01
     1.710E+01    1.695E+01    1.680E+01    1.665E+01    1.651E+01    1.636E+01    1.621E+01    1.606E+01    1.592E+01    1.577E+01
     1.563E+01    1.548E+01    1.534E+01    1.519E+01    1.505E+01    1.491E+01    1.477E+01    1.462E+01    1.448E+01    1.434E+01
     1.420E+01    1.406E+01    1.392E+01    1.378E+01    1.365E+01    1.351E+01    1.337E+01    1.324E+01    1.310E+01    1.296E+01
     1.283E+01    1.270E+01    1.256E+01    1.243E+01    1.230E+01    1.217E+01    1.204E+01    1.191E+01    1.178E+01    1.165E+01
     1.152E+01    1.139E+01    1.126E+01    1.114E+01    1.101E+01    1.089E+01    1.076E+01    1.064E+01    1.052E+01    1.040E+01
     1.028E+01    1.016E+01    1.004E+01    9.919E+00    9.801E+00    9.684E+00    9.567E+00    9.452E+00    9.337E+00    9.223E+00
     9.110E+00    8.997E+00    8.885E+00    8.774E+00    8.664E+00    8.555E+00    8.446E+00    8.338E+00    8.230E+00    8.124E+00
     8.018E+00    7.913E+00    7.809E+00    7.705E+00    7.602E+00    7.500E+00    7.398E+00    7.298E+00    7.198E+00    7.098E+00
     7.000E+00    6.902E+00    6.805E+00    6.708E+00    6.612E+00    6.517E+00    6.423E+00    6.329E+00    6.236E+00    6.144E+00
     6.053E+00    5.962E+00    5.872E+00    5.782E+00    5.693E+00    5.605E+00    5.518E+00    5.431E+00    5.345E+00    5.260E+00
     5.175E+00    5.091E+00    5.008E+00    4.925E+00    4.844E+00    4.762E+00    4.682E+00    4.602E+00    4.523E+00    4.444E+00
     4.367E+00    4.290E+00    4.213E+00    4.138E+00    4.063E+00    3.989E+00    3.915E+00    3.842E+00    3.770E+00    3.699E+00
     3.628E+00    3.558E+00    3.489E+00    3.420E+00    3.352E+00    3.285E+00    3.218E+00    3.153E+00    3.088E+00    3.023E+00
     2.960E+00    2.897E+00    2.835E+00    2.773E+00    2.712E+00    2.652E+00    2.593E+00    2.534E+00    2.476E+00    2.419E+00
     2.363E+00    2.307E+00    2.252E+00    2.198E+00    2.144E+00    2.091E+00    2.039E+00    1.987E+00    1.936E+00    1.886E+00
     1.837E+00    1.788E+00    1.739E+00    1.692E+00    1.645E+00    1.598E+00    1.552E+00    1.507E+00    1.463E+00    1.418E+00
     1.375E+00    1.332E+00    1.289E+00    1.248E+00    1.206E+00    1.165E+00    1.125E+00    1.085E+00    1.046E+00    1.007E+00
     9.686E-01    9.306E-01    8.932E-01    8.562E-01    8.196E-01    7.835E-01    7.478E-01    7.125E-01    6.776E-01    6.431E-01
     6.090E-01    5.753E-01    5.419E-01    5.090E-01    4.763E-01    4.440E-01    4.121E-01    3.805E-01    3.492E-01    3.182E-01
     2.875E-01    2.571E-01    2.270E-01    1.971E-01    1.675E-01    1.382E-01    1.090E-01    8.016E-02    5.149E-02    2.303E-02
    -5.230E-03   -3.331E-02   -6.120E-02   -8.893E-02   -1.165E-01   -1.439E-01   -1.712E-01   -1.984E-01   -2.254E-01   -2.524E-01
    -2.792E-01   -3.060E-01   -3.326E-01   -3.592E-01   -3.858E-01   -4.123E-01   -4.388E-01   -4.652E-01   -4.916E-01   -5.180E-01
    -5.445E-01   -5.709E-01   -5.974E-01   -6.239E-01   -6.504E-01   -6.770E-01   -7.036E-01   -7.304E-01   -7.572E-01   -7.841E-01
    -8.111E-01   -8.382E-01   -8.654E-01   -8.928E-01   -9.203E-01   -9.479E-01   -9.757E-01   -1.004E+00   -1.032E+00   -1.060E+00
    -1.088E+00   -1.116E+00   -1.145E+00   -1.174E+00   -1.202E+00   -1.231E+00   -1.260E+00   -1.289E+00   -1.319E+00   -1.348E+00
    -1.378E+00   -1.408E+00   -1.437E+00   -1.467E+00   -1.497E+00   -1.528E+00   -1.558E+00   -1.589E+00   -1.619E+00   -1.650E+00
    -1.681E+00   -1.712E+00   -1.743E+00   -1.775E+00   -1.806E+00   -1.838E+00   -1.870E+00   -1.902E+00   -1.934E+00   -1.966E+00
    -1.998E+00   -2.031E+00   -2.063E+00   -2.096E+00   -2.129E+00   -2.162E+00   -2.195E+00   -2.229E+00   -2.262E+00   -2.296E+00
    -2.330E+00   -2.364E+00   -2.398E+00   -2.432E+00   -2.466E+00   -2.500E+00   -2.534E+00   -2.568E+00   -2.603E+00   -2.637E+00
    -2.671E+00   -2.705E+00   -2.740E+00   -2.774E+00   -2.808E+00   -2.842E+00   -2.876E+00   -2.910E+00   -2.944E+00   -2.978E+00
    -3.011E+00   -3.045E+00   -3.078E+00   -3.112E+00   -3.145E+00   -3.178E+00   -3.210E+00   -3.243E+00   -3.275E+00   -3.307E+00
    -3.339E+00   -3.371E+00   -3.402E+00   -3.433E+00   -3.464E+00   -3.494E+00   -3.524E+00   -3.554E+00   -3.584E+00   -3.613E+00
    -3.642E+00   -3.671E+00   -3.699E+00   -3.727E+00   -3.754E+00   -3.781E+00   -3.808E+00   -3.834E+00   -3.860E+00   -3.885E+00
    -3.910E+00   -3.935E+00   -3.959E+00   -3.983E+00   -4.007E+00   -4.030E+00   -4.052E+00   -4.075E+00   -4.097E+00   -4.118E+00
    -4.139E+00   -4.160E+00   -4.180E+00   -4.200E+00   -4.219E+00   -4.238E+00   -4.257E+00   -4.275E+00   -4.292E+00   -4.310E+00
    -4.327E+00   -4.343E+00   -4.359E+00   -4.374E+00   -4.389E+00   -4.404E+00   -4.418E+00   -4.432E+00   -4.445E+00   -4.458E+00
    -4.471E+00   -4.482E+00   -4.494E+00   -4.505E+00   -4.516E+00   -4.526E+00   -4.535E+00   -4.544E+00   -4.553E+00   -4.561E+00
    -4.569E+00   -4.577E+00   -4.583E+00   -4.590E+00   -4.596E+00   -4.602E+00   -4.607E+00   -4.612E+00   -4.616E+00   -4.620E+00
    -4.624E+00   -4.627E+00   -4.631E+00   -4.633E+00   -4.636E+00   -4.638E+00   -4.639E+00   -4.641E+00   -4.642E+00   -4.642E+00
    -4.643E+00   -4.643E+00   -4.643E+00   -4.642E+00   -4.642E+00   -4.641E+00   -4.640E+00   -4.638E+00   -4.637E+00   -4.635E+00
    -4.633E+00   -4.631E+00   -4.628E+00   -4.626E+00   -4.623E+00   -4.620E+00   -4.617E+00   -4.613E+00   -4.610E+00   -4.606E+00
    -4.602E+00   -4.599E+00   -4.595E+00   -4.590E+00   -4.586E+00   -4.582E+00   -4.577E+00   -4.573E+00   -4.568E+00   -4.564E+00
    -4.559E+00   -4.554E+00   -4.549E+00   -4.544E+00   -4.539E+00   -4.534E+00   -4.528E+00   -4.523E+00   -4.517E+00   -4.512E+00
    -4.507E+00   -4.501E+00   -4.495E+00   -4.490E+00   -4.484E+00   -4.478E+00   -4.472E+00   -4.467E+00   -4.461E+00   -4.455E+00
    -4.449E+00   -4.443E+00   -4.437E+00   -4.431E+00   -4.425E+00   -4.419E+00   -4.413E+00   -4.407E+00   -4.402E+00   -4.396E+00
    -4.390E+00   -4.384E+00   -4.378E+00   -4.372E+00   -4.366E+00   -4.360E+00   -4.355E+00   -4.349E+00
 Ala      Conc. = 3.32E+02
