 LCModel (Version 6.3-1L) Copyright: S.W. Provencher.          Ref.: Magn. Reson. Med. 30:672-679 (1993).                
 Slice#3 Row#10 Col#6  K_02_press_1_raw_act
 36 lines in following concentration table = NCONC+1
    Conc.  %SD /Cr+PCr  Metabolite                                         
  229.272  68% 9.8E-02 Ala                                                 
    0.000 999%   0.000 Asp                                                 
    0.000 999%   0.000 Cr                                                  
 2.34E+03   3%   1.000 PCr                                                 
    0.000 999%   0.000 GABA                                                
  149.269 139% 6.4E-02 Glc                                                 
 1.11E+03  32%   0.473 Gln                                                 
 1.63E+03  25%   0.694 Glu                                                 
  643.166  11%   0.274 GPC                                                 
  252.732  30%   0.108 PCh                                                 
  755.948  13%   0.322 GSH                                                 
 3.01E+03  12%   1.284 Ins                                                 
  163.010 122% 7.0E-02 Lac                                                 
 2.65E+03   5%   1.130 NAA                                                 
  201.280  79% 8.6E-02 NAAG                                                
  367.917  11%   0.157 Scyllo                                              
  738.446  39%   0.315 Tau                                                 
  102.183 134% 4.4E-02 -CrCH2                                              
  895.898   4%   0.382 GPC+PCh                                             
 2.85E+03   3%   1.216 NAA+NAAG                                            
 2.34E+03   3%   1.000 Cr+PCr                                              
 2.74E+03  24%   1.166 Glu+Gln                                             
  858.542  69%   0.366 Lip13a                                              
  177.388  96% 7.6E-02 Lip13b                                              
  161.184 138% 6.9E-02 Lip09                                               
 1.10E+03  24%   0.467 MM09                                                
  117.697 124% 5.0E-02 Lip20                                               
 2.49E+03  17%   1.062 MM20                                                
  396.843  50%   0.169 MM12                                                
  691.276  47%   0.295 MM14                                                
   75.187 302% 3.2E-02 MM17                                                
 1.04E+03  46%   0.442 Lip13a+Lip13b                                       
 2.12E+03  24%   0.906 MM14+Lip13a+Lip13b+MM12                             
 1.26E+03  18%   0.536 MM09+Lip09                                          
 2.61E+03  16%   1.112 MM20+Lip20                                          
   6 lines in following misc. output table
  FWHM = 0.076 ppm    S/N =  13                                            
  Data shift = 0.046 ppm                                                   
  Ph: -44 deg     -25.3 deg/ppm                                            
  alphaB,S = 9.6E-01,   5.5E+01                                            
   14 spline knots.   Ns = 9(1)                                            
  (16) 7 infls.   (13) 1 extrs.                                            
  498 points on ppm-axis = NY
      4.000000     3.992357     3.984714     3.977070     3.969427     3.961784     3.954141     3.946497     3.938854     3.931211
      3.923568     3.915925     3.908281     3.900638     3.892995     3.885352     3.877708     3.870065     3.862422     3.854779
      3.847136     3.839492     3.831849     3.824206     3.816563     3.808919     3.801276     3.793633     3.785990     3.778347
      3.770703     3.763060     3.755417     3.747774     3.740130     3.732487     3.724844     3.717201     3.709558     3.701914
      3.694271     3.686628     3.678985     3.671341     3.663698     3.656055     3.648412     3.640769     3.633125     3.625482
      3.617839     3.610196     3.602552     3.594909     3.587266     3.579623     3.571980     3.564336     3.556693     3.549050
      3.541407     3.533763     3.526120     3.518477     3.510834     3.503191     3.495547     3.487904     3.480261     3.472618
      3.464974     3.457331     3.449688     3.442045     3.434402     3.426758     3.419115     3.411472     3.403829     3.396185
      3.388542     3.380899     3.373256     3.365613     3.357969     3.350326     3.342683     3.335040     3.327396     3.319753
      3.312110     3.304467     3.296824     3.289180     3.281537     3.273894     3.266251     3.258607     3.250964     3.243321
      3.235678     3.228034     3.220391     3.212748     3.205105     3.197462     3.189818     3.182175     3.174532     3.166889
      3.159245     3.151602     3.143959     3.136316     3.128673     3.121029     3.113386     3.105743     3.098100     3.090456
      3.082813     3.075170     3.067527     3.059884     3.052240     3.044597     3.036954     3.029311     3.021667     3.014024
      3.006381     2.998738     2.991095     2.983451     2.975808     2.968165     2.960522     2.952878     2.945235     2.937592
      2.929949     2.922306     2.914662     2.907019     2.899376     2.891733     2.884089     2.876446     2.868803     2.861160
      2.853517     2.845873     2.838230     2.830587     2.822944     2.815300     2.807657     2.800014     2.792371     2.784728
      2.777084     2.769441     2.761798     2.754155     2.746511     2.738868     2.731225     2.723582     2.715939     2.708295
      2.700652     2.693009     2.685366     2.677722     2.670079     2.662436     2.654793     2.647150     2.639506     2.631863
      2.624220     2.616577     2.608933     2.601290     2.593647     2.586004     2.578361     2.570717     2.563074     2.555431
      2.547788     2.540144     2.532501     2.524858     2.517215     2.509572     2.501928     2.494285     2.486642     2.478999
      2.471355     2.463712     2.456069     2.448426     2.440783     2.433139     2.425496     2.417853     2.410210     2.402566
      2.394923     2.387280     2.379637     2.371994     2.364350     2.356707     2.349064     2.341421     2.333777     2.326134
      2.318491     2.310848     2.303205     2.295561     2.287918     2.280275     2.272632     2.264988     2.257345     2.249702
      2.242059     2.234416     2.226772     2.219129     2.211486     2.203843     2.196199     2.188556     2.180913     2.173270
      2.165627     2.157983     2.150340     2.142697     2.135054     2.127410     2.119767     2.112124     2.104481     2.096838
      2.089194     2.081551     2.073908     2.066265     2.058621     2.050978     2.043335     2.035692     2.028049     2.020405
      2.012762     2.005119     1.997476     1.989833     1.982190     1.974546     1.966903     1.959260     1.951617     1.943974
      1.936331     1.928688     1.921045     1.913402     1.905759     1.898115     1.890472     1.882829     1.875186     1.867543
      1.859900     1.852257     1.844614     1.836971     1.829327     1.821684     1.814041     1.806398     1.798755     1.791112
      1.783469     1.775826     1.768183     1.760540     1.752896     1.745253     1.737610     1.729967     1.722324     1.714681
      1.707038     1.699395     1.691752     1.684108     1.676465     1.668822     1.661179     1.653536     1.645893     1.638250
      1.630607     1.622964     1.615321     1.607677     1.600034     1.592391     1.584748     1.577105     1.569462     1.561819
      1.554176     1.546533     1.538890     1.531246     1.523603     1.515960     1.508317     1.500674     1.493031     1.485388
      1.477745     1.470102     1.462458     1.454815     1.447172     1.439529     1.431886     1.424243     1.416600     1.408957
      1.401314     1.393671     1.386027     1.378384     1.370741     1.363098     1.355455     1.347812     1.340169     1.332526
      1.324883     1.317240     1.309596     1.301953     1.294310     1.286667     1.279024     1.271381     1.263738     1.256095
      1.248452     1.240808     1.233165     1.225522     1.217879     1.210236     1.202593     1.194950     1.187307     1.179664
      1.172021     1.164377     1.156734     1.149091     1.141448     1.133805     1.126162     1.118519     1.110876     1.103233
      1.095590     1.087946     1.080303     1.072660     1.065017     1.057374     1.049731     1.042088     1.034445     1.026802
      1.019158     1.011515     1.003872     0.996229     0.988586     0.980943     0.973300     0.965657     0.958014     0.950371
      0.942727     0.935084     0.927441     0.919798     0.912155     0.904512     0.896869     0.889226     0.881583     0.873940
      0.866296     0.858653     0.851010     0.843367     0.835724     0.828081     0.820438     0.812795     0.805152     0.797508
      0.789865     0.782222     0.774579     0.766936     0.759293     0.751650     0.744007     0.736364     0.728721     0.721077
      0.713434     0.705791     0.698148     0.690505     0.682862     0.675219     0.667576     0.659933     0.652290     0.644646
      0.637003     0.629360     0.621717     0.614074     0.606431     0.598788     0.591145     0.583502     0.575858     0.568215
      0.560572     0.552929     0.545286     0.537643     0.530000     0.522357     0.514714     0.507071     0.499427     0.491784
      0.484141     0.476498     0.468855     0.461212     0.453569     0.445925     0.438282     0.430639     0.422996     0.415353
      0.407710     0.400067     0.392424     0.384780     0.377137     0.369494     0.361851     0.354208     0.346565     0.338922
      0.331278     0.323635     0.315992     0.308349     0.300706     0.293063     0.285420     0.277777     0.270133     0.262490
      0.254847     0.247204     0.239561     0.231918     0.224275     0.216631     0.208988     0.201345
 NY phased data points follow
  -1.09247E+02 -1.04943E+02 -1.01489E+02 -9.40654E+01 -8.75624E+01 -8.79306E+01 -7.87747E+01 -7.33263E+01 -6.95714E+01 -6.80116E+01
  -6.68519E+01 -6.78525E+01 -7.95443E+01 -8.36513E+01 -8.69834E+01 -9.12576E+01 -9.64600E+01 -1.00318E+02 -9.70960E+01 -9.60574E+01
  -1.00888E+02 -9.77728E+01 -9.43946E+01 -9.35594E+01 -9.13490E+01 -9.00236E+01 -8.29667E+01 -8.01090E+01 -8.24306E+01 -8.06315E+01
  -7.29222E+01 -7.08443E+01 -7.61137E+01 -7.58349E+01 -7.96106E+01 -7.78220E+01 -7.51571E+01 -7.58821E+01 -7.50202E+01 -7.34967E+01
  -7.23292E+01 -6.88436E+01 -6.69771E+01 -6.97921E+01 -6.17912E+01 -6.36974E+01 -6.35911E+01 -6.71877E+01 -6.28737E+01 -6.86246E+01
  -6.88760E+01 -7.00787E+01 -7.13159E+01 -6.79117E+01 -7.09140E+01 -6.94199E+01 -6.88018E+01 -6.72301E+01 -6.56091E+01 -6.43208E+01
  -6.56398E+01 -6.54136E+01 -6.80952E+01 -6.98239E+01 -6.71714E+01 -6.96795E+01 -6.50381E+01 -6.20772E+01 -6.13413E+01 -6.35009E+01
  -5.59235E+01 -6.11743E+01 -5.76198E+01 -5.21773E+01 -5.90177E+01 -5.61851E+01 -5.35182E+01 -5.75404E+01 -4.71184E+01 -5.20657E+01
  -4.77684E+01 -5.07149E+01 -4.96937E+01 -4.60079E+01 -4.86084E+01 -4.44928E+01 -4.41595E+01 -4.24637E+01 -4.00623E+01 -3.65607E+01
  -3.78289E+01 -3.64804E+01 -3.46900E+01 -3.26510E+01 -2.98160E+01 -2.52267E+01 -2.20300E+01 -1.46796E+01 -8.26898E+00 -8.03845E+00
   4.15316E-01  1.05901E+01  9.62902E+00  1.02190E+01  4.77285E+00 -1.35073E+00 -6.41118E+00 -1.20869E+01 -2.15430E+01 -2.71661E+01
  -2.34677E+01 -2.70957E+01 -2.94008E+01 -3.03388E+01 -3.20725E+01 -3.23070E+01 -3.03944E+01 -3.01141E+01 -2.95569E+01 -2.29113E+01
  -1.97418E+01 -1.13617E+01 -5.04589E+00  2.71521E+00  6.82014E+00  1.25647E+01  2.15248E+01  2.18038E+01  2.13225E+01  1.16043E+01
   8.77072E+00 -2.81502E+00 -8.63060E+00 -1.50363E+01 -1.48062E+01 -2.49231E+01 -2.64317E+01 -2.65531E+01 -2.95987E+01 -3.02618E+01
  -2.89127E+01 -2.72632E+01 -2.81507E+01 -3.21226E+01 -3.16845E+01 -2.86186E+01 -3.07316E+01 -2.89742E+01 -2.83039E+01 -2.78695E+01
  -2.82299E+01 -2.67034E+01 -2.72257E+01 -2.73716E+01 -2.68885E+01 -2.44913E+01 -2.78163E+01 -2.53458E+01 -2.63328E+01 -2.69251E+01
  -2.96026E+01 -2.50336E+01 -2.81080E+01 -2.50266E+01 -2.49768E+01 -2.52794E+01 -2.48839E+01 -2.04826E+01 -2.52703E+01 -2.63119E+01
  -3.04364E+01 -2.51623E+01 -3.25645E+01 -2.68878E+01 -2.87166E+01 -2.80343E+01 -2.88932E+01 -3.06483E+01 -2.89294E+01 -2.64429E+01
  -2.60673E+01 -2.92367E+01 -2.46959E+01 -2.83074E+01 -2.69907E+01 -2.24179E+01 -1.89106E+01 -1.82234E+01 -1.49622E+01 -1.58743E+01
  -1.04984E+01 -9.77645E+00 -5.06345E+00 -8.32666E+00 -8.66357E+00 -8.52901E+00 -9.86800E+00 -8.38489E+00 -4.93337E+00 -1.12373E+01
  -1.18219E+01 -7.26568E+00 -1.03388E+01 -9.16198E+00 -1.12785E+01 -7.93436E+00 -1.19052E+01 -1.14236E+01 -9.14490E+00 -1.09853E+01
  -9.70638E+00 -8.26908E+00 -8.04825E+00 -3.94321E+00 -1.73507E-01 -1.15666E+00  2.26928E-01 -2.63023E+00 -2.52606E+00  3.39755E+00
  -1.51413E+00 -9.44808E+00 -7.64716E+00 -5.78975E+00 -1.72966E+00 -1.71609E+00  1.67021E-01  7.60362E-01  3.88216E+00  4.72799E+00
   4.65183E+00  5.50180E+00  4.90190E+00  4.03680E+00  6.70647E+00  9.45999E-01  4.23388E-01  3.93512E+00  1.74797E+00  4.30128E+00
   8.88927E+00  4.34074E+00  3.29735E+00  3.63435E+00  3.77457E+00  5.30926E+00  7.32815E+00  1.13728E+01  1.26364E+01  1.87991E+01
   1.73910E+01  2.32288E+01  2.12402E+01  2.35841E+01  3.81982E+01  5.39036E+01  5.59577E+01  5.56809E+01  6.01759E+01  6.83483E+01
   8.16096E+01  7.71862E+01  7.87780E+01  6.79922E+01  6.10243E+01  4.98687E+01  3.67321E+01  3.00241E+01  1.98740E+01  2.11411E+01
   1.51303E+01  1.63901E+01  1.56223E+01  1.48695E+01  1.23909E+01  1.02305E+01  1.17396E+01  1.44295E+01  8.12112E+00  9.39430E+00
   1.18601E+01  8.38430E+00  1.08666E+01  1.06497E+01  1.09746E+01  4.90596E+00  9.35392E+00  7.74003E+00  9.28144E+00  6.40304E+00
   6.78791E+00  8.83605E+00  9.71339E+00  8.54587E+00  9.09905E+00  9.82329E+00  9.18376E+00  1.16204E+01  9.20751E+00  1.06843E+01
   1.21891E+01  1.01894E+01  1.36807E+01  1.15905E+01  1.25138E+01  1.05140E+01  1.36017E+01  1.32834E+01  1.44312E+01  1.72646E+01
   1.40811E+01  1.18362E+01  1.03998E+01  8.66796E+00  1.14043E+01  1.61436E+01  1.29804E+01  1.41647E+01  1.40837E+01  1.94681E+01
   1.74312E+01  1.60405E+01  1.75174E+01  1.73604E+01  1.74447E+01  1.51759E+01  1.67233E+01  1.85107E+01  1.20363E+01  1.81042E+01
   1.71649E+01  1.67318E+01  1.71684E+01  1.78162E+01  1.85684E+01  1.94688E+01  1.61681E+01  1.79834E+01  2.28091E+01  2.32549E+01
   2.37602E+01  2.15742E+01  2.15721E+01  2.15007E+01  2.31611E+01  2.09431E+01  2.02457E+01  2.56760E+01  2.24621E+01  2.44818E+01
   2.15541E+01  2.46256E+01  2.12800E+01  2.53186E+01  2.42776E+01  2.81202E+01  2.30076E+01  2.91318E+01  3.00330E+01  2.35874E+01
   2.73256E+01  2.32840E+01  2.29611E+01  2.17785E+01  2.17000E+01  2.41146E+01  2.67846E+01  2.65460E+01  2.43822E+01  2.28415E+01
   2.57486E+01  2.40399E+01  2.11335E+01  2.29996E+01  2.23445E+01  1.97564E+01  2.31855E+01  2.23330E+01  2.03874E+01  2.06214E+01
   2.14839E+01  2.54451E+01  2.11104E+01  2.12449E+01  1.97265E+01  2.23303E+01  2.10370E+01  2.31195E+01  2.09521E+01  1.99834E+01
   2.03176E+01  2.17525E+01  2.38988E+01  2.09746E+01  2.23710E+01  2.40483E+01  2.37247E+01  2.46784E+01  2.56226E+01  2.53372E+01
   2.97603E+01  2.83913E+01  2.74042E+01  2.71648E+01  2.84385E+01  2.71652E+01  3.18521E+01  2.94273E+01  3.24388E+01  3.05752E+01
   2.84055E+01  2.91261E+01  2.76247E+01  2.72910E+01  3.26058E+01  2.92810E+01  2.60244E+01  2.81628E+01  2.91629E+01  2.69766E+01
   2.87903E+01  2.65296E+01  2.53833E+01  2.67053E+01  2.37744E+01  2.60327E+01  2.58058E+01  2.37832E+01  2.85586E+01  2.34500E+01
   2.50768E+01  2.65848E+01  2.46400E+01  2.37986E+01  2.36034E+01  2.38420E+01  2.29394E+01  2.54548E+01  2.18043E+01  2.01700E+01
   2.03895E+01  2.29510E+01  2.16642E+01  2.67076E+01  2.13074E+01  2.52248E+01  2.48830E+01  2.11415E+01  2.71545E+01  2.36230E+01
   2.34029E+01  2.82854E+01  2.38649E+01  1.92940E+01  2.43252E+01  2.07656E+01  2.17133E+01  2.01164E+01  2.33471E+01  2.38683E+01
   2.43473E+01  2.19166E+01  1.76656E+01  2.00020E+01  2.36200E+01  2.52768E+01  2.15898E+01  2.29982E+01  2.23915E+01  2.07605E+01
   2.17631E+01  2.54113E+01  2.43549E+01  2.25947E+01  2.36213E+01  2.30937E+01  2.54227E+01  2.47643E+01  2.08530E+01  2.01115E+01
   2.41075E+01  2.30289E+01  2.31242E+01  2.39416E+01  2.10721E+01  2.16368E+01  2.03340E+01  2.10015E+01  2.07435E+01  2.26950E+01
   2.10515E+01  2.26340E+01  2.10213E+01  2.44586E+01  2.20741E+01  2.53603E+01  2.08207E+01  1.93160E+01
 NY points of the fit to the data follow
  -1.04555E+02 -1.01747E+02 -9.75720E+01 -9.18844E+01 -8.73747E+01 -8.43399E+01 -8.09847E+01 -7.60303E+01 -7.08125E+01 -6.83766E+01
  -6.92007E+01 -7.25687E+01 -7.73332E+01 -8.23052E+01 -8.66526E+01 -9.01496E+01 -9.25539E+01 -9.35238E+01 -9.44195E+01 -9.65339E+01
  -9.71597E+01 -9.59957E+01 -9.42954E+01 -9.25797E+01 -9.00739E+01 -8.73465E+01 -8.53329E+01 -8.37697E+01 -8.14935E+01 -7.82605E+01
  -7.53031E+01 -7.35114E+01 -7.30213E+01 -7.37507E+01 -7.52259E+01 -7.67889E+01 -7.80170E+01 -7.86978E+01 -7.84230E+01 -7.68582E+01
  -7.49246E+01 -7.32771E+01 -7.17239E+01 -7.01313E+01 -6.79880E+01 -6.55604E+01 -6.40651E+01 -6.42677E+01 -6.56366E+01 -6.73732E+01
  -6.93223E+01 -7.08305E+01 -7.15023E+01 -7.12340E+01 -7.03397E+01 -6.95358E+01 -6.89859E+01 -6.80640E+01 -6.67602E+01 -6.55200E+01
  -6.47581E+01 -6.43401E+01 -6.43040E+01 -6.43080E+01 -6.39609E+01 -6.32555E+01 -6.21104E+01 -6.07189E+01 -5.95081E+01 -5.82817E+01
  -5.72062E+01 -5.64538E+01 -5.60952E+01 -5.58858E+01 -5.54927E+01 -5.49667E+01 -5.46878E+01 -5.45658E+01 -5.39286E+01 -5.31517E+01
  -5.27644E+01 -5.12204E+01 -4.90615E+01 -4.74980E+01 -4.63993E+01 -4.48897E+01 -4.25086E+01 -4.03028E+01 -3.93316E+01 -3.94256E+01
  -3.99777E+01 -4.01691E+01 -3.83108E+01 -3.56633E+01 -3.28064E+01 -2.72854E+01 -2.05284E+01 -1.61800E+01 -1.21792E+01 -5.16368E+00
   3.26758E+00  9.17857E+00  1.09235E+01  9.89619E+00  6.72184E+00  1.14347E+00 -5.77315E+00 -1.28740E+01 -1.94619E+01 -2.46536E+01
  -2.84141E+01 -3.27875E+01 -3.64941E+01 -3.76119E+01 -3.80117E+01 -3.86948E+01 -3.82225E+01 -3.50948E+01 -2.96025E+01 -2.47812E+01
  -1.78383E+01 -9.62647E+00 -3.54125E+00  4.51901E-01  5.38790E+00  1.31550E+01  2.07148E+01  2.35167E+01  2.13329E+01  1.51075E+01
   6.63395E+00 -2.05378E+00 -9.66626E+00 -1.56756E+01 -1.99316E+01 -2.22192E+01 -2.49535E+01 -2.90382E+01 -3.06412E+01 -3.06170E+01
  -2.99736E+01 -2.90436E+01 -2.81608E+01 -2.75772E+01 -2.74117E+01 -2.73887E+01 -2.73828E+01 -2.74023E+01 -2.73532E+01 -2.72789E+01
  -2.72151E+01 -2.71059E+01 -2.71651E+01 -2.72079E+01 -2.71618E+01 -2.71102E+01 -2.69218E+01 -2.66117E+01 -2.62759E+01 -2.59871E+01
  -2.59439E+01 -2.60576E+01 -2.60541E+01 -2.58094E+01 -2.53832E+01 -2.50185E+01 -2.48987E+01 -2.50137E+01 -2.52683E+01 -2.54753E+01
  -2.57064E+01 -2.57559E+01 -2.56022E+01 -2.54171E+01 -2.53140E+01 -2.54921E+01 -2.56141E+01 -2.52903E+01 -2.47846E+01 -2.43247E+01
  -2.39229E+01 -2.35479E+01 -2.28933E+01 -2.19072E+01 -2.08565E+01 -1.98899E+01 -1.89363E+01 -1.78931E+01 -1.67939E+01 -1.57780E+01
  -1.46743E+01 -1.35292E+01 -1.27492E+01 -1.24189E+01 -1.22389E+01 -1.18673E+01 -1.15477E+01 -1.11564E+01 -1.03473E+01 -9.32804E+00
  -8.47798E+00 -7.92097E+00 -7.51280E+00 -7.41996E+00 -7.63127E+00 -7.89086E+00 -8.39104E+00 -9.14909E+00 -9.87323E+00 -9.93569E+00
  -9.09231E+00 -7.98177E+00 -6.90786E+00 -5.79795E+00 -4.62002E+00 -3.34512E+00 -2.68296E+00 -2.90652E+00 -3.39801E+00 -3.82759E+00
  -4.50578E+00 -5.58933E+00 -6.32561E+00 -6.04068E+00 -4.74300E+00 -3.16583E+00 -1.93030E+00 -5.60413E-01  9.28753E-01  2.02062E+00
   2.59355E+00  3.01958E+00  3.65091E+00  4.17101E+00  4.35166E+00  4.54025E+00  5.04180E+00  5.72885E+00  6.25383E+00  6.47139E+00
   6.24068E+00  5.70133E+00  5.19472E+00  4.90834E+00  5.21747E+00  6.28900E+00  7.82657E+00  9.63203E+00  1.12809E+01  1.28721E+01
   1.48196E+01  1.87488E+01  2.53407E+01  3.07685E+01  3.89549E+01  4.89431E+01  5.57466E+01  5.91592E+01  6.31512E+01  7.04636E+01
   7.80655E+01  8.03314E+01  7.69308E+01  6.90885E+01  5.88381E+01  4.80809E+01  3.81262E+01  2.98998E+01  2.42804E+01  2.15711E+01
   1.85132E+01  1.34955E+01  1.13501E+01  1.07978E+01  1.05284E+01  1.03616E+01  1.02660E+01  1.01454E+01  1.00232E+01  9.89616E+00
   9.77153E+00  9.67609E+00  9.63461E+00  9.62285E+00  9.61217E+00  9.61400E+00  9.64044E+00  9.68724E+00  9.74138E+00  9.79822E+00
   9.87036E+00  9.97015E+00  1.00805E+01  1.01950E+01  1.03170E+01  1.04478E+01  1.05818E+01  1.07171E+01  1.08549E+01  1.09978E+01
   1.11478E+01  1.13048E+01  1.14652E+01  1.16296E+01  1.17970E+01  1.19659E+01  1.21362E+01  1.23076E+01  1.24822E+01  1.26631E+01
   1.28492E+01  1.30425E+01  1.32461E+01  1.34623E+01  1.36952E+01  1.39509E+01  1.42404E+01  1.45904E+01  1.50389E+01  1.54368E+01
   1.57912E+01  1.61892E+01  1.64503E+01  1.65351E+01  1.65864E+01  1.66932E+01  1.68680E+01  1.69042E+01  1.66723E+01  1.65073E+01
   1.65289E+01  1.66457E+01  1.68224E+01  1.71782E+01  1.78736E+01  1.88438E+01  1.97877E+01  2.05144E+01  2.11644E+01  2.16980E+01
   2.20253E+01  2.22787E+01  2.23779E+01  2.23670E+01  2.24358E+01  2.25447E+01  2.26738E+01  2.27576E+01  2.27538E+01  2.28648E+01
   2.31023E+01  2.33933E+01  2.37357E+01  2.42140E+01  2.48729E+01  2.55704E+01  2.60972E+01  2.63089E+01  2.62995E+01  2.61576E+01
   2.58489E+01  2.54329E+01  2.49697E+01  2.45493E+01  2.42078E+01  2.38245E+01  2.34427E+01  2.31392E+01  2.28864E+01  2.26672E+01
   2.24729E+01  2.22983E+01  2.21402E+01  2.19975E+01  2.18702E+01  2.17587E+01  2.16640E+01  2.15871E+01  2.15294E+01  2.14919E+01
   2.14760E+01  2.14827E+01  2.15132E+01  2.15685E+01  2.16499E+01  2.17587E+01  2.18963E+01  2.20638E+01  2.22627E+01  2.24940E+01
   2.27590E+01  2.30581E+01  2.33918E+01  2.37594E+01  2.41595E+01  2.45899E+01  2.50473E+01  2.55269E+01  2.60228E+01  2.65277E+01
   2.70332E+01  2.75299E+01  2.80078E+01  2.84566E+01  2.88657E+01  2.92254E+01  2.95267E+01  2.97621E+01  2.99261E+01  3.00150E+01
   3.00274E+01  2.99642E+01  2.98289E+01  2.96267E+01  2.93649E+01  2.90520E+01  2.86976E+01  2.83116E+01  2.79043E+01  2.74855E+01
   2.70642E+01  2.66485E+01  2.62454E+01  2.58603E+01  2.54976E+01  2.51605E+01  2.48506E+01  2.45687E+01  2.43149E+01  2.40881E+01
   2.38874E+01  2.37108E+01  2.35566E+01  2.34225E+01  2.33066E+01  2.32068E+01  2.31214E+01  2.30484E+01  2.29864E+01  2.29336E+01
   2.28891E+01  2.28515E+01  2.28201E+01  2.27937E+01  2.27717E+01  2.27534E+01  2.27383E+01  2.27260E+01  2.27160E+01  2.27078E+01
   2.27012E+01  2.26959E+01  2.26917E+01  2.26884E+01  2.26859E+01  2.26838E+01  2.26823E+01  2.26811E+01  2.26802E+01  2.26796E+01
   2.26792E+01  2.26787E+01  2.26784E+01  2.26781E+01  2.26778E+01  2.26774E+01  2.26771E+01  2.26765E+01  2.26759E+01  2.26752E+01
   2.26745E+01  2.26736E+01  2.26726E+01  2.26714E+01  2.26702E+01  2.26688E+01  2.26674E+01  2.26659E+01  2.26643E+01  2.26625E+01
   2.26608E+01  2.26589E+01  2.26571E+01  2.26552E+01  2.26533E+01  2.26514E+01  2.26495E+01  2.26477E+01  2.26459E+01  2.26442E+01
   2.26426E+01  2.26410E+01  2.26397E+01  2.26385E+01  2.26375E+01  2.26366E+01  2.26360E+01  2.26356E+01
 NY background values follow
    -1.196E+02   -1.188E+02   -1.181E+02   -1.173E+02   -1.166E+02   -1.158E+02   -1.151E+02   -1.144E+02   -1.136E+02   -1.129E+02
    -1.121E+02   -1.114E+02   -1.106E+02   -1.099E+02   -1.091E+02   -1.084E+02   -1.076E+02   -1.069E+02   -1.061E+02   -1.054E+02
    -1.046E+02   -1.039E+02   -1.032E+02   -1.024E+02   -1.017E+02   -1.009E+02   -1.002E+02   -9.946E+01   -9.873E+01   -9.799E+01
    -9.726E+01   -9.652E+01   -9.579E+01   -9.506E+01   -9.433E+01   -9.361E+01   -9.288E+01   -9.215E+01   -9.143E+01   -9.071E+01
    -8.999E+01   -8.927E+01   -8.855E+01   -8.784E+01   -8.712E+01   -8.641E+01   -8.570E+01   -8.499E+01   -8.428E+01   -8.358E+01
    -8.288E+01   -8.217E+01   -8.148E+01   -8.078E+01   -8.009E+01   -7.939E+01   -7.870E+01   -7.802E+01   -7.733E+01   -7.665E+01
    -7.597E+01   -7.529E+01   -7.462E+01   -7.395E+01   -7.328E+01   -7.261E+01   -7.195E+01   -7.129E+01   -7.063E+01   -6.998E+01
    -6.932E+01   -6.868E+01   -6.803E+01   -6.739E+01   -6.675E+01   -6.612E+01   -6.548E+01   -6.486E+01   -6.423E+01   -6.361E+01
    -6.299E+01   -6.238E+01   -6.177E+01   -6.116E+01   -6.056E+01   -5.996E+01   -5.937E+01   -5.877E+01   -5.819E+01   -5.760E+01
    -5.703E+01   -5.645E+01   -5.588E+01   -5.532E+01   -5.475E+01   -5.420E+01   -5.364E+01   -5.309E+01   -5.255E+01   -5.201E+01
    -5.147E+01   -5.094E+01   -5.041E+01   -4.988E+01   -4.936E+01   -4.884E+01   -4.833E+01   -4.782E+01   -4.731E+01   -4.681E+01
    -4.631E+01   -4.582E+01   -4.533E+01   -4.484E+01   -4.436E+01   -4.388E+01   -4.340E+01   -4.293E+01   -4.246E+01   -4.199E+01
    -4.153E+01   -4.107E+01   -4.062E+01   -4.017E+01   -3.972E+01   -3.928E+01   -3.884E+01   -3.840E+01   -3.797E+01   -3.753E+01
    -3.711E+01   -3.668E+01   -3.626E+01   -3.585E+01   -3.543E+01   -3.502E+01   -3.461E+01   -3.421E+01   -3.381E+01   -3.341E+01
    -3.302E+01   -3.262E+01   -3.224E+01   -3.185E+01   -3.147E+01   -3.108E+01   -3.071E+01   -3.033E+01   -2.996E+01   -2.959E+01
    -2.922E+01   -2.885E+01   -2.849E+01   -2.813E+01   -2.777E+01   -2.741E+01   -2.706E+01   -2.670E+01   -2.635E+01   -2.600E+01
    -2.566E+01   -2.531E+01   -2.497E+01   -2.463E+01   -2.429E+01   -2.395E+01   -2.361E+01   -2.327E+01   -2.294E+01   -2.261E+01
    -2.227E+01   -2.194E+01   -2.161E+01   -2.128E+01   -2.096E+01   -2.063E+01   -2.030E+01   -1.998E+01   -1.965E+01   -1.933E+01
    -1.901E+01   -1.869E+01   -1.836E+01   -1.804E+01   -1.772E+01   -1.740E+01   -1.708E+01   -1.677E+01   -1.645E+01   -1.613E+01
    -1.582E+01   -1.550E+01   -1.519E+01   -1.487E+01   -1.456E+01   -1.425E+01   -1.394E+01   -1.363E+01   -1.333E+01   -1.302E+01
    -1.272E+01   -1.241E+01   -1.211E+01   -1.181E+01   -1.151E+01   -1.121E+01   -1.092E+01   -1.062E+01   -1.033E+01   -1.004E+01
    -9.749E+00   -9.461E+00   -9.175E+00   -8.890E+00   -8.608E+00   -8.327E+00   -8.048E+00   -7.771E+00   -7.497E+00   -7.224E+00
    -6.953E+00   -6.684E+00   -6.418E+00   -6.154E+00   -5.892E+00   -5.632E+00   -5.374E+00   -5.119E+00   -4.866E+00   -4.616E+00
    -4.368E+00   -4.122E+00   -3.878E+00   -3.636E+00   -3.397E+00   -3.159E+00   -2.924E+00   -2.691E+00   -2.460E+00   -2.231E+00
    -2.003E+00   -1.778E+00   -1.555E+00   -1.334E+00   -1.114E+00   -8.968E-01   -6.810E-01   -4.671E-01   -2.550E-01   -4.458E-02
     1.641E-01    3.711E-01    5.764E-01    7.800E-01    9.821E-01    1.183E+00    1.381E+00    1.579E+00    1.775E+00    1.969E+00
     2.162E+00    2.353E+00    2.543E+00    2.732E+00    2.919E+00    3.105E+00    3.290E+00    3.474E+00    3.656E+00    3.837E+00
     4.017E+00    4.195E+00    4.373E+00    4.549E+00    4.725E+00    4.899E+00    5.072E+00    5.244E+00    5.415E+00    5.585E+00
     5.753E+00    5.921E+00    6.087E+00    6.253E+00    6.417E+00    6.581E+00    6.743E+00    6.904E+00    7.064E+00    7.223E+00
     7.382E+00    7.539E+00    7.695E+00    7.850E+00    8.004E+00    8.157E+00    8.309E+00    8.460E+00    8.610E+00    8.759E+00
     8.907E+00    9.054E+00    9.200E+00    9.345E+00    9.490E+00    9.633E+00    9.775E+00    9.916E+00    1.006E+01    1.020E+01
     1.033E+01    1.047E+01    1.061E+01    1.075E+01    1.088E+01    1.101E+01    1.115E+01    1.128E+01    1.141E+01    1.154E+01
     1.167E+01    1.180E+01    1.193E+01    1.205E+01    1.218E+01    1.231E+01    1.243E+01    1.255E+01    1.268E+01    1.280E+01
     1.292E+01    1.304E+01    1.316E+01    1.328E+01    1.339E+01    1.351E+01    1.362E+01    1.374E+01    1.385E+01    1.397E+01
     1.408E+01    1.419E+01    1.430E+01    1.441E+01    1.452E+01    1.463E+01    1.473E+01    1.484E+01    1.494E+01    1.505E+01
     1.515E+01    1.526E+01    1.536E+01    1.546E+01    1.556E+01    1.566E+01    1.576E+01    1.585E+01    1.595E+01    1.605E+01
     1.614E+01    1.624E+01    1.633E+01    1.642E+01    1.651E+01    1.661E+01    1.670E+01    1.679E+01    1.687E+01    1.696E+01
     1.705E+01    1.714E+01    1.722E+01    1.731E+01    1.739E+01    1.747E+01    1.755E+01    1.764E+01    1.772E+01    1.780E+01
     1.788E+01    1.795E+01    1.803E+01    1.811E+01    1.819E+01    1.826E+01    1.834E+01    1.841E+01    1.848E+01    1.856E+01
     1.863E+01    1.870E+01    1.877E+01    1.884E+01    1.891E+01    1.898E+01    1.905E+01    1.911E+01    1.918E+01    1.925E+01
     1.931E+01    1.938E+01    1.944E+01    1.950E+01    1.957E+01    1.963E+01    1.969E+01    1.975E+01    1.981E+01    1.987E+01
     1.993E+01    1.999E+01    2.005E+01    2.010E+01    2.016E+01    2.022E+01    2.027E+01    2.033E+01    2.038E+01    2.043E+01
     2.048E+01    2.054E+01    2.059E+01    2.064E+01    2.069E+01    2.073E+01    2.078E+01    2.083E+01    2.088E+01    2.092E+01
     2.096E+01    2.101E+01    2.105E+01    2.109E+01    2.113E+01    2.117E+01    2.121E+01    2.125E+01    2.129E+01    2.133E+01
     2.136E+01    2.140E+01    2.143E+01    2.147E+01    2.150E+01    2.153E+01    2.156E+01    2.159E+01    2.162E+01    2.164E+01
     2.167E+01    2.170E+01    2.172E+01    2.174E+01    2.177E+01    2.179E+01    2.181E+01    2.183E+01    2.185E+01    2.186E+01
     2.188E+01    2.190E+01    2.191E+01    2.193E+01    2.194E+01    2.196E+01    2.197E+01    2.198E+01    2.199E+01    2.200E+01
     2.201E+01    2.202E+01    2.203E+01    2.204E+01    2.205E+01    2.206E+01    2.206E+01    2.207E+01    2.208E+01    2.208E+01
     2.209E+01    2.210E+01    2.210E+01    2.211E+01    2.211E+01    2.212E+01    2.212E+01    2.213E+01    2.213E+01    2.213E+01
     2.214E+01    2.214E+01    2.215E+01    2.215E+01    2.216E+01    2.216E+01    2.216E+01    2.217E+01
 Ala      Conc. = 2.29E+02
