 LCModel (Version 6.3-1L) Copyright: S.W. Provencher.          Ref.: Magn. Reson. Med. 30:672-679 (1993).                
 Slice#1 Row#12 Col#11  K_02_press_1_raw_act
 36 lines in following concentration table = NCONC+1
    Conc.  %SD /Cr+PCr  Metabolite                                         
  129.433  36%   0.349 Ala                                                 
    0.000 999%   0.000 Asp                                                 
   26.439 356% 7.1E-02 Cr                                                  
  344.942  28%   0.929 PCr                                                 
   37.121 134%   0.100 GABA                                                
   44.708 113%   0.120 Glc                                                 
  250.071  37%   0.673 Gln                                                 
  572.362  19%   1.541 Glu                                                 
  125.866   8%   0.339 GPC                                                 
    0.000 999%   0.000 PCh                                                 
   76.607  42%   0.206 GSH                                                 
  313.141  33%   0.843 Ins                                                 
   10.297 481% 2.8E-02 Lac                                                 
  865.932   6%   2.332 NAA                                                 
  132.928  43%   0.358 NAAG                                                
   23.536  46% 6.3E-02 Scyllo                                              
  130.520  55%   0.351 Tau                                                 
  186.214  24%   0.501 -CrCH2                                              
  125.866   8%   0.339 GPC+PCh                                             
  998.860   4%   2.690 NAA+NAAG                                            
  371.381   7%   1.000 Cr+PCr                                              
  822.433  18%   2.215 Glu+Gln                                             
 1.31E+03  30%   3.516 Lip13a                                              
    0.000 999%   0.000 Lip13b                                              
  226.611  63%   0.610 Lip09                                               
  871.054  19%   2.345 MM09                                                
  191.088  47%   0.515 Lip20                                               
 1.54E+03  14%   4.155 MM20                                                
  302.681  37%   0.815 MM12                                                
 2.12E+03  14%   5.715 MM14                                                
  883.028  18%   2.378 MM17                                                
 1.31E+03  30%   3.516 Lip13a+Lip13b                                       
 3.73E+03   6%  10.047 MM14+Lip13a+Lip13b+MM12                             
 1.10E+03   9%   2.956 MM09+Lip09                                          
 1.73E+03  11%   4.670 MM20+Lip20                                          
   6 lines in following misc. output table
  FWHM = 0.038 ppm    S/N =  11                                            
  Data shift =-0.008 ppm                                                   
  Ph: -29 deg      -3.2 deg/ppm                                            
  alphaB,S = 8.5E+01,   9.0E+01                                            
   14 spline knots.   Ns = 6(1)                                            
   2 inflections.     1 extrema                                            
  498 points on ppm-axis = NY
      4.000000     3.992357     3.984714     3.977070     3.969427     3.961784     3.954141     3.946497     3.938854     3.931211
      3.923568     3.915925     3.908281     3.900638     3.892995     3.885352     3.877708     3.870065     3.862422     3.854779
      3.847136     3.839492     3.831849     3.824206     3.816563     3.808919     3.801276     3.793633     3.785990     3.778347
      3.770703     3.763060     3.755417     3.747774     3.740130     3.732487     3.724844     3.717201     3.709558     3.701914
      3.694271     3.686628     3.678985     3.671341     3.663698     3.656055     3.648412     3.640769     3.633125     3.625482
      3.617839     3.610196     3.602552     3.594909     3.587266     3.579623     3.571980     3.564336     3.556693     3.549050
      3.541407     3.533763     3.526120     3.518477     3.510834     3.503191     3.495547     3.487904     3.480261     3.472618
      3.464974     3.457331     3.449688     3.442045     3.434402     3.426758     3.419115     3.411472     3.403829     3.396185
      3.388542     3.380899     3.373256     3.365613     3.357969     3.350326     3.342683     3.335040     3.327396     3.319753
      3.312110     3.304467     3.296824     3.289180     3.281537     3.273894     3.266251     3.258607     3.250964     3.243321
      3.235678     3.228034     3.220391     3.212748     3.205105     3.197462     3.189818     3.182175     3.174532     3.166889
      3.159245     3.151602     3.143959     3.136316     3.128673     3.121029     3.113386     3.105743     3.098100     3.090456
      3.082813     3.075170     3.067527     3.059884     3.052240     3.044597     3.036954     3.029311     3.021667     3.014024
      3.006381     2.998738     2.991095     2.983451     2.975808     2.968165     2.960522     2.952878     2.945235     2.937592
      2.929949     2.922306     2.914662     2.907019     2.899376     2.891733     2.884089     2.876446     2.868803     2.861160
      2.853517     2.845873     2.838230     2.830587     2.822944     2.815300     2.807657     2.800014     2.792371     2.784728
      2.777084     2.769441     2.761798     2.754155     2.746511     2.738868     2.731225     2.723582     2.715939     2.708295
      2.700652     2.693009     2.685366     2.677722     2.670079     2.662436     2.654793     2.647150     2.639506     2.631863
      2.624220     2.616577     2.608933     2.601290     2.593647     2.586004     2.578361     2.570717     2.563074     2.555431
      2.547788     2.540144     2.532501     2.524858     2.517215     2.509572     2.501928     2.494285     2.486642     2.478999
      2.471355     2.463712     2.456069     2.448426     2.440783     2.433139     2.425496     2.417853     2.410210     2.402566
      2.394923     2.387280     2.379637     2.371994     2.364350     2.356707     2.349064     2.341421     2.333777     2.326134
      2.318491     2.310848     2.303205     2.295561     2.287918     2.280275     2.272632     2.264988     2.257345     2.249702
      2.242059     2.234416     2.226772     2.219129     2.211486     2.203843     2.196199     2.188556     2.180913     2.173270
      2.165627     2.157983     2.150340     2.142697     2.135054     2.127410     2.119767     2.112124     2.104481     2.096838
      2.089194     2.081551     2.073908     2.066265     2.058621     2.050978     2.043335     2.035692     2.028049     2.020405
      2.012762     2.005119     1.997476     1.989833     1.982190     1.974546     1.966903     1.959260     1.951617     1.943974
      1.936331     1.928688     1.921045     1.913402     1.905759     1.898115     1.890472     1.882829     1.875186     1.867543
      1.859900     1.852257     1.844614     1.836971     1.829327     1.821684     1.814041     1.806398     1.798755     1.791112
      1.783469     1.775826     1.768183     1.760540     1.752896     1.745253     1.737610     1.729967     1.722324     1.714681
      1.707038     1.699395     1.691752     1.684108     1.676465     1.668822     1.661179     1.653536     1.645893     1.638250
      1.630607     1.622964     1.615321     1.607677     1.600034     1.592391     1.584748     1.577105     1.569462     1.561819
      1.554176     1.546533     1.538890     1.531246     1.523603     1.515960     1.508317     1.500674     1.493031     1.485388
      1.477745     1.470102     1.462458     1.454815     1.447172     1.439529     1.431886     1.424243     1.416600     1.408957
      1.401314     1.393671     1.386027     1.378384     1.370741     1.363098     1.355455     1.347812     1.340169     1.332526
      1.324883     1.317240     1.309596     1.301953     1.294310     1.286667     1.279024     1.271381     1.263738     1.256095
      1.248452     1.240808     1.233165     1.225522     1.217879     1.210236     1.202593     1.194950     1.187307     1.179664
      1.172021     1.164377     1.156734     1.149091     1.141448     1.133805     1.126162     1.118519     1.110876     1.103233
      1.095590     1.087946     1.080303     1.072660     1.065017     1.057374     1.049731     1.042088     1.034445     1.026802
      1.019158     1.011515     1.003872     0.996229     0.988586     0.980943     0.973300     0.965657     0.958014     0.950371
      0.942727     0.935084     0.927441     0.919798     0.912155     0.904512     0.896869     0.889226     0.881583     0.873940
      0.866296     0.858653     0.851010     0.843367     0.835724     0.828081     0.820438     0.812795     0.805152     0.797508
      0.789865     0.782222     0.774579     0.766936     0.759293     0.751650     0.744007     0.736364     0.728721     0.721077
      0.713434     0.705791     0.698148     0.690505     0.682862     0.675219     0.667576     0.659933     0.652290     0.644646
      0.637003     0.629360     0.621717     0.614074     0.606431     0.598788     0.591145     0.583502     0.575858     0.568215
      0.560572     0.552929     0.545286     0.537643     0.530000     0.522357     0.514714     0.507071     0.499427     0.491784
      0.484141     0.476498     0.468855     0.461212     0.453569     0.445925     0.438282     0.430639     0.422996     0.415353
      0.407710     0.400067     0.392424     0.384780     0.377137     0.369494     0.361851     0.354208     0.346565     0.338922
      0.331278     0.323635     0.315992     0.308349     0.300706     0.293063     0.285420     0.277777     0.270133     0.262490
      0.254847     0.247204     0.239561     0.231918     0.224275     0.216631     0.208988     0.201345
 NY phased data points follow
   1.64334E+00  2.64801E+00  1.90539E+00  1.06018E+00  2.98593E+00  2.95982E+00  3.97501E+00  4.93160E+00  7.27593E+00  3.66248E+00
   5.95956E+00  7.56994E+00  7.24251E+00  2.86075E+00  3.51026E+00  4.08452E+00  3.25651E+00  8.41329E-01  1.51626E+00  2.22115E+00
   4.08214E+00  5.43665E+00  3.94795E+00  3.38969E+00  2.31691E+00  3.08425E+00  3.66299E+00  3.03975E+00  3.30050E+00  2.35400E+00
   1.91045E+00  3.94295E+00  2.62075E+00  2.20105E+00  2.20765E+00  2.70696E+00  5.35586E+00  1.55819E+00  5.04351E+00  3.97965E+00
   5.55836E+00  2.69918E+00  3.53496E+00  4.97588E+00  3.83137E+00  2.86294E+00  3.94787E+00  4.47792E+00  7.26029E+00  3.32838E+00
   4.81292E+00  5.28289E+00  4.56063E+00  3.51470E+00  1.44655E+00  4.22130E+00  2.28051E+00  1.70578E+00  2.50095E+00  3.01266E+00
   3.17088E+00  4.63803E+00 -4.24577E-01  2.67852E+00  2.28825E+00  1.96851E+00  2.93557E+00  3.99573E+00  1.68277E+00  3.20765E+00
   3.88805E-01  1.98552E+00  2.42980E+00  2.47474E+00  2.25151E+00  8.40853E-01  1.86682E+00  2.75904E+00  1.09263E+00  2.00652E+00
   1.91249E+00  4.11949E-01  2.57206E+00  3.90417E+00  2.32762E+00  1.34475E+00  1.80476E+00  4.49141E+00  2.37253E+00  1.74252E+00
   6.46118E-01  4.69398E+00  5.09226E+00  2.51548E+00  3.82489E+00  3.63135E-01  2.70692E+00  3.93694E+00  5.13782E+00  6.84837E+00
   8.43632E+00  9.85359E+00  1.45263E+01  1.70604E+01  1.55344E+01  9.98679E+00  9.89274E+00  5.28734E+00  4.30493E+00  4.88032E+00
   4.14700E+00  3.13141E+00  1.65305E-02  2.33434E+00  1.03517E+00  3.62575E+00  2.84720E+00  4.69280E+00  3.72414E+00  3.51639E+00
   3.01459E+00  3.66327E+00  2.89412E+00  5.70710E+00  4.80436E+00  1.00356E+01  1.40340E+01  1.89571E+01  1.88607E+01  1.55611E+01
   1.08599E+01  8.15614E+00  5.79719E+00  4.13899E+00  4.22560E+00  2.76576E+00  1.83005E+00  1.50006E+00  2.28734E+00  1.45958E+00
   1.83381E+00  1.20233E+00  5.99249E+00  5.08213E+00  2.16114E+00  2.21591E+00  4.12956E-01  1.57558E+00  1.90985E+00  1.50843E+00
   1.51402E+00  5.29254E+00  3.59284E+00  3.00228E+00  2.90030E+00  3.09083E+00  5.44346E-01  1.65395E+00  7.81731E-01  4.79630E-01
   4.98348E+00  7.36561E-01  3.03979E+00  1.57328E+00  3.39907E-01  3.35192E+00  9.20077E-01  5.05334E-01 -2.82877E+00 -1.47802E+00
  -1.19504E+00 -6.44897E+00 -5.04796E+00 -2.67178E+00 -3.98482E+00 -4.80044E+00 -4.78634E+00 -5.18722E+00 -3.97510E+00  1.59125E+00
  -4.53965E+00 -2.35596E+00 -1.50370E+00 -3.18936E+00 -1.95485E-01  2.12524E+00  3.10584E-01 -2.36780E+00  5.71379E-01 -1.64994E+00
   6.48692E-01  2.17898E+00 -3.76884E-01  1.61311E+00 -1.11512E+00 -1.00980E+00 -8.14001E-01 -3.56154E+00 -3.12392E+00 -1.93744E+00
  -2.47173E+00 -2.05068E-01 -4.73665E-01  4.21513E-01  1.85125E+00  2.78699E+00  2.82612E-01  4.85974E+00  3.51438E-01  6.38063E-01
  -2.09775E+00  1.13698E+00 -7.64177E-01  3.77804E+00  6.68626E+00  7.28941E+00  9.07340E+00  9.32796E+00  5.81892E+00  3.95526E+00
   2.63984E+00  2.10798E-01 -4.47630E-01 -1.00543E+00  2.40514E+00  3.92805E+00  3.69569E+00  5.94439E+00  5.28489E+00  3.98075E+00
   2.42545E+00  4.15113E+00  5.09086E+00  5.57986E+00  4.91216E+00  4.65859E+00  5.22557E+00  6.18349E+00  4.90578E+00  5.61571E+00
   5.46647E+00  3.58798E+00  3.33649E+00  7.55686E-01  3.62866E+00  5.31947E+00  7.43059E+00  6.42574E+00  6.37361E+00  7.27399E+00
   9.02599E+00  8.93357E+00  1.05908E+01  1.29062E+01  1.58762E+01  1.93286E+01  1.90398E+01  2.36437E+01  2.74888E+01  4.06963E+01
   4.70061E+01  4.31530E+01  3.32527E+01  2.61627E+01  1.97671E+01  1.21751E+01  5.42481E+00  7.01185E+00  5.01497E+00  5.59887E+00
   5.18407E+00  6.05519E+00  6.75848E+00  7.99020E+00  5.37650E+00  2.62300E+00  3.15703E+00  4.47818E+00  4.19042E+00  4.46543E+00
   6.65835E+00  1.82508E+00  4.30727E+00  5.45809E+00  5.02991E+00  2.20346E+00  2.30880E+00  6.02408E+00  5.42078E+00  5.35932E+00
   2.33298E+00  4.20757E+00  5.73223E+00  6.35850E+00  8.04039E+00  4.91273E+00  4.90074E+00  3.69647E+00  5.25738E+00  3.04530E+00
   5.16248E+00  5.93616E+00  4.89895E+00  7.89499E+00  7.49558E+00  9.60477E+00  6.60137E+00  7.32184E+00  6.07457E+00  3.71066E+00
   8.00172E+00  7.90276E+00  6.71733E+00  6.33107E+00  4.55351E+00  7.00385E+00  6.85261E+00  8.72537E+00  5.12267E+00  7.43773E+00
   9.65212E+00  9.51194E+00  1.12141E+01  1.02247E+01  1.08347E+01  1.06363E+01  1.30168E+01  1.01514E+01  1.31025E+01  1.19762E+01
   9.94832E+00  1.14698E+01  1.19705E+01  1.10516E+01  1.50605E+01  1.31645E+01  1.59981E+01  1.45179E+01  1.35537E+01  1.41840E+01
   1.56094E+01  1.41863E+01  1.47223E+01  1.73544E+01  1.70308E+01  1.57784E+01  1.67581E+01  1.39487E+01  1.23036E+01  1.08326E+01
   1.24377E+01  1.30448E+01  1.06481E+01  1.05674E+01  1.13419E+01  7.57791E+00  7.29818E+00  5.65938E+00  8.34533E+00  9.82623E+00
   7.30547E+00  7.41679E+00  9.42233E+00  6.53141E+00  6.38728E+00  7.41251E+00  6.32767E+00  1.02472E+01  9.33697E+00  5.85880E+00
   7.35422E+00  8.09004E+00  7.07338E+00  7.36228E+00  5.62566E+00  4.88686E+00  3.20674E+00  2.78658E+00  5.47523E+00  5.25564E+00
   4.76067E+00  3.26681E+00  3.43152E+00  3.13095E+00  5.23842E+00  5.17450E+00  3.20094E+00  5.72680E+00  6.51199E+00  3.80508E+00
   6.40369E+00  6.55476E+00  5.12582E+00  5.11594E+00  7.10351E+00  9.13841E+00  7.81699E+00  5.93856E+00  5.65169E+00  9.10941E+00
   7.33985E+00  5.98638E+00  7.58138E+00  8.19035E+00  8.71813E+00  7.97518E+00  7.83361E+00  5.73762E+00  7.65986E+00  3.10890E+00
   6.49672E+00  3.82911E+00  3.56929E+00  7.44731E+00  6.62456E+00  3.63750E+00  3.34584E+00  6.32506E+00  2.95242E+00  2.15913E+00
   6.36207E-01  1.12236E+00  3.01018E+00  3.81738E+00  1.28877E+00  1.41674E+00  3.22813E+00  1.59051E+00  2.23337E+00  2.03721E+00
   1.59716E+00  2.59237E+00  8.42141E-01  4.31830E-01  8.09862E-01  2.23921E+00  2.92917E+00  2.32428E+00 -1.80096E+00  1.52245E+00
  -7.40574E-01 -6.40753E-01 -1.51394E+00 -8.36805E-01 -1.36689E+00  3.14391E-01  1.55613E+00 -1.24491E+00  1.12008E+00  2.17637E+00
   8.01407E-02 -1.22844E+00 -1.26320E+00  2.89141E-02  1.90379E+00 -2.52498E+00 -5.13908E-01 -2.44789E+00  8.54001E-01  1.60252E+00
  -4.99998E-01  4.18958E-01 -9.68009E-01  1.95651E+00  4.69840E-01  1.14195E+00  4.18441E-01 -2.01420E+00  1.40600E-01  2.08240E+00
  -4.36104E-01 -1.93665E+00 -4.89497E-01 -6.62135E-01  2.14340E+00 -1.25790E+00 -4.93941E-02 -6.03476E-02  9.01571E-01 -5.72166E-01
  -4.16645E-01 -7.57854E-01  1.43491E+00  3.07488E-01  1.09215E+00 -9.60164E-01 -7.40716E-01 -8.68578E-01  9.91728E-01 -3.34190E-01
   1.56226E-01  8.87172E-01  6.63627E-01  1.28855E+00 -1.25237E+00  3.51054E-01  1.15915E+00 -5.33048E-01
 NY points of the fit to the data follow
   2.08367E+00  1.97190E+00  1.96260E+00  2.10450E+00  2.48231E+00  2.97462E+00  3.61394E+00  4.51983E+00  5.65964E+00  6.70512E+00
   7.18821E+00  6.90712E+00  6.05791E+00  5.01951E+00  4.07770E+00  3.36710E+00  2.91096E+00  2.65231E+00  2.53681E+00  2.54302E+00
   2.62705E+00  2.74045E+00  2.81942E+00  2.86339E+00  2.87386E+00  2.72836E+00  2.45155E+00  2.25283E+00  2.38046E+00  2.90508E+00
   3.65382E+00  4.41681E+00  5.01131E+00  5.24706E+00  4.97601E+00  4.23861E+00  3.29895E+00  2.47645E+00  1.94553E+00  1.73957E+00
   1.83151E+00  2.13765E+00  2.53827E+00  2.92714E+00  3.31004E+00  3.77740E+00  4.34127E+00  4.82263E+00  4.96979E+00  4.66818E+00
   4.01712E+00  3.24195E+00  2.54644E+00  2.06466E+00  1.83807E+00  1.81060E+00  1.90627E+00  2.07488E+00  2.30253E+00  2.55450E+00
   2.74585E+00  2.79181E+00  2.66452E+00  2.43213E+00  2.18739E+00  2.00749E+00  1.94605E+00  1.98359E+00  2.05997E+00  2.15988E+00
   2.29413E+00  2.44356E+00  2.59682E+00  2.75199E+00  2.88642E+00  2.94188E+00  2.84740E+00  2.58542E+00  2.23660E+00  1.93577E+00
   1.81159E+00  1.88629E+00  2.07284E+00  2.32482E+00  2.62581E+00  2.89456E+00  2.97270E+00  2.75016E+00  2.30868E+00  1.86492E+00
   1.57044E+00  1.42722E+00  1.37145E+00  1.36976E+00  1.40266E+00  1.52334E+00  1.95346E+00  2.97665E+00  4.27229E+00  5.89410E+00
   8.34145E+00  1.16322E+01  1.47209E+01  1.60636E+01  1.50050E+01  1.22773E+01  9.11750E+00  6.33986E+00  4.28586E+00  3.03739E+00
   2.42341E+00  2.17134E+00  2.05812E+00  1.99522E+00  1.95861E+00  1.94154E+00  1.93805E+00  1.93761E+00  1.94287E+00  1.98055E+00
   2.15343E+00  2.81904E+00  3.95963E+00  5.40174E+00  7.58472E+00  1.08382E+01  1.45051E+01  1.70193E+01  1.71283E+01  1.49801E+01
   1.17912E+01  8.67155E+00  6.13723E+00  4.35588E+00  3.25136E+00  2.60842E+00  2.23889E+00  2.05875E+00  2.05659E+00  2.19279E+00
   2.38328E+00  2.53381E+00  2.58714E+00  2.54023E+00  2.42680E+00  2.29066E+00  2.16341E+00  2.05896E+00  1.97129E+00  1.89107E+00
   1.81437E+00  1.73575E+00  1.65542E+00  1.58569E+00  1.53234E+00  1.48269E+00  1.45553E+00  1.42063E+00  1.30643E+00  1.08654E+00
   7.97864E-01  6.06961E-01  6.52216E-01  8.78126E-01  1.07795E+00  1.07996E+00  8.59787E-01  5.17486E-01  1.78666E-01 -8.97466E-02
  -2.81409E-01 -3.94556E-01 -4.74543E-01 -6.21504E-01 -8.51219E-01 -1.05969E+00 -1.07297E+00 -8.67555E-01 -6.20569E-01 -5.21786E-01
  -5.82967E-01 -6.79982E-01 -6.67452E-01 -5.54970E-01 -4.41064E-01 -3.33069E-01 -1.20091E-01  2.95121E-01  8.84204E-01  1.50506E+00
   1.98945E+00  2.23692E+00  2.20041E+00  1.96266E+00  1.66408E+00  1.40785E+00  1.22837E+00  1.16205E+00  1.27875E+00  1.60718E+00
   2.11703E+00  2.71917E+00  3.28621E+00  3.66186E+00  3.63769E+00  3.17576E+00  2.31453E+00  1.13412E+00 -9.12061E-02 -1.00186E+00
  -1.27629E+00 -8.59098E-01  9.42275E-02  1.49275E+00  3.16298E+00  4.65965E+00  5.38636E+00  5.05379E+00  3.89557E+00  2.34853E+00
   7.24003E-01 -6.42020E-01 -1.30315E+00 -9.64277E-01  2.36156E-01  1.78549E+00  3.18435E+00  4.18681E+00  4.71207E+00  4.77676E+00
   4.53270E+00  4.26478E+00  4.15975E+00  4.23374E+00  4.43657E+00  4.74748E+00  5.14288E+00  5.52261E+00  5.79975E+00  5.90423E+00
   5.79553E+00  5.50851E+00  5.22107E+00  5.15934E+00  5.41221E+00  5.87997E+00  6.39475E+00  6.85450E+00  7.21298E+00  7.51511E+00
   7.92656E+00  8.48201E+00  9.32082E+00  1.08147E+01  1.38006E+01  1.75771E+01  2.11611E+01  2.55629E+01  3.19502E+01  3.91092E+01
   4.33968E+01  4.20185E+01  3.56613E+01  2.73158E+01  1.94719E+01  1.32667E+01  9.13098E+00  6.86599E+00  5.79097E+00  5.22559E+00
   4.83881E+00  4.57753E+00  4.42992E+00  4.37089E+00  4.34765E+00  4.29977E+00  4.19855E+00  4.05382E+00  3.88712E+00  3.72079E+00
   3.57989E+00  3.48640E+00  3.44877E+00  3.45989E+00  3.50547E+00  3.57451E+00  3.66099E+00  3.76022E+00  3.87221E+00  4.00356E+00
   4.16073E+00  4.34392E+00  4.54546E+00  4.75438E+00  4.96355E+00  5.16859E+00  5.36523E+00  5.55070E+00  5.72514E+00  5.89004E+00
   6.04451E+00  6.18429E+00  6.30399E+00  6.39987E+00  6.46991E+00  6.51430E+00  6.53546E+00  6.53789E+00  6.52726E+00  6.51021E+00
   6.49385E+00  6.48557E+00  6.49263E+00  6.52258E+00  6.58301E+00  6.68167E+00  6.82575E+00  7.02207E+00  7.27730E+00  7.59982E+00
   8.00435E+00  8.51926E+00  9.11523E+00  9.73485E+00  1.04116E+01  1.11129E+01  1.16607E+01  1.18418E+01  1.16162E+01  1.12279E+01
   1.10098E+01  1.10523E+01  1.13603E+01  1.20019E+01  1.30063E+01  1.42036E+01  1.52612E+01  1.59127E+01  1.61189E+01  1.59961E+01
   1.56769E+01  1.52708E+01  1.48558E+01  1.44630E+01  1.40930E+01  1.37267E+01  1.33428E+01  1.29258E+01  1.24788E+01  1.20304E+01
   1.16070E+01  1.12186E+01  1.08717E+01  1.05731E+01  1.03181E+01  1.00839E+01  9.84191E+00  9.57719E+00  9.29228E+00  8.99622E+00
   8.69652E+00  8.39909E+00  8.10694E+00  7.82009E+00  7.53691E+00  7.25657E+00  6.97943E+00  6.70662E+00  6.43955E+00  6.18012E+00
   5.93040E+00  5.69276E+00  5.46943E+00  5.26267E+00  5.07453E+00  4.90719E+00  4.76264E+00  4.64287E+00  4.54946E+00  4.48387E+00
   4.44725E+00  4.44068E+00  4.46492E+00  4.52043E+00  4.60705E+00  4.72426E+00  4.87089E+00  5.04539E+00  5.24537E+00  5.46778E+00
   5.70858E+00  5.96310E+00  6.22591E+00  6.49113E+00  6.75220E+00  7.00230E+00  7.23431E+00  7.44143E+00  7.61720E+00  7.75595E+00
   7.85274E+00  7.90377E+00  7.90640E+00  7.85956E+00  7.76353E+00  7.62008E+00  7.43207E+00  7.20355E+00  6.93942E+00  6.64544E+00
   6.32771E+00  5.99257E+00  5.64609E+00  5.29415E+00  4.94212E+00  4.59495E+00  4.25676E+00  3.93098E+00  3.62014E+00  3.32617E+00
   3.05029E+00  2.79331E+00  2.55533E+00  2.33611E+00  2.13492E+00  1.95097E+00  1.78323E+00  1.63068E+00  1.49208E+00  1.36623E+00
   1.25187E+00  1.14796E+00  1.05347E+00  9.67521E-01  8.89120E-01  8.17460E-01  7.51739E-01  6.91412E-01  6.35900E-01  5.84752E-01
   5.37400E-01  4.93456E-01  4.52521E-01  4.14402E-01  3.78802E-01  3.45510E-01  3.14193E-01  2.84692E-01  2.56821E-01  2.30545E-01
   2.05684E-01  1.82129E-01  1.59668E-01  1.38267E-01  1.17838E-01  9.84045E-02  7.98227E-02  6.20285E-02  4.48763E-02  2.84008E-02
   1.25554E-02 -2.62766E-03 -1.72834E-02 -3.14425E-02 -4.51977E-02 -5.84737E-02 -7.13103E-02 -8.36872E-02 -9.57381E-02 -1.07463E-01
  -1.18916E-01 -1.30001E-01 -1.40769E-01 -1.51212E-01 -1.61453E-01 -1.71459E-01 -1.81258E-01 -1.90759E-01 -2.00031E-01 -2.09078E-01
  -2.18004E-01 -2.26746E-01 -2.35317E-01 -2.43637E-01 -2.51796E-01 -2.59798E-01 -2.67720E-01 -2.75475E-01 -2.83076E-01 -2.90466E-01
  -2.97748E-01 -3.04914E-01 -3.12013E-01 -3.18943E-01 -3.25725E-01 -3.32326E-01 -3.38851E-01 -3.45268E-01
 NY background values follow
     1.340E+00    1.337E+00    1.333E+00    1.329E+00    1.326E+00    1.322E+00    1.319E+00    1.315E+00    1.311E+00    1.308E+00
     1.304E+00    1.301E+00    1.297E+00    1.293E+00    1.290E+00    1.286E+00    1.283E+00    1.279E+00    1.275E+00    1.272E+00
     1.268E+00    1.265E+00    1.261E+00    1.257E+00    1.254E+00    1.250E+00    1.247E+00    1.243E+00    1.239E+00    1.236E+00
     1.232E+00    1.229E+00    1.225E+00    1.221E+00    1.218E+00    1.214E+00    1.211E+00    1.207E+00    1.203E+00    1.200E+00
     1.196E+00    1.193E+00    1.189E+00    1.185E+00    1.182E+00    1.178E+00    1.175E+00    1.171E+00    1.167E+00    1.164E+00
     1.160E+00    1.156E+00    1.153E+00    1.149E+00    1.146E+00    1.142E+00    1.138E+00    1.135E+00    1.131E+00    1.128E+00
     1.124E+00    1.120E+00    1.117E+00    1.113E+00    1.110E+00    1.106E+00    1.102E+00    1.099E+00    1.095E+00    1.092E+00
     1.088E+00    1.084E+00    1.081E+00    1.077E+00    1.073E+00    1.070E+00    1.066E+00    1.063E+00    1.059E+00    1.055E+00
     1.052E+00    1.048E+00    1.045E+00    1.041E+00    1.037E+00    1.034E+00    1.030E+00    1.027E+00    1.023E+00    1.019E+00
     1.016E+00    1.012E+00    1.008E+00    1.005E+00    1.001E+00    9.976E-01    9.940E-01    9.904E-01    9.868E-01    9.832E-01
     9.796E-01    9.760E-01    9.724E-01    9.687E-01    9.651E-01    9.615E-01    9.579E-01    9.543E-01    9.507E-01    9.471E-01
     9.435E-01    9.398E-01    9.362E-01    9.326E-01    9.290E-01    9.254E-01    9.218E-01    9.182E-01    9.145E-01    9.109E-01
     9.073E-01    9.037E-01    9.001E-01    8.965E-01    8.929E-01    8.892E-01    8.856E-01    8.820E-01    8.784E-01    8.748E-01
     8.712E-01    8.676E-01    8.639E-01    8.603E-01    8.567E-01    8.531E-01    8.495E-01    8.459E-01    8.422E-01    8.386E-01
     8.350E-01    8.314E-01    8.278E-01    8.242E-01    8.206E-01    8.169E-01    8.133E-01    8.097E-01    8.061E-01    8.025E-01
     7.989E-01    7.952E-01    7.916E-01    7.880E-01    7.844E-01    7.808E-01    7.772E-01    7.735E-01    7.699E-01    7.663E-01
     7.627E-01    7.591E-01    7.555E-01    7.518E-01    7.482E-01    7.446E-01    7.410E-01    7.374E-01    7.338E-01    7.301E-01
     7.265E-01    7.229E-01    7.193E-01    7.157E-01    7.121E-01    7.084E-01    7.048E-01    7.012E-01    6.976E-01    6.940E-01
     6.904E-01    6.867E-01    6.831E-01    6.795E-01    6.759E-01    6.723E-01    6.686E-01    6.650E-01    6.614E-01    6.578E-01
     6.542E-01    6.506E-01    6.469E-01    6.433E-01    6.397E-01    6.361E-01    6.325E-01    6.289E-01    6.252E-01    6.216E-01
     6.180E-01    6.144E-01    6.108E-01    6.071E-01    6.035E-01    5.999E-01    5.963E-01    5.927E-01    5.891E-01    5.854E-01
     5.818E-01    5.782E-01    5.746E-01    5.710E-01    5.673E-01    5.637E-01    5.601E-01    5.565E-01    5.529E-01    5.493E-01
     5.456E-01    5.420E-01    5.384E-01    5.348E-01    5.312E-01    5.275E-01    5.239E-01    5.203E-01    5.167E-01    5.131E-01
     5.095E-01    5.058E-01    5.022E-01    4.986E-01    4.950E-01    4.914E-01    4.877E-01    4.841E-01    4.805E-01    4.769E-01
     4.733E-01    4.696E-01    4.660E-01    4.624E-01    4.588E-01    4.552E-01    4.516E-01    4.479E-01    4.443E-01    4.407E-01
     4.371E-01    4.335E-01    4.298E-01    4.262E-01    4.226E-01    4.190E-01    4.154E-01    4.117E-01    4.081E-01    4.045E-01
     4.009E-01    3.973E-01    3.936E-01    3.900E-01    3.864E-01    3.828E-01    3.792E-01    3.756E-01    3.719E-01    3.683E-01
     3.647E-01    3.611E-01    3.575E-01    3.538E-01    3.502E-01    3.466E-01    3.430E-01    3.394E-01    3.357E-01    3.321E-01
     3.285E-01    3.249E-01    3.213E-01    3.176E-01    3.140E-01    3.104E-01    3.068E-01    3.032E-01    2.996E-01    2.959E-01
     2.923E-01    2.887E-01    2.851E-01    2.815E-01    2.778E-01    2.742E-01    2.706E-01    2.670E-01    2.634E-01    2.597E-01
     2.561E-01    2.525E-01    2.489E-01    2.453E-01    2.416E-01    2.380E-01    2.344E-01    2.308E-01    2.272E-01    2.235E-01
     2.199E-01    2.163E-01    2.127E-01    2.091E-01    2.054E-01    2.018E-01    1.982E-01    1.946E-01    1.910E-01    1.874E-01
     1.837E-01    1.801E-01    1.765E-01    1.729E-01    1.693E-01    1.656E-01    1.620E-01    1.584E-01    1.548E-01    1.512E-01
     1.475E-01    1.439E-01    1.403E-01    1.367E-01    1.331E-01    1.294E-01    1.258E-01    1.222E-01    1.186E-01    1.150E-01
     1.113E-01    1.077E-01    1.041E-01    1.005E-01    9.687E-02    9.325E-02    8.963E-02    8.601E-02    8.239E-02    7.877E-02
     7.515E-02    7.154E-02    6.792E-02    6.430E-02    6.068E-02    5.706E-02    5.344E-02    4.982E-02    4.620E-02    4.258E-02
     3.896E-02    3.535E-02    3.173E-02    2.811E-02    2.449E-02    2.087E-02    1.725E-02    1.363E-02    1.001E-02    6.394E-03
     2.776E-03   -8.430E-04   -4.462E-03   -8.080E-03   -1.170E-02   -1.532E-02   -1.894E-02   -2.255E-02   -2.617E-02   -2.979E-02
    -3.341E-02   -3.703E-02   -4.065E-02   -4.427E-02   -4.788E-02   -5.150E-02   -5.512E-02   -5.874E-02   -6.236E-02   -6.598E-02
    -6.959E-02   -7.321E-02   -7.683E-02   -8.045E-02   -8.407E-02   -8.768E-02   -9.130E-02   -9.492E-02   -9.854E-02   -1.022E-01
    -1.058E-01   -1.094E-01   -1.130E-01   -1.166E-01   -1.202E-01   -1.239E-01   -1.275E-01   -1.311E-01   -1.347E-01   -1.383E-01
    -1.419E-01   -1.456E-01   -1.492E-01   -1.528E-01   -1.564E-01   -1.600E-01   -1.637E-01   -1.673E-01   -1.709E-01   -1.745E-01
    -1.781E-01   -1.817E-01   -1.854E-01   -1.890E-01   -1.926E-01   -1.962E-01   -1.998E-01   -2.034E-01   -2.071E-01   -2.107E-01
    -2.143E-01   -2.179E-01   -2.215E-01   -2.251E-01   -2.288E-01   -2.324E-01   -2.360E-01   -2.396E-01   -2.432E-01   -2.468E-01
    -2.505E-01   -2.541E-01   -2.577E-01   -2.613E-01   -2.649E-01   -2.685E-01   -2.721E-01   -2.758E-01   -2.794E-01   -2.830E-01
    -2.866E-01   -2.902E-01   -2.938E-01   -2.975E-01   -3.011E-01   -3.047E-01   -3.083E-01   -3.119E-01   -3.155E-01   -3.191E-01
    -3.228E-01   -3.264E-01   -3.300E-01   -3.336E-01   -3.372E-01   -3.408E-01   -3.445E-01   -3.481E-01   -3.517E-01   -3.553E-01
    -3.589E-01   -3.625E-01   -3.661E-01   -3.698E-01   -3.734E-01   -3.770E-01   -3.806E-01   -3.842E-01   -3.878E-01   -3.914E-01
    -3.950E-01   -3.987E-01   -4.023E-01   -4.059E-01   -4.095E-01   -4.131E-01   -4.167E-01   -4.203E-01   -4.240E-01   -4.276E-01
    -4.312E-01   -4.348E-01   -4.384E-01   -4.420E-01   -4.456E-01   -4.492E-01   -4.529E-01   -4.565E-01
 Ala      Conc. = 1.29E+02
