 LCModel (Version 6.3-1L) Copyright: S.W. Provencher.          Ref.: Magn. Reson. Med. 30:672-679 (1993).                
 Slice#2 Row#8 Col#14  K_02_press_1_raw_act
 36 lines in following concentration table = NCONC+1
    Conc.  %SD /Cr+PCr  Metabolite                                         
    0.000 999%   0.000 Ala                                                 
    8.267  40%   0.199 Asp                                                 
    6.475 360%   0.156 Cr                                                  
   35.124  73%   0.844 PCr                                                 
    5.041  39%   0.121 GABA                                                
    4.940  40%   0.119 Glc                                                 
   30.519 101%   0.734 Gln                                                 
   16.054 204%   0.386 Glu                                                 
   16.481  32%   0.396 GPC                                                 
    0.000 999%   0.000 PCh                                                 
    9.350 134%   0.225 GSH                                                 
   45.749  90%   1.100 Ins                                                 
    0.000 999%   0.000 Lac                                                 
   78.095  26%   1.877 NAA                                                 
    0.000 999%   0.000 NAAG                                                
    1.718  38% 4.1E-02 Scyllo                                              
    8.455  39%   0.203 Tau                                                 
    3.834  70% 9.2E-02 -CrCH2                                              
   16.481  32%   0.396 GPC+PCh                                             
   78.095  26%   1.877 NAA+NAAG                                            
   41.599  32%   1.000 Cr+PCr                                              
   46.573  88%   1.120 Glu+Gln                                             
 8.04E+03  24% 193.257 Lip13a                                              
    0.000 999%   0.000 Lip13b                                              
 5.74E+03  17% 138.002 Lip09                                               
 3.32E+03  19%  79.759 MM09                                                
  176.785 116%   4.250 Lip20                                               
    0.000 999%   0.000 MM20                                                
 2.66E+03  25%  63.909 MM12                                                
 2.05E+03  34%  49.217 MM14                                                
 2.28E+03  29%  54.763 MM17                                                
 8.04E+03  24% 193.257 Lip13a+Lip13b                                       
 1.27E+04  13% 306.383 MM14+Lip13a+Lip13b+MM12                             
 9.06E+03  11% 217.760 MM09+Lip09                                          
  176.785 116%   4.250 MM20+Lip20                                          
   6 lines in following misc. output table
  FWHM = 0.046 ppm    S/N =  15                                            
  Data shift = 0.015 ppm                                                   
  Ph: -73 deg     -17.6 deg/ppm                                            
  alphaB,S = 4.5E-01,   7.0E+00                                            
   14 spline knots.   Ns = 5(1)                                            
  ( 9) 5 infls.   ( 6) 2 extrs.                                            
  498 points on ppm-axis = NY
      4.000000     3.992357     3.984714     3.977070     3.969427     3.961784     3.954141     3.946497     3.938854     3.931211
      3.923568     3.915925     3.908281     3.900638     3.892995     3.885352     3.877708     3.870065     3.862422     3.854779
      3.847136     3.839492     3.831849     3.824206     3.816563     3.808919     3.801276     3.793633     3.785990     3.778347
      3.770703     3.763060     3.755417     3.747774     3.740130     3.732487     3.724844     3.717201     3.709558     3.701914
      3.694271     3.686628     3.678985     3.671341     3.663698     3.656055     3.648412     3.640769     3.633125     3.625482
      3.617839     3.610196     3.602552     3.594909     3.587266     3.579623     3.571980     3.564336     3.556693     3.549050
      3.541407     3.533763     3.526120     3.518477     3.510834     3.503191     3.495547     3.487904     3.480261     3.472618
      3.464974     3.457331     3.449688     3.442045     3.434402     3.426758     3.419115     3.411472     3.403829     3.396185
      3.388542     3.380899     3.373256     3.365613     3.357969     3.350326     3.342683     3.335040     3.327396     3.319753
      3.312110     3.304467     3.296824     3.289180     3.281537     3.273894     3.266251     3.258607     3.250964     3.243321
      3.235678     3.228034     3.220391     3.212748     3.205105     3.197462     3.189818     3.182175     3.174532     3.166889
      3.159245     3.151602     3.143959     3.136316     3.128673     3.121029     3.113386     3.105743     3.098100     3.090456
      3.082813     3.075170     3.067527     3.059884     3.052240     3.044597     3.036954     3.029311     3.021667     3.014024
      3.006381     2.998738     2.991095     2.983451     2.975808     2.968165     2.960522     2.952878     2.945235     2.937592
      2.929949     2.922306     2.914662     2.907019     2.899376     2.891733     2.884089     2.876446     2.868803     2.861160
      2.853517     2.845873     2.838230     2.830587     2.822944     2.815300     2.807657     2.800014     2.792371     2.784728
      2.777084     2.769441     2.761798     2.754155     2.746511     2.738868     2.731225     2.723582     2.715939     2.708295
      2.700652     2.693009     2.685366     2.677722     2.670079     2.662436     2.654793     2.647150     2.639506     2.631863
      2.624220     2.616577     2.608933     2.601290     2.593647     2.586004     2.578361     2.570717     2.563074     2.555431
      2.547788     2.540144     2.532501     2.524858     2.517215     2.509572     2.501928     2.494285     2.486642     2.478999
      2.471355     2.463712     2.456069     2.448426     2.440783     2.433139     2.425496     2.417853     2.410210     2.402566
      2.394923     2.387280     2.379637     2.371994     2.364350     2.356707     2.349064     2.341421     2.333777     2.326134
      2.318491     2.310848     2.303205     2.295561     2.287918     2.280275     2.272632     2.264988     2.257345     2.249702
      2.242059     2.234416     2.226772     2.219129     2.211486     2.203843     2.196199     2.188556     2.180913     2.173270
      2.165627     2.157983     2.150340     2.142697     2.135054     2.127410     2.119767     2.112124     2.104481     2.096838
      2.089194     2.081551     2.073908     2.066265     2.058621     2.050978     2.043335     2.035692     2.028049     2.020405
      2.012762     2.005119     1.997476     1.989833     1.982190     1.974546     1.966903     1.959260     1.951617     1.943974
      1.936331     1.928688     1.921045     1.913402     1.905759     1.898115     1.890472     1.882829     1.875186     1.867543
      1.859900     1.852257     1.844614     1.836971     1.829327     1.821684     1.814041     1.806398     1.798755     1.791112
      1.783469     1.775826     1.768183     1.760540     1.752896     1.745253     1.737610     1.729967     1.722324     1.714681
      1.707038     1.699395     1.691752     1.684108     1.676465     1.668822     1.661179     1.653536     1.645893     1.638250
      1.630607     1.622964     1.615321     1.607677     1.600034     1.592391     1.584748     1.577105     1.569462     1.561819
      1.554176     1.546533     1.538890     1.531246     1.523603     1.515960     1.508317     1.500674     1.493031     1.485388
      1.477745     1.470102     1.462458     1.454815     1.447172     1.439529     1.431886     1.424243     1.416600     1.408957
      1.401314     1.393671     1.386027     1.378384     1.370741     1.363098     1.355455     1.347812     1.340169     1.332526
      1.324883     1.317240     1.309596     1.301953     1.294310     1.286667     1.279024     1.271381     1.263738     1.256095
      1.248452     1.240808     1.233165     1.225522     1.217879     1.210236     1.202593     1.194950     1.187307     1.179664
      1.172021     1.164377     1.156734     1.149091     1.141448     1.133805     1.126162     1.118519     1.110876     1.103233
      1.095590     1.087946     1.080303     1.072660     1.065017     1.057374     1.049731     1.042088     1.034445     1.026802
      1.019158     1.011515     1.003872     0.996229     0.988586     0.980943     0.973300     0.965657     0.958014     0.950371
      0.942727     0.935084     0.927441     0.919798     0.912155     0.904512     0.896869     0.889226     0.881583     0.873940
      0.866296     0.858653     0.851010     0.843367     0.835724     0.828081     0.820438     0.812795     0.805152     0.797508
      0.789865     0.782222     0.774579     0.766936     0.759293     0.751650     0.744007     0.736364     0.728721     0.721077
      0.713434     0.705791     0.698148     0.690505     0.682862     0.675219     0.667576     0.659933     0.652290     0.644646
      0.637003     0.629360     0.621717     0.614074     0.606431     0.598788     0.591145     0.583502     0.575858     0.568215
      0.560572     0.552929     0.545286     0.537643     0.530000     0.522357     0.514714     0.507071     0.499427     0.491784
      0.484141     0.476498     0.468855     0.461212     0.453569     0.445925     0.438282     0.430639     0.422996     0.415353
      0.407710     0.400067     0.392424     0.384780     0.377137     0.369494     0.361851     0.354208     0.346565     0.338922
      0.331278     0.323635     0.315992     0.308349     0.300706     0.293063     0.285420     0.277777     0.270133     0.262490
      0.254847     0.247204     0.239561     0.231918     0.224275     0.216631     0.208988     0.201345
 NY phased data points follow
   8.01888E+00  7.30656E+00  8.85174E+00  1.05788E+01  8.29616E+00  7.41612E+00  9.27434E+00  7.66366E+00  6.79681E+00  1.16234E+01
   9.23149E+00  1.33268E+01  1.04627E+01  1.14900E+01  1.07207E+01  9.52602E+00  1.04027E+01  1.08154E+01  1.12561E+01  1.09697E+01
   1.28885E+01  1.00450E+01  1.11003E+01  8.66094E+00  1.06152E+01  1.12148E+01  9.33430E+00  8.48769E+00  8.21152E+00  1.00311E+01
   8.29009E+00  1.03420E+01  1.01019E+01  1.02251E+01  8.24193E+00  9.25833E+00  1.12969E+01  1.22135E+01  1.07627E+01  9.52654E+00
   1.03996E+01  7.92873E+00  1.05759E+01  1.06883E+01  1.04234E+01  9.40994E+00  9.06514E+00  1.09571E+01  9.69366E+00  8.66149E+00
   9.90467E+00  1.08581E+01  1.18633E+01  1.16647E+01  1.08957E+01  8.62460E+00  8.17018E+00  1.05904E+01  9.20107E+00  1.01478E+01
   8.32253E+00  1.12203E+01  1.26648E+01  9.41153E+00  1.17001E+01  8.39917E+00  7.37821E+00  1.05044E+01  9.74022E+00  8.30193E+00
   1.17204E+01  1.07504E+01  9.07691E+00  1.12753E+01  9.74235E+00  1.04576E+01  1.08564E+01  1.00094E+01  8.43633E+00  1.00033E+01
   8.30566E+00  8.31691E+00  8.95670E+00  1.02183E+01  1.03527E+01  8.85954E+00  1.13492E+01  1.14336E+01  1.11724E+01  9.81196E+00
   8.97896E+00  1.01461E+01  9.51561E+00  8.81594E+00  9.80991E+00  1.09641E+01  1.04855E+01  8.66853E+00  9.47619E+00  1.06855E+01
   1.11739E+01  1.10223E+01  1.08037E+01  1.29789E+01  1.47951E+01  1.32747E+01  1.26748E+01  1.07469E+01  1.39107E+01  1.34872E+01
   1.01946E+01  1.01593E+01  1.10353E+01  1.11941E+01  1.06655E+01  1.06922E+01  1.02110E+01  1.16666E+01  1.17814E+01  1.17368E+01
   1.21052E+01  1.08657E+01  1.07938E+01  1.01174E+01  1.24468E+01  1.06690E+01  1.06283E+01  1.35541E+01  1.51263E+01  1.41271E+01
   1.33810E+01  1.27801E+01  1.32656E+01  1.17668E+01  1.32723E+01  1.38856E+01  1.22639E+01  1.56644E+01  1.32223E+01  1.22321E+01
   1.22967E+01  1.23820E+01  1.32647E+01  1.16998E+01  1.36661E+01  1.21965E+01  1.32455E+01  1.32547E+01  1.28967E+01  1.38414E+01
   1.21660E+01  1.32449E+01  1.31092E+01  1.37615E+01  1.39036E+01  1.52403E+01  1.46058E+01  1.43682E+01  1.26130E+01  1.48387E+01
   1.20491E+01  1.36142E+01  1.29750E+01  1.29492E+01  1.40680E+01  1.38329E+01  1.42987E+01  1.32199E+01  1.29382E+01  1.28295E+01
   1.15246E+01  1.49082E+01  1.27617E+01  1.23027E+01  1.17507E+01  1.20698E+01  1.17297E+01  1.49906E+01  1.34326E+01  1.31233E+01
   1.21978E+01  1.25902E+01  1.31410E+01  1.33997E+01  1.30282E+01  1.17933E+01  1.32421E+01  1.24784E+01  1.34872E+01  1.38245E+01
   1.35706E+01  1.45437E+01  1.45333E+01  1.43074E+01  1.43475E+01  1.47670E+01  1.43851E+01  1.36122E+01  1.40473E+01  1.33470E+01
   1.39952E+01  1.22569E+01  1.36058E+01  1.55606E+01  1.53306E+01  1.27284E+01  1.52440E+01  1.35985E+01  1.47816E+01  1.38495E+01
   1.50284E+01  1.29281E+01  1.50548E+01  1.44515E+01  1.45362E+01  1.40647E+01  1.58374E+01  1.50899E+01  1.45228E+01  1.58801E+01
   1.53689E+01  1.42659E+01  1.52321E+01  1.55907E+01  1.51887E+01  1.65943E+01  1.67897E+01  1.51049E+01  1.53847E+01  1.74801E+01
   1.50331E+01  1.72032E+01  1.49432E+01  1.81237E+01  1.72377E+01  1.54206E+01  1.57712E+01  1.56707E+01  1.74624E+01  1.76079E+01
   1.69719E+01  1.75637E+01  1.93598E+01  1.72002E+01  1.66731E+01  1.55449E+01  1.73750E+01  1.82781E+01  1.83472E+01  1.92128E+01
   1.74565E+01  1.83594E+01  1.84826E+01  1.78467E+01  1.77517E+01  1.75160E+01  1.73640E+01  1.90382E+01  1.85223E+01  1.85125E+01
   2.02001E+01  2.39886E+01  2.49098E+01  2.39142E+01  2.42886E+01  2.42558E+01  2.39321E+01  2.41129E+01  2.32252E+01  2.27959E+01
   2.36318E+01  2.30917E+01  2.27404E+01  2.31811E+01  2.50700E+01  2.31663E+01  2.28717E+01  2.27574E+01  2.41411E+01  2.50048E+01
   2.43707E+01  2.41580E+01  2.56611E+01  2.68577E+01  2.68527E+01  2.40611E+01  2.65645E+01  2.60817E+01  2.54396E+01  2.75103E+01
   2.67652E+01  2.65351E+01  2.73153E+01  2.81485E+01  2.88878E+01  2.73287E+01  2.88797E+01  2.97980E+01  2.89507E+01  2.91883E+01
   3.14362E+01  3.07372E+01  3.10255E+01  3.13954E+01  2.91521E+01  3.00751E+01  3.15186E+01  3.16356E+01  3.27445E+01  3.01692E+01
   3.19967E+01  3.21636E+01  3.35519E+01  3.27142E+01  3.20271E+01  3.28533E+01  3.41986E+01  3.44735E+01  3.42594E+01  3.33748E+01
   3.56383E+01  3.68954E+01  3.51293E+01  3.63393E+01  3.34596E+01  3.66114E+01  3.53564E+01  3.68797E+01  3.82329E+01  3.69222E+01
   3.93103E+01  3.89521E+01  3.84432E+01  4.06410E+01  3.98817E+01  3.95867E+01  4.08703E+01  4.11505E+01  4.04810E+01  4.18590E+01
   4.30360E+01  4.15956E+01  4.28665E+01  4.50080E+01  4.41237E+01  4.36105E+01  4.47537E+01  4.57626E+01  4.54755E+01  4.47874E+01
   4.76942E+01  4.57131E+01  4.96326E+01  4.89554E+01  4.90243E+01  4.81488E+01  4.82318E+01  5.07868E+01  4.96483E+01  5.05495E+01
   5.12215E+01  5.32673E+01  5.20504E+01  5.17999E+01  5.38271E+01  5.42050E+01  5.30333E+01  5.28953E+01  5.17825E+01  5.44776E+01
   5.24452E+01  5.24590E+01  5.12093E+01  5.19094E+01  5.18791E+01  5.18350E+01  5.04989E+01  5.08693E+01  5.10508E+01  5.13940E+01
   5.07641E+01  5.04305E+01  5.27600E+01  5.12546E+01  5.06472E+01  5.04121E+01  4.78564E+01  5.10691E+01  5.01532E+01  4.75447E+01
   4.76655E+01  4.78414E+01  4.68545E+01  4.76724E+01  4.74362E+01  4.69130E+01  4.49358E+01  4.74404E+01  4.55831E+01  4.62308E+01
   4.29641E+01  4.27539E+01  4.06485E+01  4.31632E+01  4.09695E+01  3.99940E+01  3.95877E+01  3.96087E+01  3.87395E+01  3.78632E+01
   3.72180E+01  3.67311E+01  3.69558E+01  3.41775E+01  3.60772E+01  3.29165E+01  3.28293E+01  3.15867E+01  3.34447E+01  3.17125E+01
   2.92929E+01  2.77800E+01  2.88620E+01  2.78398E+01  2.68394E+01  2.43466E+01  2.59740E+01  2.46860E+01  2.18216E+01  2.20358E+01
   2.16406E+01  1.83755E+01  1.83588E+01  1.88297E+01  1.77317E+01  1.66765E+01  1.50912E+01  1.41153E+01  1.50415E+01  1.41442E+01
   1.26416E+01  1.08127E+01  1.33406E+01  1.14227E+01  9.39754E+00  9.86838E+00  7.50934E+00  4.59987E+00  6.62413E+00  6.50399E+00
   6.56916E+00  4.46558E+00  3.68984E+00  4.18447E+00  2.37353E+00  1.53562E+00  1.30418E+00  8.50375E-02 -9.05215E-02  4.03923E-01
  -1.26169E+00 -2.96816E+00 -3.58089E+00 -2.40338E+00 -4.05422E+00 -3.20784E+00 -2.19938E+00 -3.48783E+00 -5.45103E+00 -6.41931E+00
  -4.93937E+00 -3.43394E+00 -7.68847E+00 -7.88699E+00 -5.29643E+00 -7.64269E+00 -5.29374E+00 -8.24197E+00 -8.93239E+00 -7.92204E+00
  -7.30441E+00 -9.22940E+00 -9.54718E+00 -8.48482E+00 -7.99079E+00 -1.08344E+01 -9.41936E+00 -1.05673E+01 -9.30237E+00 -1.19852E+01
  -1.09597E+01 -1.07813E+01 -9.16896E+00 -1.07446E+01 -1.07055E+01 -1.21259E+01 -1.28296E+01 -9.45345E+00
 NY points of the fit to the data follow
   9.25625E+00  9.23446E+00  9.18638E+00  9.12444E+00  8.96817E+00  8.89527E+00  8.95741E+00  9.06358E+00  9.40731E+00  1.00517E+01
   1.06434E+01  1.08723E+01  1.08330E+01  1.07399E+01  1.05528E+01  1.01601E+01  9.89769E+00  9.79738E+00  9.71248E+00  9.66886E+00
   9.64865E+00  9.66132E+00  9.69463E+00  9.72868E+00  9.74993E+00  9.70941E+00  9.62930E+00  9.53132E+00  9.44995E+00  9.48878E+00
   9.69722E+00  9.99037E+00  1.02360E+01  1.03518E+01  1.03610E+01  1.02969E+01  1.01382E+01  9.96421E+00  9.85995E+00  9.85296E+00
   9.86295E+00  9.81458E+00  9.77111E+00  9.75262E+00  9.72682E+00  9.70459E+00  9.79936E+00  1.00502E+01  1.03423E+01  1.05205E+01
   1.05438E+01  1.04531E+01  1.03079E+01  1.01378E+01  9.94072E+00  9.79343E+00  9.74392E+00  9.74780E+00  9.76915E+00  9.83615E+00
   9.95041E+00  1.00608E+01  1.01123E+01  1.01031E+01  1.00591E+01  9.98639E+00  9.90860E+00  9.84749E+00  9.82044E+00  9.84375E+00
   9.86818E+00  9.89358E+00  9.95434E+00  1.00204E+01  1.00618E+01  1.00959E+01  1.01448E+01  1.01671E+01  1.01276E+01  1.00831E+01
   1.00532E+01  1.00061E+01  9.99858E+00  1.00508E+01  1.01119E+01  1.01899E+01  1.02931E+01  1.03398E+01  1.02798E+01  1.01851E+01
   1.01414E+01  1.01399E+01  1.01312E+01  1.01628E+01  1.02264E+01  1.02992E+01  1.03414E+01  1.02064E+01  9.80303E+00  9.72395E+00
   9.86828E+00  1.01471E+01  1.11032E+01  1.26165E+01  1.36126E+01  1.35946E+01  1.32157E+01  1.29757E+01  1.24907E+01  1.15838E+01
   1.11854E+01  1.11372E+01  1.11521E+01  1.11880E+01  1.12265E+01  1.12754E+01  1.13254E+01  1.13729E+01  1.14208E+01  1.14591E+01
   1.14696E+01  1.13743E+01  1.10340E+01  1.09079E+01  1.10400E+01  1.12757E+01  1.20304E+01  1.33529E+01  1.43739E+01  1.45106E+01
   1.42123E+01  1.40150E+01  1.36943E+01  1.29615E+01  1.25522E+01  1.24743E+01  1.24258E+01  1.23781E+01  1.23572E+01  1.23653E+01
   1.24047E+01  1.24853E+01  1.25802E+01  1.26662E+01  1.27390E+01  1.27967E+01  1.28412E+01  1.28748E+01  1.28912E+01  1.29131E+01
   1.29400E+01  1.29636E+01  1.29799E+01  1.30004E+01  1.30267E+01  1.30546E+01  1.30980E+01  1.31454E+01  1.31749E+01  1.31889E+01
   1.31664E+01  1.31141E+01  1.30713E+01  1.30686E+01  1.31215E+01  1.32021E+01  1.32647E+01  1.33003E+01  1.33124E+01  1.33099E+01
   1.33022E+01  1.32834E+01  1.32824E+01  1.32766E+01  1.32642E+01  1.32467E+01  1.32116E+01  1.31858E+01  1.32096E+01  1.32768E+01
   1.33181E+01  1.33110E+01  1.33229E+01  1.33716E+01  1.33887E+01  1.33889E+01  1.33638E+01  1.33406E+01  1.33689E+01  1.34612E+01
   1.35852E+01  1.37042E+01  1.38059E+01  1.38998E+01  1.39468E+01  1.39269E+01  1.38966E+01  1.38617E+01  1.38174E+01  1.37818E+01
   1.38070E+01  1.39144E+01  1.40769E+01  1.42493E+01  1.44668E+01  1.47024E+01  1.48062E+01  1.47675E+01  1.46851E+01  1.45287E+01
   1.42888E+01  1.41424E+01  1.41943E+01  1.43204E+01  1.44413E+01  1.46624E+01  1.49981E+01  1.52274E+01  1.53142E+01  1.53726E+01
   1.54157E+01  1.54113E+01  1.53639E+01  1.53704E+01  1.54794E+01  1.56477E+01  1.58191E+01  1.59772E+01  1.61282E+01  1.62531E+01
   1.63311E+01  1.63811E+01  1.64114E+01  1.64610E+01  1.65589E+01  1.66374E+01  1.66829E+01  1.68181E+01  1.70755E+01  1.73061E+01
   1.74782E+01  1.76544E+01  1.78060E+01  1.78322E+01  1.78130E+01  1.78561E+01  1.79393E+01  1.80277E+01  1.81596E+01  1.83440E+01
   1.85224E+01  1.87096E+01  1.88981E+01  1.90649E+01  1.91563E+01  1.89027E+01  1.83627E+01  1.84000E+01  1.87163E+01  1.93918E+01
   2.12455E+01  2.37283E+01  2.51074E+01  2.49765E+01  2.44760E+01  2.41590E+01  2.32755E+01  2.19569E+01  2.15591E+01  2.15823E+01
   2.16813E+01  2.18165E+01  2.19818E+01  2.21699E+01  2.23808E+01  2.26125E+01  2.28630E+01  2.31242E+01  2.33918E+01  2.36628E+01
   2.39387E+01  2.42241E+01  2.45196E+01  2.48271E+01  2.51498E+01  2.54877E+01  2.58396E+01  2.62020E+01  2.65685E+01  2.69380E+01
   2.73090E+01  2.76757E+01  2.80343E+01  2.83846E+01  2.87243E+01  2.90497E+01  2.93591E+01  2.96517E+01  2.99255E+01  3.01785E+01
   3.04112E+01  3.06232E+01  3.08150E+01  3.09884E+01  3.11453E+01  3.12886E+01  3.14216E+01  3.15481E+01  3.16723E+01  3.17985E+01
   3.19310E+01  3.20742E+01  3.22321E+01  3.24083E+01  3.26060E+01  3.28277E+01  3.30751E+01  3.33491E+01  3.36501E+01  3.39772E+01
   3.43290E+01  3.47033E+01  3.50973E+01  3.55075E+01  3.59302E+01  3.63614E+01  3.67973E+01  3.72338E+01  3.76673E+01  3.80949E+01
   3.85139E+01  3.89225E+01  3.93197E+01  3.97052E+01  4.00795E+01  4.04440E+01  4.08007E+01  4.11520E+01  4.15010E+01  4.18510E+01
   4.22055E+01  4.25677E+01  4.29411E+01  4.33284E+01  4.37322E+01  4.41543E+01  4.45961E+01  4.50581E+01  4.55402E+01  4.60413E+01
   4.65598E+01  4.70930E+01  4.76374E+01  4.81890E+01  4.87427E+01  4.92928E+01  4.98328E+01  5.03557E+01  5.08542E+01  5.13206E+01
   5.17473E+01  5.21269E+01  5.24527E+01  5.27186E+01  5.29202E+01  5.30543E+01  5.31199E+01  5.31176E+01  5.30506E+01  5.29240E+01
   5.27452E+01  5.25232E+01  5.22683E+01  5.19921E+01  5.17061E+01  5.14219E+01  5.11499E+01  5.08988E+01  5.06757E+01  5.04845E+01
   5.03268E+01  5.02010E+01  5.01026E+01  5.00246E+01  4.99578E+01  4.98911E+01  4.98129E+01  4.97110E+01  4.95737E+01  4.93908E+01
   4.91537E+01  4.88561E+01  4.84945E+01  4.80679E+01  4.75784E+01  4.70303E+01  4.64304E+01  4.57868E+01  4.51092E+01  4.44076E+01
   4.36918E+01  4.29714E+01  4.22546E+01  4.15483E+01  4.08575E+01  4.01855E+01  3.95336E+01  3.89012E+01  3.82862E+01  3.76849E+01
   3.70926E+01  3.65038E+01  3.59125E+01  3.53126E+01  3.46981E+01  3.40635E+01  3.34042E+01  3.27160E+01  3.19961E+01  3.12425E+01
   3.04545E+01  2.96323E+01  2.87770E+01  2.78907E+01  2.69764E+01  2.60376E+01  2.50781E+01  2.41025E+01  2.31151E+01  2.21205E+01
   2.11233E+01  2.01277E+01  1.91378E+01  1.81574E+01  1.71898E+01  1.62378E+01  1.53041E+01  1.43906E+01  1.34991E+01  1.26306E+01
   1.17863E+01  1.09664E+01  1.01714E+01  9.40116E+00  8.65546E+00  7.93386E+00  7.23580E+00  6.56056E+00  5.90738E+00  5.27540E+00
   4.66374E+00  4.07146E+00  3.49766E+00  2.94143E+00  2.40186E+00  1.87808E+00  1.36924E+00  8.74520E-01  3.93151E-01 -7.56055E-02
  -5.32443E-01 -9.78029E-01 -1.41298E+00 -1.83788E+00 -2.25327E+00 -2.65966E+00 -3.05752E+00 -3.44730E+00 -3.82941E+00 -4.20424E+00
  -4.57215E+00 -4.93346E+00 -5.28848E+00 -5.63751E+00 -5.98081E+00 -6.31863E+00 -6.65119E+00 -6.97870E+00 -7.30136E+00 -7.61937E+00
  -7.93288E+00 -8.24205E+00 -8.54702E+00 -8.84794E+00 -9.14492E+00 -9.43809E+00 -9.72754E+00 -1.00134E+01 -1.02957E+01 -1.05745E+01
  -1.08500E+01 -1.11223E+01 -1.13912E+01 -1.16570E+01 -1.19197E+01 -1.21793E+01 -1.24359E+01 -1.26895E+01
 NY background values follow
     8.830E+00    8.858E+00    8.886E+00    8.913E+00    8.939E+00    8.965E+00    8.990E+00    9.014E+00    9.038E+00    9.061E+00
     9.083E+00    9.105E+00    9.126E+00    9.146E+00    9.166E+00    9.185E+00    9.203E+00    9.221E+00    9.238E+00    9.255E+00
     9.271E+00    9.286E+00    9.301E+00    9.315E+00    9.329E+00    9.342E+00    9.354E+00    9.366E+00    9.377E+00    9.388E+00
     9.398E+00    9.407E+00    9.416E+00    9.425E+00    9.433E+00    9.440E+00    9.447E+00    9.453E+00    9.459E+00    9.464E+00
     9.469E+00    9.473E+00    9.477E+00    9.480E+00    9.483E+00    9.485E+00    9.487E+00    9.489E+00    9.489E+00    9.490E+00
     9.490E+00    9.490E+00    9.490E+00    9.490E+00    9.489E+00    9.489E+00    9.488E+00    9.488E+00    9.487E+00    9.487E+00
     9.486E+00    9.486E+00    9.486E+00    9.487E+00    9.488E+00    9.489E+00    9.491E+00    9.493E+00    9.495E+00    9.498E+00
     9.502E+00    9.507E+00    9.512E+00    9.518E+00    9.525E+00    9.532E+00    9.541E+00    9.550E+00    9.560E+00    9.572E+00
     9.584E+00    9.598E+00    9.613E+00    9.629E+00    9.646E+00    9.664E+00    9.684E+00    9.705E+00    9.728E+00    9.752E+00
     9.778E+00    9.806E+00    9.834E+00    9.865E+00    9.897E+00    9.930E+00    9.964E+00    1.000E+01    1.004E+01    1.008E+01
     1.011E+01    1.015E+01    1.020E+01    1.024E+01    1.028E+01    1.032E+01    1.037E+01    1.041E+01    1.046E+01    1.050E+01
     1.055E+01    1.060E+01    1.064E+01    1.069E+01    1.074E+01    1.079E+01    1.083E+01    1.088E+01    1.093E+01    1.098E+01
     1.102E+01    1.107E+01    1.112E+01    1.116E+01    1.121E+01    1.125E+01    1.130E+01    1.134E+01    1.139E+01    1.143E+01
     1.147E+01    1.151E+01    1.155E+01    1.159E+01    1.163E+01    1.167E+01    1.170E+01    1.174E+01    1.177E+01    1.180E+01
     1.184E+01    1.187E+01    1.190E+01    1.192E+01    1.195E+01    1.198E+01    1.200E+01    1.203E+01    1.205E+01    1.207E+01
     1.210E+01    1.212E+01    1.214E+01    1.216E+01    1.218E+01    1.220E+01    1.221E+01    1.223E+01    1.225E+01    1.227E+01
     1.228E+01    1.230E+01    1.231E+01    1.233E+01    1.234E+01    1.236E+01    1.237E+01    1.239E+01    1.240E+01    1.242E+01
     1.243E+01    1.244E+01    1.246E+01    1.247E+01    1.249E+01    1.250E+01    1.251E+01    1.253E+01    1.254E+01    1.256E+01
     1.257E+01    1.259E+01    1.260E+01    1.262E+01    1.264E+01    1.265E+01    1.267E+01    1.269E+01    1.270E+01    1.272E+01
     1.274E+01    1.276E+01    1.278E+01    1.280E+01    1.283E+01    1.285E+01    1.287E+01    1.290E+01    1.292E+01    1.295E+01
     1.297E+01    1.300E+01    1.303E+01    1.306E+01    1.309E+01    1.312E+01    1.316E+01    1.319E+01    1.322E+01    1.326E+01
     1.330E+01    1.334E+01    1.338E+01    1.342E+01    1.346E+01    1.351E+01    1.355E+01    1.360E+01    1.365E+01    1.370E+01
     1.375E+01    1.380E+01    1.386E+01    1.392E+01    1.397E+01    1.403E+01    1.410E+01    1.416E+01    1.422E+01    1.429E+01
     1.436E+01    1.443E+01    1.450E+01    1.457E+01    1.465E+01    1.472E+01    1.480E+01    1.487E+01    1.495E+01    1.503E+01
     1.511E+01    1.518E+01    1.526E+01    1.534E+01    1.542E+01    1.550E+01    1.558E+01    1.566E+01    1.574E+01    1.582E+01
     1.590E+01    1.598E+01    1.606E+01    1.613E+01    1.621E+01    1.629E+01    1.636E+01    1.644E+01    1.651E+01    1.658E+01
     1.665E+01    1.672E+01    1.679E+01    1.685E+01    1.692E+01    1.698E+01    1.704E+01    1.710E+01    1.716E+01    1.721E+01
     1.727E+01    1.732E+01    1.737E+01    1.741E+01    1.745E+01    1.750E+01    1.753E+01    1.757E+01    1.760E+01    1.764E+01
     1.767E+01    1.769E+01    1.772E+01    1.774E+01    1.776E+01    1.778E+01    1.779E+01    1.781E+01    1.782E+01    1.783E+01
     1.783E+01    1.784E+01    1.784E+01    1.784E+01    1.784E+01    1.783E+01    1.782E+01    1.782E+01    1.780E+01    1.779E+01
     1.778E+01    1.776E+01    1.774E+01    1.771E+01    1.769E+01    1.766E+01    1.764E+01    1.760E+01    1.757E+01    1.754E+01
     1.750E+01    1.746E+01    1.742E+01    1.737E+01    1.733E+01    1.728E+01    1.723E+01    1.718E+01    1.713E+01    1.707E+01
     1.701E+01    1.695E+01    1.689E+01    1.683E+01    1.676E+01    1.669E+01    1.662E+01    1.655E+01    1.647E+01    1.640E+01
     1.632E+01    1.624E+01    1.616E+01    1.608E+01    1.599E+01    1.590E+01    1.581E+01    1.572E+01    1.563E+01    1.554E+01
     1.544E+01    1.534E+01    1.524E+01    1.514E+01    1.504E+01    1.493E+01    1.482E+01    1.471E+01    1.460E+01    1.449E+01
     1.438E+01    1.426E+01    1.414E+01    1.402E+01    1.390E+01    1.378E+01    1.366E+01    1.353E+01    1.341E+01    1.328E+01
     1.315E+01    1.301E+01    1.288E+01    1.275E+01    1.261E+01    1.247E+01    1.233E+01    1.219E+01    1.205E+01    1.190E+01
     1.176E+01    1.161E+01    1.146E+01    1.131E+01    1.116E+01    1.100E+01    1.085E+01    1.069E+01    1.053E+01    1.037E+01
     1.021E+01    1.005E+01    9.885E+00    9.719E+00    9.552E+00    9.383E+00    9.212E+00    9.040E+00    8.867E+00    8.692E+00
     8.515E+00    8.337E+00    8.157E+00    7.976E+00    7.793E+00    7.609E+00    7.423E+00    7.236E+00    7.047E+00    6.857E+00
     6.665E+00    6.472E+00    6.277E+00    6.081E+00    5.883E+00    5.684E+00    5.483E+00    5.281E+00    5.077E+00    4.872E+00
     4.666E+00    4.458E+00    4.248E+00    4.038E+00    3.826E+00    3.612E+00    3.398E+00    3.182E+00    2.966E+00    2.748E+00
     2.529E+00    2.309E+00    2.088E+00    1.866E+00    1.643E+00    1.419E+00    1.194E+00    9.683E-01    7.418E-01    5.145E-01
     2.865E-01    5.773E-02   -1.717E-01   -4.018E-01   -6.326E-01   -8.639E-01   -1.096E+00   -1.328E+00   -1.561E+00   -1.794E+00
    -2.028E+00   -2.262E+00   -2.497E+00   -2.732E+00   -2.967E+00   -3.202E+00   -3.438E+00   -3.674E+00   -3.910E+00   -4.146E+00
    -4.382E+00   -4.618E+00   -4.855E+00   -5.091E+00   -5.327E+00   -5.564E+00   -5.800E+00   -6.036E+00   -6.271E+00   -6.507E+00
    -6.742E+00   -6.978E+00   -7.212E+00   -7.447E+00   -7.681E+00   -7.915E+00   -8.148E+00   -8.381E+00   -8.614E+00   -8.846E+00
    -9.077E+00   -9.308E+00   -9.538E+00   -9.768E+00   -9.997E+00   -1.023E+01   -1.045E+01   -1.068E+01   -1.091E+01   -1.113E+01
    -1.136E+01   -1.158E+01   -1.180E+01   -1.202E+01   -1.224E+01   -1.246E+01   -1.268E+01   -1.290E+01   -1.312E+01   -1.333E+01
    -1.355E+01   -1.376E+01   -1.397E+01   -1.418E+01   -1.439E+01   -1.460E+01   -1.480E+01   -1.501E+01
 Asp      Conc. = 8.27E+00
