 LCModel (Version 6.3-1L) Copyright: S.W. Provencher.          Ref.: Magn. Reson. Med. 30:672-679 (1993).                
 Slice#2 Row#11 Col#1  K_02_press_1_raw_act
 36 lines in following concentration table = NCONC+1
    Conc.  %SD /Cr+PCr  Metabolite                                         
   70.999  85%   0.437 Ala                                                 
    5.105 308% 3.1E-02 Asp                                                 
    0.000 999%   0.000 Cr                                                  
  162.445  14%   1.000 PCr                                                 
    6.916 137% 4.3E-02 GABA                                                
    5.102 186% 3.1E-02 Glc                                                 
    0.000 999%   0.000 Gln                                                 
    0.000 999%   0.000 Glu                                                 
   15.078  57% 9.3E-02 GPC                                                 
    0.000 999%   0.000 PCh                                                 
    0.000 999%   0.000 GSH                                                 
   30.294 419%   0.186 Ins                                                 
    0.000 999%   0.000 Lac                                                 
    0.000 999%   0.000 NAA                                                 
    0.000 999%   0.000 NAAG                                                
    1.023 306% 6.3E-03 Scyllo                                              
    5.401 291% 3.3E-02 Tau                                                 
    0.000 999%   0.000 -CrCH2                                              
   15.078  57% 9.3E-02 GPC+PCh                                             
    0.000 999%   0.000 NAA+NAAG                                            
  162.445  14%   1.000 Cr+PCr                                              
    0.000 999%   0.000 Glu+Gln                                             
   88.188 122%   0.543 Lip13a                                              
    0.000 999%   0.000 Lip13b                                              
    0.000 999%   0.000 Lip09                                               
  158.166  41%   0.974 MM09                                                
   31.879 112%   0.196 Lip20                                               
  246.704  41%   1.519 MM20                                                
   48.449  49%   0.298 MM12                                                
  129.631  54%   0.798 MM14                                                
   84.232  54%   0.519 MM17                                                
   88.188 122%   0.543 Lip13a+Lip13b                                       
  266.269  53%   1.639 MM14+Lip13a+Lip13b+MM12                             
  158.166  41%   0.974 MM09+Lip09                                          
  278.582  38%   1.715 MM20+Lip20                                          
   6 lines in following misc. output table
  FWHM = 0.084 ppm    S/N =   1                                            
  Data shift =-0.023 ppm                                                   
  Ph: 103 deg       8.8 deg/ppm                                            
  alphaB,S = 5.8E-01,   8.9E+01                                            
   14 spline knots.   Ns = 7(1)                                            
  (12) 2 infls.   (11) 1 extrs.                                            
  498 points on ppm-axis = NY
      4.000000     3.992357     3.984714     3.977070     3.969427     3.961784     3.954141     3.946497     3.938854     3.931211
      3.923568     3.915925     3.908281     3.900638     3.892995     3.885352     3.877708     3.870065     3.862422     3.854779
      3.847136     3.839492     3.831849     3.824206     3.816563     3.808919     3.801276     3.793633     3.785990     3.778347
      3.770703     3.763060     3.755417     3.747774     3.740130     3.732487     3.724844     3.717201     3.709558     3.701914
      3.694271     3.686628     3.678985     3.671341     3.663698     3.656055     3.648412     3.640769     3.633125     3.625482
      3.617839     3.610196     3.602552     3.594909     3.587266     3.579623     3.571980     3.564336     3.556693     3.549050
      3.541407     3.533763     3.526120     3.518477     3.510834     3.503191     3.495547     3.487904     3.480261     3.472618
      3.464974     3.457331     3.449688     3.442045     3.434402     3.426758     3.419115     3.411472     3.403829     3.396185
      3.388542     3.380899     3.373256     3.365613     3.357969     3.350326     3.342683     3.335040     3.327396     3.319753
      3.312110     3.304467     3.296824     3.289180     3.281537     3.273894     3.266251     3.258607     3.250964     3.243321
      3.235678     3.228034     3.220391     3.212748     3.205105     3.197462     3.189818     3.182175     3.174532     3.166889
      3.159245     3.151602     3.143959     3.136316     3.128673     3.121029     3.113386     3.105743     3.098100     3.090456
      3.082813     3.075170     3.067527     3.059884     3.052240     3.044597     3.036954     3.029311     3.021667     3.014024
      3.006381     2.998738     2.991095     2.983451     2.975808     2.968165     2.960522     2.952878     2.945235     2.937592
      2.929949     2.922306     2.914662     2.907019     2.899376     2.891733     2.884089     2.876446     2.868803     2.861160
      2.853517     2.845873     2.838230     2.830587     2.822944     2.815300     2.807657     2.800014     2.792371     2.784728
      2.777084     2.769441     2.761798     2.754155     2.746511     2.738868     2.731225     2.723582     2.715939     2.708295
      2.700652     2.693009     2.685366     2.677722     2.670079     2.662436     2.654793     2.647150     2.639506     2.631863
      2.624220     2.616577     2.608933     2.601290     2.593647     2.586004     2.578361     2.570717     2.563074     2.555431
      2.547788     2.540144     2.532501     2.524858     2.517215     2.509572     2.501928     2.494285     2.486642     2.478999
      2.471355     2.463712     2.456069     2.448426     2.440783     2.433139     2.425496     2.417853     2.410210     2.402566
      2.394923     2.387280     2.379637     2.371994     2.364350     2.356707     2.349064     2.341421     2.333777     2.326134
      2.318491     2.310848     2.303205     2.295561     2.287918     2.280275     2.272632     2.264988     2.257345     2.249702
      2.242059     2.234416     2.226772     2.219129     2.211486     2.203843     2.196199     2.188556     2.180913     2.173270
      2.165627     2.157983     2.150340     2.142697     2.135054     2.127410     2.119767     2.112124     2.104481     2.096838
      2.089194     2.081551     2.073908     2.066265     2.058621     2.050978     2.043335     2.035692     2.028049     2.020405
      2.012762     2.005119     1.997476     1.989833     1.982190     1.974546     1.966903     1.959260     1.951617     1.943974
      1.936331     1.928688     1.921045     1.913402     1.905759     1.898115     1.890472     1.882829     1.875186     1.867543
      1.859900     1.852257     1.844614     1.836971     1.829327     1.821684     1.814041     1.806398     1.798755     1.791112
      1.783469     1.775826     1.768183     1.760540     1.752896     1.745253     1.737610     1.729967     1.722324     1.714681
      1.707038     1.699395     1.691752     1.684108     1.676465     1.668822     1.661179     1.653536     1.645893     1.638250
      1.630607     1.622964     1.615321     1.607677     1.600034     1.592391     1.584748     1.577105     1.569462     1.561819
      1.554176     1.546533     1.538890     1.531246     1.523603     1.515960     1.508317     1.500674     1.493031     1.485388
      1.477745     1.470102     1.462458     1.454815     1.447172     1.439529     1.431886     1.424243     1.416600     1.408957
      1.401314     1.393671     1.386027     1.378384     1.370741     1.363098     1.355455     1.347812     1.340169     1.332526
      1.324883     1.317240     1.309596     1.301953     1.294310     1.286667     1.279024     1.271381     1.263738     1.256095
      1.248452     1.240808     1.233165     1.225522     1.217879     1.210236     1.202593     1.194950     1.187307     1.179664
      1.172021     1.164377     1.156734     1.149091     1.141448     1.133805     1.126162     1.118519     1.110876     1.103233
      1.095590     1.087946     1.080303     1.072660     1.065017     1.057374     1.049731     1.042088     1.034445     1.026802
      1.019158     1.011515     1.003872     0.996229     0.988586     0.980943     0.973300     0.965657     0.958014     0.950371
      0.942727     0.935084     0.927441     0.919798     0.912155     0.904512     0.896869     0.889226     0.881583     0.873940
      0.866296     0.858653     0.851010     0.843367     0.835724     0.828081     0.820438     0.812795     0.805152     0.797508
      0.789865     0.782222     0.774579     0.766936     0.759293     0.751650     0.744007     0.736364     0.728721     0.721077
      0.713434     0.705791     0.698148     0.690505     0.682862     0.675219     0.667576     0.659933     0.652290     0.644646
      0.637003     0.629360     0.621717     0.614074     0.606431     0.598788     0.591145     0.583502     0.575858     0.568215
      0.560572     0.552929     0.545286     0.537643     0.530000     0.522357     0.514714     0.507071     0.499427     0.491784
      0.484141     0.476498     0.468855     0.461212     0.453569     0.445925     0.438282     0.430639     0.422996     0.415353
      0.407710     0.400067     0.392424     0.384780     0.377137     0.369494     0.361851     0.354208     0.346565     0.338922
      0.331278     0.323635     0.315992     0.308349     0.300706     0.293063     0.285420     0.277777     0.270133     0.262490
      0.254847     0.247204     0.239561     0.231918     0.224275     0.216631     0.208988     0.201345
 NY phased data points follow
   1.11616E+02  1.07701E+02  1.09799E+02  1.08088E+02  1.08686E+02  1.05552E+02  1.05394E+02  1.03003E+02  1.03447E+02  1.03352E+02
   9.87781E+01  9.98136E+01  9.75485E+01  9.75582E+01  9.57277E+01  9.57195E+01  9.41841E+01  9.23040E+01  8.88985E+01  8.92235E+01
   9.16885E+01  8.95879E+01  8.56036E+01  8.33656E+01  8.62462E+01  8.35653E+01  8.16690E+01  8.43260E+01  8.25494E+01  8.18392E+01
   8.03673E+01  8.09379E+01  7.89510E+01  7.86649E+01  7.55011E+01  7.97902E+01  7.68811E+01  7.76607E+01  7.62913E+01  7.58325E+01
   7.49187E+01  7.25362E+01  7.53132E+01  7.35314E+01  7.28698E+01  7.24614E+01  7.00453E+01  7.04004E+01  6.85010E+01  6.69777E+01
   6.88973E+01  6.54397E+01  6.79442E+01  6.62396E+01  6.62580E+01  6.75962E+01  6.50624E+01  6.41292E+01  6.56514E+01  6.15815E+01
   6.16506E+01  6.04176E+01  6.08047E+01  5.90702E+01  5.93035E+01  5.91448E+01  5.78648E+01  5.74596E+01  5.75992E+01  5.84466E+01
   5.47552E+01  5.74990E+01  5.59311E+01  5.55955E+01  5.55326E+01  5.52239E+01  5.46590E+01  5.50052E+01  5.24376E+01  5.36976E+01
   5.27209E+01  5.18832E+01  5.20036E+01  5.02064E+01  5.02791E+01  4.95274E+01  4.94132E+01  4.95448E+01  5.11478E+01  4.72384E+01
   4.79891E+01  4.81266E+01  4.78032E+01  4.68585E+01  4.77675E+01  4.59644E+01  4.52021E+01  4.52847E+01  4.66553E+01  4.54331E+01
   4.67052E+01  4.70912E+01  4.67052E+01  4.78873E+01  4.43779E+01  4.62258E+01  4.58249E+01  4.37917E+01  4.56299E+01  4.50353E+01
   4.31914E+01  4.19180E+01  4.44617E+01  4.16991E+01  4.41535E+01  4.38342E+01  4.06622E+01  4.29567E+01  4.15210E+01  4.08394E+01
   4.21156E+01  4.29799E+01  4.25381E+01  4.25051E+01  4.31296E+01  4.26554E+01  4.51022E+01  4.35852E+01  4.28693E+01  4.10988E+01
   4.21214E+01  4.22768E+01  4.16090E+01  4.02992E+01  3.73842E+01  3.95101E+01  3.91507E+01  3.81442E+01  3.84002E+01  3.75099E+01
   4.10054E+01  3.92415E+01  3.80646E+01  3.62080E+01  3.98319E+01  3.76637E+01  3.60788E+01  3.67138E+01  3.75339E+01  3.66088E+01
   3.58642E+01  3.51290E+01  3.51408E+01  3.73699E+01  3.48765E+01  3.64224E+01  3.70125E+01  3.46613E+01  3.70274E+01  3.45009E+01
   3.71309E+01  3.66188E+01  3.62764E+01  3.59867E+01  3.43629E+01  3.66455E+01  3.46385E+01  3.24662E+01  3.39193E+01  3.17488E+01
   3.34659E+01  3.12141E+01  3.27281E+01  3.14144E+01  3.32665E+01  3.01046E+01  3.22864E+01  3.19518E+01  3.12562E+01  3.11408E+01
   3.16658E+01  3.25373E+01  3.07500E+01  3.33233E+01  3.22300E+01  3.07721E+01  3.07527E+01  2.99405E+01  3.15187E+01  3.16137E+01
   2.84439E+01  3.00198E+01  2.84918E+01  2.63182E+01  2.95999E+01  2.92866E+01  2.77857E+01  2.85551E+01  2.84380E+01  2.65119E+01
   2.75582E+01  2.87225E+01  2.68603E+01  2.78800E+01  2.84797E+01  2.71480E+01  2.60377E+01  2.58090E+01  2.59572E+01  2.84007E+01
   2.84000E+01  2.44388E+01  2.63497E+01  2.59235E+01  2.41749E+01  2.33594E+01  2.68237E+01  2.49125E+01  2.49542E+01  2.55958E+01
   2.68809E+01  2.54680E+01  2.54367E+01  2.41898E+01  2.71635E+01  2.60189E+01  2.36745E+01  2.49457E+01  2.55083E+01  2.70907E+01
   2.67454E+01  2.51273E+01  2.78588E+01  2.49151E+01  2.50857E+01  2.67841E+01  2.27947E+01  2.45623E+01  2.64479E+01  2.27270E+01
   2.47147E+01  2.37757E+01  2.27474E+01  2.53815E+01  2.27124E+01  2.26133E+01  2.25079E+01  2.34172E+01  2.33610E+01  2.37569E+01
   2.16059E+01  2.32144E+01  2.14155E+01  2.31639E+01  2.07632E+01  1.87586E+01  2.13508E+01  2.09318E+01  2.18455E+01  2.19114E+01
   2.13497E+01  2.02755E+01  2.07126E+01  1.90405E+01  2.12436E+01  1.83909E+01  2.11124E+01  1.84254E+01  1.85969E+01  2.02367E+01
   1.80545E+01  2.21555E+01  1.88151E+01  2.13156E+01  1.87928E+01  2.01056E+01  1.88701E+01  1.81018E+01  1.97370E+01  1.72460E+01
   1.87792E+01  1.58699E+01  1.89507E+01  2.00237E+01  1.66108E+01  1.75366E+01  1.84923E+01  1.47822E+01  1.58718E+01  1.55879E+01
   1.66909E+01  1.66720E+01  1.88790E+01  1.46949E+01  1.82898E+01  1.77689E+01  1.78342E+01  1.95586E+01  1.83496E+01  1.84471E+01
   1.58480E+01  1.76787E+01  1.70603E+01  1.66851E+01  1.72168E+01  1.64677E+01  1.57503E+01  1.94226E+01  1.83649E+01  1.63913E+01
   1.60013E+01  1.75028E+01  1.71128E+01  1.61392E+01  1.42693E+01  1.33872E+01  1.66959E+01  1.69910E+01  1.55186E+01  1.55764E+01
   1.73723E+01  1.42175E+01  1.48263E+01  1.61682E+01  1.46410E+01  1.25303E+01  1.52730E+01  1.46792E+01  1.35042E+01  1.31199E+01
   1.52831E+01  1.25525E+01  1.58576E+01  1.35245E+01  1.37197E+01  1.51613E+01  1.52430E+01  1.20737E+01  1.57208E+01  1.45852E+01
   1.29184E+01  1.23016E+01  1.31959E+01  1.29377E+01  1.45522E+01  1.28394E+01  1.22404E+01  1.44491E+01  1.36967E+01  1.33461E+01
   1.21041E+01  1.14134E+01  1.10485E+01  1.01749E+01  1.17042E+01  1.20705E+01  1.00042E+01  1.13412E+01  1.03489E+01  1.21897E+01
   1.17276E+01  1.01521E+01  1.21315E+01  1.20284E+01  1.12124E+01  1.19716E+01  1.13284E+01  1.18019E+01  1.05945E+01  1.11241E+01
   8.25589E+00  1.03988E+01  1.04038E+01  9.93044E+00  1.11610E+01  1.03176E+01  9.31263E+00  9.27660E+00  1.07375E+01  9.47347E+00
   7.52628E+00  8.83460E+00  1.04423E+01  7.88472E+00  7.02150E+00  6.61427E+00  9.89663E+00  7.67747E+00  6.95786E+00  7.84089E+00
   9.50321E+00  7.89292E+00  1.00576E+01  9.85017E+00  8.84496E+00  8.98545E+00  1.09236E+01  9.35285E+00  7.75510E+00  6.11760E+00
   9.12091E+00  6.38305E+00  7.06939E+00  5.93538E+00  5.38014E+00  9.26698E+00  3.60173E+00  7.29670E+00  5.19214E+00  8.36039E+00
   7.16470E+00  7.75061E+00  6.52928E+00  5.96210E+00  6.77881E+00  7.72279E+00  6.47029E+00  4.82626E+00  4.90227E+00  6.06069E+00
   7.40688E+00  6.59176E+00  5.53289E+00  5.19724E+00  4.60392E+00  5.85031E+00  6.25425E+00  4.26839E+00  4.06625E+00  3.93525E+00
   5.35972E+00  3.23604E+00  5.97770E+00  3.79716E+00  4.55325E+00  6.11694E+00  3.75094E+00  3.88449E+00  3.20544E+00  5.52197E+00
   5.07952E+00  2.53440E+00  3.17540E+00  4.54283E+00  2.83940E+00  6.50665E+00  7.08009E+00  4.99960E+00  3.48845E+00  5.42908E+00
   3.38257E+00  4.73091E+00  2.46411E+00  2.35363E+00  5.32221E+00  3.32544E+00  4.92143E+00  3.67237E+00  5.65855E+00  4.11389E+00
   3.19122E+00  4.59980E+00  4.90878E+00  4.91871E+00  3.89069E+00  5.75718E+00  1.27608E+00  2.47920E+00  1.85908E+00  2.37556E+00
   3.37496E+00  3.25465E+00  2.64372E+00  1.75930E+00  1.40748E+00  2.53764E+00  1.60321E+00  4.38360E+00  2.44322E+00  2.25287E+00
   3.06960E+00  3.22425E+00  3.16076E+00  2.70443E+00  3.20460E+00  2.32411E+00  3.71038E+00  3.72832E+00  2.05850E+00  7.83283E-01
   1.13223E-01  7.85530E-01  1.61841E+00  1.76373E+00  2.40452E+00  3.26157E+00  1.49550E+00  3.72562E+00
 NY points of the fit to the data follow
   1.06485E+02  1.05855E+02  1.05467E+02  1.05177E+02  1.04838E+02  1.04381E+02  1.03794E+02  1.03091E+02  1.02277E+02  1.01348E+02
   1.00328E+02  9.92517E+01  9.81390E+01  9.69784E+01  9.57550E+01  9.44930E+01  9.32817E+01  9.22474E+01  9.14058E+01  9.06175E+01
   8.98266E+01  8.90255E+01  8.82165E+01  8.74031E+01  8.65874E+01  8.57694E+01  8.49609E+01  8.41743E+01  8.34110E+01  8.26649E+01
   8.19308E+01  8.12093E+01  8.05026E+01  7.98062E+01  7.91080E+01  7.83986E+01  7.76839E+01  7.69705E+01  7.62566E+01  7.55417E+01
   7.48319E+01  7.41360E+01  7.34604E+01  7.27991E+01  7.21421E+01  7.14881E+01  7.08394E+01  7.01966E+01  6.95557E+01  6.89123E+01
   6.82664E+01  6.76234E+01  6.69874E+01  6.63589E+01  6.57383E+01  6.51308E+01  6.45391E+01  6.39606E+01  6.33900E+01  6.28245E+01
   6.22639E+01  6.17086E+01  6.11596E+01  6.06178E+01  6.00835E+01  5.95584E+01  5.90414E+01  5.85317E+01  5.80321E+01  5.75447E+01
   5.70676E+01  5.65976E+01  5.61316E+01  5.56681E+01  5.52078E+01  5.47524E+01  5.43036E+01  5.38617E+01  5.34276E+01  5.30033E+01
   5.25870E+01  5.21758E+01  5.17674E+01  5.13637E+01  5.09686E+01  5.05844E+01  5.02100E+01  4.98444E+01  4.94874E+01  4.91402E+01
   4.88030E+01  4.84758E+01  4.81590E+01  4.78540E+01  4.75667E+01  4.73180E+01  4.71628E+01  4.70871E+01  4.70203E+01  4.69171E+01
   4.67638E+01  4.65652E+01  4.63267E+01  4.60477E+01  4.57316E+01  4.53941E+01  4.50493E+01  4.46970E+01  4.43275E+01  4.39381E+01
   4.35506E+01  4.32125E+01  4.29640E+01  4.27712E+01  4.25954E+01  4.24327E+01  4.22867E+01  4.21699E+01  4.21307E+01  4.23532E+01
   4.29028E+01  4.35361E+01  4.40485E+01  4.43590E+01  4.44712E+01  4.44096E+01  4.41794E+01  4.37831E+01  4.32647E+01  4.26846E+01
   4.20577E+01  4.13547E+01  4.05561E+01  3.97159E+01  3.89842E+01  3.85329E+01  3.83157E+01  3.81503E+01  3.79922E+01  3.78367E+01
   3.76822E+01  3.75271E+01  3.73705E+01  3.72124E+01  3.70531E+01  3.68931E+01  3.67322E+01  3.65708E+01  3.64099E+01  3.62495E+01
   3.60894E+01  3.59291E+01  3.57685E+01  3.56080E+01  3.54480E+01  3.52891E+01  3.51310E+01  3.49730E+01  3.48153E+01  3.46580E+01
   3.45019E+01  3.43471E+01  3.41932E+01  3.40399E+01  3.38870E+01  3.37345E+01  3.35822E+01  3.34298E+01  3.32773E+01  3.31243E+01
   3.29713E+01  3.28181E+01  3.26645E+01  3.25103E+01  3.23556E+01  3.22008E+01  3.20466E+01  3.18931E+01  3.17407E+01  3.15890E+01
   3.14376E+01  3.12862E+01  3.11348E+01  3.09834E+01  3.08321E+01  3.06804E+01  3.05281E+01  3.03756E+01  3.02235E+01  3.00720E+01
   2.99211E+01  2.97707E+01  2.96209E+01  2.94722E+01  2.93248E+01  2.91781E+01  2.90322E+01  2.88869E+01  2.87424E+01  2.85987E+01
   2.84555E+01  2.83126E+01  2.81699E+01  2.80278E+01  2.78868E+01  2.77466E+01  2.76075E+01  2.74694E+01  2.73321E+01  2.71954E+01
   2.70589E+01  2.69228E+01  2.67874E+01  2.66535E+01  2.65212E+01  2.63911E+01  2.62644E+01  2.61416E+01  2.60221E+01  2.59036E+01
   2.57847E+01  2.56645E+01  2.55425E+01  2.54181E+01  2.52912E+01  2.51636E+01  2.50381E+01  2.49158E+01  2.47965E+01  2.46796E+01
   2.45651E+01  2.44538E+01  2.43468E+01  2.42442E+01  2.41450E+01  2.40484E+01  2.39539E+01  2.38609E+01  2.37678E+01  2.36733E+01
   2.35777E+01  2.34821E+01  2.33871E+01  2.32917E+01  2.31951E+01  2.30963E+01  2.29947E+01  2.28894E+01  2.27798E+01  2.26656E+01
   2.25464E+01  2.24219E+01  2.22921E+01  2.21572E+01  2.20177E+01  2.18745E+01  2.17283E+01  2.15802E+01  2.14307E+01  2.12800E+01
   2.11286E+01  2.09768E+01  2.08249E+01  2.06728E+01  2.05212E+01  2.03713E+01  2.02238E+01  2.00794E+01  1.99382E+01  1.98005E+01
   1.96668E+01  1.95368E+01  1.94098E+01  1.92859E+01  1.91646E+01  1.90458E+01  1.89293E+01  1.88151E+01  1.87031E+01  1.85936E+01
   1.84872E+01  1.83842E+01  1.82848E+01  1.81892E+01  1.80977E+01  1.80107E+01  1.79278E+01  1.78485E+01  1.77725E+01  1.76996E+01
   1.76296E+01  1.75619E+01  1.74963E+01  1.74324E+01  1.73701E+01  1.73091E+01  1.72486E+01  1.71882E+01  1.71271E+01  1.70647E+01
   1.70002E+01  1.69331E+01  1.68628E+01  1.67889E+01  1.67112E+01  1.66296E+01  1.65443E+01  1.64556E+01  1.63641E+01  1.62705E+01
   1.61755E+01  1.60802E+01  1.59857E+01  1.58932E+01  1.58041E+01  1.57199E+01  1.56428E+01  1.55757E+01  1.55241E+01  1.55000E+01
   1.55115E+01  1.55005E+01  1.54173E+01  1.52625E+01  1.50572E+01  1.48202E+01  1.45595E+01  1.42844E+01  1.40593E+01  1.39345E+01
   1.38890E+01  1.38800E+01  1.38791E+01  1.38853E+01  1.39158E+01  1.39797E+01  1.40534E+01  1.40843E+01  1.40662E+01  1.40126E+01
   1.39203E+01  1.37779E+01  1.35845E+01  1.33680E+01  1.31816E+01  1.30339E+01  1.29031E+01  1.27802E+01  1.26619E+01  1.25465E+01
   1.24329E+01  1.23205E+01  1.22088E+01  1.20974E+01  1.19859E+01  1.18740E+01  1.17614E+01  1.16481E+01  1.15338E+01  1.14185E+01
   1.13021E+01  1.11848E+01  1.10666E+01  1.09477E+01  1.08282E+01  1.07086E+01  1.05891E+01  1.04699E+01  1.03515E+01  1.02342E+01
   1.01184E+01  1.00044E+01  9.89252E+00  9.78313E+00  9.67653E+00  9.57304E+00  9.47293E+00  9.37648E+00  9.28393E+00  9.19550E+00
   9.11140E+00  9.03183E+00  8.95692E+00  8.88678E+00  8.82145E+00  8.76091E+00  8.70506E+00  8.65369E+00  8.60647E+00  8.56291E+00
   8.52240E+00  8.48417E+00  8.44730E+00  8.41072E+00  8.37325E+00  8.33363E+00  8.29055E+00  8.24273E+00  8.18894E+00  8.12810E+00
   8.05931E+00  7.98191E+00  7.89553E+00  7.80012E+00  7.69594E+00  7.58356E+00  7.46385E+00  7.33793E+00  7.20709E+00  7.07274E+00
   6.93632E+00  6.79930E+00  6.66306E+00  6.52889E+00  6.39791E+00  6.27104E+00  6.14901E+00  6.03234E+00  5.92134E+00  5.81614E+00
   5.71673E+00  5.62295E+00  5.53453E+00  5.45114E+00  5.37239E+00  5.29788E+00  5.22720E+00  5.15994E+00  5.09571E+00  5.03415E+00
   4.97493E+00  4.91776E+00  4.86238E+00  4.80856E+00  4.75610E+00  4.70482E+00  4.65457E+00  4.60523E+00  4.55668E+00  4.50883E+00
   4.46157E+00  4.41485E+00  4.36858E+00  4.32272E+00  4.27721E+00  4.23198E+00  4.18701E+00  4.14223E+00  4.09763E+00  4.05315E+00
   4.00875E+00  3.96441E+00  3.92009E+00  3.87577E+00  3.83143E+00  3.78709E+00  3.74273E+00  3.69835E+00  3.65397E+00  3.60958E+00
   3.56517E+00  3.52076E+00  3.47634E+00  3.43191E+00  3.38748E+00  3.34305E+00  3.29862E+00  3.25419E+00  3.20977E+00  3.16535E+00
   3.12095E+00  3.07657E+00  3.03220E+00  2.98785E+00  2.94352E+00  2.89921E+00  2.85494E+00  2.81070E+00  2.76650E+00  2.72233E+00
   2.67821E+00  2.63413E+00  2.59010E+00  2.54613E+00  2.50221E+00  2.45834E+00  2.41455E+00  2.37082E+00  2.32716E+00  2.28357E+00
   2.24007E+00  2.19665E+00  2.15331E+00  2.11007E+00  2.06692E+00  2.02388E+00  1.98094E+00  1.93812E+00
 NY background values follow
     1.061E+02    1.052E+02    1.044E+02    1.036E+02    1.027E+02    1.019E+02    1.011E+02    1.002E+02    9.942E+01    9.859E+01
     9.777E+01    9.695E+01    9.613E+01    9.531E+01    9.449E+01    9.368E+01    9.287E+01    9.206E+01    9.126E+01    9.046E+01
     8.966E+01    8.887E+01    8.808E+01    8.729E+01    8.651E+01    8.573E+01    8.496E+01    8.419E+01    8.342E+01    8.266E+01
     8.190E+01    8.115E+01    8.041E+01    7.967E+01    7.893E+01    7.820E+01    7.748E+01    7.676E+01    7.605E+01    7.534E+01
     7.464E+01    7.395E+01    7.326E+01    7.258E+01    7.191E+01    7.124E+01    7.058E+01    6.993E+01    6.928E+01    6.864E+01
     6.801E+01    6.738E+01    6.677E+01    6.616E+01    6.555E+01    6.496E+01    6.437E+01    6.379E+01    6.321E+01    6.264E+01
     6.208E+01    6.153E+01    6.098E+01    6.044E+01    5.991E+01    5.939E+01    5.887E+01    5.836E+01    5.786E+01    5.736E+01
     5.687E+01    5.639E+01    5.592E+01    5.545E+01    5.499E+01    5.454E+01    5.409E+01    5.365E+01    5.322E+01    5.280E+01
     5.238E+01    5.197E+01    5.157E+01    5.117E+01    5.079E+01    5.041E+01    5.003E+01    4.967E+01    4.931E+01    4.896E+01
     4.861E+01    4.828E+01    4.795E+01    4.763E+01    4.731E+01    4.700E+01    4.670E+01    4.640E+01    4.611E+01    4.583E+01
     4.555E+01    4.528E+01    4.502E+01    4.476E+01    4.450E+01    4.425E+01    4.401E+01    4.377E+01    4.353E+01    4.330E+01
     4.308E+01    4.285E+01    4.264E+01    4.242E+01    4.221E+01    4.201E+01    4.180E+01    4.161E+01    4.141E+01    4.122E+01
     4.103E+01    4.084E+01    4.066E+01    4.047E+01    4.029E+01    4.012E+01    3.994E+01    3.977E+01    3.960E+01    3.943E+01
     3.926E+01    3.909E+01    3.892E+01    3.876E+01    3.859E+01    3.843E+01    3.827E+01    3.810E+01    3.794E+01    3.778E+01
     3.762E+01    3.746E+01    3.730E+01    3.714E+01    3.697E+01    3.682E+01    3.666E+01    3.650E+01    3.634E+01    3.618E+01
     3.602E+01    3.586E+01    3.571E+01    3.555E+01    3.539E+01    3.523E+01    3.508E+01    3.492E+01    3.476E+01    3.461E+01
     3.445E+01    3.430E+01    3.414E+01    3.399E+01    3.383E+01    3.368E+01    3.352E+01    3.337E+01    3.321E+01    3.306E+01
     3.290E+01    3.275E+01    3.260E+01    3.244E+01    3.229E+01    3.213E+01    3.198E+01    3.183E+01    3.167E+01    3.152E+01
     3.137E+01    3.121E+01    3.106E+01    3.090E+01    3.075E+01    3.060E+01    3.044E+01    3.029E+01    3.014E+01    2.998E+01
     2.983E+01    2.968E+01    2.952E+01    2.937E+01    2.922E+01    2.906E+01    2.891E+01    2.876E+01    2.861E+01    2.846E+01
     2.831E+01    2.815E+01    2.800E+01    2.785E+01    2.770E+01    2.755E+01    2.740E+01    2.726E+01    2.711E+01    2.696E+01
     2.681E+01    2.666E+01    2.652E+01    2.637E+01    2.623E+01    2.608E+01    2.594E+01    2.579E+01    2.565E+01    2.551E+01
     2.536E+01    2.522E+01    2.508E+01    2.494E+01    2.480E+01    2.466E+01    2.452E+01    2.439E+01    2.425E+01    2.411E+01
     2.398E+01    2.384E+01    2.371E+01    2.357E+01    2.344E+01    2.331E+01    2.318E+01    2.305E+01    2.292E+01    2.279E+01
     2.266E+01    2.253E+01    2.241E+01    2.228E+01    2.216E+01    2.203E+01    2.191E+01    2.179E+01    2.166E+01    2.154E+01
     2.142E+01    2.130E+01    2.118E+01    2.107E+01    2.095E+01    2.083E+01    2.072E+01    2.060E+01    2.049E+01    2.037E+01
     2.026E+01    2.015E+01    2.004E+01    1.993E+01    1.982E+01    1.971E+01    1.960E+01    1.950E+01    1.939E+01    1.929E+01
     1.918E+01    1.908E+01    1.897E+01    1.887E+01    1.877E+01    1.867E+01    1.857E+01    1.847E+01    1.838E+01    1.828E+01
     1.818E+01    1.809E+01    1.799E+01    1.790E+01    1.780E+01    1.771E+01    1.761E+01    1.752E+01    1.743E+01    1.734E+01
     1.724E+01    1.715E+01    1.706E+01    1.697E+01    1.688E+01    1.679E+01    1.670E+01    1.661E+01    1.652E+01    1.643E+01
     1.634E+01    1.625E+01    1.616E+01    1.607E+01    1.599E+01    1.590E+01    1.581E+01    1.572E+01    1.563E+01    1.554E+01
     1.545E+01    1.536E+01    1.527E+01    1.518E+01    1.509E+01    1.500E+01    1.491E+01    1.481E+01    1.472E+01    1.463E+01
     1.454E+01    1.445E+01    1.435E+01    1.426E+01    1.417E+01    1.407E+01    1.398E+01    1.388E+01    1.379E+01    1.369E+01
     1.360E+01    1.350E+01    1.341E+01    1.331E+01    1.322E+01    1.312E+01    1.302E+01    1.293E+01    1.283E+01    1.273E+01
     1.264E+01    1.254E+01    1.244E+01    1.234E+01    1.225E+01    1.215E+01    1.205E+01    1.195E+01    1.185E+01    1.176E+01
     1.166E+01    1.156E+01    1.146E+01    1.136E+01    1.126E+01    1.117E+01    1.107E+01    1.097E+01    1.087E+01    1.077E+01
     1.067E+01    1.058E+01    1.048E+01    1.038E+01    1.028E+01    1.018E+01    1.008E+01    9.985E+00    9.887E+00    9.789E+00
     9.692E+00    9.594E+00    9.497E+00    9.401E+00    9.304E+00    9.208E+00    9.113E+00    9.017E+00    8.922E+00    8.828E+00
     8.734E+00    8.641E+00    8.548E+00    8.456E+00    8.364E+00    8.273E+00    8.182E+00    8.092E+00    8.003E+00    7.915E+00
     7.827E+00    7.740E+00    7.654E+00    7.569E+00    7.484E+00    7.401E+00    7.318E+00    7.236E+00    7.156E+00    7.076E+00
     6.997E+00    6.919E+00    6.842E+00    6.767E+00    6.692E+00    6.618E+00    6.546E+00    6.475E+00    6.405E+00    6.336E+00
     6.269E+00    6.202E+00    6.136E+00    6.072E+00    6.009E+00    5.946E+00    5.885E+00    5.824E+00    5.764E+00    5.706E+00
     5.648E+00    5.591E+00    5.534E+00    5.479E+00    5.424E+00    5.370E+00    5.316E+00    5.264E+00    5.212E+00    5.160E+00
     5.109E+00    5.059E+00    5.009E+00    4.960E+00    4.911E+00    4.862E+00    4.814E+00    4.767E+00    4.719E+00    4.672E+00
     4.626E+00    4.579E+00    4.533E+00    4.487E+00    4.442E+00    4.396E+00    4.351E+00    4.305E+00    4.260E+00    4.215E+00
     4.170E+00    4.125E+00    4.080E+00    4.035E+00    3.989E+00    3.944E+00    3.899E+00    3.854E+00    3.808E+00    3.763E+00
     3.718E+00    3.672E+00    3.627E+00    3.582E+00    3.536E+00    3.491E+00    3.446E+00    3.400E+00    3.355E+00    3.310E+00
     3.264E+00    3.219E+00    3.174E+00    3.128E+00    3.083E+00    3.038E+00    2.993E+00    2.948E+00    2.903E+00    2.857E+00
     2.812E+00    2.768E+00    2.723E+00    2.678E+00    2.633E+00    2.588E+00    2.544E+00    2.499E+00    2.454E+00    2.410E+00
     2.366E+00    2.321E+00    2.277E+00    2.233E+00    2.189E+00    2.145E+00    2.101E+00    2.057E+00
 Ala      Conc. = 7.10E+01
