 LCModel (Version 6.3-1L) Copyright: S.W. Provencher.          Ref.: Magn. Reson. Med. 30:672-679 (1993).                
 Slice#2 Row#10 Col#1  K_02_press_1_raw_act
 36 lines in following concentration table = NCONC+1
    Conc.  %SD /Cr+PCr  Metabolite                                         
    0.000 999%   0.000 Ala                                                 
    6.616 246% 4.8E-02 Asp                                                 
    0.000 999%   0.000 Cr                                                  
  138.411  14%   1.000 PCr                                                 
    5.902 165% 4.3E-02 GABA                                                
    5.782 169% 4.2E-02 Glc                                                 
    5.630 999% 4.1E-02 Gln                                                 
    0.000 999%   0.000 Glu                                                 
   29.275  25%   0.212 GPC                                                 
    0.000 999%   0.000 PCh                                                 
    0.000 999%   0.000 GSH                                                 
  151.446  67%   1.094 Ins                                                 
   69.427  67%   0.502 Lac                                                 
   23.052  93%   0.167 NAA                                                 
    0.000 999%   0.000 NAAG                                                
    2.571 124% 1.9E-02 Scyllo                                              
    7.703 211% 5.6E-02 Tau                                                 
    0.000 999%   0.000 -CrCH2                                              
   29.275  25%   0.212 GPC+PCh                                             
   23.052  93%   0.167 NAA+NAAG                                            
  138.411  14%   1.000 Cr+PCr                                              
    5.630 999% 4.1E-02 Glu+Gln                                             
  316.861  93%   2.289 Lip13a                                              
   21.192 501%   0.153 Lip13b                                              
   81.439  91%   0.588 Lip09                                               
   19.986 316%   0.144 MM09                                                
   66.890  71%   0.483 Lip20                                               
    8.654 999% 6.3E-02 MM20                                                
    8.745 312% 6.3E-02 MM12                                                
    0.000 999%   0.000 MM14                                                
   59.695  91%   0.431 MM17                                                
  338.053  62%   2.442 Lip13a+Lip13b                                       
  346.798  60%   2.506 MM14+Lip13a+Lip13b+MM12                             
  101.425  77%   0.733 MM09+Lip09                                          
   75.544 143%   0.546 MM20+Lip20                                          
   6 lines in following misc. output table
  FWHM = 0.061 ppm    S/N =   1                                            
  Data shift = 0.015 ppm                                                   
  Ph: 144 deg      27.3 deg/ppm                                            
  alphaB,S = 6.8E-01,   4.5E+01                                            
   14 spline knots.   Ns = 5(1)                                            
  ( 7) 4 infls.   ( 7) 1 extrs.                                            
  498 points on ppm-axis = NY
      4.000000     3.992357     3.984714     3.977070     3.969427     3.961784     3.954141     3.946497     3.938854     3.931211
      3.923568     3.915925     3.908281     3.900638     3.892995     3.885352     3.877708     3.870065     3.862422     3.854779
      3.847136     3.839492     3.831849     3.824206     3.816563     3.808919     3.801276     3.793633     3.785990     3.778347
      3.770703     3.763060     3.755417     3.747774     3.740130     3.732487     3.724844     3.717201     3.709558     3.701914
      3.694271     3.686628     3.678985     3.671341     3.663698     3.656055     3.648412     3.640769     3.633125     3.625482
      3.617839     3.610196     3.602552     3.594909     3.587266     3.579623     3.571980     3.564336     3.556693     3.549050
      3.541407     3.533763     3.526120     3.518477     3.510834     3.503191     3.495547     3.487904     3.480261     3.472618
      3.464974     3.457331     3.449688     3.442045     3.434402     3.426758     3.419115     3.411472     3.403829     3.396185
      3.388542     3.380899     3.373256     3.365613     3.357969     3.350326     3.342683     3.335040     3.327396     3.319753
      3.312110     3.304467     3.296824     3.289180     3.281537     3.273894     3.266251     3.258607     3.250964     3.243321
      3.235678     3.228034     3.220391     3.212748     3.205105     3.197462     3.189818     3.182175     3.174532     3.166889
      3.159245     3.151602     3.143959     3.136316     3.128673     3.121029     3.113386     3.105743     3.098100     3.090456
      3.082813     3.075170     3.067527     3.059884     3.052240     3.044597     3.036954     3.029311     3.021667     3.014024
      3.006381     2.998738     2.991095     2.983451     2.975808     2.968165     2.960522     2.952878     2.945235     2.937592
      2.929949     2.922306     2.914662     2.907019     2.899376     2.891733     2.884089     2.876446     2.868803     2.861160
      2.853517     2.845873     2.838230     2.830587     2.822944     2.815300     2.807657     2.800014     2.792371     2.784728
      2.777084     2.769441     2.761798     2.754155     2.746511     2.738868     2.731225     2.723582     2.715939     2.708295
      2.700652     2.693009     2.685366     2.677722     2.670079     2.662436     2.654793     2.647150     2.639506     2.631863
      2.624220     2.616577     2.608933     2.601290     2.593647     2.586004     2.578361     2.570717     2.563074     2.555431
      2.547788     2.540144     2.532501     2.524858     2.517215     2.509572     2.501928     2.494285     2.486642     2.478999
      2.471355     2.463712     2.456069     2.448426     2.440783     2.433139     2.425496     2.417853     2.410210     2.402566
      2.394923     2.387280     2.379637     2.371994     2.364350     2.356707     2.349064     2.341421     2.333777     2.326134
      2.318491     2.310848     2.303205     2.295561     2.287918     2.280275     2.272632     2.264988     2.257345     2.249702
      2.242059     2.234416     2.226772     2.219129     2.211486     2.203843     2.196199     2.188556     2.180913     2.173270
      2.165627     2.157983     2.150340     2.142697     2.135054     2.127410     2.119767     2.112124     2.104481     2.096838
      2.089194     2.081551     2.073908     2.066265     2.058621     2.050978     2.043335     2.035692     2.028049     2.020405
      2.012762     2.005119     1.997476     1.989833     1.982190     1.974546     1.966903     1.959260     1.951617     1.943974
      1.936331     1.928688     1.921045     1.913402     1.905759     1.898115     1.890472     1.882829     1.875186     1.867543
      1.859900     1.852257     1.844614     1.836971     1.829327     1.821684     1.814041     1.806398     1.798755     1.791112
      1.783469     1.775826     1.768183     1.760540     1.752896     1.745253     1.737610     1.729967     1.722324     1.714681
      1.707038     1.699395     1.691752     1.684108     1.676465     1.668822     1.661179     1.653536     1.645893     1.638250
      1.630607     1.622964     1.615321     1.607677     1.600034     1.592391     1.584748     1.577105     1.569462     1.561819
      1.554176     1.546533     1.538890     1.531246     1.523603     1.515960     1.508317     1.500674     1.493031     1.485388
      1.477745     1.470102     1.462458     1.454815     1.447172     1.439529     1.431886     1.424243     1.416600     1.408957
      1.401314     1.393671     1.386027     1.378384     1.370741     1.363098     1.355455     1.347812     1.340169     1.332526
      1.324883     1.317240     1.309596     1.301953     1.294310     1.286667     1.279024     1.271381     1.263738     1.256095
      1.248452     1.240808     1.233165     1.225522     1.217879     1.210236     1.202593     1.194950     1.187307     1.179664
      1.172021     1.164377     1.156734     1.149091     1.141448     1.133805     1.126162     1.118519     1.110876     1.103233
      1.095590     1.087946     1.080303     1.072660     1.065017     1.057374     1.049731     1.042088     1.034445     1.026802
      1.019158     1.011515     1.003872     0.996229     0.988586     0.980943     0.973300     0.965657     0.958014     0.950371
      0.942727     0.935084     0.927441     0.919798     0.912155     0.904512     0.896869     0.889226     0.881583     0.873940
      0.866296     0.858653     0.851010     0.843367     0.835724     0.828081     0.820438     0.812795     0.805152     0.797508
      0.789865     0.782222     0.774579     0.766936     0.759293     0.751650     0.744007     0.736364     0.728721     0.721077
      0.713434     0.705791     0.698148     0.690505     0.682862     0.675219     0.667576     0.659933     0.652290     0.644646
      0.637003     0.629360     0.621717     0.614074     0.606431     0.598788     0.591145     0.583502     0.575858     0.568215
      0.560572     0.552929     0.545286     0.537643     0.530000     0.522357     0.514714     0.507071     0.499427     0.491784
      0.484141     0.476498     0.468855     0.461212     0.453569     0.445925     0.438282     0.430639     0.422996     0.415353
      0.407710     0.400067     0.392424     0.384780     0.377137     0.369494     0.361851     0.354208     0.346565     0.338922
      0.331278     0.323635     0.315992     0.308349     0.300706     0.293063     0.285420     0.277777     0.270133     0.262490
      0.254847     0.247204     0.239561     0.231918     0.224275     0.216631     0.208988     0.201345
 NY phased data points follow
   1.43194E+02  1.43189E+02  1.43306E+02  1.41100E+02  1.40083E+02  1.38062E+02  1.38199E+02  1.34549E+02  1.33176E+02  1.32256E+02
   1.33237E+02  1.31836E+02  1.29307E+02  1.26928E+02  1.26383E+02  1.25697E+02  1.24941E+02  1.23173E+02  1.21336E+02  1.19625E+02
   1.17678E+02  1.16567E+02  1.17930E+02  1.17244E+02  1.15935E+02  1.12239E+02  1.15818E+02  1.13990E+02  1.12945E+02  1.10519E+02
   1.11394E+02  1.09427E+02  1.09473E+02  1.10821E+02  1.10701E+02  1.07910E+02  1.07275E+02  1.07443E+02  1.05867E+02  1.06816E+02
   1.07559E+02  1.03462E+02  1.03452E+02  1.04006E+02  1.02938E+02  1.01315E+02  9.95535E+01  1.00890E+02  9.81720E+01  1.00222E+02
   9.78368E+01  9.85565E+01  9.79177E+01  9.63451E+01  9.34132E+01  9.37358E+01  9.36582E+01  9.29931E+01  9.30549E+01  9.17611E+01
   9.08150E+01  8.89026E+01  8.88579E+01  8.62909E+01  8.86644E+01  8.48645E+01  8.52720E+01  8.60914E+01  8.46767E+01  8.48350E+01
   8.38675E+01  8.46711E+01  8.50441E+01  8.11650E+01  8.31718E+01  8.12110E+01  8.00468E+01  8.06944E+01  8.01226E+01  7.94373E+01
   7.68580E+01  7.92884E+01  7.76230E+01  8.00058E+01  7.55946E+01  7.63734E+01  7.56345E+01  7.49356E+01  7.53130E+01  7.58271E+01
   7.33944E+01  7.36092E+01  7.30263E+01  7.39837E+01  7.19078E+01  7.21138E+01  7.19240E+01  7.11470E+01  7.15155E+01  7.05697E+01
   7.26198E+01  7.09986E+01  7.32386E+01  7.30380E+01  6.99328E+01  7.03376E+01  7.02487E+01  6.80764E+01  6.76666E+01  6.74057E+01
   6.82240E+01  6.70611E+01  6.79896E+01  6.43276E+01  6.38600E+01  6.41585E+01  6.43371E+01  6.68758E+01  6.48055E+01  6.38940E+01
   6.59090E+01  6.70418E+01  6.55987E+01  6.53145E+01  6.57428E+01  6.42154E+01  6.53135E+01  6.54705E+01  6.43023E+01  6.18125E+01
   6.25321E+01  6.01621E+01  6.20357E+01  5.96341E+01  5.96623E+01  6.03497E+01  6.04860E+01  5.96208E+01  6.02082E+01  5.90116E+01
   5.83597E+01  5.74043E+01  5.71389E+01  5.68823E+01  5.60373E+01  5.81522E+01  5.57554E+01  5.70321E+01  5.60837E+01  5.56281E+01
   5.70942E+01  5.61928E+01  5.46220E+01  5.75402E+01  5.60149E+01  5.80476E+01  5.63552E+01  5.56218E+01  5.67805E+01  5.60517E+01
   5.62092E+01  5.51913E+01  5.31884E+01  5.52617E+01  5.34760E+01  5.47736E+01  5.03994E+01  5.41098E+01  5.15563E+01  5.30829E+01
   5.21687E+01  5.18898E+01  5.16977E+01  5.15223E+01  4.96344E+01  4.89367E+01  5.03809E+01  5.01192E+01  5.11872E+01  4.77637E+01
   4.80496E+01  4.79011E+01  4.74376E+01  4.67350E+01  4.81760E+01  4.78735E+01  4.93545E+01  4.67822E+01  4.64458E+01  4.76288E+01
   4.69609E+01  4.73233E+01  4.66337E+01  4.56753E+01  4.36433E+01  4.68739E+01  4.48031E+01  4.53050E+01  4.35579E+01  4.39193E+01
   4.66516E+01  4.49623E+01  4.36235E+01  4.58078E+01  4.44021E+01  4.47127E+01  4.43745E+01  4.58006E+01  4.29985E+01  4.25064E+01
   4.15192E+01  4.27567E+01  4.23146E+01  4.26101E+01  4.18502E+01  4.28000E+01  4.43629E+01  4.48936E+01  4.06825E+01  4.32554E+01
   4.14285E+01  4.00409E+01  4.22046E+01  4.09161E+01  4.10665E+01  4.21361E+01  4.02721E+01  4.00731E+01  4.06868E+01  4.05705E+01
   4.11996E+01  3.69197E+01  3.95558E+01  4.00623E+01  3.90721E+01  3.94797E+01  3.66363E+01  3.78189E+01  3.83181E+01  3.63701E+01
   3.63089E+01  3.76011E+01  3.54611E+01  3.62586E+01  3.81891E+01  3.60081E+01  3.81232E+01  3.64321E+01  3.70891E+01  3.68030E+01
   3.43055E+01  3.42013E+01  3.37452E+01  3.40150E+01  3.42676E+01  3.60837E+01  3.46340E+01  3.43976E+01  3.39010E+01  3.77184E+01
   3.59053E+01  3.64810E+01  3.19514E+01  3.27636E+01  3.02721E+01  3.12433E+01  3.19917E+01  3.13382E+01  3.38706E+01  3.10768E+01
   3.23762E+01  3.07629E+01  3.08077E+01  3.18668E+01  3.14498E+01  2.98830E+01  2.94979E+01  3.15519E+01  3.21642E+01  3.14065E+01
   3.14764E+01  2.89232E+01  2.85018E+01  2.93820E+01  2.78675E+01  2.81011E+01  2.77405E+01  2.93934E+01  2.86586E+01  2.90532E+01
   2.72286E+01  3.01366E+01  2.96729E+01  2.76692E+01  2.75296E+01  2.77897E+01  2.80588E+01  2.48833E+01  2.78126E+01  2.67366E+01
   2.71108E+01  2.62952E+01  3.00486E+01  2.72663E+01  2.74859E+01  2.59651E+01  2.43182E+01  2.54053E+01  2.59789E+01  2.55432E+01
   2.38836E+01  2.51327E+01  2.78670E+01  2.50703E+01  2.69515E+01  2.32490E+01  2.42495E+01  2.56239E+01  2.73442E+01  2.32329E+01
   2.21369E+01  2.36117E+01  2.32908E+01  2.30196E+01  2.08257E+01  2.34802E+01  2.19469E+01  2.37059E+01  2.17101E+01  2.12010E+01
   2.23733E+01  2.06617E+01  2.05514E+01  2.41119E+01  2.11332E+01  2.08051E+01  2.10163E+01  2.09200E+01  2.04048E+01  2.08478E+01
   1.98058E+01  2.01699E+01  2.06070E+01  2.10393E+01  2.20681E+01  2.11113E+01  2.05209E+01  2.00443E+01  1.89006E+01  2.15340E+01
   1.87548E+01  1.81116E+01  1.92628E+01  1.93651E+01  2.12721E+01  1.86874E+01  1.75947E+01  1.95365E+01  1.98554E+01  2.10129E+01
   2.07525E+01  1.94075E+01  2.07565E+01  1.86835E+01  1.99963E+01  1.78805E+01  1.76753E+01  1.82487E+01  1.92096E+01  1.75840E+01
   1.81308E+01  1.58681E+01  1.76635E+01  1.74803E+01  1.66629E+01  1.50752E+01  1.64420E+01  1.62368E+01  1.56208E+01  1.42953E+01
   1.45646E+01  1.54285E+01  1.45206E+01  1.61969E+01  1.49716E+01  1.53128E+01  1.51218E+01  1.53838E+01  1.46875E+01  1.38146E+01
   1.53972E+01  1.59727E+01  1.48162E+01  1.48714E+01  1.38899E+01  1.47638E+01  1.28675E+01  1.25732E+01  1.27999E+01  1.09749E+01
   1.26933E+01  1.24345E+01  1.55785E+01  1.02211E+01  1.42814E+01  1.23353E+01  1.18695E+01  1.21163E+01  1.26190E+01  1.12108E+01
   1.22024E+01  1.20074E+01  1.10438E+01  9.65144E+00  1.10867E+01  1.12077E+01  1.20084E+01  1.01545E+01  8.76288E+00  9.98031E+00
   1.02609E+01  9.39733E+00  1.01329E+01  9.19122E+00  7.62332E+00  7.00908E+00  7.23873E+00  9.23522E+00  5.99614E+00  1.03808E+01
   8.57523E+00  7.19143E+00  1.00362E+01  7.84907E+00  1.03942E+01  7.93304E+00  7.11747E+00  9.14581E+00  7.42772E+00  5.11663E+00
   9.08999E+00  9.01288E+00  8.76984E+00  7.48247E+00  7.13404E+00  4.97978E+00  7.38103E+00  5.19050E+00  7.61959E+00  8.92775E+00
   6.04037E+00  8.80576E+00  5.81991E+00  6.60666E+00  5.68395E+00  4.78888E+00  6.23684E+00  6.60548E+00  4.69493E+00  7.01720E+00
   6.48841E+00  4.56984E+00  4.30272E+00  3.56592E+00  4.52721E+00  5.30449E+00  6.16606E+00  4.15403E+00  4.55037E+00  3.93219E+00
   3.64061E+00  4.67641E+00  2.43117E+00  3.63307E+00  4.32350E+00  4.64797E+00  3.66161E+00  4.99092E+00  3.61713E+00  3.39479E+00
   5.07200E+00  3.84886E+00  5.60415E+00  4.42891E+00  3.38082E+00  1.66715E+00  9.79499E-01  2.89239E+00  3.27135E+00  4.83979E+00
   5.10975E+00  4.33413E+00  3.51057E+00  4.56234E+00  4.03990E+00  6.38955E+00  3.96561E+00  6.31454E+00
 NY points of the fit to the data follow
   1.39133E+02  1.38352E+02  1.38036E+02  1.38016E+02  1.37810E+02  1.37227E+02  1.36327E+02  1.35258E+02  1.34140E+02  1.32988E+02
   1.31731E+02  1.30335E+02  1.28874E+02  1.27505E+02  1.26383E+02  1.25427E+02  1.24509E+02  1.23603E+02  1.22705E+02  1.21815E+02
   1.20930E+02  1.20046E+02  1.19168E+02  1.18300E+02  1.17444E+02  1.16597E+02  1.15756E+02  1.14925E+02  1.14103E+02  1.13289E+02
   1.12483E+02  1.11688E+02  1.10911E+02  1.10164E+02  1.09423E+02  1.08647E+02  1.07821E+02  1.06970E+02  1.06137E+02  1.05332E+02
   1.04537E+02  1.03774E+02  1.03115E+02  1.02610E+02  1.02172E+02  1.01665E+02  1.01019E+02  1.00250E+02  9.94166E+01  9.85708E+01
   9.77249E+01  9.68604E+01  9.59715E+01  9.50913E+01  9.43028E+01  9.36631E+01  9.31218E+01  9.26070E+01  9.20568E+01  9.14462E+01
   9.07832E+01  9.00927E+01  8.94043E+01  8.87323E+01  8.80751E+01  8.74258E+01  8.67924E+01  8.62124E+01  8.56820E+01  8.51729E+01
   8.46611E+01  8.41373E+01  8.35952E+01  8.30358E+01  8.24679E+01  8.18957E+01  8.13222E+01  8.07541E+01  8.01969E+01  7.96599E+01
   7.91427E+01  7.86508E+01  7.81543E+01  7.76190E+01  7.70446E+01  7.64659E+01  7.59162E+01  7.54101E+01  7.49420E+01  7.45018E+01
   7.40811E+01  7.36853E+01  7.33226E+01  7.29743E+01  7.26133E+01  7.22277E+01  7.18411E+01  7.15698E+01  7.17220E+01  7.21359E+01
   7.23773E+01  7.22981E+01  7.19527E+01  7.14662E+01  7.09460E+01  7.04011E+01  6.97597E+01  6.89810E+01  6.81302E+01  6.73603E+01
   6.68247E+01  6.64482E+01  6.61106E+01  6.57882E+01  6.54744E+01  6.51682E+01  6.48727E+01  6.45976E+01  6.43732E+01  6.43909E+01
   6.51099E+01  6.61541E+01  6.68688E+01  6.70503E+01  6.67989E+01  6.63104E+01  6.57522E+01  6.51341E+01  6.43425E+01  6.33293E+01
   6.22150E+01  6.12570E+01  6.06790E+01  6.03255E+01  6.00280E+01  5.97515E+01  5.94862E+01  5.92274E+01  5.89731E+01  5.87232E+01
   5.84777E+01  5.82367E+01  5.79982E+01  5.77594E+01  5.75194E+01  5.72791E+01  5.70405E+01  5.68041E+01  5.65691E+01  5.63342E+01
   5.60993E+01  5.58653E+01  5.56330E+01  5.54026E+01  5.51729E+01  5.49413E+01  5.47062E+01  5.44696E+01  5.42353E+01  5.40053E+01
   5.37806E+01  5.35579E+01  5.33350E+01  5.31122E+01  5.28902E+01  5.26692E+01  5.24489E+01  5.22275E+01  5.20038E+01  5.17783E+01
   5.15524E+01  5.13251E+01  5.10975E+01  5.08740E+01  5.06556E+01  5.04398E+01  5.02222E+01  5.00023E+01  4.97838E+01  4.95698E+01
   4.93611E+01  4.91538E+01  4.89425E+01  4.87286E+01  4.85182E+01  4.83137E+01  4.81126E+01  4.79108E+01  4.77042E+01  4.74945E+01
   4.72863E+01  4.70817E+01  4.68806E+01  4.66785E+01  4.64717E+01  4.62627E+01  4.60556E+01  4.58526E+01  4.56544E+01  4.54606E+01
   4.52676E+01  4.50724E+01  4.48736E+01  4.46715E+01  4.44660E+01  4.42542E+01  4.40391E+01  4.38266E+01  4.36157E+01  4.34070E+01
   4.32035E+01  4.30055E+01  4.28113E+01  4.26199E+01  4.24309E+01  4.22434E+01  4.20560E+01  4.18681E+01  4.16828E+01  4.15023E+01
   4.13233E+01  4.11422E+01  4.09568E+01  4.07664E+01  4.05713E+01  4.03705E+01  4.01642E+01  3.99566E+01  3.97529E+01  3.95543E+01
   3.93593E+01  3.91646E+01  3.89705E+01  3.87797E+01  3.85937E+01  3.84121E+01  3.82326E+01  3.80508E+01  3.78622E+01  3.76693E+01
   3.74755E+01  3.72814E+01  3.70872E+01  3.68927E+01  3.66984E+01  3.65057E+01  3.63163E+01  3.61312E+01  3.59498E+01  3.57703E+01
   3.55905E+01  3.54100E+01  3.52286E+01  3.50485E+01  3.48824E+01  3.47985E+01  3.48220E+01  3.48373E+01  3.47731E+01  3.46262E+01
   3.44234E+01  3.41960E+01  3.39597E+01  3.37026E+01  3.34061E+01  3.30748E+01  3.27430E+01  3.24600E+01  3.22344E+01  3.20291E+01
   3.18313E+01  3.16390E+01  3.14517E+01  3.12674E+01  3.10845E+01  3.09026E+01  3.07208E+01  3.05385E+01  3.03563E+01  3.01744E+01
   2.99936E+01  2.98151E+01  2.96398E+01  2.94677E+01  2.92990E+01  2.91333E+01  2.89701E+01  2.88093E+01  2.86509E+01  2.84941E+01
   2.83387E+01  2.81846E+01  2.80321E+01  2.78814E+01  2.77324E+01  2.75848E+01  2.74383E+01  2.72926E+01  2.71472E+01  2.70018E+01
   2.68557E+01  2.67086E+01  2.65598E+01  2.64092E+01  2.62563E+01  2.61010E+01  2.59433E+01  2.57831E+01  2.56205E+01  2.54557E+01
   2.52891E+01  2.51209E+01  2.49516E+01  2.47817E+01  2.46116E+01  2.44416E+01  2.42723E+01  2.41042E+01  2.39374E+01  2.37725E+01
   2.36094E+01  2.34487E+01  2.32904E+01  2.31347E+01  2.29818E+01  2.28317E+01  2.26846E+01  2.25407E+01  2.24001E+01  2.22631E+01
   2.21299E+01  2.20007E+01  2.18760E+01  2.17563E+01  2.16421E+01  2.15342E+01  2.14336E+01  2.13417E+01  2.12608E+01  2.11950E+01
   2.11524E+01  2.11541E+01  2.12560E+01  2.14134E+01  2.14191E+01  2.12349E+01  2.09335E+01  2.05891E+01  2.02368E+01  1.98691E+01
   1.95748E+01  1.94688E+01  1.95005E+01  1.96070E+01  1.97589E+01  1.99039E+01  1.99838E+01  2.00174E+01  2.00026E+01  1.99049E+01
   1.96993E+01  1.94028E+01  1.90931E+01  1.88242E+01  1.85775E+01  1.83414E+01  1.81121E+01  1.78880E+01  1.76687E+01  1.74540E+01
   1.72438E+01  1.70381E+01  1.68369E+01  1.66402E+01  1.64483E+01  1.62611E+01  1.60787E+01  1.59010E+01  1.57281E+01  1.55600E+01
   1.53965E+01  1.52377E+01  1.50834E+01  1.49336E+01  1.47882E+01  1.46472E+01  1.45105E+01  1.43779E+01  1.42494E+01  1.41249E+01
   1.40043E+01  1.38872E+01  1.37735E+01  1.36628E+01  1.35546E+01  1.34486E+01  1.33440E+01  1.32403E+01  1.31368E+01  1.30327E+01
   1.29273E+01  1.28197E+01  1.27094E+01  1.25956E+01  1.24777E+01  1.23554E+01  1.22284E+01  1.20965E+01  1.19597E+01  1.18182E+01
   1.16723E+01  1.15225E+01  1.13694E+01  1.12136E+01  1.10556E+01  1.08963E+01  1.07362E+01  1.05760E+01  1.04162E+01  1.02574E+01
   1.01000E+01  9.94438E+00  9.79078E+00  9.63944E+00  9.49050E+00  9.34404E+00  9.20010E+00  9.05866E+00  8.91970E+00  8.78317E+00
   8.64901E+00  8.51714E+00  8.38746E+00  8.25991E+00  8.13442E+00  8.01093E+00  7.88938E+00  7.76970E+00  7.65185E+00  7.53581E+00
   7.42155E+00  7.30905E+00  7.19828E+00  7.08924E+00  6.98193E+00  6.87634E+00  6.77249E+00  6.67038E+00  6.57001E+00  6.47141E+00
   6.37458E+00  6.27956E+00  6.18635E+00  6.09497E+00  6.00538E+00  5.91755E+00  5.83144E+00  5.74704E+00  5.66431E+00  5.58322E+00
   5.50373E+00  5.42582E+00  5.34947E+00  5.27466E+00  5.20135E+00  5.12951E+00  5.05911E+00  4.99014E+00  4.92257E+00  4.85638E+00
   4.79153E+00  4.72801E+00  4.66578E+00  4.60483E+00  4.54514E+00  4.48668E+00  4.42941E+00  4.37332E+00  4.31839E+00  4.26459E+00
   4.21191E+00  4.16031E+00  4.10977E+00  4.06027E+00  4.01178E+00  3.96430E+00  3.91778E+00  3.87221E+00  3.82756E+00  3.78381E+00
   3.74094E+00  3.69893E+00  3.65775E+00  3.61737E+00  3.57777E+00  3.53894E+00  3.50086E+00  3.46349E+00
 NY background values follow
     1.386E+02    1.377E+02    1.368E+02    1.359E+02    1.350E+02    1.341E+02    1.331E+02    1.322E+02    1.313E+02    1.304E+02
     1.295E+02    1.286E+02    1.277E+02    1.268E+02    1.260E+02    1.251E+02    1.242E+02    1.233E+02    1.224E+02    1.216E+02
     1.207E+02    1.198E+02    1.190E+02    1.181E+02    1.173E+02    1.164E+02    1.156E+02    1.147E+02    1.139E+02    1.131E+02
     1.122E+02    1.114E+02    1.106E+02    1.098E+02    1.090E+02    1.082E+02    1.074E+02    1.066E+02    1.058E+02    1.050E+02
     1.043E+02    1.035E+02    1.027E+02    1.020E+02    1.012E+02    1.005E+02    9.976E+01    9.903E+01    9.831E+01    9.760E+01
     9.689E+01    9.619E+01    9.550E+01    9.481E+01    9.413E+01    9.346E+01    9.280E+01    9.214E+01    9.148E+01    9.084E+01
     9.020E+01    8.956E+01    8.894E+01    8.832E+01    8.771E+01    8.710E+01    8.650E+01    8.591E+01    8.532E+01    8.474E+01
     8.417E+01    8.361E+01    8.305E+01    8.249E+01    8.195E+01    8.141E+01    8.088E+01    8.035E+01    7.983E+01    7.932E+01
     7.882E+01    7.832E+01    7.783E+01    7.734E+01    7.686E+01    7.639E+01    7.593E+01    7.547E+01    7.502E+01    7.457E+01
     7.413E+01    7.370E+01    7.328E+01    7.286E+01    7.245E+01    7.204E+01    7.164E+01    7.125E+01    7.086E+01    7.048E+01
     7.010E+01    6.973E+01    6.937E+01    6.901E+01    6.865E+01    6.831E+01    6.796E+01    6.762E+01    6.729E+01    6.696E+01
     6.663E+01    6.631E+01    6.599E+01    6.568E+01    6.537E+01    6.507E+01    6.476E+01    6.447E+01    6.417E+01    6.388E+01
     6.359E+01    6.331E+01    6.303E+01    6.275E+01    6.248E+01    6.220E+01    6.193E+01    6.166E+01    6.140E+01    6.114E+01
     6.088E+01    6.062E+01    6.036E+01    6.010E+01    5.985E+01    5.960E+01    5.935E+01    5.910E+01    5.885E+01    5.860E+01
     5.835E+01    5.811E+01    5.787E+01    5.762E+01    5.738E+01    5.714E+01    5.690E+01    5.667E+01    5.643E+01    5.619E+01
     5.596E+01    5.573E+01    5.549E+01    5.526E+01    5.503E+01    5.480E+01    5.457E+01    5.435E+01    5.412E+01    5.389E+01
     5.367E+01    5.344E+01    5.322E+01    5.300E+01    5.278E+01    5.256E+01    5.234E+01    5.212E+01    5.190E+01    5.168E+01
     5.146E+01    5.125E+01    5.103E+01    5.081E+01    5.060E+01    5.039E+01    5.017E+01    4.996E+01    4.975E+01    4.954E+01
     4.932E+01    4.911E+01    4.890E+01    4.869E+01    4.848E+01    4.828E+01    4.807E+01    4.786E+01    4.765E+01    4.744E+01
     4.724E+01    4.703E+01    4.682E+01    4.662E+01    4.641E+01    4.621E+01    4.600E+01    4.580E+01    4.560E+01    4.539E+01
     4.519E+01    4.499E+01    4.478E+01    4.458E+01    4.438E+01    4.418E+01    4.398E+01    4.378E+01    4.358E+01    4.338E+01
     4.318E+01    4.298E+01    4.278E+01    4.258E+01    4.238E+01    4.218E+01    4.198E+01    4.178E+01    4.158E+01    4.139E+01
     4.119E+01    4.099E+01    4.079E+01    4.059E+01    4.040E+01    4.020E+01    4.000E+01    3.981E+01    3.961E+01    3.941E+01
     3.922E+01    3.902E+01    3.882E+01    3.863E+01    3.843E+01    3.824E+01    3.804E+01    3.785E+01    3.765E+01    3.746E+01
     3.726E+01    3.707E+01    3.688E+01    3.668E+01    3.649E+01    3.630E+01    3.611E+01    3.591E+01    3.572E+01    3.553E+01
     3.534E+01    3.515E+01    3.496E+01    3.477E+01    3.458E+01    3.439E+01    3.421E+01    3.402E+01    3.383E+01    3.364E+01
     3.346E+01    3.327E+01    3.309E+01    3.290E+01    3.272E+01    3.254E+01    3.235E+01    3.217E+01    3.199E+01    3.181E+01
     3.163E+01    3.145E+01    3.127E+01    3.109E+01    3.091E+01    3.074E+01    3.056E+01    3.038E+01    3.021E+01    3.003E+01
     2.986E+01    2.969E+01    2.951E+01    2.934E+01    2.917E+01    2.900E+01    2.883E+01    2.866E+01    2.849E+01    2.832E+01
     2.815E+01    2.798E+01    2.782E+01    2.765E+01    2.748E+01    2.732E+01    2.715E+01    2.699E+01    2.682E+01    2.666E+01
     2.650E+01    2.633E+01    2.617E+01    2.601E+01    2.585E+01    2.569E+01    2.553E+01    2.537E+01    2.521E+01    2.505E+01
     2.489E+01    2.474E+01    2.458E+01    2.442E+01    2.427E+01    2.411E+01    2.396E+01    2.380E+01    2.365E+01    2.349E+01
     2.334E+01    2.318E+01    2.303E+01    2.288E+01    2.273E+01    2.258E+01    2.242E+01    2.227E+01    2.212E+01    2.197E+01
     2.182E+01    2.167E+01    2.152E+01    2.138E+01    2.123E+01    2.108E+01    2.093E+01    2.079E+01    2.064E+01    2.049E+01
     2.035E+01    2.020E+01    2.006E+01    1.991E+01    1.977E+01    1.962E+01    1.948E+01    1.934E+01    1.919E+01    1.905E+01
     1.891E+01    1.876E+01    1.862E+01    1.848E+01    1.834E+01    1.820E+01    1.806E+01    1.792E+01    1.778E+01    1.764E+01
     1.750E+01    1.736E+01    1.722E+01    1.708E+01    1.695E+01    1.681E+01    1.667E+01    1.653E+01    1.640E+01    1.626E+01
     1.612E+01    1.599E+01    1.585E+01    1.571E+01    1.558E+01    1.544E+01    1.531E+01    1.517E+01    1.504E+01    1.491E+01
     1.477E+01    1.464E+01    1.450E+01    1.437E+01    1.424E+01    1.410E+01    1.397E+01    1.384E+01    1.371E+01    1.357E+01
     1.344E+01    1.331E+01    1.318E+01    1.305E+01    1.292E+01    1.278E+01    1.265E+01    1.252E+01    1.239E+01    1.226E+01
     1.213E+01    1.200E+01    1.187E+01    1.174E+01    1.161E+01    1.148E+01    1.135E+01    1.122E+01    1.109E+01    1.096E+01
     1.083E+01    1.070E+01    1.057E+01    1.044E+01    1.032E+01    1.019E+01    1.006E+01    9.934E+00    9.808E+00    9.682E+00
     9.556E+00    9.431E+00    9.307E+00    9.183E+00    9.060E+00    8.938E+00    8.816E+00    8.695E+00    8.575E+00    8.456E+00
     8.338E+00    8.221E+00    8.104E+00    7.989E+00    7.875E+00    7.761E+00    7.649E+00    7.538E+00    7.428E+00    7.319E+00
     7.212E+00    7.106E+00    7.001E+00    6.897E+00    6.795E+00    6.694E+00    6.595E+00    6.497E+00    6.400E+00    6.306E+00
     6.212E+00    6.121E+00    6.031E+00    5.942E+00    5.856E+00    5.771E+00    5.687E+00    5.605E+00    5.525E+00    5.446E+00
     5.369E+00    5.293E+00    5.219E+00    5.146E+00    5.075E+00    5.005E+00    4.936E+00    4.869E+00    4.803E+00    4.738E+00
     4.675E+00    4.613E+00    4.552E+00    4.493E+00    4.434E+00    4.377E+00    4.321E+00    4.266E+00    4.213E+00    4.160E+00
     4.109E+00    4.058E+00    4.009E+00    3.960E+00    3.913E+00    3.867E+00    3.821E+00    3.777E+00    3.733E+00    3.690E+00
     3.648E+00    3.607E+00    3.567E+00    3.528E+00    3.489E+00    3.451E+00    3.414E+00    3.378E+00
 Asp      Conc. = 6.62E+00
