 LCModel (Version 6.3-1L) Copyright: S.W. Provencher.          Ref.: Magn. Reson. Med. 30:672-679 (1993).                
 Slice#2 Row#4 Col#6  K_02_press_1_raw_act
 36 lines in following concentration table = NCONC+1
    Conc.  %SD /Cr+PCr  Metabolite                                         
  105.072 130% 4.2E-02 Ala                                                 
    0.000 999%   0.000 Asp                                                 
 1.52E+03  18%   0.606 Cr                                                  
  986.070  29%   0.394 PCr                                                 
    0.000 999%   0.000 GABA                                                
   33.707 652% 1.3E-02 Glc                                                 
  947.979  30%   0.379 Gln                                                 
 2.27E+03  14%   0.907 Glu                                                 
  978.312   3%   0.391 GPC                                                 
    0.000 999%   0.000 PCh                                                 
  836.820  11%   0.334 GSH                                                 
 1.87E+03  18%   0.745 Ins                                                 
  113.813 134% 4.5E-02 Lac                                                 
 3.10E+03   5%   1.237 NAA                                                 
  764.724  20%   0.305 NAAG                                                
  106.021  35% 4.2E-02 Scyllo                                              
    0.000 999%   0.000 Tau                                                 
  106.409 139% 4.2E-02 -CrCH2                                              
  978.312   3%   0.391 GPC+PCh                                             
 3.86E+03   3%   1.543 NAA+NAAG                                            
 2.50E+03   3%   1.000 Cr+PCr                                              
 3.22E+03  14%   1.285 Glu+Gln                                             
 4.52E+03  17%   1.806 Lip13a                                              
    0.000 999%   0.000 Lip13b                                              
    0.000 999%   0.000 Lip09                                               
 1.99E+03  16%   0.795 MM09                                                
 1.15E+03  37%   0.459 Lip20                                               
 4.09E+03  15%   1.632 MM20                                                
  604.984  40%   0.242 MM12                                                
 1.53E+03  41%   0.610 MM14                                                
 1.75E+03  23%   0.697 MM17                                                
 4.52E+03  17%   1.806 Lip13a+Lip13b                                       
 6.66E+03  11%   2.658 MM14+Lip13a+Lip13b+MM12                             
 1.99E+03  16%   0.795 MM09+Lip09                                          
 5.24E+03  11%   2.091 MM20+Lip20                                          
   6 lines in following misc. output table
  FWHM = 0.046 ppm    S/N =  16                                            
  Data shift = 0.023 ppm                                                   
  Ph: -13 deg      -7.9 deg/ppm                                            
  alphaB,S = 1.1E+00,   1.5E+02                                            
   14 spline knots.   Ns = 7(1)                                            
  (11) 4 infls.   ( 3) 1 extrs.                                            
  498 points on ppm-axis = NY
      4.000000     3.992357     3.984714     3.977070     3.969427     3.961784     3.954141     3.946497     3.938854     3.931211
      3.923568     3.915925     3.908281     3.900638     3.892995     3.885352     3.877708     3.870065     3.862422     3.854779
      3.847136     3.839492     3.831849     3.824206     3.816563     3.808919     3.801276     3.793633     3.785990     3.778347
      3.770703     3.763060     3.755417     3.747774     3.740130     3.732487     3.724844     3.717201     3.709558     3.701914
      3.694271     3.686628     3.678985     3.671341     3.663698     3.656055     3.648412     3.640769     3.633125     3.625482
      3.617839     3.610196     3.602552     3.594909     3.587266     3.579623     3.571980     3.564336     3.556693     3.549050
      3.541407     3.533763     3.526120     3.518477     3.510834     3.503191     3.495547     3.487904     3.480261     3.472618
      3.464974     3.457331     3.449688     3.442045     3.434402     3.426758     3.419115     3.411472     3.403829     3.396185
      3.388542     3.380899     3.373256     3.365613     3.357969     3.350326     3.342683     3.335040     3.327396     3.319753
      3.312110     3.304467     3.296824     3.289180     3.281537     3.273894     3.266251     3.258607     3.250964     3.243321
      3.235678     3.228034     3.220391     3.212748     3.205105     3.197462     3.189818     3.182175     3.174532     3.166889
      3.159245     3.151602     3.143959     3.136316     3.128673     3.121029     3.113386     3.105743     3.098100     3.090456
      3.082813     3.075170     3.067527     3.059884     3.052240     3.044597     3.036954     3.029311     3.021667     3.014024
      3.006381     2.998738     2.991095     2.983451     2.975808     2.968165     2.960522     2.952878     2.945235     2.937592
      2.929949     2.922306     2.914662     2.907019     2.899376     2.891733     2.884089     2.876446     2.868803     2.861160
      2.853517     2.845873     2.838230     2.830587     2.822944     2.815300     2.807657     2.800014     2.792371     2.784728
      2.777084     2.769441     2.761798     2.754155     2.746511     2.738868     2.731225     2.723582     2.715939     2.708295
      2.700652     2.693009     2.685366     2.677722     2.670079     2.662436     2.654793     2.647150     2.639506     2.631863
      2.624220     2.616577     2.608933     2.601290     2.593647     2.586004     2.578361     2.570717     2.563074     2.555431
      2.547788     2.540144     2.532501     2.524858     2.517215     2.509572     2.501928     2.494285     2.486642     2.478999
      2.471355     2.463712     2.456069     2.448426     2.440783     2.433139     2.425496     2.417853     2.410210     2.402566
      2.394923     2.387280     2.379637     2.371994     2.364350     2.356707     2.349064     2.341421     2.333777     2.326134
      2.318491     2.310848     2.303205     2.295561     2.287918     2.280275     2.272632     2.264988     2.257345     2.249702
      2.242059     2.234416     2.226772     2.219129     2.211486     2.203843     2.196199     2.188556     2.180913     2.173270
      2.165627     2.157983     2.150340     2.142697     2.135054     2.127410     2.119767     2.112124     2.104481     2.096838
      2.089194     2.081551     2.073908     2.066265     2.058621     2.050978     2.043335     2.035692     2.028049     2.020405
      2.012762     2.005119     1.997476     1.989833     1.982190     1.974546     1.966903     1.959260     1.951617     1.943974
      1.936331     1.928688     1.921045     1.913402     1.905759     1.898115     1.890472     1.882829     1.875186     1.867543
      1.859900     1.852257     1.844614     1.836971     1.829327     1.821684     1.814041     1.806398     1.798755     1.791112
      1.783469     1.775826     1.768183     1.760540     1.752896     1.745253     1.737610     1.729967     1.722324     1.714681
      1.707038     1.699395     1.691752     1.684108     1.676465     1.668822     1.661179     1.653536     1.645893     1.638250
      1.630607     1.622964     1.615321     1.607677     1.600034     1.592391     1.584748     1.577105     1.569462     1.561819
      1.554176     1.546533     1.538890     1.531246     1.523603     1.515960     1.508317     1.500674     1.493031     1.485388
      1.477745     1.470102     1.462458     1.454815     1.447172     1.439529     1.431886     1.424243     1.416600     1.408957
      1.401314     1.393671     1.386027     1.378384     1.370741     1.363098     1.355455     1.347812     1.340169     1.332526
      1.324883     1.317240     1.309596     1.301953     1.294310     1.286667     1.279024     1.271381     1.263738     1.256095
      1.248452     1.240808     1.233165     1.225522     1.217879     1.210236     1.202593     1.194950     1.187307     1.179664
      1.172021     1.164377     1.156734     1.149091     1.141448     1.133805     1.126162     1.118519     1.110876     1.103233
      1.095590     1.087946     1.080303     1.072660     1.065017     1.057374     1.049731     1.042088     1.034445     1.026802
      1.019158     1.011515     1.003872     0.996229     0.988586     0.980943     0.973300     0.965657     0.958014     0.950371
      0.942727     0.935084     0.927441     0.919798     0.912155     0.904512     0.896869     0.889226     0.881583     0.873940
      0.866296     0.858653     0.851010     0.843367     0.835724     0.828081     0.820438     0.812795     0.805152     0.797508
      0.789865     0.782222     0.774579     0.766936     0.759293     0.751650     0.744007     0.736364     0.728721     0.721077
      0.713434     0.705791     0.698148     0.690505     0.682862     0.675219     0.667576     0.659933     0.652290     0.644646
      0.637003     0.629360     0.621717     0.614074     0.606431     0.598788     0.591145     0.583502     0.575858     0.568215
      0.560572     0.552929     0.545286     0.537643     0.530000     0.522357     0.514714     0.507071     0.499427     0.491784
      0.484141     0.476498     0.468855     0.461212     0.453569     0.445925     0.438282     0.430639     0.422996     0.415353
      0.407710     0.400067     0.392424     0.384780     0.377137     0.369494     0.361851     0.354208     0.346565     0.338922
      0.331278     0.323635     0.315992     0.308349     0.300706     0.293063     0.285420     0.277777     0.270133     0.262490
      0.254847     0.247204     0.239561     0.231918     0.224275     0.216631     0.208988     0.201345
 NY phased data points follow
   1.55804E+00  1.02797E+01  9.93399E+00  1.70110E+01  2.17660E+01  2.76984E+01  4.00156E+01  4.29821E+01  5.32826E+01  5.94322E+01
   6.56139E+01  6.36329E+01  5.87208E+01  4.64610E+01  3.64963E+01  2.34402E+01  2.04546E+01  1.63051E+01  6.88934E+00  1.60088E+01
   7.30273E+00  1.63192E+01  1.15998E+01  1.55779E+01  1.89939E+01  2.00001E+01  2.01516E+01  2.61780E+01  2.39728E+01  2.98106E+01
   2.66358E+01  2.75770E+01  2.75947E+01  2.75982E+01  2.24041E+01  2.47775E+01  2.26082E+01  1.91208E+01  1.85592E+01  2.05021E+01
   2.59382E+01  2.47972E+01  2.34957E+01  2.64549E+01  2.28007E+01  2.94327E+01  2.82712E+01  3.21532E+01  2.40944E+01  2.48842E+01
   1.82301E+01  1.71567E+01  1.79447E+01  1.73073E+01  1.56750E+01  1.40889E+01  1.16437E+01  1.87285E+01  1.79492E+01  1.05793E+01
   1.52378E+01  6.89163E+00  7.13750E+00  7.28974E+00  3.21257E+00 -1.34108E+00  3.34962E+00  3.75819E+00  2.96142E+00  4.73158E+00
   2.95891E+00  9.50540E+00  5.72436E+00  1.09635E+01  1.33042E+01  1.25390E+01  7.66761E+00  1.13276E+01  9.88202E+00  7.10848E+00
   8.31999E+00  4.58072E+00  7.41859E+00  7.53619E+00  7.91289E+00  6.65649E+00  1.06186E+01  8.45009E+00  8.38731E+00  1.13698E+01
   1.19351E+01  1.28783E+01  1.85638E+01  1.51453E+01  1.70549E+01  2.14632E+01  2.53600E+01  3.06564E+01  3.82618E+01  5.12161E+01
   7.27882E+01  8.61824E+01  9.73902E+01  9.38427E+01  8.49956E+01  6.64142E+01  5.03364E+01  3.74712E+01  3.03955E+01  2.28882E+01
   1.60039E+01  1.20452E+01  1.52075E+01  1.36631E+01  1.12608E+01  8.87603E+00  1.02776E+01  1.69757E+01  2.12782E+01  1.84644E+01
   2.41915E+01  2.73871E+01  4.11336E+01  5.18691E+01  6.24679E+01  7.80919E+01  9.02702E+01  8.77613E+01  8.41285E+01  6.90283E+01
   4.83820E+01  4.49168E+01  2.84006E+01  2.07645E+01  1.54988E+01  1.18689E+01  1.14679E+01  5.31381E+00  6.56787E+00  9.72725E+00
   8.89257E+00  7.88161E+00  9.60385E+00  7.53439E+00  1.12716E+01  9.49096E+00  1.77789E+01  1.01528E+01  1.25357E+01  9.95119E+00
   1.00174E+01  7.32256E+00  9.81430E+00  6.67024E+00  4.54793E+00  7.81409E+00  2.17197E+00  9.74383E+00  9.91819E+00  7.36987E+00
  -1.17157E+00  4.91451E+00 -6.58106E-01  2.57266E+00  3.86861E+00  6.55997E+00  3.93390E+00  4.36153E+00  8.57594E-01 -3.41206E+00
  -2.40635E+00 -5.58407E+00 -6.66186E+00 -9.58797E+00 -1.29581E+01 -1.09910E+01 -1.51497E+01 -1.08868E+01 -8.19290E+00 -8.29757E+00
  -8.89151E+00 -1.19394E+01 -8.48179E+00 -6.87677E+00 -1.17989E+01 -6.68149E+00 -8.89769E+00 -4.27419E+00  2.10023E+00  3.00970E+00
   7.93524E+00  1.06651E+01  8.18504E+00  1.00116E+01  1.04837E+01  7.41714E+00  6.99036E+00  3.65949E+00  7.30560E+00  7.30018E+00
   1.07852E+00  3.79942E+00  1.23918E+01  1.32356E+01  9.53657E+00  5.67500E+00 -3.99210E+00 -9.29287E-01  3.66696E+00  1.29493E+00
  -4.88830E-01  5.73969E+00  7.41445E+00  1.72116E+01  1.71530E+01  1.73366E+01  2.27179E+01  1.87704E+01  1.09581E+01  1.10131E+01
   1.63903E+00  3.06437E+00  2.32371E+00  8.66027E-01  1.23618E+01  1.28054E+01  1.31935E+01  1.91613E+01  1.84838E+01  1.94034E+01
   2.21107E+01  1.48906E+01  1.64367E+01  1.79671E+01  1.41501E+01  1.47618E+01  1.72739E+01  1.91112E+01  1.60127E+01  1.93871E+01
   1.19674E+01  1.04579E+01  1.60347E+01  1.41007E+01  1.96583E+01  2.11614E+01  2.24232E+01  2.49880E+01  3.32895E+01  3.90249E+01
   3.83732E+01  4.50366E+01  4.29318E+01  5.19406E+01  7.35038E+01  8.74015E+01  9.34324E+01  9.58052E+01  1.08656E+02  1.30944E+02
   1.46005E+02  1.29380E+02  1.06297E+02  9.17623E+01  6.38358E+01  4.64965E+01  4.02488E+01  3.08955E+01  2.34005E+01  2.14657E+01
   2.41137E+01  2.03619E+01  2.16916E+01  2.00047E+01  1.79346E+01  1.96210E+01  1.17425E+01  1.73483E+01  1.36840E+01  1.08479E+01
   1.31060E+01  1.54675E+01  9.51392E+00  9.85949E+00  8.85446E+00  5.40163E+00  1.15880E+01  1.11359E+01  1.65249E+01  1.45252E+01
   1.55771E+01  1.53874E+01  2.16651E+01  1.74104E+01  1.60383E+01  1.79354E+01  1.28244E+01  1.66172E+01  1.75946E+01  1.88966E+01
   2.39647E+01  1.54933E+01  2.25553E+01  2.14086E+01  2.16347E+01  2.66666E+01  2.59272E+01  2.36352E+01  1.88221E+01  1.66309E+01
   2.03690E+01  2.17472E+01  2.52441E+01  1.98620E+01  1.71248E+01  2.14566E+01  2.12613E+01  1.73982E+01  1.86289E+01  2.05938E+01
   2.21825E+01  2.15083E+01  2.44887E+01  2.69683E+01  1.76604E+01  2.48617E+01  1.97035E+01  2.07302E+01  2.06347E+01  2.28274E+01
   2.27558E+01  2.48759E+01  2.00841E+01  2.47302E+01  1.75269E+01  2.34674E+01  1.97842E+01  2.34985E+01  2.47717E+01  2.73538E+01
   2.66771E+01  3.16829E+01  3.69051E+01  3.63500E+01  3.64074E+01  4.14778E+01  4.50919E+01  4.35921E+01  3.90113E+01  4.10274E+01
   4.21948E+01  4.21209E+01  3.95493E+01  4.30360E+01  4.19318E+01  4.03504E+01  3.85524E+01  3.76603E+01  3.94211E+01  3.97768E+01
   4.13111E+01  3.72459E+01  3.32423E+01  3.28683E+01  3.01770E+01  2.78233E+01  2.80868E+01  2.49930E+01  1.98947E+01  2.35557E+01
   2.10948E+01  2.10029E+01  1.89072E+01  2.32533E+01  1.90742E+01  1.87306E+01  2.12300E+01  2.14451E+01  2.16232E+01  2.26882E+01
   2.03047E+01  2.10791E+01  1.90916E+01  1.97884E+01  2.54046E+01  1.92085E+01  1.81942E+01  2.44600E+01  1.95691E+01  1.90489E+01
   2.40733E+01  2.05494E+01  2.00307E+01  1.81746E+01  2.37210E+01  1.65408E+01  2.49281E+01  2.26225E+01  2.30706E+01  2.37335E+01
   2.11939E+01  2.34189E+01  2.23334E+01  2.60488E+01  2.46902E+01  2.07336E+01  2.13621E+01  2.43165E+01  2.38636E+01  2.59203E+01
   2.45698E+01  1.95252E+01  2.28448E+01  2.44577E+01  2.07511E+01  2.26443E+01  1.96468E+01  1.59846E+01  1.91385E+01  1.88169E+01
   1.68762E+01  1.52979E+01  1.06298E+01  1.59682E+01  1.41599E+01  1.41373E+01  1.61965E+01  1.45963E+01  1.32007E+01  1.31913E+01
   1.33908E+01  7.79805E+00  1.11656E+01  1.27604E+01  8.81826E+00  1.16558E+01  1.72932E+01  1.13664E+01  1.16190E+01  1.35887E+01
   1.10501E+01  1.58385E+01  1.15162E+01  9.93238E+00  1.06945E+01  1.87039E+01  1.29168E+01  1.08364E+01  1.11909E+01  1.43469E+01
   1.74510E+01  1.41283E+01  1.14220E+01  1.06888E+01  8.03429E+00  1.20696E+01  1.71666E+01  1.56028E+01  1.05577E+01  1.50959E+01
   1.21887E+01  1.27799E+01  1.03292E+01  1.08670E+01  9.13047E+00  1.40967E+01  1.19261E+01  1.23276E+01  1.51358E+01  1.48701E+01
   1.66549E+01  1.11794E+01  1.44942E+01  1.43116E+01  1.42228E+01  9.99620E+00  9.29480E+00  1.44439E+01  1.40432E+01  1.18665E+01
   1.32098E+01  1.15970E+01  8.09441E+00  1.51269E+01  1.06620E+01  1.28206E+01  1.41527E+01  1.93692E+01  1.38747E+01  1.17737E+01
   1.17235E+01  1.44760E+01  1.47934E+01  1.59044E+01  1.16759E+01  9.40241E+00  1.19793E+01  1.13156E+01
 NY points of the fit to the data follow
   9.74006E+00  1.02339E+01  1.22246E+01  1.66195E+01  2.28739E+01  2.93510E+01  3.62228E+01  4.44642E+01  5.37358E+01  6.15276E+01
   6.46513E+01  6.17980E+01  5.44371E+01  4.53277E+01  3.68035E+01  2.99888E+01  2.47759E+01  2.06033E+01  1.74241E+01  1.54753E+01
   1.44953E+01  1.36337E+01  1.30183E+01  1.35174E+01  1.46813E+01  1.59564E+01  1.76899E+01  2.06671E+01  2.49620E+01  2.93611E+01
   3.23551E+01  3.30642E+01  3.15247E+01  2.83904E+01  2.44867E+01  2.06783E+01  1.74572E+01  1.48083E+01  1.31726E+01  1.33548E+01
   1.50414E+01  1.71674E+01  1.91589E+01  2.12306E+01  2.35725E+01  2.57487E+01  2.68350E+01  2.61777E+01  2.39588E+01  2.08983E+01
   1.77544E+01  1.52460E+01  1.36777E+01  1.28081E+01  1.24462E+01  1.25294E+01  1.29995E+01  1.36464E+01  1.41684E+01  1.43058E+01
   1.38756E+01  1.29000E+01  1.16255E+01  1.04464E+01  9.77458E+00  9.64764E+00  9.88022E+00  1.03201E+01  1.08804E+01  1.14651E+01
   1.19354E+01  1.21260E+01  1.19908E+01  1.16155E+01  1.11330E+01  1.06694E+01  1.02932E+01  1.00042E+01  9.74627E+00  9.49687E+00
   9.51310E+00  9.59519E+00  9.55524E+00  9.47677E+00  9.51564E+00  9.71122E+00  9.91491E+00  9.88858E+00  9.64010E+00  9.35931E+00
   9.15845E+00  9.14144E+00  9.37108E+00  9.86730E+00  1.10791E+01  1.55206E+01  2.43669E+01  3.37550E+01  4.30548E+01  5.47382E+01
   7.01187E+01  8.60614E+01  9.60347E+01  9.52912E+01  8.46604E+01  6.86899E+01  5.21521E+01  3.82450E+01  2.77463E+01  1.98163E+01
   1.38539E+01  1.03036E+01  9.05752E+00  8.64490E+00  8.49326E+00  8.49366E+00  8.64085E+00  9.02581E+00  1.01569E+01  1.41694E+01
   2.22016E+01  3.12973E+01  4.02393E+01  5.08832E+01  6.45932E+01  7.91114E+01  8.90300E+01  8.98417E+01  8.14441E+01  6.76007E+01
   5.28368E+01  4.01898E+01  3.03960E+01  2.25166E+01  1.58574E+01  1.10515E+01  8.53044E+00  7.57916E+00  7.72008E+00  8.61381E+00
   9.74695E+00  1.06512E+01  1.10996E+01  1.10622E+01  1.06311E+01  9.99986E+00  9.32528E+00  8.63863E+00  7.97541E+00  7.38556E+00
   6.88314E+00  6.46710E+00  6.10346E+00  5.77038E+00  5.39889E+00  5.09246E+00  4.93895E+00  4.82597E+00  4.60917E+00  4.04460E+00
   3.21873E+00  2.57926E+00  2.39279E+00  2.51030E+00  2.59351E+00  2.30943E+00  1.59207E+00  6.52697E-01 -2.89858E-01 -1.13304E+00
  -1.81883E+00 -2.23343E+00 -2.59871E+00 -3.15628E+00 -3.94876E+00 -4.65216E+00 -4.80097E+00 -4.38655E+00 -3.93955E+00 -3.86652E+00
  -4.16858E+00 -4.36968E+00 -4.03297E+00 -3.24995E+00 -2.30039E+00 -1.27476E+00 -5.82324E-02  1.62593E+00  3.75245E+00  5.87864E+00
   7.39450E+00  7.74716E+00  7.11775E+00  6.01097E+00  4.83637E+00  3.84543E+00  3.30434E+00  3.70334E+00  5.06122E+00  6.97926E+00
   8.91595E+00  1.04485E+01  1.12292E+01  1.10775E+01  1.01206E+01  8.26426E+00  5.46992E+00  2.40675E+00  2.21229E-01 -3.66940E-02
   1.35347E+00  3.59930E+00  6.49867E+00  1.00517E+01  1.35916E+01  1.57609E+01  1.56067E+01  1.34254E+01  1.00645E+01  6.14007E+00
   2.49096E+00  7.03144E-02 -2.96221E-01  1.62899E+00  5.10028E+00  9.07832E+00  1.26841E+01  1.52929E+01  1.66296E+01  1.69789E+01
   1.69530E+01  1.69577E+01  1.71635E+01  1.77676E+01  1.87962E+01  1.99466E+01  2.08111E+01  2.10922E+01  2.06830E+01  1.96473E+01
   1.81622E+01  1.68588E+01  1.65134E+01  1.74455E+01  1.93654E+01  2.17621E+01  2.42307E+01  2.65252E+01  2.91296E+01  3.25629E+01
   3.59573E+01  3.92791E+01  4.40783E+01  5.45156E+01  7.03812E+01  8.41448E+01  9.41100E+01  1.04060E+02  1.16912E+02  1.29750E+02
   1.35368E+02  1.28816E+02  1.11768E+02  8.98793E+01  6.88568E+01  5.21612E+01  3.98414E+01  3.04232E+01  2.32188E+01  1.89808E+01
   1.74117E+01  1.66524E+01  1.62145E+01  1.59386E+01  1.56457E+01  1.52531E+01  1.48110E+01  1.43599E+01  1.39376E+01  1.35820E+01
   1.33214E+01  1.31573E+01  1.30777E+01  1.30578E+01  1.30792E+01  1.31310E+01  1.32082E+01  1.33255E+01  1.35069E+01  1.37719E+01
   1.41305E+01  1.45743E+01  1.50767E+01  1.56151E+01  1.61709E+01  1.67308E+01  1.72894E+01  1.78479E+01  1.84101E+01  1.89750E+01
   1.95351E+01  2.00752E+01  2.05728E+01  2.10071E+01  2.13633E+01  2.16339E+01  2.18157E+01  2.19077E+01  2.19141E+01  2.18450E+01
   2.17109E+01  2.15229E+01  2.12945E+01  2.10409E+01  2.07782E+01  2.05226E+01  2.02891E+01  2.00925E+01  1.99487E+01  1.98794E+01
   1.99176E+01  2.00273E+01  2.01266E+01  2.02442E+01  2.04190E+01  2.06189E+01  2.07447E+01  2.07152E+01  2.06047E+01  2.06172E+01
   2.08237E+01  2.12322E+01  2.18685E+01  2.27643E+01  2.39076E+01  2.52094E+01  2.65371E+01  2.77860E+01  2.89322E+01  3.00424E+01
   3.12172E+01  3.24566E+01  3.36657E+01  3.48559E+01  3.60664E+01  3.72620E+01  3.82914E+01  3.90283E+01  3.95484E+01  3.99966E+01
   4.04065E+01  4.07906E+01  4.11780E+01  4.15739E+01  4.19099E+01  4.20485E+01  4.18589E+01  4.12747E+01  4.03104E+01  3.90622E+01
   3.76359E+01  3.61033E+01  3.45012E+01  3.28631E+01  3.12467E+01  2.96912E+01  2.82040E+01  2.67968E+01  2.54822E+01  2.42703E+01
   2.31681E+01  2.21791E+01  2.13040E+01  2.05408E+01  1.98864E+01  1.93366E+01  1.88865E+01  1.85305E+01  1.82632E+01  1.80794E+01
   1.79746E+01  1.79449E+01  1.79866E+01  1.80960E+01  1.82695E+01  1.85039E+01  1.87956E+01  1.91407E+01  1.95343E+01  1.99705E+01
   2.04423E+01  2.09418E+01  2.14601E+01  2.19869E+01  2.25108E+01  2.30191E+01  2.34995E+01  2.39392E+01  2.43262E+01  2.46489E+01
   2.48969E+01  2.50616E+01  2.51370E+01  2.51196E+01  2.50083E+01  2.48046E+01  2.45126E+01  2.41388E+01  2.36922E+01  2.31833E+01
   2.26236E+01  2.20251E+01  2.14000E+01  2.07603E+01  2.01176E+01  1.94822E+01  1.88628E+01  1.82667E+01  1.76995E+01  1.71659E+01
   1.66688E+01  1.62099E+01  1.57895E+01  1.54070E+01  1.50610E+01  1.47501E+01  1.44721E+01  1.42245E+01  1.40046E+01  1.38097E+01
   1.36375E+01  1.34858E+01  1.33523E+01  1.32350E+01  1.31318E+01  1.30410E+01  1.29614E+01  1.28918E+01  1.28310E+01  1.27779E+01
   1.27314E+01  1.26908E+01  1.26558E+01  1.26257E+01  1.26000E+01  1.25780E+01  1.25593E+01  1.25438E+01  1.25312E+01  1.25214E+01
   1.25138E+01  1.25082E+01  1.25045E+01  1.25027E+01  1.25027E+01  1.25042E+01  1.25071E+01  1.25111E+01  1.25162E+01  1.25225E+01
   1.25301E+01  1.25385E+01  1.25477E+01  1.25575E+01  1.25682E+01  1.25797E+01  1.25920E+01  1.26048E+01  1.26181E+01  1.26318E+01
   1.26461E+01  1.26610E+01  1.26764E+01  1.26921E+01  1.27081E+01  1.27245E+01  1.27413E+01  1.27586E+01  1.27762E+01  1.27939E+01
   1.28118E+01  1.28301E+01  1.28488E+01  1.28678E+01  1.28869E+01  1.29062E+01  1.29256E+01  1.29455E+01  1.29657E+01  1.29861E+01
   1.30065E+01  1.30272E+01  1.30482E+01  1.30695E+01  1.30913E+01  1.31133E+01  1.31354E+01  1.31579E+01
 NY background values follow
     4.849E+00    4.881E+00    4.913E+00    4.944E+00    4.976E+00    5.007E+00    5.038E+00    5.069E+00    5.099E+00    5.130E+00
     5.160E+00    5.190E+00    5.219E+00    5.248E+00    5.277E+00    5.305E+00    5.333E+00    5.361E+00    5.388E+00    5.415E+00
     5.441E+00    5.467E+00    5.493E+00    5.517E+00    5.542E+00    5.566E+00    5.589E+00    5.612E+00    5.634E+00    5.655E+00
     5.676E+00    5.697E+00    5.716E+00    5.735E+00    5.754E+00    5.771E+00    5.788E+00    5.804E+00    5.820E+00    5.834E+00
     5.848E+00    5.861E+00    5.873E+00    5.885E+00    5.895E+00    5.905E+00    5.914E+00    5.921E+00    5.928E+00    5.934E+00
     5.940E+00    5.944E+00    5.948E+00    5.950E+00    5.952E+00    5.953E+00    5.953E+00    5.953E+00    5.951E+00    5.949E+00
     5.946E+00    5.942E+00    5.938E+00    5.932E+00    5.926E+00    5.919E+00    5.912E+00    5.903E+00    5.894E+00    5.884E+00
     5.873E+00    5.862E+00    5.850E+00    5.837E+00    5.824E+00    5.810E+00    5.795E+00    5.779E+00    5.763E+00    5.746E+00
     5.729E+00    5.711E+00    5.692E+00    5.673E+00    5.653E+00    5.632E+00    5.611E+00    5.589E+00    5.566E+00    5.543E+00
     5.519E+00    5.495E+00    5.470E+00    5.445E+00    5.419E+00    5.392E+00    5.365E+00    5.337E+00    5.308E+00    5.279E+00
     5.249E+00    5.219E+00    5.188E+00    5.156E+00    5.124E+00    5.090E+00    5.056E+00    5.022E+00    4.987E+00    4.951E+00
     4.914E+00    4.876E+00    4.838E+00    4.799E+00    4.759E+00    4.719E+00    4.677E+00    4.635E+00    4.592E+00    4.548E+00
     4.504E+00    4.458E+00    4.412E+00    4.365E+00    4.317E+00    4.268E+00    4.219E+00    4.168E+00    4.117E+00    4.065E+00
     4.011E+00    3.957E+00    3.902E+00    3.846E+00    3.790E+00    3.732E+00    3.673E+00    3.613E+00    3.553E+00    3.491E+00
     3.430E+00    3.367E+00    3.304E+00    3.241E+00    3.177E+00    3.113E+00    3.049E+00    2.985E+00    2.921E+00    2.856E+00
     2.793E+00    2.729E+00    2.666E+00    2.603E+00    2.541E+00    2.479E+00    2.418E+00    2.358E+00    2.298E+00    2.240E+00
     2.183E+00    2.126E+00    2.071E+00    2.017E+00    1.965E+00    1.914E+00    1.865E+00    1.817E+00    1.771E+00    1.727E+00
     1.684E+00    1.644E+00    1.605E+00    1.569E+00    1.535E+00    1.503E+00    1.474E+00    1.447E+00    1.423E+00    1.401E+00
     1.382E+00    1.366E+00    1.353E+00    1.342E+00    1.335E+00    1.329E+00    1.327E+00    1.327E+00    1.330E+00    1.335E+00
     1.343E+00    1.353E+00    1.366E+00    1.380E+00    1.397E+00    1.416E+00    1.438E+00    1.461E+00    1.486E+00    1.514E+00
     1.543E+00    1.574E+00    1.607E+00    1.642E+00    1.678E+00    1.716E+00    1.756E+00    1.797E+00    1.840E+00    1.884E+00
     1.930E+00    1.977E+00    2.025E+00    2.075E+00    2.125E+00    2.177E+00    2.230E+00    2.284E+00    2.339E+00    2.395E+00
     2.452E+00    2.510E+00    2.568E+00    2.627E+00    2.687E+00    2.748E+00    2.809E+00    2.870E+00    2.932E+00    2.995E+00
     3.058E+00    3.121E+00    3.185E+00    3.250E+00    3.315E+00    3.380E+00    3.445E+00    3.512E+00    3.578E+00    3.645E+00
     3.712E+00    3.779E+00    3.847E+00    3.915E+00    3.984E+00    4.052E+00    4.121E+00    4.190E+00    4.260E+00    4.329E+00
     4.399E+00    4.469E+00    4.539E+00    4.610E+00    4.680E+00    4.751E+00    4.822E+00    4.893E+00    4.964E+00    5.035E+00
     5.106E+00    5.177E+00    5.249E+00    5.320E+00    5.391E+00    5.463E+00    5.534E+00    5.605E+00    5.677E+00    5.748E+00
     5.819E+00    5.890E+00    5.961E+00    6.032E+00    6.103E+00    6.173E+00    6.244E+00    6.314E+00    6.384E+00    6.454E+00
     6.524E+00    6.594E+00    6.663E+00    6.732E+00    6.801E+00    6.870E+00    6.939E+00    7.007E+00    7.075E+00    7.143E+00
     7.210E+00    7.277E+00    7.344E+00    7.410E+00    7.477E+00    7.542E+00    7.608E+00    7.673E+00    7.737E+00    7.802E+00
     7.865E+00    7.929E+00    7.992E+00    8.054E+00    8.116E+00    8.178E+00    8.239E+00    8.300E+00    8.360E+00    8.420E+00
     8.479E+00    8.537E+00    8.595E+00    8.653E+00    8.710E+00    8.766E+00    8.822E+00    8.877E+00    8.932E+00    8.986E+00
     9.039E+00    9.092E+00    9.144E+00    9.196E+00    9.247E+00    9.297E+00    9.347E+00    9.396E+00    9.445E+00    9.493E+00
     9.540E+00    9.587E+00    9.634E+00    9.679E+00    9.725E+00    9.769E+00    9.813E+00    9.857E+00    9.899E+00    9.942E+00
     9.984E+00    1.002E+01    1.007E+01    1.011E+01    1.014E+01    1.018E+01    1.022E+01    1.026E+01    1.030E+01    1.033E+01
     1.037E+01    1.041E+01    1.044E+01    1.048E+01    1.051E+01    1.054E+01    1.058E+01    1.061E+01    1.064E+01    1.067E+01
     1.070E+01    1.073E+01    1.076E+01    1.079E+01    1.082E+01    1.085E+01    1.088E+01    1.090E+01    1.093E+01    1.096E+01
     1.098E+01    1.101E+01    1.103E+01    1.106E+01    1.108E+01    1.110E+01    1.113E+01    1.115E+01    1.117E+01    1.120E+01
     1.122E+01    1.124E+01    1.126E+01    1.128E+01    1.130E+01    1.132E+01    1.134E+01    1.137E+01    1.139E+01    1.141E+01
     1.143E+01    1.144E+01    1.146E+01    1.148E+01    1.150E+01    1.152E+01    1.154E+01    1.156E+01    1.158E+01    1.160E+01
     1.162E+01    1.163E+01    1.165E+01    1.167E+01    1.169E+01    1.171E+01    1.173E+01    1.174E+01    1.176E+01    1.178E+01
     1.180E+01    1.182E+01    1.184E+01    1.186E+01    1.188E+01    1.189E+01    1.191E+01    1.193E+01    1.195E+01    1.197E+01
     1.199E+01    1.201E+01    1.203E+01    1.205E+01    1.207E+01    1.209E+01    1.211E+01    1.213E+01    1.215E+01    1.217E+01
     1.218E+01    1.220E+01    1.222E+01    1.224E+01    1.226E+01    1.228E+01    1.230E+01    1.232E+01    1.234E+01    1.237E+01
     1.239E+01    1.241E+01    1.243E+01    1.245E+01    1.247E+01    1.249E+01    1.251E+01    1.253E+01    1.255E+01    1.257E+01
     1.259E+01    1.261E+01    1.264E+01    1.266E+01    1.268E+01    1.270E+01    1.272E+01    1.274E+01    1.277E+01    1.279E+01
     1.281E+01    1.283E+01    1.285E+01    1.287E+01    1.290E+01    1.292E+01    1.294E+01    1.296E+01    1.299E+01    1.301E+01
     1.303E+01    1.305E+01    1.307E+01    1.310E+01    1.312E+01    1.314E+01    1.316E+01    1.318E+01    1.321E+01    1.323E+01
     1.325E+01    1.327E+01    1.329E+01    1.331E+01    1.334E+01    1.336E+01    1.338E+01    1.340E+01    1.342E+01    1.344E+01
     1.346E+01    1.349E+01    1.351E+01    1.353E+01    1.355E+01    1.357E+01    1.359E+01    1.361E+01
 Ala      Conc. = 1.05E+02
