 LCModel (Version 6.3-1L) Copyright: S.W. Provencher.          Ref.: Magn. Reson. Med. 30:672-679 (1993).                
 Slice#1 Row#7 Col#4  K_02_press_1_raw_act
 36 lines in following concentration table = NCONC+1
    Conc.  %SD /Cr+PCr  Metabolite                                         
  479.849  35%   0.398 Ala                                                 
    0.000 999%   0.000 Asp                                                 
    0.000 999%   0.000 Cr                                                  
 1.21E+03   6%   1.000 PCr                                                 
 5.54E-02 999% 4.6E-05 GABA                                                
  113.045 155% 9.4E-02 Glc                                                 
  786.611  44%   0.652 Gln                                                 
 1.56E+03  26%   1.291 Glu                                                 
  524.393   5%   0.434 GPC                                                 
    0.000 999%   0.000 PCh                                                 
  457.202  21%   0.379 GSH                                                 
 1.12E+03  28%   0.928 Ins                                                 
    1.208 999% 1.0E-03 Lac                                                 
 2.58E+03   7%   2.140 NAA                                                 
  500.417  39%   0.415 NAAG                                                
  180.685  19%   0.150 Scyllo                                              
  495.069  48%   0.410 Tau                                                 
  381.927  31%   0.316 -CrCH2                                              
  524.393   5%   0.434 GPC+PCh                                             
 3.08E+03   4%   2.554 NAA+NAAG                                            
 1.21E+03   6%   1.000 Cr+PCr                                              
 2.34E+03  26%   1.943 Glu+Gln                                             
 1.91E+03  33%   1.580 Lip13a                                              
    0.000 999%   0.000 Lip13b                                              
  184.263 138%   0.153 Lip09                                               
 1.39E+03  21%   1.149 MM09                                                
  343.248  50%   0.284 Lip20                                               
 2.71E+03  15%   2.244 MM20                                                
  485.623  33%   0.402 MM12                                                
 1.71E+03  24%   1.413 MM14                                                
  712.713  27%   0.590 MM17                                                
 1.91E+03  33%   1.580 Lip13a+Lip13b                                       
 4.10E+03   9%   3.396 MM14+Lip13a+Lip13b+MM12                             
 1.57E+03  11%   1.301 MM09+Lip09                                          
 3.05E+03  12%   2.528 MM20+Lip20                                          
   6 lines in following misc. output table
  FWHM = 0.061 ppm    S/N =  11                                            
  Data shift = 0.015 ppm                                                   
  Ph: -39 deg      -8.9 deg/ppm                                            
  alphaB,S = 8.5E+01,   3.8E+02                                            
   14 spline knots.   Ns = 8(1)                                            
  ( 9) 3 infls.   ( 5) 1 extrs.                                            
  498 points on ppm-axis = NY
      4.000000     3.992357     3.984714     3.977070     3.969427     3.961784     3.954141     3.946497     3.938854     3.931211
      3.923568     3.915925     3.908281     3.900638     3.892995     3.885352     3.877708     3.870065     3.862422     3.854779
      3.847136     3.839492     3.831849     3.824206     3.816563     3.808919     3.801276     3.793633     3.785990     3.778347
      3.770703     3.763060     3.755417     3.747774     3.740130     3.732487     3.724844     3.717201     3.709558     3.701914
      3.694271     3.686628     3.678985     3.671341     3.663698     3.656055     3.648412     3.640769     3.633125     3.625482
      3.617839     3.610196     3.602552     3.594909     3.587266     3.579623     3.571980     3.564336     3.556693     3.549050
      3.541407     3.533763     3.526120     3.518477     3.510834     3.503191     3.495547     3.487904     3.480261     3.472618
      3.464974     3.457331     3.449688     3.442045     3.434402     3.426758     3.419115     3.411472     3.403829     3.396185
      3.388542     3.380899     3.373256     3.365613     3.357969     3.350326     3.342683     3.335040     3.327396     3.319753
      3.312110     3.304467     3.296824     3.289180     3.281537     3.273894     3.266251     3.258607     3.250964     3.243321
      3.235678     3.228034     3.220391     3.212748     3.205105     3.197462     3.189818     3.182175     3.174532     3.166889
      3.159245     3.151602     3.143959     3.136316     3.128673     3.121029     3.113386     3.105743     3.098100     3.090456
      3.082813     3.075170     3.067527     3.059884     3.052240     3.044597     3.036954     3.029311     3.021667     3.014024
      3.006381     2.998738     2.991095     2.983451     2.975808     2.968165     2.960522     2.952878     2.945235     2.937592
      2.929949     2.922306     2.914662     2.907019     2.899376     2.891733     2.884089     2.876446     2.868803     2.861160
      2.853517     2.845873     2.838230     2.830587     2.822944     2.815300     2.807657     2.800014     2.792371     2.784728
      2.777084     2.769441     2.761798     2.754155     2.746511     2.738868     2.731225     2.723582     2.715939     2.708295
      2.700652     2.693009     2.685366     2.677722     2.670079     2.662436     2.654793     2.647150     2.639506     2.631863
      2.624220     2.616577     2.608933     2.601290     2.593647     2.586004     2.578361     2.570717     2.563074     2.555431
      2.547788     2.540144     2.532501     2.524858     2.517215     2.509572     2.501928     2.494285     2.486642     2.478999
      2.471355     2.463712     2.456069     2.448426     2.440783     2.433139     2.425496     2.417853     2.410210     2.402566
      2.394923     2.387280     2.379637     2.371994     2.364350     2.356707     2.349064     2.341421     2.333777     2.326134
      2.318491     2.310848     2.303205     2.295561     2.287918     2.280275     2.272632     2.264988     2.257345     2.249702
      2.242059     2.234416     2.226772     2.219129     2.211486     2.203843     2.196199     2.188556     2.180913     2.173270
      2.165627     2.157983     2.150340     2.142697     2.135054     2.127410     2.119767     2.112124     2.104481     2.096838
      2.089194     2.081551     2.073908     2.066265     2.058621     2.050978     2.043335     2.035692     2.028049     2.020405
      2.012762     2.005119     1.997476     1.989833     1.982190     1.974546     1.966903     1.959260     1.951617     1.943974
      1.936331     1.928688     1.921045     1.913402     1.905759     1.898115     1.890472     1.882829     1.875186     1.867543
      1.859900     1.852257     1.844614     1.836971     1.829327     1.821684     1.814041     1.806398     1.798755     1.791112
      1.783469     1.775826     1.768183     1.760540     1.752896     1.745253     1.737610     1.729967     1.722324     1.714681
      1.707038     1.699395     1.691752     1.684108     1.676465     1.668822     1.661179     1.653536     1.645893     1.638250
      1.630607     1.622964     1.615321     1.607677     1.600034     1.592391     1.584748     1.577105     1.569462     1.561819
      1.554176     1.546533     1.538890     1.531246     1.523603     1.515960     1.508317     1.500674     1.493031     1.485388
      1.477745     1.470102     1.462458     1.454815     1.447172     1.439529     1.431886     1.424243     1.416600     1.408957
      1.401314     1.393671     1.386027     1.378384     1.370741     1.363098     1.355455     1.347812     1.340169     1.332526
      1.324883     1.317240     1.309596     1.301953     1.294310     1.286667     1.279024     1.271381     1.263738     1.256095
      1.248452     1.240808     1.233165     1.225522     1.217879     1.210236     1.202593     1.194950     1.187307     1.179664
      1.172021     1.164377     1.156734     1.149091     1.141448     1.133805     1.126162     1.118519     1.110876     1.103233
      1.095590     1.087946     1.080303     1.072660     1.065017     1.057374     1.049731     1.042088     1.034445     1.026802
      1.019158     1.011515     1.003872     0.996229     0.988586     0.980943     0.973300     0.965657     0.958014     0.950371
      0.942727     0.935084     0.927441     0.919798     0.912155     0.904512     0.896869     0.889226     0.881583     0.873940
      0.866296     0.858653     0.851010     0.843367     0.835724     0.828081     0.820438     0.812795     0.805152     0.797508
      0.789865     0.782222     0.774579     0.766936     0.759293     0.751650     0.744007     0.736364     0.728721     0.721077
      0.713434     0.705791     0.698148     0.690505     0.682862     0.675219     0.667576     0.659933     0.652290     0.644646
      0.637003     0.629360     0.621717     0.614074     0.606431     0.598788     0.591145     0.583502     0.575858     0.568215
      0.560572     0.552929     0.545286     0.537643     0.530000     0.522357     0.514714     0.507071     0.499427     0.491784
      0.484141     0.476498     0.468855     0.461212     0.453569     0.445925     0.438282     0.430639     0.422996     0.415353
      0.407710     0.400067     0.392424     0.384780     0.377137     0.369494     0.361851     0.354208     0.346565     0.338922
      0.331278     0.323635     0.315992     0.308349     0.300706     0.293063     0.285420     0.277777     0.270133     0.262490
      0.254847     0.247204     0.239561     0.231918     0.224275     0.216631     0.208988     0.201345
 NY phased data points follow
  -1.93391E+01 -2.23050E+01 -1.79304E+01 -1.71927E+01 -1.44872E+01 -6.00030E+00 -4.62413E+00 -3.95144E+00 -1.72556E+00 -5.64864E+00
  -2.32926E+00  4.68019E+00 -4.39346E+00 -2.76392E+00 -9.80478E+00 -1.06864E+01 -1.51295E+01 -1.51648E+01 -1.61200E+01 -1.44322E+01
  -1.46611E+01 -1.35531E+01 -1.60944E+01 -9.10892E+00 -1.41016E+01 -1.20774E+01 -1.27602E+01 -6.50304E+00 -1.14295E+01 -1.03070E+01
  -5.39473E+00 -6.15038E+00 -1.69722E+01 -4.34110E+00 -1.04230E+01 -8.66851E+00 -8.78882E+00 -1.94358E+01 -1.13615E+01 -1.29184E+01
  -1.41758E+01 -7.30519E+00 -1.41484E+01 -5.36230E+00 -8.48610E+00 -4.20455E+00 -6.94681E+00 -6.34860E+00 -7.15075E+00 -7.11781E+00
  -1.25797E+01 -6.00501E+00 -8.39362E+00 -9.18920E+00 -1.07523E+01 -9.99457E+00 -1.01038E+01 -6.88248E+00 -8.63530E+00 -1.43816E+01
  -1.20964E+01 -1.23819E+01 -1.53403E+01 -1.12808E+01 -1.69735E+01 -1.67557E+01 -1.08759E+01 -1.49337E+01 -1.66400E+01 -1.26434E+01
  -1.75721E+01 -9.23586E+00 -9.10565E+00 -1.27761E+01 -1.27518E+01 -1.18546E+01 -1.34115E+01 -1.46286E+01 -1.36227E+01 -1.58659E+01
  -1.58895E+01 -1.20371E+01 -4.44425E+00 -8.13056E+00 -1.17023E+01 -1.21984E+01 -4.87052E+00 -1.13594E+01 -7.16867E+00 -4.49947E+00
  -9.68156E+00 -1.16275E+01 -6.72475E+00 -6.88388E+00 -5.99613E+00 -6.84390E+00 -7.91702E+00  2.39248E+00  1.00688E+01  1.16484E+01
   2.02837E+01  2.59774E+01  3.57878E+01  2.49723E+01  2.41276E+01  1.92517E+01  1.26063E+01  1.81995E+00 -1.75765E+00 -6.10784E+00
  -4.21852E+00 -1.19943E+01 -9.25441E+00 -9.92847E+00 -6.30992E+00 -7.44075E+00 -5.79536E+00 -6.96088E+00 -8.35044E+00 -8.28961E+00
   2.11889E-02 -1.52898E+00 -3.36084E+00  1.92279E+00  1.12565E+01  2.40420E+01  3.07186E+01  2.20208E+01  2.14015E+01  1.81943E+01
   7.06307E+00  9.89020E+00  2.74976E+00 -2.56793E+00 -2.04637E+00 -5.66190E+00 -7.68522E+00 -6.13394E+00 -9.17788E+00 -4.54691E+00
  -1.37343E+01 -6.76251E+00 -2.01702E+00 -1.09975E+01 -6.68628E+00 -6.44346E+00 -1.05249E+01 -1.00791E+01 -8.06700E+00 -1.42295E+01
  -1.15765E+01 -1.16658E+01 -1.48705E+01 -7.67138E+00 -1.02878E+01 -1.20712E+01 -1.18615E+01 -1.25797E+01 -7.69241E+00 -9.61351E+00
  -1.34640E+01 -1.09267E+01 -1.02304E+01 -7.82342E+00 -8.65277E+00 -1.01266E+01 -1.38119E+01 -1.52015E+01 -2.16321E+01 -1.96048E+01
  -1.66558E+01 -2.31300E+01 -2.15189E+01 -1.98726E+01 -2.05026E+01 -2.41898E+01 -2.22373E+01 -2.31304E+01 -2.26362E+01 -2.13099E+01
  -2.02507E+01 -2.66308E+01 -1.94280E+01 -1.58262E+01 -1.72639E+01 -1.01847E+01 -6.67226E+00 -2.01727E+01 -5.91969E+00 -1.16003E+01
  -8.84716E+00 -1.37714E+01 -1.36388E+01 -1.59322E+01 -1.58370E+01 -1.57618E+01 -2.17371E+01 -1.68943E+01 -2.34761E+01 -2.16267E+01
  -1.91744E+01 -1.00826E+01 -1.31958E+01 -9.11858E+00 -1.36900E+01 -7.44848E+00 -1.06755E+01 -1.35382E+01 -1.07713E+01 -9.52031E+00
  -9.11879E+00 -8.18013E+00 -8.77203E+00 -5.02852E+00 -2.27138E+00 -8.30091E-02  6.69227E+00 -8.22605E-01 -9.21471E+00 -9.21505E+00
  -5.27692E+00 -1.35608E+01 -9.86509E+00 -8.03286E+00 -6.30231E+00 -8.63707E+00 -9.48633E+00 -6.63402E+00 -3.21240E+00  3.76182E-01
   1.17271E+00 -3.35853E+00 -2.23073E-02 -1.93923E+00 -4.77572E+00  1.36949E+00  2.65267E+00 -2.69847E+00 -2.97184E+00  1.12454E+00
  -7.82675E+00  1.91146E+00 -1.07781E+01 -5.49953E+00 -2.98405E+00 -9.87651E-01  1.13276E+00  7.04951E+00  3.31732E+00  4.21927E+00
   7.11219E+00  1.36638E+01  2.21033E+01  3.04120E+01  4.00336E+01  4.24113E+01  5.05542E+01  5.76055E+01  7.21190E+01  8.54609E+01
   8.38551E+01  7.94417E+01  7.63659E+01  5.13931E+01  3.49312E+01  2.53816E+01  1.94122E+01  6.54744E+00  4.83841E+00  4.35705E+00
  -9.22548E-01 -2.49399E-01 -1.50516E+00 -6.71366E+00 -7.47375E+00 -4.45366E-02 -4.13396E+00 -3.81611E+00 -1.01222E+01 -5.28584E+00
  -9.04707E+00 -3.72313E+00 -6.80438E+00 -5.03214E+00 -6.63859E+00 -8.03649E+00 -2.64976E+00 -6.74421E+00 -3.67961E+00 -8.49991E+00
  -4.12409E+00 -2.69999E+00 -2.69673E+00 -6.58251E+00 -7.62011E+00 -6.87768E+00 -2.13665E+00 -6.77596E+00 -7.85588E+00  5.41626E-01
  -5.53629E+00 -1.63360E+00 -1.24615E+00  7.29333E-01 -2.74723E+00 -4.77745E+00 -2.49477E+00 -4.51684E+00 -2.43297E+00 -9.83877E-01
   3.97314E+00 -1.78864E+00 -2.19182E+00 -3.47909E+00  1.52217E+00 -3.74291E+00 -3.99614E+00 -7.20967E+00 -2.27678E+00 -2.57845E+00
  -3.34810E+00 -4.22845E+00 -5.12424E+00  4.08161E-02 -1.22136E+00  1.17931E+00 -2.55639E+00  1.96236E+00 -3.25736E+00  4.55611E+00
   8.45306E-01 -3.51812E+00 -7.73865E+00  2.79836E+00 -7.49776E-01  5.12977E+00  8.87295E+00  3.29243E+00  1.17567E+01  8.89432E+00
   4.59588E+00  1.52970E+01  1.68413E+01  1.49998E+01  1.96297E+01  1.08026E+01  1.29856E+01  8.70757E+00  1.21563E+01  9.95508E+00
   4.32959E+00  8.62870E+00  6.47898E+00  7.21291E+00  6.33472E+00  4.28398E+00  6.11795E+00 -1.73545E-01  2.16560E+00 -6.15362E-01
   9.48298E-01 -2.48314E+00 -2.15007E+00  1.97233E+00  6.31829E+00  2.01547E+00  6.38060E+00  3.78192E+00  1.19784E+00  2.48472E+00
   1.34476E+00  8.06028E+00  4.12309E+00  7.77778E+00  2.78855E+00  2.66010E+00 -5.72082E-01  2.65437E+00  2.25348E+00  9.64134E-01
  -1.17076E+00 -3.12449E+00 -7.23795E+00 -2.05876E-02 -9.92005E+00 -1.96072E+00 -2.71675E+00 -6.80151E+00 -8.93951E+00 -3.96994E-01
  -2.69740E+00 -2.55463E+00 -1.64989E+00  3.09998E+00  2.03690E+00  3.41725E+00  5.00388E+00  2.07552E+00  2.51864E+00  7.85510E-01
   6.62332E+00 -1.31191E+00  3.48088E+00  9.35210E+00  4.74616E+00  3.83103E+00  3.69286E+00  6.46966E+00  4.76671E+00  3.25391E+00
   3.61964E+00  1.88687E+00  2.97007E-01  2.17901E+00 -3.37209E+00 -2.22476E+00 -3.07717E+00 -6.74652E+00 -2.67703E+00 -3.23521E+00
  -3.82964E+00 -8.03563E+00 -1.97294E+00 -6.55550E+00 -5.88560E+00 -6.50872E+00 -5.10658E+00 -5.73496E+00 -2.69924E+00 -8.11928E+00
  -8.24993E+00 -8.77892E+00 -1.00442E+01 -3.64306E+00 -3.62031E+00 -1.33060E+00 -6.60832E+00 -3.99223E+00  5.79511E-01 -1.12748E+01
  -4.35061E+00 -7.14711E+00 -4.75053E+00 -4.45625E+00 -5.25883E+00 -2.16160E+00 -5.17052E+00 -9.60326E+00 -2.69672E+00 -1.07353E+01
  -4.14496E+00 -3.49711E+00 -5.66924E+00 -3.83282E+00 -2.50317E+00 -6.26334E+00 -9.70036E+00 -4.77335E+00 -8.15445E+00 -2.26752E+00
  -3.67438E+00 -3.78580E+00 -5.99051E+00 -2.58447E+00 -1.18918E+01 -5.41308E+00 -3.59310E+00 -5.94088E+00 -9.20592E+00 -2.08682E-01
  -3.27420E+00 -1.63931E+00 -5.04576E+00 -4.44990E+00 -5.06035E+00 -3.95575E+00 -4.35095E-01 -5.15709E+00 -5.61448E+00 -5.26145E+00
  -5.55479E+00 -1.47213E+00 -7.31420E+00 -3.81723E+00 -4.77461E+00 -1.52125E+00 -7.33965E+00 -7.71920E+00 -1.21670E+00 -5.12781E+00
  -3.66606E+00 -9.13443E+00 -2.37428E+00 -4.91620E+00 -3.53044E+00 -3.73186E+00 -3.77606E+00 -2.09776E-03
 NY points of the fit to the data follow
  -1.77001E+01 -1.71714E+01 -1.59017E+01 -1.40553E+01 -1.17443E+01 -9.06683E+00 -6.22914E+00 -3.60112E+00 -1.61252E+00 -6.03512E-01
  -6.98802E-01 -1.78770E+00 -3.56065E+00 -5.63995E+00 -7.72387E+00 -9.63592E+00 -1.12808E+01 -1.25512E+01 -1.33555E+01 -1.37423E+01
  -1.40230E+01 -1.42243E+01 -1.41459E+01 -1.38612E+01 -1.34072E+01 -1.27401E+01 -1.17873E+01 -1.05278E+01 -9.09966E+00 -7.68299E+00
  -6.46878E+00 -5.67035E+00 -5.44125E+00 -5.80024E+00 -6.64775E+00 -7.85329E+00 -9.29274E+00 -1.07641E+01 -1.20165E+01 -1.27485E+01
  -1.28129E+01 -1.23419E+01 -1.14850E+01 -1.03782E+01 -9.16537E+00 -8.02889E+00 -7.18413E+00 -6.80047E+00 -6.97175E+00 -7.69091E+00
  -8.81320E+00 -1.00786E+01 -1.12544E+01 -1.22003E+01 -1.28575E+01 -1.32136E+01 -1.32923E+01 -1.31514E+01 -1.28960E+01 -1.26453E+01
  -1.25246E+01 -1.25606E+01 -1.27433E+01 -1.30141E+01 -1.32687E+01 -1.34415E+01 -1.35256E+01 -1.35019E+01 -1.33239E+01 -1.30211E+01
  -1.26679E+01 -1.23265E+01 -1.20570E+01 -1.19065E+01 -1.18890E+01 -1.20201E+01 -1.23088E+01 -1.27187E+01 -1.31019E+01 -1.31392E+01
  -1.28080E+01 -1.21928E+01 -1.13341E+01 -1.02875E+01 -9.16022E+00 -8.13547E+00 -7.46351E+00 -7.35242E+00 -7.82868E+00 -8.80255E+00
  -1.00874E+01 -1.14238E+01 -1.26139E+01 -1.32016E+01 -1.19987E+01 -8.85958E+00 -4.29764E+00  1.41220E+00  7.96486E+00  1.48632E+01
   2.12751E+01  2.60782E+01  2.83150E+01  2.76084E+01  2.42317E+01  1.89752E+01  1.28716E+01  6.79550E+00  1.30228E+00 -3.30655E+00
  -6.89378E+00 -9.34107E+00 -1.06184E+01 -1.12916E+01 -1.17761E+01 -1.21564E+01 -1.24416E+01 -1.25514E+01 -1.19130E+01 -9.77990E+00
  -6.43446E+00 -2.24346E+00  2.64476E+00  8.06153E+00  1.35755E+01  1.84424E+01  2.17610E+01  2.28533E+01  2.15842E+01  1.83280E+01
   1.37916E+01  8.77783E+00  3.87466E+00 -5.45624E-01 -4.24671E+00 -7.05494E+00 -8.78504E+00 -9.51087E+00 -9.72129E+00 -9.66502E+00
  -9.48006E+00 -9.27943E+00 -9.14463E+00 -9.11448E+00 -9.21067E+00 -9.43016E+00 -9.74170E+00 -1.01104E+01 -1.04897E+01 -1.08351E+01
  -1.11257E+01 -1.13407E+01 -1.15029E+01 -1.16862E+01 -1.19044E+01 -1.21309E+01 -1.23447E+01 -1.25204E+01 -1.27021E+01 -1.29249E+01
  -1.31564E+01 -1.33468E+01 -1.34853E+01 -1.35977E+01 -1.37364E+01 -1.39550E+01 -1.42746E+01 -1.46978E+01 -1.52237E+01 -1.57981E+01
  -1.63270E+01 -1.67932E+01 -1.71999E+01 -1.75790E+01 -1.79055E+01 -1.81031E+01 -1.81534E+01 -1.80993E+01 -1.80072E+01 -1.79582E+01
  -1.79239E+01 -1.77952E+01 -1.74978E+01 -1.69980E+01 -1.62838E+01 -1.53811E+01 -1.43326E+01 -1.31584E+01 -1.19389E+01 -1.08425E+01
  -1.00630E+01 -9.69298E+00 -9.69986E+00 -9.96345E+00 -1.03308E+01 -1.06338E+01 -1.06943E+01 -1.04102E+01 -9.74696E+00 -8.78619E+00
  -7.71196E+00 -6.75473E+00 -6.22818E+00 -6.26798E+00 -6.88881E+00 -8.09492E+00 -9.72306E+00 -1.14379E+01 -1.27753E+01 -1.33954E+01
  -1.32225E+01 -1.22774E+01 -1.06932E+01 -8.76451E+00 -6.97600E+00 -5.82755E+00 -5.55002E+00 -6.11417E+00 -7.38050E+00 -9.05793E+00
  -1.07406E+01 -1.19511E+01 -1.23778E+01 -1.19869E+01 -1.08844E+01 -9.27681E+00 -7.45569E+00 -5.78084E+00 -4.51784E+00 -3.64644E+00
  -3.07330E+00 -2.71552E+00 -2.48293E+00 -2.26399E+00 -1.99010E+00 -1.73807E+00 -1.57080E+00 -1.48549E+00 -1.49139E+00 -1.60497E+00
  -1.77422E+00 -1.89975E+00 -1.85708E+00 -1.56009E+00 -1.00194E+00 -2.15065E-01  7.54637E-01  1.98431E+00  3.73864E+00  5.97444E+00
   8.56558E+00  1.18043E+01  1.72617E+01  2.56472E+01  3.56278E+01  4.61309E+01  5.65836E+01  6.63996E+01  7.45364E+01  7.95372E+01
   8.00833E+01  7.56853E+01  6.69044E+01  5.51528E+01  4.22810E+01  2.99849E+01  1.93246E+01  1.06345E+01  4.00848E+00 -4.72737E-01
  -2.74496E+00 -3.56926E+00 -3.98451E+00 -4.27206E+00 -4.50952E+00 -4.73730E+00 -4.97515E+00 -5.21580E+00 -5.44953E+00 -5.66198E+00
  -5.84036E+00 -5.97786E+00 -6.07553E+00 -6.13457E+00 -6.15401E+00 -6.13991E+00 -6.10043E+00 -6.03671E+00 -5.94234E+00 -5.81151E+00
  -5.64409E+00 -5.44566E+00 -5.22026E+00 -4.97417E+00 -4.71747E+00 -4.45987E+00 -4.20687E+00 -3.96196E+00 -3.72741E+00 -3.50536E+00
  -3.29895E+00 -3.11176E+00 -2.94765E+00 -2.81253E+00 -2.71132E+00 -2.64636E+00 -2.61740E+00 -2.62175E+00 -2.65464E+00 -2.70933E+00
  -2.77633E+00 -2.84566E+00 -2.90699E+00 -2.94906E+00 -2.95986E+00 -2.92616E+00 -2.83251E+00 -2.65862E+00 -2.37182E+00 -1.90622E+00
  -1.22877E+00 -5.14658E-01  1.15405E-01  6.23019E-01  9.57594E-01  1.02639E+00  7.21204E-01  3.02738E-02 -7.76498E-01 -1.42794E+00
  -1.74291E+00 -1.56143E+00 -7.72118E-01  6.28588E-01  2.51533E+00  4.65573E+00  6.77347E+00  8.62639E+00  1.00296E+01  1.08725E+01
   1.12318E+01  1.12454E+01  1.10278E+01  1.06658E+01  1.02280E+01  9.78527E+00  9.41311E+00  9.08482E+00  8.75534E+00  8.41077E+00
   8.04874E+00  7.67097E+00  7.28049E+00  6.88038E+00  6.47312E+00  6.06052E+00  5.64377E+00  5.22374E+00  4.80093E+00  4.37595E+00
   3.94949E+00  3.52223E+00  3.09490E+00  2.66853E+00  2.24455E+00  1.82485E+00  1.41143E+00  1.00659E+00  6.13043E-01  2.33838E-01
  -1.27805E-01 -4.68584E-01 -7.85279E-01 -1.07474E+00 -1.33397E+00 -1.56009E+00 -1.75047E+00 -1.90272E+00 -2.01475E+00 -2.08466E+00
  -2.11076E+00 -2.09157E+00 -2.02591E+00 -1.91288E+00 -1.75201E+00 -1.54324E+00 -1.28707E+00 -9.84701E-01 -6.38262E-01 -2.50941E-01
   1.72854E-01  6.27435E-01  1.10571E+00  1.59915E+00  2.09785E+00  2.59066E+00  3.06552E+00  3.50982E+00  3.91081E+00  4.25611E+00
   4.53420E+00  4.73505E+00  4.85060E+00  4.87527E+00  4.80617E+00  4.64332E+00  4.38962E+00  4.05084E+00  3.63527E+00  3.15332E+00
   2.61696E+00  2.03916E+00  1.43328E+00  8.12551E-01  1.89500E-01 -4.24437E-01 -1.01934E+00 -1.58697E+00 -2.12090E+00 -2.61642E+00
  -3.07057E+00 -3.48188E+00 -3.85030E+00 -4.17685E+00 -4.46343E+00 -4.71250E+00 -4.92697E+00 -5.10995E+00 -5.26468E+00 -5.39431E+00
  -5.50183E+00 -5.59000E+00 -5.66136E+00 -5.71820E+00 -5.76257E+00 -5.79625E+00 -5.82077E+00 -5.83740E+00 -5.84730E+00 -5.85142E+00
  -5.85063E+00 -5.84559E+00 -5.83688E+00 -5.82497E+00 -5.81031E+00 -5.79325E+00 -5.77414E+00 -5.75320E+00 -5.73065E+00 -5.70665E+00
  -5.68141E+00 -5.65507E+00 -5.62776E+00 -5.59957E+00 -5.57057E+00 -5.54084E+00 -5.51048E+00 -5.47956E+00 -5.44814E+00 -5.41624E+00
  -5.38389E+00 -5.35114E+00 -5.31805E+00 -5.28464E+00 -5.25093E+00 -5.21693E+00 -5.18265E+00 -5.14813E+00 -5.11340E+00 -5.07846E+00
  -5.04332E+00 -5.00796E+00 -4.97240E+00 -4.93666E+00 -4.90077E+00 -4.86470E+00 -4.82844E+00 -4.79199E+00 -4.75537E+00 -4.71859E+00
  -4.68164E+00 -4.64450E+00 -4.60715E+00 -4.56959E+00 -4.53182E+00 -4.49384E+00 -4.45563E+00 -4.41715E+00 -4.37838E+00 -4.33930E+00
  -4.29990E+00 -4.26016E+00 -4.22002E+00 -4.17943E+00 -4.13834E+00 -4.09669E+00 -4.05446E+00 -4.01154E+00
 NY background values follow
    -1.767E+01   -1.764E+01   -1.762E+01   -1.760E+01   -1.757E+01   -1.755E+01   -1.753E+01   -1.751E+01   -1.748E+01   -1.746E+01
    -1.744E+01   -1.741E+01   -1.739E+01   -1.737E+01   -1.734E+01   -1.732E+01   -1.730E+01   -1.727E+01   -1.725E+01   -1.723E+01
    -1.720E+01   -1.718E+01   -1.715E+01   -1.713E+01   -1.711E+01   -1.708E+01   -1.706E+01   -1.703E+01   -1.701E+01   -1.699E+01
    -1.696E+01   -1.694E+01   -1.691E+01   -1.689E+01   -1.686E+01   -1.684E+01   -1.681E+01   -1.679E+01   -1.676E+01   -1.674E+01
    -1.671E+01   -1.669E+01   -1.666E+01   -1.664E+01   -1.661E+01   -1.659E+01   -1.656E+01   -1.654E+01   -1.651E+01   -1.649E+01
    -1.646E+01   -1.644E+01   -1.641E+01   -1.639E+01   -1.636E+01   -1.634E+01   -1.631E+01   -1.628E+01   -1.626E+01   -1.623E+01
    -1.621E+01   -1.618E+01   -1.615E+01   -1.613E+01   -1.610E+01   -1.608E+01   -1.605E+01   -1.602E+01   -1.600E+01   -1.597E+01
    -1.595E+01   -1.592E+01   -1.589E+01   -1.587E+01   -1.584E+01   -1.581E+01   -1.579E+01   -1.576E+01   -1.573E+01   -1.571E+01
    -1.568E+01   -1.565E+01   -1.562E+01   -1.560E+01   -1.557E+01   -1.554E+01   -1.552E+01   -1.549E+01   -1.546E+01   -1.543E+01
    -1.541E+01   -1.538E+01   -1.535E+01   -1.533E+01   -1.530E+01   -1.527E+01   -1.524E+01   -1.521E+01   -1.519E+01   -1.516E+01
    -1.513E+01   -1.510E+01   -1.508E+01   -1.505E+01   -1.502E+01   -1.499E+01   -1.496E+01   -1.494E+01   -1.491E+01   -1.488E+01
    -1.485E+01   -1.482E+01   -1.479E+01   -1.477E+01   -1.474E+01   -1.471E+01   -1.468E+01   -1.465E+01   -1.462E+01   -1.460E+01
    -1.457E+01   -1.454E+01   -1.451E+01   -1.448E+01   -1.445E+01   -1.442E+01   -1.439E+01   -1.437E+01   -1.434E+01   -1.431E+01
    -1.428E+01   -1.425E+01   -1.422E+01   -1.419E+01   -1.416E+01   -1.413E+01   -1.410E+01   -1.407E+01   -1.405E+01   -1.402E+01
    -1.399E+01   -1.396E+01   -1.393E+01   -1.390E+01   -1.387E+01   -1.384E+01   -1.381E+01   -1.378E+01   -1.375E+01   -1.372E+01
    -1.369E+01   -1.366E+01   -1.363E+01   -1.360E+01   -1.357E+01   -1.354E+01   -1.351E+01   -1.348E+01   -1.345E+01   -1.342E+01
    -1.339E+01   -1.336E+01   -1.333E+01   -1.330E+01   -1.327E+01   -1.324E+01   -1.321E+01   -1.318E+01   -1.315E+01   -1.312E+01
    -1.309E+01   -1.306E+01   -1.303E+01   -1.300E+01   -1.297E+01   -1.294E+01   -1.291E+01   -1.287E+01   -1.284E+01   -1.281E+01
    -1.278E+01   -1.275E+01   -1.272E+01   -1.269E+01   -1.266E+01   -1.263E+01   -1.260E+01   -1.257E+01   -1.254E+01   -1.250E+01
    -1.247E+01   -1.244E+01   -1.241E+01   -1.238E+01   -1.235E+01   -1.232E+01   -1.229E+01   -1.226E+01   -1.222E+01   -1.219E+01
    -1.216E+01   -1.213E+01   -1.210E+01   -1.207E+01   -1.204E+01   -1.201E+01   -1.197E+01   -1.194E+01   -1.191E+01   -1.188E+01
    -1.185E+01   -1.182E+01   -1.178E+01   -1.175E+01   -1.172E+01   -1.169E+01   -1.166E+01   -1.163E+01   -1.159E+01   -1.156E+01
    -1.153E+01   -1.150E+01   -1.147E+01   -1.144E+01   -1.140E+01   -1.137E+01   -1.134E+01   -1.131E+01   -1.128E+01   -1.124E+01
    -1.121E+01   -1.118E+01   -1.115E+01   -1.112E+01   -1.108E+01   -1.105E+01   -1.102E+01   -1.099E+01   -1.096E+01   -1.092E+01
    -1.089E+01   -1.086E+01   -1.083E+01   -1.079E+01   -1.076E+01   -1.073E+01   -1.070E+01   -1.067E+01   -1.063E+01   -1.060E+01
    -1.057E+01   -1.054E+01   -1.050E+01   -1.047E+01   -1.044E+01   -1.041E+01   -1.037E+01   -1.034E+01   -1.031E+01   -1.028E+01
    -1.024E+01   -1.021E+01   -1.018E+01   -1.015E+01   -1.011E+01   -1.008E+01   -1.005E+01   -1.002E+01   -9.983E+00   -9.950E+00
    -9.917E+00   -9.885E+00   -9.852E+00   -9.819E+00   -9.786E+00   -9.754E+00   -9.721E+00   -9.688E+00   -9.655E+00   -9.623E+00
    -9.590E+00   -9.557E+00   -9.524E+00   -9.491E+00   -9.458E+00   -9.426E+00   -9.393E+00   -9.360E+00   -9.327E+00   -9.294E+00
    -9.261E+00   -9.228E+00   -9.195E+00   -9.162E+00   -9.129E+00   -9.096E+00   -9.063E+00   -9.030E+00   -8.997E+00   -8.964E+00
    -8.931E+00   -8.898E+00   -8.865E+00   -8.832E+00   -8.799E+00   -8.766E+00   -8.733E+00   -8.700E+00   -8.667E+00   -8.634E+00
    -8.601E+00   -8.568E+00   -8.535E+00   -8.501E+00   -8.468E+00   -8.435E+00   -8.402E+00   -8.369E+00   -8.336E+00   -8.303E+00
    -8.270E+00   -8.236E+00   -8.203E+00   -8.170E+00   -8.137E+00   -8.104E+00   -8.071E+00   -8.038E+00   -8.004E+00   -7.971E+00
    -7.938E+00   -7.905E+00   -7.872E+00   -7.838E+00   -7.805E+00   -7.772E+00   -7.739E+00   -7.706E+00   -7.673E+00   -7.639E+00
    -7.606E+00   -7.573E+00   -7.540E+00   -7.507E+00   -7.473E+00   -7.440E+00   -7.407E+00   -7.374E+00   -7.341E+00   -7.307E+00
    -7.274E+00   -7.241E+00   -7.208E+00   -7.175E+00   -7.141E+00   -7.108E+00   -7.075E+00   -7.042E+00   -7.009E+00   -6.976E+00
    -6.942E+00   -6.909E+00   -6.876E+00   -6.843E+00   -6.810E+00   -6.777E+00   -6.743E+00   -6.710E+00   -6.677E+00   -6.644E+00
    -6.611E+00   -6.578E+00   -6.545E+00   -6.511E+00   -6.478E+00   -6.445E+00   -6.412E+00   -6.379E+00   -6.346E+00   -6.313E+00
    -6.280E+00   -6.247E+00   -6.214E+00   -6.180E+00   -6.147E+00   -6.114E+00   -6.081E+00   -6.048E+00   -6.015E+00   -5.982E+00
    -5.949E+00   -5.916E+00   -5.883E+00   -5.850E+00   -5.817E+00   -5.784E+00   -5.751E+00   -5.718E+00   -5.685E+00   -5.652E+00
    -5.620E+00   -5.587E+00   -5.554E+00   -5.521E+00   -5.488E+00   -5.455E+00   -5.422E+00   -5.389E+00   -5.357E+00   -5.324E+00
    -5.291E+00   -5.258E+00   -5.225E+00   -5.193E+00   -5.160E+00   -5.127E+00   -5.094E+00   -5.062E+00   -5.029E+00   -4.996E+00
    -4.963E+00   -4.931E+00   -4.898E+00   -4.865E+00   -4.833E+00   -4.800E+00   -4.768E+00   -4.735E+00   -4.702E+00   -4.670E+00
    -4.637E+00   -4.605E+00   -4.572E+00   -4.540E+00   -4.507E+00   -4.475E+00   -4.442E+00   -4.410E+00   -4.378E+00   -4.345E+00
    -4.313E+00   -4.280E+00   -4.248E+00   -4.216E+00   -4.183E+00   -4.151E+00   -4.119E+00   -4.087E+00   -4.054E+00   -4.022E+00
    -3.990E+00   -3.958E+00   -3.926E+00   -3.893E+00   -3.861E+00   -3.829E+00   -3.797E+00   -3.765E+00   -3.733E+00   -3.701E+00
    -3.669E+00   -3.637E+00   -3.605E+00   -3.573E+00   -3.541E+00   -3.509E+00   -3.477E+00   -3.445E+00   -3.414E+00   -3.382E+00
    -3.350E+00   -3.318E+00   -3.286E+00   -3.255E+00   -3.223E+00   -3.191E+00   -3.160E+00   -3.128E+00   -3.096E+00   -3.065E+00
    -3.033E+00   -3.002E+00   -2.970E+00   -2.939E+00   -2.907E+00   -2.876E+00   -2.844E+00   -2.813E+00   -2.782E+00   -2.750E+00
    -2.719E+00   -2.688E+00   -2.657E+00   -2.625E+00   -2.594E+00   -2.563E+00   -2.532E+00   -2.501E+00
 Ala      Conc. = 4.80E+02
