 LCModel (Version 6.3-1L) Copyright: S.W. Provencher.          Ref.: Magn. Reson. Med. 30:672-679 (1993).                
 Slice#3 Row#10 Col#3  K_02_press_1_raw_act
 36 lines in following concentration table = NCONC+1
    Conc.  %SD /Cr+PCr  Metabolite                                         
  584.342  34%   0.517 Ala                                                 
    0.000 999%   0.000 Asp                                                 
 1.13E+03   5%   1.000 Cr                                                  
    0.000 999%   0.000 PCr                                                 
  193.803  75%   0.172 GABA                                                
    0.000 999%   0.000 Glc                                                 
 2.13E+03  25%   1.884 Gln                                                 
 2.62E+03  24%   2.319 Glu                                                 
  399.593   6%   0.354 GPC                                                 
    0.000 999%   0.000 PCh                                                 
  823.226  13%   0.729 GSH                                                 
 1.61E+03  25%   1.425 Ins                                                 
    0.000 999%   0.000 Lac                                                 
 1.69E+03   4%   1.499 NAA                                                 
    0.000 999%   0.000 NAAG                                                
  143.162  22%   0.127 Scyllo                                              
    0.000 999%   0.000 Tau                                                 
   24.525 595% 2.2E-02 -CrCH2                                              
  399.593   6%   0.354 GPC+PCh                                             
 1.69E+03   4%   1.499 NAA+NAAG                                            
 1.13E+03   5%   1.000 Cr+PCr                                              
 4.75E+03  23%   4.202 Glu+Gln                                             
    4.083 999% 3.6E-03 Lip13a                                              
    0.000 999%   0.000 Lip13b                                              
    0.000 999%   0.000 Lip09                                               
 1.03E+03  16%   0.912 MM09                                                
    1.271 999% 1.1E-03 Lip20                                               
 1.53E+03  17%   1.352 MM20                                                
  306.785  19%   0.272 MM12                                                
 1.15E+03   9%   1.015 MM14                                                
  360.723  28%   0.319 MM17                                                
    4.083 999% 3.6E-03 Lip13a+Lip13b                                       
 1.46E+03  11%   1.290 MM14+Lip13a+Lip13b+MM12                             
 1.03E+03  16%   0.912 MM09+Lip09                                          
 1.53E+03  17%   1.353 MM20+Lip20                                          
   6 lines in following misc. output table
  FWHM = 0.092 ppm    S/N =   9                                            
  Data shift = 0.031 ppm                                                   
  Ph: -29 deg     -18.6 deg/ppm                                            
  alphaB,S = 4.8E-01,   1.7E+02                                            
   14 spline knots.   Ns = 6(2)                                            
  ( 6) 2 infls.   ( 1) 1 extrs.                                            
  498 points on ppm-axis = NY
      4.000000     3.992357     3.984714     3.977070     3.969427     3.961784     3.954141     3.946497     3.938854     3.931211
      3.923568     3.915925     3.908281     3.900638     3.892995     3.885352     3.877708     3.870065     3.862422     3.854779
      3.847136     3.839492     3.831849     3.824206     3.816563     3.808919     3.801276     3.793633     3.785990     3.778347
      3.770703     3.763060     3.755417     3.747774     3.740130     3.732487     3.724844     3.717201     3.709558     3.701914
      3.694271     3.686628     3.678985     3.671341     3.663698     3.656055     3.648412     3.640769     3.633125     3.625482
      3.617839     3.610196     3.602552     3.594909     3.587266     3.579623     3.571980     3.564336     3.556693     3.549050
      3.541407     3.533763     3.526120     3.518477     3.510834     3.503191     3.495547     3.487904     3.480261     3.472618
      3.464974     3.457331     3.449688     3.442045     3.434402     3.426758     3.419115     3.411472     3.403829     3.396185
      3.388542     3.380899     3.373256     3.365613     3.357969     3.350326     3.342683     3.335040     3.327396     3.319753
      3.312110     3.304467     3.296824     3.289180     3.281537     3.273894     3.266251     3.258607     3.250964     3.243321
      3.235678     3.228034     3.220391     3.212748     3.205105     3.197462     3.189818     3.182175     3.174532     3.166889
      3.159245     3.151602     3.143959     3.136316     3.128673     3.121029     3.113386     3.105743     3.098100     3.090456
      3.082813     3.075170     3.067527     3.059884     3.052240     3.044597     3.036954     3.029311     3.021667     3.014024
      3.006381     2.998738     2.991095     2.983451     2.975808     2.968165     2.960522     2.952878     2.945235     2.937592
      2.929949     2.922306     2.914662     2.907019     2.899376     2.891733     2.884089     2.876446     2.868803     2.861160
      2.853517     2.845873     2.838230     2.830587     2.822944     2.815300     2.807657     2.800014     2.792371     2.784728
      2.777084     2.769441     2.761798     2.754155     2.746511     2.738868     2.731225     2.723582     2.715939     2.708295
      2.700652     2.693009     2.685366     2.677722     2.670079     2.662436     2.654793     2.647150     2.639506     2.631863
      2.624220     2.616577     2.608933     2.601290     2.593647     2.586004     2.578361     2.570717     2.563074     2.555431
      2.547788     2.540144     2.532501     2.524858     2.517215     2.509572     2.501928     2.494285     2.486642     2.478999
      2.471355     2.463712     2.456069     2.448426     2.440783     2.433139     2.425496     2.417853     2.410210     2.402566
      2.394923     2.387280     2.379637     2.371994     2.364350     2.356707     2.349064     2.341421     2.333777     2.326134
      2.318491     2.310848     2.303205     2.295561     2.287918     2.280275     2.272632     2.264988     2.257345     2.249702
      2.242059     2.234416     2.226772     2.219129     2.211486     2.203843     2.196199     2.188556     2.180913     2.173270
      2.165627     2.157983     2.150340     2.142697     2.135054     2.127410     2.119767     2.112124     2.104481     2.096838
      2.089194     2.081551     2.073908     2.066265     2.058621     2.050978     2.043335     2.035692     2.028049     2.020405
      2.012762     2.005119     1.997476     1.989833     1.982190     1.974546     1.966903     1.959260     1.951617     1.943974
      1.936331     1.928688     1.921045     1.913402     1.905759     1.898115     1.890472     1.882829     1.875186     1.867543
      1.859900     1.852257     1.844614     1.836971     1.829327     1.821684     1.814041     1.806398     1.798755     1.791112
      1.783469     1.775826     1.768183     1.760540     1.752896     1.745253     1.737610     1.729967     1.722324     1.714681
      1.707038     1.699395     1.691752     1.684108     1.676465     1.668822     1.661179     1.653536     1.645893     1.638250
      1.630607     1.622964     1.615321     1.607677     1.600034     1.592391     1.584748     1.577105     1.569462     1.561819
      1.554176     1.546533     1.538890     1.531246     1.523603     1.515960     1.508317     1.500674     1.493031     1.485388
      1.477745     1.470102     1.462458     1.454815     1.447172     1.439529     1.431886     1.424243     1.416600     1.408957
      1.401314     1.393671     1.386027     1.378384     1.370741     1.363098     1.355455     1.347812     1.340169     1.332526
      1.324883     1.317240     1.309596     1.301953     1.294310     1.286667     1.279024     1.271381     1.263738     1.256095
      1.248452     1.240808     1.233165     1.225522     1.217879     1.210236     1.202593     1.194950     1.187307     1.179664
      1.172021     1.164377     1.156734     1.149091     1.141448     1.133805     1.126162     1.118519     1.110876     1.103233
      1.095590     1.087946     1.080303     1.072660     1.065017     1.057374     1.049731     1.042088     1.034445     1.026802
      1.019158     1.011515     1.003872     0.996229     0.988586     0.980943     0.973300     0.965657     0.958014     0.950371
      0.942727     0.935084     0.927441     0.919798     0.912155     0.904512     0.896869     0.889226     0.881583     0.873940
      0.866296     0.858653     0.851010     0.843367     0.835724     0.828081     0.820438     0.812795     0.805152     0.797508
      0.789865     0.782222     0.774579     0.766936     0.759293     0.751650     0.744007     0.736364     0.728721     0.721077
      0.713434     0.705791     0.698148     0.690505     0.682862     0.675219     0.667576     0.659933     0.652290     0.644646
      0.637003     0.629360     0.621717     0.614074     0.606431     0.598788     0.591145     0.583502     0.575858     0.568215
      0.560572     0.552929     0.545286     0.537643     0.530000     0.522357     0.514714     0.507071     0.499427     0.491784
      0.484141     0.476498     0.468855     0.461212     0.453569     0.445925     0.438282     0.430639     0.422996     0.415353
      0.407710     0.400067     0.392424     0.384780     0.377137     0.369494     0.361851     0.354208     0.346565     0.338922
      0.331278     0.323635     0.315992     0.308349     0.300706     0.293063     0.285420     0.277777     0.270133     0.262490
      0.254847     0.247204     0.239561     0.231918     0.224275     0.216631     0.208988     0.201345
 NY phased data points follow
  -2.09920E+02 -2.07006E+02 -2.01861E+02 -1.99231E+02 -1.95123E+02 -1.88728E+02 -1.85550E+02 -1.78764E+02 -1.76220E+02 -1.73592E+02
  -1.72913E+02 -1.68541E+02 -1.67222E+02 -1.67244E+02 -1.66123E+02 -1.65986E+02 -1.66604E+02 -1.65650E+02 -1.60542E+02 -1.63536E+02
  -1.60098E+02 -1.56783E+02 -1.58011E+02 -1.53491E+02 -1.48553E+02 -1.47665E+02 -1.48182E+02 -1.43517E+02 -1.41135E+02 -1.41674E+02
  -1.39437E+02 -1.38109E+02 -1.34092E+02 -1.30953E+02 -1.30307E+02 -1.28507E+02 -1.23339E+02 -1.27292E+02 -1.26920E+02 -1.23643E+02
  -1.21252E+02 -1.18006E+02 -1.19804E+02 -1.17065E+02 -1.19451E+02 -1.16575E+02 -1.13765E+02 -1.13337E+02 -1.15148E+02 -1.12103E+02
  -1.07823E+02 -1.13595E+02 -1.11323E+02 -1.06064E+02 -1.07342E+02 -1.05670E+02 -1.05320E+02 -1.08272E+02 -1.03917E+02 -1.02933E+02
  -1.04181E+02 -1.05377E+02 -1.01496E+02 -1.03743E+02 -1.01148E+02 -9.99717E+01 -9.92410E+01 -9.68351E+01 -9.65975E+01 -9.55115E+01
  -9.48488E+01 -9.40804E+01 -9.48306E+01 -9.16532E+01 -8.87017E+01 -9.10531E+01 -8.80326E+01 -8.80873E+01 -8.87413E+01 -8.41424E+01
  -8.37951E+01 -8.30710E+01 -8.28381E+01 -8.29910E+01 -8.00142E+01 -7.77607E+01 -7.71594E+01 -7.81401E+01 -7.68172E+01 -7.59119E+01
  -7.33404E+01 -7.11553E+01 -7.42971E+01 -7.17569E+01 -6.90260E+01 -6.85216E+01 -6.27508E+01 -6.07166E+01 -5.82750E+01 -5.52357E+01
  -5.36946E+01 -4.79539E+01 -5.34669E+01 -4.95456E+01 -4.72614E+01 -5.10070E+01 -5.36152E+01 -5.29968E+01 -5.38004E+01 -5.40819E+01
  -5.54062E+01 -5.68586E+01 -5.29841E+01 -5.73699E+01 -5.49082E+01 -5.53232E+01 -5.49495E+01 -5.55299E+01 -5.45270E+01 -5.16815E+01
  -4.94757E+01 -4.72391E+01 -4.29145E+01 -3.74093E+01 -3.46297E+01 -3.17768E+01 -3.00745E+01 -3.03446E+01 -3.16494E+01 -3.05830E+01
  -3.42906E+01 -3.50135E+01 -4.00526E+01 -3.81123E+01 -3.96694E+01 -3.88119E+01 -3.97226E+01 -4.15231E+01 -4.54920E+01 -4.44205E+01
  -4.64418E+01 -4.57562E+01 -4.81348E+01 -4.54711E+01 -4.29144E+01 -4.49872E+01 -4.14417E+01 -4.29069E+01 -4.57971E+01 -4.28191E+01
  -4.05789E+01 -3.83484E+01 -4.16950E+01 -4.19488E+01 -3.93567E+01 -3.80473E+01 -3.48244E+01 -3.98479E+01 -4.01391E+01 -3.84915E+01
  -3.50050E+01 -3.56968E+01 -3.70606E+01 -3.71781E+01 -3.93601E+01 -3.45023E+01 -3.39032E+01 -3.15572E+01 -3.70454E+01 -3.36694E+01
  -3.61325E+01 -3.57896E+01 -3.65649E+01 -3.59160E+01 -3.93344E+01 -3.70367E+01 -4.08705E+01 -3.77385E+01 -3.64616E+01 -3.59801E+01
  -3.58740E+01 -3.84954E+01 -3.62141E+01 -3.64722E+01 -3.45256E+01 -3.56833E+01 -3.24555E+01 -3.29256E+01 -2.93411E+01 -2.69802E+01
  -2.70440E+01 -2.87509E+01 -2.46265E+01 -2.61523E+01 -2.37554E+01 -2.45226E+01 -2.57006E+01 -2.40172E+01 -2.50307E+01 -2.51721E+01
  -2.45842E+01 -2.25979E+01 -2.34911E+01 -2.31580E+01 -2.36077E+01 -2.30825E+01 -2.40982E+01 -2.37071E+01 -2.34578E+01 -2.22495E+01
  -1.81672E+01 -2.30741E+01 -2.05606E+01 -1.81574E+01 -1.73282E+01 -1.87084E+01 -1.49857E+01 -1.80064E+01 -2.10791E+01 -2.08244E+01
  -2.05645E+01 -1.91930E+01 -1.79852E+01 -1.70070E+01 -1.44917E+01 -1.55517E+01 -1.39033E+01 -1.48068E+01 -1.21564E+01 -1.53527E+01
  -1.30476E+01 -1.20806E+01 -1.30510E+01 -1.28475E+01 -1.20000E+01 -1.00807E+01 -1.27331E+01 -1.30048E+01 -1.14986E+01 -1.15623E+01
  -1.24464E+01 -1.13296E+01 -9.79988E+00 -1.03312E+01 -1.27168E+01 -1.07740E+01 -8.51687E+00 -6.01728E+00 -8.63761E+00 -4.61702E+00
  -3.96171E+00  3.86226E-01  2.24333E-01  2.24503E+00  5.38701E+00  8.54845E+00  2.03674E+01  2.44757E+01  2.73365E+01  2.65394E+01
   2.71820E+01  2.44792E+01  2.54605E+01  1.88617E+01  1.79081E+01  1.45841E+01  1.06746E+01  7.71287E+00  7.23982E+00  2.89283E+00
   2.05164E+00 -2.00774E+00 -1.94913E+00 -2.28948E+00 -3.00156E+00 -2.89318E+00 -9.52900E-02 -1.78837E+00 -9.80316E-01 -4.56804E+00
  -4.61745E+00 -4.84473E+00 -7.14002E+00 -5.78754E+00 -5.19994E+00 -1.09728E+00 -6.22118E+00 -4.42639E+00 -2.16319E+00 -3.53637E+00
  -2.68425E+00 -3.20186E+00 -1.07940E+00 -4.22512E+00 -2.37198E+00 -8.16285E-01 -1.12525E+00 -9.80786E-01  2.41439E+00 -5.17875E-01
  -4.53061E-01  4.24319E+00  2.31900E+00 -3.81032E-01  6.17245E-01  3.83105E+00  2.23346E+00  3.63099E+00  3.95031E+00  4.80194E+00
   1.40947E+00  5.89498E+00  4.72104E+00  5.24037E+00  8.05700E+00  6.11717E+00  6.07205E+00  8.27644E+00  8.76434E+00  1.02267E+01
   9.84240E+00  1.23775E+01  1.13466E+01  1.05632E+01  1.24479E+01  1.31782E+01  1.44793E+01  1.27442E+01  1.46634E+01  1.34855E+01
   1.41441E+01  1.37866E+01  1.86080E+01  1.66251E+01  1.87657E+01  1.53934E+01  1.60480E+01  1.78494E+01  1.71255E+01  1.75892E+01
   1.76842E+01  1.83975E+01  1.73737E+01  2.05818E+01  1.42931E+01  1.67969E+01  1.97875E+01  1.83322E+01  1.69130E+01  1.33494E+01
   1.32339E+01  1.41098E+01  1.42995E+01  1.34933E+01  1.18614E+01  1.02028E+01  9.84683E+00  1.31065E+01  9.40432E+00  1.08808E+01
   8.82920E+00  9.79688E+00  8.88256E+00  1.05093E+01  8.04779E+00  8.37103E+00  1.00856E+01  8.75020E+00  1.32161E+01  1.09097E+01
   1.05848E+01  1.26012E+01  1.09140E+01  1.14703E+01  8.76503E+00  1.13592E+01  9.60735E+00  1.19569E+01  1.02051E+01  8.68818E+00
   8.64776E+00  8.86374E+00  1.13886E+01  1.27685E+01  1.18307E+01  9.43379E+00  1.03556E+01  1.09364E+01  1.17023E+01  1.02836E+01
   9.83891E+00  1.01277E+01  1.10821E+01  1.21304E+01  1.30462E+01  1.21683E+01  1.20529E+01  1.05244E+01  1.13284E+01  9.94477E+00
   8.85820E+00  1.05140E+01  1.07353E+01  1.07145E+01  7.21197E+00  1.11663E+01  9.72823E+00  8.03592E+00  1.09197E+01  1.41593E+01
   9.62796E+00  1.17378E+01  1.00074E+01  1.30597E+01  1.20603E+01  1.20848E+01  1.18786E+01  1.43246E+01  1.12091E+01  1.01925E+01
   1.16574E+01  1.12864E+01  1.08108E+01  9.10889E+00  1.24504E+01  9.50411E+00  1.00856E+01  1.22476E+01  1.08522E+01  9.14731E+00
   7.82420E+00  6.77233E+00  4.87639E+00  9.14358E+00  9.45210E+00  8.61143E+00  9.73853E+00  1.07679E+01  7.17758E+00  9.62974E+00
   6.43885E+00  7.38167E+00  8.79309E+00  9.12864E+00  1.26994E+01  6.90096E+00  1.04537E+01  8.66059E+00  1.23359E+01  9.85345E+00
   1.01764E+01  8.38725E+00  9.01776E+00  8.23240E+00  9.59286E+00  9.64596E+00  7.89823E+00  7.31049E+00  9.85064E+00  9.08132E+00
   9.76252E+00  1.09636E+01  1.09263E+01  1.43590E+01  1.07137E+01  9.19456E+00  8.57309E+00  1.10636E+01  1.26877E+01  1.11694E+01
   9.01004E+00  1.12057E+01  8.72491E+00  9.62316E+00  9.53328E+00  1.16265E+01  1.04911E+01  8.55601E+00  8.98187E+00  9.85800E+00
   9.63407E+00  5.93896E+00  1.25951E+01  1.03121E+01  6.30447E+00  9.80614E+00  1.13826E+01  7.78281E+00  7.10228E+00  1.03570E+01
   1.02125E+01  1.02383E+01  9.45871E+00  8.87572E+00  1.11501E+01  9.86732E+00  1.09788E+01  8.93665E+00
 NY points of the fit to the data follow
  -2.04401E+02 -2.01567E+02 -1.99233E+02 -1.95754E+02 -1.93106E+02 -1.88955E+02 -1.86140E+02 -1.81758E+02 -1.78974E+02 -1.75341E+02
  -1.72993E+02 -1.70400E+02 -1.68523E+02 -1.66986E+02 -1.65546E+02 -1.64936E+02 -1.63786E+02 -1.63488E+02 -1.62230E+02 -1.61283E+02
  -1.59628E+02 -1.58434E+02 -1.56541E+02 -1.55094E+02 -1.52861E+02 -1.50723E+02 -1.47894E+02 -1.44592E+02 -1.41332E+02 -1.38544E+02
  -1.35690E+02 -1.34008E+02 -1.31967E+02 -1.31459E+02 -1.29980E+02 -1.29959E+02 -1.28589E+02 -1.28380E+02 -1.26645E+02 -1.25744E+02
  -1.23557E+02 -1.22389E+02 -1.20299E+02 -1.19485E+02 -1.18011E+02 -1.17491E+02 -1.16341E+02 -1.15379E+02 -1.14224E+02 -1.13316E+02
  -1.12341E+02 -1.11556E+02 -1.10742E+02 -1.09924E+02 -1.09156E+02 -1.08045E+02 -1.07294E+02 -1.06177E+02 -1.05611E+02 -1.04486E+02
  -1.04026E+02 -1.02834E+02 -1.02220E+02 -1.00777E+02 -1.00111E+02 -9.86359E+01 -9.79486E+01 -9.64366E+01 -9.57801E+01 -9.43576E+01
  -9.37730E+01 -9.25175E+01 -9.19460E+01 -9.08380E+01 -9.00173E+01 -8.89129E+01 -8.80011E+01 -8.68839E+01 -8.59489E+01 -8.48040E+01
  -8.38908E+01 -8.26978E+01 -8.19128E+01 -8.06778E+01 -8.02172E+01 -7.90240E+01 -7.88780E+01 -7.77254E+01 -7.77622E+01 -7.66804E+01
  -7.64344E+01 -7.44664E+01 -7.37958E+01 -7.12198E+01 -7.02023E+01 -6.67814E+01 -6.55559E+01 -6.11725E+01 -6.00059E+01 -5.51385E+01
  -5.45504E+01 -5.05442E+01 -5.07862E+01 -4.83439E+01 -4.95661E+01 -4.88313E+01 -5.05917E+01 -5.10370E+01 -5.27656E+01 -5.35122E+01
  -5.48344E+01 -5.54152E+01 -5.63555E+01 -5.69977E+01 -5.73341E+01 -5.69872E+01 -5.67018E+01 -5.52622E+01 -5.42053E+01 -5.06890E+01
  -4.92437E+01 -4.44522E+01 -4.31085E+01 -3.76407E+01 -3.71350E+01 -3.25890E+01 -3.32497E+01 -3.03957E+01 -3.20685E+01 -3.10100E+01
  -3.32833E+01 -3.35154E+01 -3.59364E+01 -3.65923E+01 -3.87418E+01 -3.91659E+01 -4.09697E+01 -4.12537E+01 -4.27018E+01 -4.28637E+01
  -4.38874E+01 -4.37039E+01 -4.41309E+01 -4.30552E+01 -4.33163E+01 -4.24419E+01 -4.26613E+01 -4.20018E+01 -4.21054E+01 -4.15937E+01
  -4.15179E+01 -4.10918E+01 -4.09732E+01 -4.07236E+01 -4.05873E+01 -4.04895E+01 -4.02495E+01 -4.01577E+01 -3.98005E+01 -3.96066E+01
  -3.92527E+01 -3.89876E+01 -3.87226E+01 -3.84293E+01 -3.82986E+01 -3.79751E+01 -3.78987E+01 -3.75901E+01 -3.75545E+01 -3.73202E+01
  -3.72507E+01 -3.70396E+01 -3.68925E+01 -3.66816E+01 -3.64689E+01 -3.63416E+01 -3.60158E+01 -3.59788E+01 -3.54873E+01 -3.53854E+01
  -3.46925E+01 -3.44554E+01 -3.36931E+01 -3.33250E+01 -3.25091E+01 -3.19638E+01 -3.12346E+01 -3.06303E+01 -3.00364E+01 -2.93477E+01
  -2.89664E+01 -2.82374E+01 -2.80609E+01 -2.71670E+01 -2.69366E+01 -2.58974E+01 -2.53748E+01 -2.43847E+01 -2.38847E+01 -2.29282E+01
  -2.26290E+01 -2.20746E+01 -2.22780E+01 -2.21554E+01 -2.26428E+01 -2.28740E+01 -2.32224E+01 -2.31990E+01 -2.26314E+01 -2.23718E+01
  -2.10047E+01 -2.08383E+01 -1.89042E+01 -1.95255E+01 -1.78013E+01 -1.94254E+01 -1.81618E+01 -2.01167E+01 -1.91087E+01 -2.04965E+01
  -1.92304E+01 -1.95827E+01 -1.80064E+01 -1.77789E+01 -1.64103E+01 -1.61559E+01 -1.54254E+01 -1.50312E+01 -1.48088E+01 -1.41149E+01
  -1.42512E+01 -1.30053E+01 -1.31239E+01 -1.15882E+01 -1.18989E+01 -1.03107E+01 -1.10843E+01 -1.00388E+01 -1.13426E+01 -1.08368E+01
  -1.18905E+01 -1.16562E+01 -1.22487E+01 -1.19800E+01 -1.19943E+01 -1.15251E+01 -1.10332E+01 -9.97163E+00 -7.69710E+00 -6.13349E+00
  -2.81811E+00 -1.07195E+00  3.39946E+00  5.41341E+00  1.12465E+01  1.33037E+01  1.94516E+01  2.06733E+01  2.48922E+01  2.44981E+01
   2.61034E+01  2.41955E+01  2.32377E+01  2.03831E+01  1.77797E+01  1.46763E+01  1.17869E+01  9.14488E+00  6.81616E+00  4.76275E+00
   2.59562E+00  9.62535E-01 -1.14488E+00 -2.35935E+00 -3.96269E+00 -4.42824E+00 -4.45326E+00 -4.46030E+00 -4.42496E+00 -4.32919E+00
  -4.25225E+00 -4.12168E+00 -3.98735E+00 -3.80678E+00 -3.63612E+00 -3.43260E+00 -3.25222E+00 -3.03650E+00 -2.84055E+00 -2.58276E+00
  -2.34582E+00 -2.05275E+00 -1.77728E+00 -1.45107E+00 -1.14710E+00 -8.02311E-01 -4.81016E-01 -1.23633E-01  2.16143E-01  5.84006E-01
   9.37965E-01  1.31522E+00  1.68263E+00  2.06452E+00  2.43707E+00  2.81976E+00  3.19598E+00  3.57594E+00  3.95418E+00  4.33682E+00
   4.72323E+00  5.12219E+00  5.53820E+00  5.98630E+00  6.48792E+00  7.09927E+00  7.78468E+00  8.32476E+00  9.14045E+00  9.56043E+00
   1.05203E+01  1.06781E+01  1.16975E+01  1.13876E+01  1.26104E+01  1.17705E+01  1.30560E+01  1.18783E+01  1.32953E+01  1.20952E+01
   1.37730E+01  1.28600E+01  1.48307E+01  1.43295E+01  1.62810E+01  1.59936E+01  1.75775E+01  1.72391E+01  1.81906E+01  1.77431E+01
   1.80599E+01  1.75784E+01  1.75017E+01  1.70886E+01  1.68568E+01  1.63132E+01  1.58579E+01  1.52777E+01  1.46671E+01  1.40937E+01
   1.34411E+01  1.29466E+01  1.25548E+01  1.22348E+01  1.19725E+01  1.17595E+01  1.15882E+01  1.14523E+01  1.13452E+01  1.12613E+01
   1.11946E+01  1.11405E+01  1.10939E+01  1.10515E+01  1.10098E+01  1.09669E+01  1.09205E+01  1.08699E+01  1.08140E+01  1.07530E+01
   1.06868E+01  1.06163E+01  1.05421E+01  1.04657E+01  1.03879E+01  1.03106E+01  1.02347E+01  1.01624E+01  1.00946E+01  1.00332E+01
   9.97936E+00  9.93484E+00  9.90052E+00  9.87815E+00  9.86839E+00  9.87280E+00  9.89177E+00  9.92659E+00  9.97736E+00  1.00449E+01
   1.01288E+01  1.02294E+01  1.03454E+01  1.04765E+01  1.06207E+01  1.07766E+01  1.09412E+01  1.11123E+01  1.12860E+01  1.14594E+01
   1.16279E+01  1.17880E+01  1.19352E+01  1.20660E+01  1.21761E+01  1.22630E+01  1.23234E+01  1.23559E+01  1.23586E+01  1.23314E+01
   1.22737E+01  1.21872E+01  1.20731E+01  1.19345E+01  1.17741E+01  1.15961E+01  1.14038E+01  1.12020E+01  1.09941E+01  1.07847E+01
   1.05769E+01  1.03746E+01  1.01801E+01  9.99654E+00  9.82510E+00  9.66783E+00  9.52514E+00  9.39812E+00  9.28639E+00  9.19032E+00
   9.10893E+00  9.04212E+00  8.98857E+00  8.94791E+00  8.91864E+00  8.90027E+00  8.89124E+00  8.89111E+00  8.89836E+00  8.91263E+00
   8.93247E+00  8.95761E+00  8.98669E+00  9.01960E+00  9.05507E+00  9.09306E+00  9.13238E+00  9.17309E+00  9.21407E+00  9.25547E+00
   9.29623E+00  9.33653E+00  9.37535E+00  9.41300E+00  9.44878E+00  9.48326E+00  9.51577E+00  9.54690E+00  9.57599E+00  9.60367E+00
   9.62933E+00  9.65358E+00  9.67584E+00  9.69671E+00  9.71561E+00  9.73319E+00  9.74887E+00  9.76331E+00  9.77593E+00  9.78737E+00
   9.79708E+00  9.80572E+00  9.81275E+00  9.81882E+00  9.82336E+00  9.82706E+00  9.82935E+00  9.83092E+00  9.83122E+00  9.83093E+00
   9.82949E+00  9.82758E+00  9.82466E+00  9.82143E+00  9.81732E+00  9.81305E+00  9.80803E+00  9.80299E+00  9.79738E+00  9.79191E+00
   9.78602E+00  9.78043E+00  9.77458E+00  9.76921E+00  9.76378E+00  9.75903E+00  9.75440E+00  9.75065E+00
 NY background values follow
    -2.099E+02   -2.079E+02   -2.059E+02   -2.039E+02   -2.019E+02   -1.999E+02   -1.980E+02   -1.960E+02   -1.940E+02   -1.921E+02
    -1.901E+02   -1.881E+02   -1.862E+02   -1.843E+02   -1.823E+02   -1.804E+02   -1.785E+02   -1.766E+02   -1.747E+02   -1.728E+02
    -1.709E+02   -1.691E+02   -1.672E+02   -1.654E+02   -1.635E+02   -1.617E+02   -1.599E+02   -1.581E+02   -1.563E+02   -1.545E+02
    -1.528E+02   -1.511E+02   -1.493E+02   -1.476E+02   -1.459E+02   -1.443E+02   -1.426E+02   -1.410E+02   -1.393E+02   -1.377E+02
    -1.362E+02   -1.346E+02   -1.330E+02   -1.315E+02   -1.300E+02   -1.285E+02   -1.271E+02   -1.256E+02   -1.242E+02   -1.228E+02
    -1.215E+02   -1.201E+02   -1.188E+02   -1.174E+02   -1.162E+02   -1.149E+02   -1.136E+02   -1.124E+02   -1.112E+02   -1.100E+02
    -1.088E+02   -1.076E+02   -1.064E+02   -1.053E+02   -1.042E+02   -1.031E+02   -1.020E+02   -1.009E+02   -9.987E+01   -9.883E+01
    -9.780E+01   -9.679E+01   -9.579E+01   -9.481E+01   -9.384E+01   -9.288E+01   -9.193E+01   -9.100E+01   -9.007E+01   -8.916E+01
    -8.827E+01   -8.738E+01   -8.650E+01   -8.563E+01   -8.478E+01   -8.393E+01   -8.310E+01   -8.227E+01   -8.145E+01   -8.064E+01
    -7.984E+01   -7.905E+01   -7.826E+01   -7.749E+01   -7.672E+01   -7.596E+01   -7.520E+01   -7.446E+01   -7.372E+01   -7.299E+01
    -7.226E+01   -7.154E+01   -7.083E+01   -7.013E+01   -6.943E+01   -6.874E+01   -6.806E+01   -6.739E+01   -6.672E+01   -6.605E+01
    -6.540E+01   -6.475E+01   -6.410E+01   -6.347E+01   -6.283E+01   -6.221E+01   -6.159E+01   -6.097E+01   -6.037E+01   -5.976E+01
    -5.917E+01   -5.857E+01   -5.799E+01   -5.741E+01   -5.683E+01   -5.626E+01   -5.570E+01   -5.514E+01   -5.458E+01   -5.403E+01
    -5.348E+01   -5.294E+01   -5.240E+01   -5.187E+01   -5.134E+01   -5.082E+01   -5.030E+01   -4.978E+01   -4.927E+01   -4.876E+01
    -4.826E+01   -4.776E+01   -4.727E+01   -4.678E+01   -4.629E+01   -4.580E+01   -4.533E+01   -4.485E+01   -4.438E+01   -4.391E+01
    -4.345E+01   -4.299E+01   -4.253E+01   -4.208E+01   -4.163E+01   -4.119E+01   -4.075E+01   -4.031E+01   -3.988E+01   -3.945E+01
    -3.903E+01   -3.861E+01   -3.819E+01   -3.777E+01   -3.736E+01   -3.696E+01   -3.655E+01   -3.615E+01   -3.576E+01   -3.537E+01
    -3.498E+01   -3.459E+01   -3.421E+01   -3.383E+01   -3.346E+01   -3.309E+01   -3.272E+01   -3.236E+01   -3.200E+01   -3.164E+01
    -3.129E+01   -3.094E+01   -3.059E+01   -3.025E+01   -2.991E+01   -2.957E+01   -2.923E+01   -2.890E+01   -2.858E+01   -2.825E+01
    -2.793E+01   -2.762E+01   -2.730E+01   -2.699E+01   -2.669E+01   -2.638E+01   -2.608E+01   -2.579E+01   -2.549E+01   -2.520E+01
    -2.492E+01   -2.463E+01   -2.435E+01   -2.407E+01   -2.380E+01   -2.353E+01   -2.326E+01   -2.300E+01   -2.274E+01   -2.248E+01
    -2.222E+01   -2.197E+01   -2.172E+01   -2.148E+01   -2.124E+01   -2.100E+01   -2.076E+01   -2.053E+01   -2.030E+01   -2.007E+01
    -1.985E+01   -1.963E+01   -1.941E+01   -1.920E+01   -1.899E+01   -1.878E+01   -1.858E+01   -1.837E+01   -1.818E+01   -1.798E+01
    -1.779E+01   -1.760E+01   -1.741E+01   -1.722E+01   -1.704E+01   -1.685E+01   -1.667E+01   -1.649E+01   -1.631E+01   -1.613E+01
    -1.595E+01   -1.578E+01   -1.560E+01   -1.543E+01   -1.525E+01   -1.507E+01   -1.490E+01   -1.472E+01   -1.454E+01   -1.436E+01
    -1.418E+01   -1.400E+01   -1.382E+01   -1.364E+01   -1.345E+01   -1.327E+01   -1.308E+01   -1.289E+01   -1.269E+01   -1.250E+01
    -1.230E+01   -1.210E+01   -1.189E+01   -1.169E+01   -1.147E+01   -1.126E+01   -1.104E+01   -1.082E+01   -1.059E+01   -1.036E+01
    -1.012E+01   -9.884E+00   -9.639E+00   -9.389E+00   -9.135E+00   -8.876E+00   -8.614E+00   -8.348E+00   -8.078E+00   -7.804E+00
    -7.528E+00   -7.248E+00   -6.966E+00   -6.681E+00   -6.394E+00   -6.105E+00   -5.813E+00   -5.520E+00   -5.226E+00   -4.930E+00
    -4.633E+00   -4.335E+00   -4.037E+00   -3.738E+00   -3.439E+00   -3.140E+00   -2.841E+00   -2.542E+00   -2.244E+00   -1.947E+00
    -1.650E+00   -1.355E+00   -1.062E+00   -7.696E-01   -4.794E-01   -1.913E-01    9.453E-02    3.779E-01    6.586E-01    9.363E-01
     1.211E+00    1.482E+00    1.750E+00    2.014E+00    2.274E+00    2.530E+00    2.782E+00    3.029E+00    3.271E+00    3.509E+00
     3.742E+00    3.970E+00    4.193E+00    4.412E+00    4.625E+00    4.833E+00    5.037E+00    5.235E+00    5.428E+00    5.617E+00
     5.799E+00    5.977E+00    6.149E+00    6.316E+00    6.478E+00    6.634E+00    6.785E+00    6.930E+00    7.070E+00    7.204E+00
     7.332E+00    7.455E+00    7.572E+00    7.683E+00    7.789E+00    7.888E+00    7.982E+00    8.069E+00    8.151E+00    8.227E+00
     8.296E+00    8.359E+00    8.417E+00    8.468E+00    8.512E+00    8.551E+00    8.583E+00    8.608E+00    8.628E+00    8.640E+00
     8.646E+00    8.646E+00    8.639E+00    8.625E+00    8.606E+00    8.580E+00    8.549E+00    8.512E+00    8.471E+00    8.424E+00
     8.374E+00    8.319E+00    8.260E+00    8.198E+00    8.132E+00    8.063E+00    7.992E+00    7.918E+00    7.842E+00    7.765E+00
     7.685E+00    7.605E+00    7.523E+00    7.441E+00    7.359E+00    7.276E+00    7.194E+00    7.112E+00    7.030E+00    6.950E+00
     6.872E+00    6.795E+00    6.720E+00    6.647E+00    6.576E+00    6.509E+00    6.444E+00    6.383E+00    6.326E+00    6.273E+00
     6.224E+00    6.179E+00    6.139E+00    6.105E+00    6.076E+00    6.052E+00    6.035E+00    6.024E+00    6.019E+00    6.021E+00
     6.028E+00    6.042E+00    6.060E+00    6.085E+00    6.114E+00    6.148E+00    6.187E+00    6.230E+00    6.278E+00    6.329E+00
     6.385E+00    6.444E+00    6.506E+00    6.572E+00    6.641E+00    6.712E+00    6.786E+00    6.862E+00    6.941E+00    7.021E+00
     7.103E+00    7.186E+00    7.271E+00    7.357E+00    7.443E+00    7.530E+00    7.618E+00    7.706E+00    7.793E+00    7.881E+00
     7.968E+00    8.054E+00    8.140E+00    8.224E+00    8.307E+00    8.388E+00    8.468E+00    8.546E+00    8.622E+00    8.695E+00
     8.765E+00    8.833E+00    8.898E+00    8.959E+00    9.018E+00    9.073E+00    9.126E+00    9.175E+00    9.222E+00    9.266E+00
     9.307E+00    9.346E+00    9.383E+00    9.416E+00    9.448E+00    9.477E+00    9.504E+00    9.529E+00    9.552E+00    9.573E+00
     9.592E+00    9.609E+00    9.624E+00    9.638E+00    9.650E+00    9.661E+00    9.670E+00    9.678E+00    9.685E+00    9.690E+00
     9.695E+00    9.698E+00    9.700E+00    9.702E+00    9.702E+00    9.702E+00    9.702E+00    9.700E+00    9.698E+00    9.696E+00
     9.693E+00    9.690E+00    9.687E+00    9.684E+00    9.681E+00    9.677E+00    9.674E+00    9.671E+00
 Ala      Conc. = 5.84E+02
