 LCModel (Version 6.3-1L) Copyright: S.W. Provencher.          Ref.: Magn. Reson. Med. 30:672-679 (1993).                
 Slice#3 Row#6 Col#12  K_02_press_1_raw_act
 36 lines in following concentration table = NCONC+1
    Conc.  %SD /Cr+PCr  Metabolite                                         
   82.562  82%   0.116 Ala                                                 
    0.000 999%   0.000 Asp                                                 
  185.971  88%   0.261 Cr                                                  
  526.761  32%   0.739 PCr                                                 
    0.000 999%   0.000 GABA                                                
    0.000 999%   0.000 Glc                                                 
  563.180  24%   0.790 Gln                                                 
 1.32E+03  12%   1.847 Glu                                                 
  144.725   9%   0.203 GPC                                                 
    0.000 999%   0.000 PCh                                                 
   94.804  47%   0.133 GSH                                                 
  327.086  50%   0.459 Ins                                                 
  294.812  52%   0.414 Lac                                                 
 1.83E+03   4%   2.566 NAA                                                 
   27.919 266% 3.9E-02 NAAG                                                
    9.319 176% 1.3E-02 Scyllo                                              
   60.093 222% 8.4E-02 Tau                                                 
  459.051  16%   0.644 -CrCH2                                              
  144.725   9%   0.203 GPC+PCh                                             
 1.86E+03   3%   2.605 NAA+NAAG                                            
  712.732   5%   1.000 Cr+PCr                                              
 1.88E+03  11%   2.637 Glu+Gln                                             
 1.12E+04  10%  15.757 Lip13a                                              
 1.02E+03  77%   1.428 Lip13b                                              
    0.000 999%   0.000 Lip09                                               
  670.507  24%   0.941 MM09                                                
 1.83E+03  23%   2.568 Lip20                                               
 1.01E+03  27%   1.415 MM20                                                
  203.695  34%   0.286 MM12                                                
  513.512  47%   0.720 MM14                                                
  819.003  12%   1.149+MM17                                                
 1.22E+04   7%  17.185 Lip13a+Lip13b                                       
 1.30E+04   7%  18.192 MM14+Lip13a+Lip13b+MM12                             
  670.507  24%   0.941 MM09+Lip09                                          
 2.84E+03  14%   3.983 MM20+Lip20                                          
   6 lines in following misc. output table
  FWHM = 0.046 ppm    S/N =  16                                            
  Data shift =-0.008 ppm                                                   
  Ph: -37 deg     -24.3 deg/ppm                                            
  alphaB,S = 4.1E-01,   9.4E+01                                            
   14 spline knots.   Ns = 6(1)                                            
  (10) 2 infls.   ( 5) 1 extrs.                                            
  498 points on ppm-axis = NY
      4.000000     3.992357     3.984714     3.977070     3.969427     3.961784     3.954141     3.946497     3.938854     3.931211
      3.923568     3.915925     3.908281     3.900638     3.892995     3.885352     3.877708     3.870065     3.862422     3.854779
      3.847136     3.839492     3.831849     3.824206     3.816563     3.808919     3.801276     3.793633     3.785990     3.778347
      3.770703     3.763060     3.755417     3.747774     3.740130     3.732487     3.724844     3.717201     3.709558     3.701914
      3.694271     3.686628     3.678985     3.671341     3.663698     3.656055     3.648412     3.640769     3.633125     3.625482
      3.617839     3.610196     3.602552     3.594909     3.587266     3.579623     3.571980     3.564336     3.556693     3.549050
      3.541407     3.533763     3.526120     3.518477     3.510834     3.503191     3.495547     3.487904     3.480261     3.472618
      3.464974     3.457331     3.449688     3.442045     3.434402     3.426758     3.419115     3.411472     3.403829     3.396185
      3.388542     3.380899     3.373256     3.365613     3.357969     3.350326     3.342683     3.335040     3.327396     3.319753
      3.312110     3.304467     3.296824     3.289180     3.281537     3.273894     3.266251     3.258607     3.250964     3.243321
      3.235678     3.228034     3.220391     3.212748     3.205105     3.197462     3.189818     3.182175     3.174532     3.166889
      3.159245     3.151602     3.143959     3.136316     3.128673     3.121029     3.113386     3.105743     3.098100     3.090456
      3.082813     3.075170     3.067527     3.059884     3.052240     3.044597     3.036954     3.029311     3.021667     3.014024
      3.006381     2.998738     2.991095     2.983451     2.975808     2.968165     2.960522     2.952878     2.945235     2.937592
      2.929949     2.922306     2.914662     2.907019     2.899376     2.891733     2.884089     2.876446     2.868803     2.861160
      2.853517     2.845873     2.838230     2.830587     2.822944     2.815300     2.807657     2.800014     2.792371     2.784728
      2.777084     2.769441     2.761798     2.754155     2.746511     2.738868     2.731225     2.723582     2.715939     2.708295
      2.700652     2.693009     2.685366     2.677722     2.670079     2.662436     2.654793     2.647150     2.639506     2.631863
      2.624220     2.616577     2.608933     2.601290     2.593647     2.586004     2.578361     2.570717     2.563074     2.555431
      2.547788     2.540144     2.532501     2.524858     2.517215     2.509572     2.501928     2.494285     2.486642     2.478999
      2.471355     2.463712     2.456069     2.448426     2.440783     2.433139     2.425496     2.417853     2.410210     2.402566
      2.394923     2.387280     2.379637     2.371994     2.364350     2.356707     2.349064     2.341421     2.333777     2.326134
      2.318491     2.310848     2.303205     2.295561     2.287918     2.280275     2.272632     2.264988     2.257345     2.249702
      2.242059     2.234416     2.226772     2.219129     2.211486     2.203843     2.196199     2.188556     2.180913     2.173270
      2.165627     2.157983     2.150340     2.142697     2.135054     2.127410     2.119767     2.112124     2.104481     2.096838
      2.089194     2.081551     2.073908     2.066265     2.058621     2.050978     2.043335     2.035692     2.028049     2.020405
      2.012762     2.005119     1.997476     1.989833     1.982190     1.974546     1.966903     1.959260     1.951617     1.943974
      1.936331     1.928688     1.921045     1.913402     1.905759     1.898115     1.890472     1.882829     1.875186     1.867543
      1.859900     1.852257     1.844614     1.836971     1.829327     1.821684     1.814041     1.806398     1.798755     1.791112
      1.783469     1.775826     1.768183     1.760540     1.752896     1.745253     1.737610     1.729967     1.722324     1.714681
      1.707038     1.699395     1.691752     1.684108     1.676465     1.668822     1.661179     1.653536     1.645893     1.638250
      1.630607     1.622964     1.615321     1.607677     1.600034     1.592391     1.584748     1.577105     1.569462     1.561819
      1.554176     1.546533     1.538890     1.531246     1.523603     1.515960     1.508317     1.500674     1.493031     1.485388
      1.477745     1.470102     1.462458     1.454815     1.447172     1.439529     1.431886     1.424243     1.416600     1.408957
      1.401314     1.393671     1.386027     1.378384     1.370741     1.363098     1.355455     1.347812     1.340169     1.332526
      1.324883     1.317240     1.309596     1.301953     1.294310     1.286667     1.279024     1.271381     1.263738     1.256095
      1.248452     1.240808     1.233165     1.225522     1.217879     1.210236     1.202593     1.194950     1.187307     1.179664
      1.172021     1.164377     1.156734     1.149091     1.141448     1.133805     1.126162     1.118519     1.110876     1.103233
      1.095590     1.087946     1.080303     1.072660     1.065017     1.057374     1.049731     1.042088     1.034445     1.026802
      1.019158     1.011515     1.003872     0.996229     0.988586     0.980943     0.973300     0.965657     0.958014     0.950371
      0.942727     0.935084     0.927441     0.919798     0.912155     0.904512     0.896869     0.889226     0.881583     0.873940
      0.866296     0.858653     0.851010     0.843367     0.835724     0.828081     0.820438     0.812795     0.805152     0.797508
      0.789865     0.782222     0.774579     0.766936     0.759293     0.751650     0.744007     0.736364     0.728721     0.721077
      0.713434     0.705791     0.698148     0.690505     0.682862     0.675219     0.667576     0.659933     0.652290     0.644646
      0.637003     0.629360     0.621717     0.614074     0.606431     0.598788     0.591145     0.583502     0.575858     0.568215
      0.560572     0.552929     0.545286     0.537643     0.530000     0.522357     0.514714     0.507071     0.499427     0.491784
      0.484141     0.476498     0.468855     0.461212     0.453569     0.445925     0.438282     0.430639     0.422996     0.415353
      0.407710     0.400067     0.392424     0.384780     0.377137     0.369494     0.361851     0.354208     0.346565     0.338922
      0.331278     0.323635     0.315992     0.308349     0.300706     0.293063     0.285420     0.277777     0.270133     0.262490
      0.254847     0.247204     0.239561     0.231918     0.224275     0.216631     0.208988     0.201345
 NY phased data points follow
   9.19226E+00  6.41302E+00  8.59473E+00  9.10666E+00  8.45493E+00  7.72659E+00  1.12532E+01  7.76660E+00  1.19793E+01  1.25999E+01
   1.51377E+01  1.25838E+01  1.39850E+01  1.07594E+01  1.27258E+01  1.02936E+01  1.13945E+01  9.53234E+00  6.20835E+00  1.31250E+01
   8.04264E+00  7.34307E+00  9.77437E+00  1.00228E+01  1.29285E+01  1.12672E+01  8.01272E+00  1.05218E+01  7.91647E+00  1.12717E+01
   1.07462E+01  1.16101E+01  1.24405E+01  1.10504E+01  9.74745E+00  1.05414E+01  1.07845E+01  1.29658E+01  1.22272E+01  9.53736E+00
   1.27358E+01  1.08988E+01  1.25252E+01  1.11232E+01  9.39342E+00  1.31728E+01  1.70802E+01  1.44812E+01  1.52608E+01  1.47100E+01
   1.16930E+01  1.20835E+01  1.49181E+01  9.99848E+00  1.25472E+01  1.20821E+01  9.79414E+00  1.09700E+01  1.21129E+01  1.14395E+01
   9.76227E+00  7.82585E+00  1.05732E+01  8.72442E+00  1.05873E+01  9.37315E+00  9.92185E+00  1.37676E+01  1.08287E+01  1.30892E+01
   1.13156E+01  9.51698E+00  1.09886E+01  1.24933E+01  1.23206E+01  1.05501E+01  9.72351E+00  1.27583E+01  1.20764E+01  1.11436E+01
   1.15784E+01  9.50011E+00  1.19060E+01  1.01897E+01  1.39318E+01  1.08231E+01  1.04816E+01  1.07638E+01  1.15365E+01  1.24698E+01
   1.33913E+01  1.24339E+01  1.50812E+01  1.48808E+01  1.39405E+01  1.65735E+01  1.33247E+01  1.39596E+01  1.50016E+01  2.00790E+01
   2.02181E+01  2.44047E+01  2.50175E+01  2.50722E+01  2.63280E+01  2.26158E+01  2.35426E+01  2.20152E+01  1.48327E+01  1.43276E+01
   1.52357E+01  1.22947E+01  1.15265E+01  1.61898E+01  1.27499E+01  1.32103E+01  1.43894E+01  1.75444E+01  1.74895E+01  1.49426E+01
   1.48836E+01  1.43078E+01  2.06865E+01  2.21274E+01  2.72133E+01  3.41540E+01  4.00706E+01  3.95999E+01  3.60464E+01  3.02958E+01
   2.78475E+01  2.24242E+01  2.14397E+01  1.93884E+01  1.44855E+01  1.49227E+01  1.43257E+01  1.40121E+01  1.28213E+01  1.30854E+01
   1.72188E+01  1.67053E+01  1.64514E+01  1.53760E+01  1.68094E+01  1.43677E+01  1.63573E+01  1.49898E+01  1.37674E+01  1.54320E+01
   1.64892E+01  1.57559E+01  1.40460E+01  1.53647E+01  1.43099E+01  1.76262E+01  1.60876E+01  1.53525E+01  1.58455E+01  1.69290E+01
   1.72909E+01  1.44981E+01  1.71731E+01  1.45390E+01  1.68765E+01  1.51809E+01  1.00260E+01  1.48238E+01  1.47622E+01  1.24468E+01
   8.48494E+00  1.31009E+01  8.64858E+00  8.38558E+00  8.06955E+00  8.95732E+00  8.25116E+00  1.05815E+01  1.07185E+01  1.13233E+01
   1.20048E+01  1.41288E+01  1.47790E+01  1.84902E+01  1.54227E+01  1.63822E+01  1.52825E+01  1.54879E+01  1.64316E+01  1.70278E+01
   1.87847E+01  2.22230E+01  2.12143E+01  2.38307E+01  2.23197E+01  2.44038E+01  1.74783E+01  1.81860E+01  1.89459E+01  2.22921E+01
   1.98386E+01  2.48023E+01  2.61914E+01  2.88205E+01  2.70391E+01  2.74668E+01  2.75590E+01  2.49291E+01  2.65788E+01  2.40545E+01
   2.56850E+01  3.00756E+01  3.32322E+01  3.70030E+01  4.19524E+01  4.12383E+01  4.65749E+01  3.90564E+01  4.12004E+01  3.48884E+01
   3.39375E+01  3.21840E+01  3.00946E+01  3.41370E+01  3.55871E+01  3.50975E+01  3.98143E+01  4.30856E+01  4.35731E+01  4.39908E+01
   4.22135E+01  4.17336E+01  4.51986E+01  4.72946E+01  4.73650E+01  4.65384E+01  4.61861E+01  4.67734E+01  4.50184E+01  4.57625E+01
   4.48939E+01  4.64166E+01  4.39289E+01  4.25349E+01  4.37943E+01  4.78732E+01  4.89717E+01  4.91903E+01  4.97789E+01  5.08932E+01
   4.90919E+01  5.23415E+01  5.60159E+01  5.43131E+01  6.23107E+01  6.69834E+01  6.83114E+01  8.16421E+01  9.18122E+01  1.13202E+02
   1.22925E+02  1.19193E+02  1.09865E+02  1.00598E+02  8.65375E+01  7.87305E+01  6.88542E+01  6.49786E+01  6.04378E+01  5.80317E+01
   5.50822E+01  5.74785E+01  5.40647E+01  5.60419E+01  5.72747E+01  5.36431E+01  5.56176E+01  5.14233E+01  5.31165E+01  5.14727E+01
   5.28656E+01  5.33660E+01  4.89318E+01  5.20700E+01  5.39836E+01  5.06788E+01  4.97688E+01  5.26622E+01  5.36852E+01  5.09540E+01
   5.45369E+01  5.25103E+01  5.18324E+01  5.34438E+01  5.44921E+01  5.46624E+01  5.52706E+01  5.47883E+01  5.68559E+01  5.80903E+01
   5.48028E+01  5.68511E+01  5.82770E+01  5.94666E+01  5.96242E+01  5.92172E+01  6.25444E+01  6.09138E+01  6.07190E+01  6.53339E+01
   6.34396E+01  6.22386E+01  5.99636E+01  6.39772E+01  6.57259E+01  6.44161E+01  6.33471E+01  6.44412E+01  6.29491E+01  6.38930E+01
   6.33040E+01  6.24883E+01  6.18357E+01  5.98395E+01  6.02121E+01  5.93488E+01  5.92490E+01  5.81693E+01  6.18113E+01  6.24919E+01
   6.04734E+01  6.24569E+01  6.23809E+01  6.45734E+01  6.37217E+01  6.60477E+01  6.70986E+01  6.80328E+01  7.10061E+01  7.36611E+01
   7.66242E+01  7.51195E+01  8.04941E+01  8.22434E+01  8.39808E+01  8.92686E+01  8.87759E+01  9.11795E+01  9.39938E+01  9.29192E+01
   8.97164E+01  9.44146E+01  9.25867E+01  9.40694E+01  9.49812E+01  9.35440E+01  9.22990E+01  9.07460E+01  8.73593E+01  8.82265E+01
   8.33170E+01  8.43070E+01  8.16521E+01  7.54528E+01  7.41045E+01  7.05033E+01  7.04146E+01  6.96012E+01  6.73433E+01  6.64272E+01
   6.29875E+01  6.24131E+01  5.76898E+01  5.75117E+01  5.65718E+01  5.48649E+01  5.04784E+01  4.96896E+01  4.88326E+01  4.76414E+01
   4.37010E+01  4.24695E+01  4.54823E+01  4.49022E+01  4.30584E+01  4.42447E+01  3.84651E+01  3.97687E+01  3.92943E+01  3.78947E+01
   3.72388E+01  3.73384E+01  3.75482E+01  3.63203E+01  3.83814E+01  3.58561E+01  3.49244E+01  3.26257E+01  3.70818E+01  3.51667E+01
   3.47204E+01  3.37452E+01  3.12296E+01  3.21650E+01  3.21776E+01  3.37984E+01  3.26623E+01  3.32259E+01  2.92962E+01  2.94703E+01
   3.21441E+01  3.07036E+01  3.20571E+01  3.01210E+01  3.15950E+01  3.06812E+01  2.69076E+01  2.59164E+01  2.69407E+01  2.47244E+01
   2.43411E+01  2.60515E+01  2.50859E+01  2.23666E+01  2.32876E+01  2.42531E+01  2.42210E+01  2.28115E+01  2.16460E+01  2.19611E+01
   2.20218E+01  2.09975E+01  2.14299E+01  2.15094E+01  2.29102E+01  2.14519E+01  2.06552E+01  1.93466E+01  1.74845E+01  1.90247E+01
   1.89100E+01  1.92542E+01  1.90952E+01  1.64877E+01  1.83214E+01  1.89060E+01  1.87717E+01  1.58353E+01  1.66746E+01  1.81891E+01
   1.56850E+01  1.85059E+01  1.67317E+01  1.43311E+01  1.48452E+01  1.86956E+01  1.46266E+01  1.57812E+01  1.56249E+01  1.61924E+01
   1.89283E+01  1.79503E+01  1.52730E+01  1.42849E+01  1.48609E+01  1.68446E+01  1.53585E+01  1.63467E+01  1.71052E+01  1.65725E+01
   1.52912E+01  1.30412E+01  1.64423E+01  1.45821E+01  1.35116E+01  1.46158E+01  1.46593E+01  1.65841E+01  1.41370E+01  1.45969E+01
   1.35651E+01  1.35176E+01  1.54431E+01  1.66240E+01  1.47310E+01  1.38837E+01  1.41619E+01  1.22765E+01  1.36259E+01  1.54654E+01
   1.51630E+01  1.29483E+01  1.43434E+01  1.33113E+01  1.25343E+01  1.37988E+01  1.17903E+01  7.94505E+00
 NY points of the fit to the data follow
   7.04940E+00  7.05202E+00  7.18609E+00  7.44775E+00  7.88365E+00  8.61365E+00  9.59204E+00  1.07138E+01  1.19096E+01  1.30288E+01
   1.37671E+01  1.38670E+01  1.33807E+01  1.26074E+01  1.18104E+01  1.11145E+01  1.05690E+01  1.01679E+01  9.86345E+00  9.79747E+00
   9.93571E+00  1.01373E+01  1.02099E+01  1.00798E+01  9.78087E+00  9.33911E+00  8.90741E+00  8.82892E+00  9.44487E+00  1.07262E+01
   1.22499E+01  1.35845E+01  1.43758E+01  1.43422E+01  1.34838E+01  1.21954E+01  1.08301E+01  9.76921E+00  9.31008E+00  9.38906E+00
   9.79967E+00  1.03426E+01  1.09406E+01  1.15951E+01  1.22670E+01  1.29375E+01  1.34806E+01  1.36524E+01  1.34133E+01  1.28971E+01
   1.22705E+01  1.17019E+01  1.12517E+01  1.09188E+01  1.07101E+01  1.06509E+01  1.07638E+01  1.10020E+01  1.12945E+01  1.15445E+01
   1.16734E+01  1.16556E+01  1.15220E+01  1.13570E+01  1.12346E+01  1.11890E+01  1.12175E+01  1.13022E+01  1.14282E+01  1.15875E+01
   1.17810E+01  1.19629E+01  1.20980E+01  1.21835E+01  1.22179E+01  1.21952E+01  1.21184E+01  1.20216E+01  1.19334E+01  1.18808E+01
   1.19098E+01  1.19930E+01  1.20760E+01  1.21454E+01  1.21860E+01  1.21408E+01  1.19936E+01  1.18081E+01  1.16734E+01  1.16398E+01
   1.17067E+01  1.18285E+01  1.19552E+01  1.20807E+01  1.22319E+01  1.24273E+01  1.27931E+01  1.37183E+01  1.52052E+01  1.74000E+01
   2.05301E+01  2.40678E+01  2.66308E+01  2.71295E+01  2.57400E+01  2.33982E+01  2.09230E+01  1.87609E+01  1.69642E+01  1.53498E+01
   1.39128E+01  1.31945E+01  1.29995E+01  1.29347E+01  1.29167E+01  1.29222E+01  1.29513E+01  1.30053E+01  1.31034E+01  1.33180E+01
   1.39980E+01  1.58033E+01  1.86213E+01  2.27598E+01  2.84153E+01  3.43942E+01  3.82558E+01  3.84808E+01  3.57206E+01  3.16348E+01
   2.75268E+01  2.40060E+01  2.10268E+01  1.82183E+01  1.57333E+01  1.45579E+01  1.41970E+01  1.41268E+01  1.42319E+01  1.44314E+01
   1.46451E+01  1.48305E+01  1.49740E+01  1.50670E+01  1.51255E+01  1.51698E+01  1.52052E+01  1.52420E+01  1.52794E+01  1.53209E+01
   1.53765E+01  1.54389E+01  1.55080E+01  1.55912E+01  1.56894E+01  1.57558E+01  1.57427E+01  1.56450E+01  1.54133E+01  1.50731E+01
   1.47623E+01  1.46635E+01  1.48928E+01  1.53159E+01  1.56383E+01  1.56324E+01  1.53196E+01  1.49023E+01  1.45548E+01  1.42725E+01
   1.39589E+01  1.35886E+01  1.32068E+01  1.28742E+01  1.26409E+01  1.25458E+01  1.27236E+01  1.31752E+01  1.36425E+01  1.39202E+01
   1.40566E+01  1.42179E+01  1.44971E+01  1.48912E+01  1.52609E+01  1.55730E+01  1.61149E+01  1.70896E+01  1.83886E+01  1.96649E+01
   2.06093E+01  2.12389E+01  2.16285E+01  2.19002E+01  2.22169E+01  2.26153E+01  2.30347E+01  2.35568E+01  2.43169E+01  2.53443E+01
   2.65409E+01  2.77759E+01  2.88892E+01  2.96029E+01  2.95567E+01  2.87745E+01  2.73949E+01  2.57313E+01  2.44045E+01  2.40260E+01
   2.47875E+01  2.64389E+01  2.88447E+01  3.19849E+01  3.53499E+01  3.79717E+01  3.89328E+01  3.80747E+01  3.59266E+01  3.33290E+01
   3.08501E+01  2.91163E+01  2.88062E+01  3.01515E+01  3.27958E+01  3.59331E+01  3.87313E+01  4.09144E+01  4.24398E+01  4.33604E+01
   4.37439E+01  4.37117E+01  4.35453E+01  4.35873E+01  4.39909E+01  4.47991E+01  4.58350E+01  4.67772E+01  4.74002E+01  4.75405E+01
   4.72177E+01  4.67674E+01  4.66316E+01  4.69659E+01  4.76780E+01  4.86147E+01  4.95929E+01  5.05309E+01  5.14031E+01  5.22149E+01
   5.30488E+01  5.39977E+01  5.51217E+01  5.65388E+01  5.90804E+01  6.41889E+01  7.14506E+01  8.19346E+01  9.62490E+01  1.11084E+02
   1.19963E+02  1.19287E+02  1.11085E+02  9.96926E+01  8.83942E+01  7.87699E+01  7.07198E+01  6.33413E+01  5.71688E+01  5.45012E+01
   5.36223E+01  5.32103E+01  5.30744E+01  5.31157E+01  5.31648E+01  5.31772E+01  5.31453E+01  5.30737E+01  5.29753E+01  5.28697E+01
   5.27659E+01  5.26840E+01  5.26473E+01  5.26551E+01  5.26912E+01  5.27432E+01  5.28074E+01  5.28872E+01  5.29858E+01  5.30998E+01
   5.32360E+01  5.34017E+01  5.36002E+01  5.38340E+01  5.41065E+01  5.44220E+01  5.47823E+01  5.51881E+01  5.56404E+01  5.61386E+01
   5.66790E+01  5.72559E+01  5.78592E+01  5.84761E+01  5.90915E+01  5.96905E+01  6.02576E+01  6.07776E+01  6.12362E+01  6.16215E+01
   6.19240E+01  6.21390E+01  6.22660E+01  6.23085E+01  6.22739E+01  6.21742E+01  6.20247E+01  6.18443E+01  6.16536E+01  6.14760E+01
   6.13399E+01  6.12809E+01  6.12938E+01  6.13671E+01  6.14976E+01  6.16197E+01  6.16362E+01  6.15281E+01  6.13996E+01  6.14108E+01
   6.16595E+01  6.21536E+01  6.29195E+01  6.39830E+01  6.53049E+01  6.67806E+01  6.82639E+01  6.96931E+01  7.11407E+01  7.27053E+01
   7.44883E+01  7.65968E+01  7.90142E+01  8.16497E+01  8.45202E+01  8.73463E+01  8.96382E+01  9.10552E+01  9.17234E+01  9.21112E+01
   9.24994E+01  9.28701E+01  9.32818E+01  9.37793E+01  9.41779E+01  9.41582E+01  9.34370E+01  9.18597E+01  8.96979E+01  8.72641E+01
   8.47659E+01  8.22597E+01  7.96867E+01  7.71725E+01  7.48706E+01  7.26869E+01  7.05633E+01  6.84777E+01  6.64230E+01  6.44007E+01
   6.24169E+01  6.04804E+01  5.86005E+01  5.67863E+01  5.50449E+01  5.33826E+01  5.18036E+01  5.03107E+01  4.89051E+01  4.75870E+01
   4.63549E+01  4.52071E+01  4.41408E+01  4.31534E+01  4.22413E+01  4.14015E+01  4.06301E+01  3.99236E+01  3.92784E+01  3.86911E+01
   3.81577E+01  3.76745E+01  3.72371E+01  3.68411E+01  3.64815E+01  3.61535E+01  3.58511E+01  3.55685E+01  3.52991E+01  3.50367E+01
   3.47747E+01  3.45069E+01  3.42272E+01  3.39303E+01  3.36115E+01  3.32675E+01  3.28957E+01  3.24951E+01  3.20653E+01  3.16078E+01
   3.11246E+01  3.06192E+01  3.00955E+01  2.95583E+01  2.90123E+01  2.84626E+01  2.79139E+01  2.73711E+01  2.68381E+01  2.63185E+01
   2.58149E+01  2.53295E+01  2.48638E+01  2.44189E+01  2.39948E+01  2.35915E+01  2.32082E+01  2.28444E+01  2.24989E+01  2.21707E+01
   2.18584E+01  2.15609E+01  2.12768E+01  2.10052E+01  2.07449E+01  2.04950E+01  2.02546E+01  2.00229E+01  1.97990E+01  1.95827E+01
   1.93732E+01  1.91702E+01  1.89731E+01  1.87817E+01  1.85955E+01  1.84146E+01  1.82384E+01  1.80669E+01  1.78997E+01  1.77369E+01
   1.75781E+01  1.74235E+01  1.72728E+01  1.71259E+01  1.69824E+01  1.68426E+01  1.67060E+01  1.65727E+01  1.64423E+01  1.63149E+01
   1.61901E+01  1.60680E+01  1.59484E+01  1.58314E+01  1.57165E+01  1.56038E+01  1.54930E+01  1.53844E+01  1.52775E+01  1.51724E+01
   1.50689E+01  1.49669E+01  1.48662E+01  1.47670E+01  1.46690E+01  1.45722E+01  1.44763E+01  1.43814E+01  1.42873E+01  1.41940E+01
   1.41013E+01  1.40093E+01  1.39175E+01  1.38263E+01  1.37352E+01  1.36445E+01  1.35538E+01  1.34632E+01  1.33724E+01  1.32816E+01
   1.31905E+01  1.30991E+01  1.30073E+01  1.29151E+01  1.28221E+01  1.27287E+01  1.26344E+01  1.25396E+01
 NY background values follow
     6.565E+00    6.613E+00    6.662E+00    6.711E+00    6.760E+00    6.809E+00    6.859E+00    6.909E+00    6.960E+00    7.010E+00
     7.061E+00    7.113E+00    7.164E+00    7.216E+00    7.269E+00    7.321E+00    7.374E+00    7.428E+00    7.482E+00    7.536E+00
     7.590E+00    7.645E+00    7.700E+00    7.756E+00    7.812E+00    7.868E+00    7.925E+00    7.982E+00    8.040E+00    8.098E+00
     8.156E+00    8.215E+00    8.275E+00    8.334E+00    8.395E+00    8.455E+00    8.516E+00    8.578E+00    8.640E+00    8.702E+00
     8.765E+00    8.828E+00    8.892E+00    8.956E+00    9.021E+00    9.087E+00    9.152E+00    9.219E+00    9.285E+00    9.352E+00
     9.419E+00    9.487E+00    9.555E+00    9.622E+00    9.690E+00    9.758E+00    9.826E+00    9.893E+00    9.961E+00    1.003E+01
     1.009E+01    1.016E+01    1.023E+01    1.029E+01    1.036E+01    1.042E+01    1.049E+01    1.055E+01    1.061E+01    1.067E+01
     1.073E+01    1.079E+01    1.085E+01    1.091E+01    1.097E+01    1.102E+01    1.108E+01    1.113E+01    1.118E+01    1.123E+01
     1.128E+01    1.133E+01    1.137E+01    1.142E+01    1.146E+01    1.150E+01    1.154E+01    1.158E+01    1.161E+01    1.165E+01
     1.168E+01    1.171E+01    1.174E+01    1.176E+01    1.178E+01    1.181E+01    1.182E+01    1.184E+01    1.186E+01    1.187E+01
     1.189E+01    1.190E+01    1.191E+01    1.192E+01    1.192E+01    1.193E+01    1.193E+01    1.194E+01    1.194E+01    1.194E+01
     1.194E+01    1.194E+01    1.194E+01    1.194E+01    1.193E+01    1.193E+01    1.193E+01    1.192E+01    1.191E+01    1.191E+01
     1.190E+01    1.190E+01    1.189E+01    1.188E+01    1.187E+01    1.187E+01    1.186E+01    1.185E+01    1.185E+01    1.184E+01
     1.183E+01    1.182E+01    1.182E+01    1.181E+01    1.181E+01    1.180E+01    1.180E+01    1.179E+01    1.179E+01    1.179E+01
     1.179E+01    1.179E+01    1.179E+01    1.180E+01    1.180E+01    1.181E+01    1.183E+01    1.184E+01    1.186E+01    1.188E+01
     1.191E+01    1.194E+01    1.197E+01    1.201E+01    1.205E+01    1.210E+01    1.215E+01    1.221E+01    1.227E+01    1.234E+01
     1.242E+01    1.250E+01    1.258E+01    1.268E+01    1.278E+01    1.288E+01    1.300E+01    1.312E+01    1.325E+01    1.339E+01
     1.354E+01    1.369E+01    1.385E+01    1.402E+01    1.421E+01    1.440E+01    1.460E+01    1.481E+01    1.502E+01    1.525E+01
     1.549E+01    1.575E+01    1.601E+01    1.628E+01    1.656E+01    1.685E+01    1.715E+01    1.746E+01    1.778E+01    1.811E+01
     1.845E+01    1.879E+01    1.914E+01    1.950E+01    1.986E+01    2.023E+01    2.061E+01    2.099E+01    2.138E+01    2.177E+01
     2.217E+01    2.257E+01    2.298E+01    2.339E+01    2.380E+01    2.422E+01    2.464E+01    2.506E+01    2.549E+01    2.591E+01
     2.634E+01    2.677E+01    2.720E+01    2.763E+01    2.806E+01    2.849E+01    2.892E+01    2.935E+01    2.977E+01    3.020E+01
     3.062E+01    3.104E+01    3.146E+01    3.188E+01    3.229E+01    3.270E+01    3.311E+01    3.351E+01    3.391E+01    3.430E+01
     3.469E+01    3.507E+01    3.545E+01    3.583E+01    3.620E+01    3.657E+01    3.693E+01    3.729E+01    3.764E+01    3.799E+01
     3.833E+01    3.867E+01    3.901E+01    3.934E+01    3.967E+01    3.999E+01    4.030E+01    4.062E+01    4.092E+01    4.123E+01
     4.152E+01    4.181E+01    4.210E+01    4.238E+01    4.266E+01    4.293E+01    4.320E+01    4.346E+01    4.372E+01    4.397E+01
     4.422E+01    4.446E+01    4.470E+01    4.493E+01    4.515E+01    4.537E+01    4.559E+01    4.580E+01    4.600E+01    4.620E+01
     4.639E+01    4.658E+01    4.676E+01    4.694E+01    4.711E+01    4.727E+01    4.743E+01    4.759E+01    4.773E+01    4.788E+01
     4.801E+01    4.814E+01    4.827E+01    4.839E+01    4.850E+01    4.860E+01    4.870E+01    4.880E+01    4.889E+01    4.897E+01
     4.905E+01    4.912E+01    4.918E+01    4.924E+01    4.929E+01    4.933E+01    4.937E+01    4.940E+01    4.943E+01    4.945E+01
     4.946E+01    4.947E+01    4.947E+01    4.946E+01    4.945E+01    4.943E+01    4.940E+01    4.937E+01    4.933E+01    4.928E+01
     4.923E+01    4.917E+01    4.910E+01    4.903E+01    4.895E+01    4.886E+01    4.877E+01    4.866E+01    4.856E+01    4.844E+01
     4.832E+01    4.819E+01    4.806E+01    4.791E+01    4.777E+01    4.761E+01    4.745E+01    4.729E+01    4.712E+01    4.694E+01
     4.676E+01    4.657E+01    4.638E+01    4.618E+01    4.598E+01    4.577E+01    4.556E+01    4.534E+01    4.512E+01    4.490E+01
     4.467E+01    4.443E+01    4.419E+01    4.395E+01    4.371E+01    4.346E+01    4.320E+01    4.295E+01    4.269E+01    4.243E+01
     4.216E+01    4.189E+01    4.162E+01    4.135E+01    4.107E+01    4.079E+01    4.051E+01    4.023E+01    3.994E+01    3.966E+01
     3.937E+01    3.908E+01    3.878E+01    3.849E+01    3.820E+01    3.790E+01    3.760E+01    3.730E+01    3.700E+01    3.670E+01
     3.640E+01    3.610E+01    3.580E+01    3.550E+01    3.519E+01    3.489E+01    3.459E+01    3.428E+01    3.398E+01    3.368E+01
     3.337E+01    3.307E+01    3.277E+01    3.247E+01    3.217E+01    3.187E+01    3.157E+01    3.127E+01    3.097E+01    3.068E+01
     3.038E+01    3.009E+01    2.980E+01    2.951E+01    2.922E+01    2.893E+01    2.865E+01    2.836E+01    2.808E+01    2.780E+01
     2.753E+01    2.725E+01    2.698E+01    2.671E+01    2.645E+01    2.618E+01    2.592E+01    2.566E+01    2.541E+01    2.516E+01
     2.491E+01    2.466E+01    2.442E+01    2.418E+01    2.394E+01    2.371E+01    2.348E+01    2.325E+01    2.303E+01    2.280E+01
     2.258E+01    2.237E+01    2.215E+01    2.194E+01    2.174E+01    2.153E+01    2.133E+01    2.113E+01    2.094E+01    2.074E+01
     2.055E+01    2.037E+01    2.018E+01    2.000E+01    1.982E+01    1.965E+01    1.947E+01    1.930E+01    1.913E+01    1.897E+01
     1.881E+01    1.865E+01    1.849E+01    1.834E+01    1.819E+01    1.804E+01    1.789E+01    1.775E+01    1.761E+01    1.747E+01
     1.734E+01    1.721E+01    1.708E+01    1.695E+01    1.683E+01    1.671E+01    1.659E+01    1.647E+01    1.636E+01    1.624E+01
     1.613E+01    1.603E+01    1.592E+01    1.581E+01    1.571E+01    1.561E+01    1.551E+01    1.541E+01    1.532E+01    1.522E+01
     1.513E+01    1.503E+01    1.494E+01    1.485E+01    1.476E+01    1.467E+01    1.458E+01    1.449E+01    1.441E+01    1.432E+01
     1.423E+01    1.415E+01    1.406E+01    1.398E+01    1.389E+01    1.380E+01    1.372E+01    1.363E+01    1.355E+01    1.346E+01
     1.337E+01    1.328E+01    1.319E+01    1.311E+01    1.302E+01    1.292E+01    1.283E+01    1.274E+01
 Ala      Conc. = 8.26E+01
