 LCModel (Version 6.3-1L) Copyright: S.W. Provencher.          Ref.: Magn. Reson. Med. 30:672-679 (1993).                
 Slice#1 Row#9 Col#12  K_02_press_1_raw_act
 36 lines in following concentration table = NCONC+1
    Conc.  %SD /Cr+PCr  Metabolite                                         
  101.419  56%   0.502 Ala                                                 
    0.000 999%   0.000 Asp                                                 
   61.963 143%   0.307 Cr                                                  
  140.015  66%   0.693 PCr                                                 
  131.418  55%   0.651 GABA                                                
  148.849  49%   0.737 Glc                                                 
   80.330 136%   0.398 Gln                                                 
 1.03E+03  16%   5.081 Glu                                                 
    0.000 999%   0.000 GPC                                                 
   78.870  15%   0.390 PCh                                                 
   96.738  41%   0.479 GSH                                                 
  359.359  35%   1.779 Ins                                                 
  116.621  52%   0.577 Lac                                                 
 1.63E+03   8%   8.047 NAA                                                 
  548.044  21%   2.713 NAAG                                                
   25.752  55%   0.128 Scyllo                                              
  144.767  68%   0.717 Tau                                                 
   76.457  59%   0.379 -CrCH2                                              
   78.870  15%   0.390 GPC+PCh                                             
 2.17E+03   3%  10.760 NAA+NAAG                                            
  201.978  15%   1.000 Cr+PCr                                              
 1.11E+03  18%   5.478 Glu+Gln                                             
 2.45E+03  23%  12.123 Lip13a                                              
    0.000 999%   0.000 Lip13b                                              
  533.411  35%   2.641 Lip09                                               
  888.980  25%   4.401 MM09                                                
  454.628  25%   2.251 Lip20                                               
 1.81E+03  15%   8.970 MM20                                                
  266.421  57%   1.319 MM12                                                
 2.35E+03  17%  11.640 MM14                                                
  851.025  25%   4.213 MM17                                                
 2.45E+03  23%  12.123 Lip13a+Lip13b                                       
 5.07E+03   7%  25.083 MM14+Lip13a+Lip13b+MM12                             
 1.42E+03   9%   7.042 MM09+Lip09                                          
 2.27E+03  11%  11.221 MM20+Lip20                                          
   6 lines in following misc. output table
  FWHM = 0.046 ppm    S/N =  17                                            
  Data shift =-0.015 ppm                                                   
  Ph: -18 deg     -11.4 deg/ppm                                            
  alphaB,S = 8.5E+01,   2.6E+01                                            
   14 spline knots.   Ns = 7(1)                                            
   2 inflections.     1 extrema                                            
  498 points on ppm-axis = NY
      4.000000     3.992357     3.984714     3.977070     3.969427     3.961784     3.954141     3.946497     3.938854     3.931211
      3.923568     3.915925     3.908281     3.900638     3.892995     3.885352     3.877708     3.870065     3.862422     3.854779
      3.847136     3.839492     3.831849     3.824206     3.816563     3.808919     3.801276     3.793633     3.785990     3.778347
      3.770703     3.763060     3.755417     3.747774     3.740130     3.732487     3.724844     3.717201     3.709558     3.701914
      3.694271     3.686628     3.678985     3.671341     3.663698     3.656055     3.648412     3.640769     3.633125     3.625482
      3.617839     3.610196     3.602552     3.594909     3.587266     3.579623     3.571980     3.564336     3.556693     3.549050
      3.541407     3.533763     3.526120     3.518477     3.510834     3.503191     3.495547     3.487904     3.480261     3.472618
      3.464974     3.457331     3.449688     3.442045     3.434402     3.426758     3.419115     3.411472     3.403829     3.396185
      3.388542     3.380899     3.373256     3.365613     3.357969     3.350326     3.342683     3.335040     3.327396     3.319753
      3.312110     3.304467     3.296824     3.289180     3.281537     3.273894     3.266251     3.258607     3.250964     3.243321
      3.235678     3.228034     3.220391     3.212748     3.205105     3.197462     3.189818     3.182175     3.174532     3.166889
      3.159245     3.151602     3.143959     3.136316     3.128673     3.121029     3.113386     3.105743     3.098100     3.090456
      3.082813     3.075170     3.067527     3.059884     3.052240     3.044597     3.036954     3.029311     3.021667     3.014024
      3.006381     2.998738     2.991095     2.983451     2.975808     2.968165     2.960522     2.952878     2.945235     2.937592
      2.929949     2.922306     2.914662     2.907019     2.899376     2.891733     2.884089     2.876446     2.868803     2.861160
      2.853517     2.845873     2.838230     2.830587     2.822944     2.815300     2.807657     2.800014     2.792371     2.784728
      2.777084     2.769441     2.761798     2.754155     2.746511     2.738868     2.731225     2.723582     2.715939     2.708295
      2.700652     2.693009     2.685366     2.677722     2.670079     2.662436     2.654793     2.647150     2.639506     2.631863
      2.624220     2.616577     2.608933     2.601290     2.593647     2.586004     2.578361     2.570717     2.563074     2.555431
      2.547788     2.540144     2.532501     2.524858     2.517215     2.509572     2.501928     2.494285     2.486642     2.478999
      2.471355     2.463712     2.456069     2.448426     2.440783     2.433139     2.425496     2.417853     2.410210     2.402566
      2.394923     2.387280     2.379637     2.371994     2.364350     2.356707     2.349064     2.341421     2.333777     2.326134
      2.318491     2.310848     2.303205     2.295561     2.287918     2.280275     2.272632     2.264988     2.257345     2.249702
      2.242059     2.234416     2.226772     2.219129     2.211486     2.203843     2.196199     2.188556     2.180913     2.173270
      2.165627     2.157983     2.150340     2.142697     2.135054     2.127410     2.119767     2.112124     2.104481     2.096838
      2.089194     2.081551     2.073908     2.066265     2.058621     2.050978     2.043335     2.035692     2.028049     2.020405
      2.012762     2.005119     1.997476     1.989833     1.982190     1.974546     1.966903     1.959260     1.951617     1.943974
      1.936331     1.928688     1.921045     1.913402     1.905759     1.898115     1.890472     1.882829     1.875186     1.867543
      1.859900     1.852257     1.844614     1.836971     1.829327     1.821684     1.814041     1.806398     1.798755     1.791112
      1.783469     1.775826     1.768183     1.760540     1.752896     1.745253     1.737610     1.729967     1.722324     1.714681
      1.707038     1.699395     1.691752     1.684108     1.676465     1.668822     1.661179     1.653536     1.645893     1.638250
      1.630607     1.622964     1.615321     1.607677     1.600034     1.592391     1.584748     1.577105     1.569462     1.561819
      1.554176     1.546533     1.538890     1.531246     1.523603     1.515960     1.508317     1.500674     1.493031     1.485388
      1.477745     1.470102     1.462458     1.454815     1.447172     1.439529     1.431886     1.424243     1.416600     1.408957
      1.401314     1.393671     1.386027     1.378384     1.370741     1.363098     1.355455     1.347812     1.340169     1.332526
      1.324883     1.317240     1.309596     1.301953     1.294310     1.286667     1.279024     1.271381     1.263738     1.256095
      1.248452     1.240808     1.233165     1.225522     1.217879     1.210236     1.202593     1.194950     1.187307     1.179664
      1.172021     1.164377     1.156734     1.149091     1.141448     1.133805     1.126162     1.118519     1.110876     1.103233
      1.095590     1.087946     1.080303     1.072660     1.065017     1.057374     1.049731     1.042088     1.034445     1.026802
      1.019158     1.011515     1.003872     0.996229     0.988586     0.980943     0.973300     0.965657     0.958014     0.950371
      0.942727     0.935084     0.927441     0.919798     0.912155     0.904512     0.896869     0.889226     0.881583     0.873940
      0.866296     0.858653     0.851010     0.843367     0.835724     0.828081     0.820438     0.812795     0.805152     0.797508
      0.789865     0.782222     0.774579     0.766936     0.759293     0.751650     0.744007     0.736364     0.728721     0.721077
      0.713434     0.705791     0.698148     0.690505     0.682862     0.675219     0.667576     0.659933     0.652290     0.644646
      0.637003     0.629360     0.621717     0.614074     0.606431     0.598788     0.591145     0.583502     0.575858     0.568215
      0.560572     0.552929     0.545286     0.537643     0.530000     0.522357     0.514714     0.507071     0.499427     0.491784
      0.484141     0.476498     0.468855     0.461212     0.453569     0.445925     0.438282     0.430639     0.422996     0.415353
      0.407710     0.400067     0.392424     0.384780     0.377137     0.369494     0.361851     0.354208     0.346565     0.338922
      0.331278     0.323635     0.315992     0.308349     0.300706     0.293063     0.285420     0.277777     0.270133     0.262490
      0.254847     0.247204     0.239561     0.231918     0.224275     0.216631     0.208988     0.201345
 NY phased data points follow
   4.22693E+00  5.14098E+00  4.48315E+00  7.38427E+00  3.94118E+00  2.35017E+00  3.27867E+00  3.29761E+00  5.73351E+00  1.38836E+00
   1.27952E+00  6.61395E+00  5.02249E+00  1.35938E+00  4.56641E+00  2.81184E+00  2.79443E+00  2.45806E+00  1.38303E+00 -1.58250E-01
   2.27649E+00  1.44920E+00  4.63742E+00  1.35439E+00  3.53220E+00  6.40581E+00  4.10562E+00  3.39607E+00  4.00039E+00  4.51066E+00
   4.02448E+00  4.42400E+00  4.27870E+00  4.99624E+00  2.75851E+00  2.23839E+00  3.68555E+00  3.70864E+00  2.75811E+00  4.13133E+00
   4.51348E+00  3.16285E+00  7.13121E-01  3.44464E+00  2.08421E+00  2.69848E+00  4.65180E+00  3.21038E+00  1.40577E+00  5.20772E+00
   4.24222E+00  4.40916E+00  4.09150E+00  4.47867E+00  4.58002E+00  3.45828E+00  2.83787E-01  3.41595E+00  3.52787E+00  5.34989E+00
   4.94519E+00  6.62179E+00  5.83071E-01  4.16765E+00  2.18773E+00  3.51325E+00  3.94138E+00  3.46650E+00  1.84648E+00  2.66849E+00
   4.92839E+00  1.80548E+00  4.27218E+00  4.78757E+00  2.85515E+00  2.34790E+00  7.59329E+00  2.36066E+00  5.05163E+00  3.04301E+00
   3.29953E+00  4.02998E+00  1.64553E-01  4.04676E+00  2.97222E+00  3.60783E+00  3.69874E+00  3.01533E+00  3.19713E+00  2.63884E+00
   3.54602E+00  3.23931E+00  2.67547E+00  3.15245E+00  2.84937E+00  2.71809E+00 -5.38661E-01  5.58486E+00  4.10121E+00  6.22218E+00
   2.50250E+00  5.52810E+00  6.43393E+00  8.71656E+00  9.57765E+00  1.38153E+01  1.33494E+01  8.41125E+00  2.16639E+00  4.20250E+00
   1.97217E+00 -3.06952E-01  9.09590E-01  3.81077E+00  3.24976E+00  2.71543E+00  4.45702E+00  3.35663E+00  2.49842E+00  4.29877E+00
   2.69832E+00  3.88554E+00  3.73516E+00  3.78867E+00  2.86030E+00  3.76217E+00  7.34590E+00  7.97371E+00  1.50441E+01  1.41501E+01
   1.25143E+01  9.87237E+00  6.44866E+00  6.18920E+00  2.71516E+00  3.05266E+00  4.63109E+00 -2.26073E-02  1.16312E-01  4.93749E+00
   4.23967E+00  6.20875E+00  1.68935E+00  5.40702E+00 -2.08454E-01  5.82257E+00  3.70622E+00  5.58331E+00  5.32596E+00  4.04614E+00
   3.71612E+00  4.81860E+00  4.44351E+00  7.80662E+00  1.47809E+00  3.08465E+00  4.16598E+00  3.46073E+00  4.81435E+00  5.01466E+00
   4.73158E+00  5.16603E+00  6.14258E+00  3.53821E+00  3.67364E+00  2.83979E+00  2.22412E+00 -1.35546E+00  1.68125E+00  2.08274E+00
   1.17777E+00 -8.75959E-01 -1.29853E+00 -4.31599E+00 -3.81377E+00 -2.82243E+00 -2.14739E+00 -4.85066E+00 -2.60627E+00 -2.09093E-01
  -2.32601E+00 -2.49992E+00 -1.47124E+00  1.86682E-01 -3.25397E+00 -3.20517E+00 -3.03548E-01 -4.68854E-01 -2.82212E+00 -2.41085E+00
   2.28757E+00  1.44798E+00  2.03118E+00 -3.68288E-01  6.58996E-01 -1.12905E+00 -8.08401E-01 -7.10303E-02  8.91199E-01 -1.51281E+00
  -3.10070E+00 -5.68297E+00 -8.23895E-01  2.88120E+00  3.62238E+00  2.94393E+00  4.41876E+00  5.74642E+00  3.27146E+00  1.62484E+00
  -9.84841E-01  2.65642E+00  2.94850E+00  5.74576E+00  6.19154E+00  1.09464E+01  1.28873E+01  1.41753E+01  1.46541E+01  7.08390E+00
   2.43411E+00  6.97796E-01  1.30831E+00 -1.16663E+00 -2.57106E+00  3.58173E+00  4.15286E+00  7.00887E+00  8.49489E+00  4.19976E+00
   7.11797E+00  6.21357E+00  7.78679E+00  7.74092E+00  1.04524E+01  7.00252E+00  1.04662E+01  1.09322E+01  9.21877E+00  8.94743E+00
   9.40049E+00  9.94890E+00  6.32844E+00  5.72882E+00  5.15063E+00  7.52734E+00  1.13100E+01  1.20195E+01  1.38405E+01  1.14249E+01
   1.27188E+01  1.29145E+01  1.78533E+01  2.13180E+01  2.68076E+01  3.12675E+01  3.88970E+01  4.73484E+01  6.09715E+01  7.47079E+01
   8.43369E+01  8.09034E+01  7.38690E+01  6.43616E+01  4.65999E+01  3.11028E+01  2.15219E+01  1.42428E+01  9.18218E+00  8.86150E+00
   4.71917E+00  7.84189E+00  5.50395E+00  5.00413E+00  9.86043E+00  4.64435E+00  6.89599E+00  6.64581E+00  7.96307E+00  5.96610E+00
   4.91756E+00  4.99574E+00  4.94676E+00  5.03543E+00  3.84081E+00  4.49659E+00  6.79389E+00  4.76833E+00  7.72904E+00  4.17498E+00
   4.68938E+00  8.03393E+00  9.21915E+00  8.16000E+00  4.71637E+00  5.76493E+00  4.80285E+00  1.63373E+00  5.23557E+00  5.47813E+00
   5.53967E+00  1.07201E+01  6.60834E+00  8.36488E+00  6.44180E+00  7.38936E+00  1.07477E+01  8.67587E+00  9.96052E+00  9.15594E+00
   1.09311E+01  1.14063E+01  1.00090E+01  9.74855E+00  1.07483E+01  9.86924E+00  9.83478E+00  1.09089E+01  1.12908E+01  1.18106E+01
   1.07265E+01  1.19503E+01  1.50317E+01  1.66976E+01  1.53895E+01  1.56193E+01  1.64774E+01  1.51121E+01  1.85293E+01  1.29459E+01
   1.48530E+01  1.86708E+01  2.01195E+01  1.80006E+01  1.60084E+01  1.80845E+01  2.03405E+01  2.03150E+01  2.16345E+01  2.16481E+01
   1.97050E+01  2.27687E+01  2.46957E+01  2.19862E+01  2.61252E+01  2.76078E+01  2.58227E+01  2.31494E+01  2.37340E+01  2.02285E+01
   2.11005E+01  1.78559E+01  1.65110E+01  1.40666E+01  1.90459E+01  1.26019E+01  1.35860E+01  1.23568E+01  1.28397E+01  1.21156E+01
   1.22925E+01  1.32489E+01  1.53004E+01  1.16159E+01  1.47656E+01  1.31717E+01  1.68807E+01  1.43337E+01  1.10524E+01  1.24414E+01
   9.92537E+00  1.15161E+01  9.75575E+00  7.45706E+00  9.48983E+00  9.25163E+00  8.72667E+00  8.59252E+00  7.06885E+00  8.24663E+00
   5.81660E+00  3.09875E+00  4.69756E+00  7.78038E+00  3.70025E+00  7.05933E+00  6.74807E+00  6.77858E+00  5.76660E+00  7.77083E+00
   6.23455E+00  7.90624E+00  1.38524E+01  1.21841E+01  8.64848E+00  1.18109E+01  8.80926E+00  1.21624E+01  1.44064E+01  1.63252E+01
   1.14821E+01  9.81161E+00  1.07962E+01  1.18511E+01  1.09961E+01  1.20100E+01  1.54334E+01  1.19912E+01  9.74100E+00  1.33902E+01
   1.21213E+01  1.10048E+01  8.98484E+00  1.06821E+01  1.02401E+01  9.92179E+00  6.33046E+00  7.44627E+00  3.31411E+00  7.88168E+00
   4.49056E+00  3.77857E+00  4.07700E+00  5.65499E+00 -5.17326E-01  3.10232E+00  7.24273E+00  5.43082E+00  6.53742E+00  4.63987E+00
   1.67254E+00  5.84964E+00  2.07862E+00  2.09908E+00  4.87404E+00  3.97963E+00  3.25134E+00  4.86044E+00  1.21960E+00  1.27292E+00
   3.37231E+00  2.48039E+00  5.06291E-01  1.48881E+00 -2.41218E-01  2.57239E+00  3.35469E+00  7.60019E-01  8.31824E-01  2.28034E+00
   1.86736E+00  2.60326E-01  2.05296E+00  5.06596E-01  3.26835E+00  3.72626E+00  2.50829E+00  3.25556E+00  4.49480E+00  4.59336E-01
   4.39898E+00  2.92096E+00 -3.25365E-01  3.29970E+00  1.79723E+00  3.27464E+00  3.36520E+00  4.94930E-01 -1.05565E+00  1.92336E+00
   2.96901E+00 -6.63460E-02  2.87634E+00  3.50689E+00  7.07059E+00  2.13510E+00  5.40350E-01  1.27943E+00  1.86666E-01 -5.39859E-01
   1.83941E+00  1.35166E+00  2.92074E+00  3.81526E+00  3.29408E+00  1.63286E+00  1.24921E+00  9.06953E-01  1.33226E+00  2.46503E+00
   2.73620E+00  2.00492E+00  1.63937E+00  5.62861E+00  1.87881E+00  6.01653E+00  2.06145E+00  2.45200E+00
 NY points of the fit to the data follow
   2.66166E+00  2.34389E+00  2.18058E+00  2.13577E+00  2.11529E+00  2.16562E+00  2.28212E+00  2.55428E+00  3.05990E+00  3.71078E+00
   4.31562E+00  4.69180E+00  4.76450E+00  4.48382E+00  3.93106E+00  3.26814E+00  2.62492E+00  2.13780E+00  1.92690E+00  1.92458E+00
   2.09412E+00  2.30850E+00  2.66796E+00  3.16484E+00  3.52939E+00  3.72605E+00  3.71223E+00  3.50368E+00  3.34204E+00  3.39605E+00
   3.71749E+00  4.41328E+00  5.50546E+00  6.48108E+00  6.75715E+00  6.34630E+00  5.33500E+00  3.93464E+00  2.61948E+00  1.77050E+00
   1.53875E+00  1.70875E+00  2.02129E+00  2.38962E+00  2.73594E+00  3.18845E+00  3.88916E+00  4.66885E+00  5.21929E+00  5.33381E+00
   5.01644E+00  4.36026E+00  3.53139E+00  2.78993E+00  2.31208E+00  2.09955E+00  2.07828E+00  2.20745E+00  2.48453E+00  2.85911E+00
   3.21175E+00  3.43886E+00  3.52080E+00  3.41741E+00  3.16924E+00  2.92268E+00  2.73134E+00  2.61320E+00  2.62047E+00  2.70187E+00
   2.79771E+00  2.96973E+00  3.24187E+00  3.57270E+00  3.95525E+00  4.29087E+00  4.36836E+00  4.19001E+00  3.87440E+00  3.48317E+00
   3.09222E+00  2.83642E+00  2.81093E+00  3.01210E+00  3.40159E+00  3.80774E+00  3.96680E+00  3.77506E+00  3.38379E+00  2.93425E+00
   2.46237E+00  2.07449E+00  1.86681E+00  1.73992E+00  1.70780E+00  1.81500E+00  2.09511E+00  2.42004E+00  2.52917E+00  2.83762E+00
   3.75482E+00  5.47884E+00  7.77503E+00  9.87679E+00  1.09910E+01  1.09868E+01  1.01102E+01  8.38975E+00  6.32878E+00  4.77392E+00
   3.79787E+00  3.19660E+00  2.98419E+00  2.91053E+00  2.90300E+00  2.91051E+00  2.90681E+00  2.88810E+00  2.84714E+00  2.81385E+00
   2.90106E+00  2.91947E+00  2.83346E+00  3.18037E+00  4.30020E+00  6.23229E+00  8.65379E+00  1.07426E+01  1.17696E+01  1.17965E+01
   1.09923E+01  9.35466E+00  7.48843E+00  5.99307E+00  4.78062E+00  3.84707E+00  3.27163E+00  2.92908E+00  2.87346E+00  3.08180E+00
   3.40277E+00  3.74162E+00  4.00399E+00  4.09959E+00  4.07027E+00  3.96371E+00  3.81977E+00  3.69376E+00  3.60566E+00  3.55492E+00
   3.49702E+00  3.39668E+00  3.23532E+00  3.00439E+00  2.80652E+00  2.82470E+00  2.98576E+00  3.12584E+00  3.08673E+00  2.66347E+00
   2.04337E+00  1.60973E+00  1.50577E+00  1.63746E+00  1.92166E+00  2.10023E+00  1.90072E+00  1.39299E+00  6.86838E-01 -4.61451E-02
  -4.00621E-01 -4.57438E-01 -6.13962E-01 -9.41246E-01 -1.43462E+00 -1.85610E+00 -1.96077E+00 -1.74168E+00 -1.50652E+00 -1.38095E+00
  -1.30216E+00 -1.21563E+00 -1.15085E+00 -1.07827E+00 -9.56121E-01 -7.15634E-01 -2.76165E-01  4.49615E-01  1.47391E+00  2.58620E+00
   3.68497E+00  4.53684E+00  4.95554E+00  4.96016E+00  4.75680E+00  4.41789E+00  4.03796E+00  3.69907E+00  3.45053E+00  3.38534E+00
   3.48280E+00  3.84447E+00  4.56800E+00  5.32037E+00  5.81802E+00  5.92434E+00  5.46218E+00  4.48634E+00  3.12983E+00  1.72097E+00
   4.00050E-01 -4.67911E-01 -2.89667E-01  1.13247E+00  3.57806E+00  6.17679E+00  8.07338E+00  8.81510E+00  8.07600E+00  5.83054E+00
   2.59015E+00 -5.78451E-01 -2.44980E+00 -2.59067E+00 -1.20002E+00  1.17167E+00  3.88259E+00  6.27460E+00  7.65793E+00  7.96461E+00
   7.68072E+00  7.23849E+00  7.02002E+00  7.22101E+00  7.76880E+00  8.54920E+00  9.23662E+00  9.64678E+00  9.67128E+00  9.24150E+00
   8.50023E+00  7.81218E+00  7.50608E+00  7.78491E+00  8.64322E+00  9.84094E+00  1.10830E+01  1.21109E+01  1.27814E+01  1.31295E+01
   1.27706E+01  1.27567E+01  1.47347E+01  1.99292E+01  2.59153E+01  3.16271E+01  3.86507E+01  4.80615E+01  6.09327E+01  7.43278E+01
   8.20590E+01  8.14767E+01  7.49449E+01  6.31687E+01  4.68767E+01  3.14961E+01  2.12241E+01  1.43866E+01  1.05044E+01  8.90645E+00
   7.98343E+00  7.40430E+00  7.12082E+00  7.09020E+00  7.13397E+00  7.12582E+00  7.00213E+00  6.74191E+00  6.35407E+00  5.91812E+00
   5.51683E+00  5.21959E+00  5.04899E+00  4.96921E+00  4.95476E+00  4.99060E+00  5.02051E+00  5.01316E+00  4.99961E+00  5.00231E+00
   5.04020E+00  5.13938E+00  5.29263E+00  5.47554E+00  5.67966E+00  5.88465E+00  6.06683E+00  6.23544E+00  6.41605E+00  6.62420E+00
   6.87338E+00  7.15960E+00  7.47679E+00  7.81473E+00  8.15004E+00  8.46875E+00  8.76834E+00  9.04191E+00  9.29072E+00  9.51762E+00
   9.72357E+00  9.91070E+00  1.00821E+01  1.02423E+01  1.03979E+01  1.05573E+01  1.07300E+01  1.09264E+01  1.11582E+01  1.14389E+01
   1.17847E+01  1.21717E+01  1.26067E+01  1.32017E+01  1.39538E+01  1.47782E+01  1.55345E+01  1.60551E+01  1.63171E+01  1.64607E+01
   1.65188E+01  1.65673E+01  1.68349E+01  1.74992E+01  1.85179E+01  1.97449E+01  2.09551E+01  2.19271E+01  2.26383E+01  2.30227E+01
   2.30783E+01  2.29587E+01  2.27461E+01  2.25769E+01  2.25361E+01  2.25278E+01  2.23927E+01  2.19324E+01  2.10904E+01  1.99925E+01
   1.87412E+01  1.74725E+01  1.64565E+01  1.59620E+01  1.59640E+01  1.62390E+01  1.65399E+01  1.66468E+01  1.65319E+01  1.61204E+01
   1.54394E+01  1.46964E+01  1.39853E+01  1.33078E+01  1.27117E+01  1.21661E+01  1.16505E+01  1.11587E+01  1.06889E+01  1.02415E+01
   9.81749E+00  9.41861E+00  9.04660E+00  8.70323E+00  8.39028E+00  8.10949E+00  7.86255E+00  7.65102E+00  7.47631E+00  7.33981E+00
   7.24286E+00  7.18681E+00  7.17291E+00  7.20225E+00  7.27571E+00  7.39389E+00  7.55701E+00  7.76474E+00  8.01600E+00  8.30873E+00
   8.63979E+00  9.00482E+00  9.39820E+00  9.81290E+00  1.02405E+01  1.06714E+01  1.10950E+01  1.14998E+01  1.18744E+01  1.22072E+01
   1.24873E+01  1.27050E+01  1.28521E+01  1.29225E+01  1.29124E+01  1.28205E+01  1.26480E+01  1.23985E+01  1.20782E+01  1.16948E+01
   1.12579E+01  1.07780E+01  1.02658E+01  9.73254E+00  9.18877E+00  8.64439E+00  8.10817E+00  7.58757E+00  7.08865E+00  6.61608E+00
   6.17319E+00  5.76203E+00  5.38350E+00  5.03752E+00  4.72328E+00  4.43939E+00  4.18408E+00  3.95528E+00  3.75074E+00  3.56818E+00
   3.40536E+00  3.26021E+00  3.13077E+00  3.01523E+00  2.91189E+00  2.81928E+00  2.73608E+00  2.66119E+00  2.59359E+00  2.53240E+00
   2.47682E+00  2.42618E+00  2.37993E+00  2.33760E+00  2.29874E+00  2.26298E+00  2.22994E+00  2.19936E+00  2.17101E+00  2.14469E+00
   2.12020E+00  2.09733E+00  2.07593E+00  2.05588E+00  2.03710E+00  2.01949E+00  2.00294E+00  1.98732E+00  1.97258E+00  1.95866E+00
   1.94552E+00  1.93311E+00  1.92133E+00  1.91014E+00  1.89951E+00  1.88942E+00  1.87986E+00  1.87077E+00  1.86209E+00  1.85380E+00
   1.84589E+00  1.83838E+00  1.83122E+00  1.82439E+00  1.81785E+00  1.81159E+00  1.80562E+00  1.79995E+00  1.79454E+00  1.78936E+00
   1.78438E+00  1.77963E+00  1.77511E+00  1.77083E+00  1.76674E+00  1.76283E+00  1.75909E+00  1.75555E+00  1.75223E+00  1.74909E+00
   1.74612E+00  1.74332E+00  1.74068E+00  1.73825E+00  1.73603E+00  1.73400E+00  1.73214E+00  1.73048E+00
 NY background values follow
     2.003E+00    2.003E+00    2.003E+00    2.003E+00    2.003E+00    2.003E+00    2.003E+00    2.003E+00    2.003E+00    2.003E+00
     2.003E+00    2.003E+00    2.003E+00    2.003E+00    2.003E+00    2.003E+00    2.003E+00    2.003E+00    2.003E+00    2.003E+00
     2.003E+00    2.003E+00    2.003E+00    2.003E+00    2.003E+00    2.003E+00    2.003E+00    2.003E+00    2.003E+00    2.003E+00
     2.003E+00    2.003E+00    2.002E+00    2.002E+00    2.002E+00    2.002E+00    2.002E+00    2.002E+00    2.002E+00    2.002E+00
     2.002E+00    2.002E+00    2.002E+00    2.002E+00    2.002E+00    2.002E+00    2.002E+00    2.002E+00    2.002E+00    2.002E+00
     2.002E+00    2.002E+00    2.002E+00    2.002E+00    2.002E+00    2.001E+00    2.001E+00    2.001E+00    2.001E+00    2.001E+00
     2.001E+00    2.001E+00    2.001E+00    2.001E+00    2.001E+00    2.001E+00    2.001E+00    2.001E+00    2.001E+00    2.001E+00
     2.001E+00    2.001E+00    2.001E+00    2.000E+00    2.000E+00    2.000E+00    2.000E+00    2.000E+00    2.000E+00    2.000E+00
     2.000E+00    2.000E+00    2.000E+00    2.000E+00    2.000E+00    2.000E+00    2.000E+00    2.000E+00    1.999E+00    1.999E+00
     1.999E+00    1.999E+00    1.999E+00    1.999E+00    1.999E+00    1.999E+00    1.999E+00    1.999E+00    1.999E+00    1.999E+00
     1.999E+00    1.999E+00    1.998E+00    1.998E+00    1.998E+00    1.998E+00    1.998E+00    1.998E+00    1.998E+00    1.998E+00
     1.998E+00    1.998E+00    1.998E+00    1.998E+00    1.997E+00    1.997E+00    1.997E+00    1.997E+00    1.997E+00    1.997E+00
     1.997E+00    1.997E+00    1.997E+00    1.997E+00    1.997E+00    1.996E+00    1.996E+00    1.996E+00    1.996E+00    1.996E+00
     1.996E+00    1.996E+00    1.996E+00    1.996E+00    1.996E+00    1.996E+00    1.995E+00    1.995E+00    1.995E+00    1.995E+00
     1.995E+00    1.995E+00    1.995E+00    1.995E+00    1.995E+00    1.995E+00    1.994E+00    1.994E+00    1.994E+00    1.994E+00
     1.994E+00    1.994E+00    1.994E+00    1.994E+00    1.994E+00    1.993E+00    1.993E+00    1.993E+00    1.993E+00    1.993E+00
     1.993E+00    1.993E+00    1.993E+00    1.993E+00    1.992E+00    1.992E+00    1.992E+00    1.992E+00    1.992E+00    1.992E+00
     1.992E+00    1.992E+00    1.991E+00    1.991E+00    1.991E+00    1.991E+00    1.991E+00    1.991E+00    1.991E+00    1.991E+00
     1.991E+00    1.990E+00    1.990E+00    1.990E+00    1.990E+00    1.990E+00    1.990E+00    1.990E+00    1.990E+00    1.989E+00
     1.989E+00    1.989E+00    1.989E+00    1.989E+00    1.989E+00    1.989E+00    1.988E+00    1.988E+00    1.988E+00    1.988E+00
     1.988E+00    1.988E+00    1.988E+00    1.988E+00    1.987E+00    1.987E+00    1.987E+00    1.987E+00    1.987E+00    1.987E+00
     1.987E+00    1.986E+00    1.986E+00    1.986E+00    1.986E+00    1.986E+00    1.986E+00    1.986E+00    1.985E+00    1.985E+00
     1.985E+00    1.985E+00    1.985E+00    1.985E+00    1.985E+00    1.984E+00    1.984E+00    1.984E+00    1.984E+00    1.984E+00
     1.984E+00    1.984E+00    1.983E+00    1.983E+00    1.983E+00    1.983E+00    1.983E+00    1.983E+00    1.982E+00    1.982E+00
     1.982E+00    1.982E+00    1.982E+00    1.982E+00    1.982E+00    1.981E+00    1.981E+00    1.981E+00    1.981E+00    1.981E+00
     1.981E+00    1.980E+00    1.980E+00    1.980E+00    1.980E+00    1.980E+00    1.980E+00    1.979E+00    1.979E+00    1.979E+00
     1.979E+00    1.979E+00    1.979E+00    1.978E+00    1.978E+00    1.978E+00    1.978E+00    1.978E+00    1.978E+00    1.977E+00
     1.977E+00    1.977E+00    1.977E+00    1.977E+00    1.977E+00    1.976E+00    1.976E+00    1.976E+00    1.976E+00    1.976E+00
     1.976E+00    1.975E+00    1.975E+00    1.975E+00    1.975E+00    1.975E+00    1.974E+00    1.974E+00    1.974E+00    1.974E+00
     1.974E+00    1.974E+00    1.973E+00    1.973E+00    1.973E+00    1.973E+00    1.973E+00    1.972E+00    1.972E+00    1.972E+00
     1.972E+00    1.972E+00    1.971E+00    1.971E+00    1.971E+00    1.971E+00    1.971E+00    1.971E+00    1.970E+00    1.970E+00
     1.970E+00    1.970E+00    1.970E+00    1.969E+00    1.969E+00    1.969E+00    1.969E+00    1.969E+00    1.968E+00    1.968E+00
     1.968E+00    1.968E+00    1.968E+00    1.967E+00    1.967E+00    1.967E+00    1.967E+00    1.967E+00    1.966E+00    1.966E+00
     1.966E+00    1.966E+00    1.966E+00    1.965E+00    1.965E+00    1.965E+00    1.965E+00    1.965E+00    1.964E+00    1.964E+00
     1.964E+00    1.964E+00    1.963E+00    1.963E+00    1.963E+00    1.963E+00    1.963E+00    1.962E+00    1.962E+00    1.962E+00
     1.962E+00    1.962E+00    1.961E+00    1.961E+00    1.961E+00    1.961E+00    1.960E+00    1.960E+00    1.960E+00    1.960E+00
     1.960E+00    1.959E+00    1.959E+00    1.959E+00    1.959E+00    1.958E+00    1.958E+00    1.958E+00    1.958E+00    1.958E+00
     1.957E+00    1.957E+00    1.957E+00    1.957E+00    1.956E+00    1.956E+00    1.956E+00    1.956E+00    1.955E+00    1.955E+00
     1.955E+00    1.955E+00    1.955E+00    1.954E+00    1.954E+00    1.954E+00    1.954E+00    1.953E+00    1.953E+00    1.953E+00
     1.953E+00    1.952E+00    1.952E+00    1.952E+00    1.952E+00    1.951E+00    1.951E+00    1.951E+00    1.951E+00    1.951E+00
     1.950E+00    1.950E+00    1.950E+00    1.950E+00    1.949E+00    1.949E+00    1.949E+00    1.949E+00    1.948E+00    1.948E+00
     1.948E+00    1.948E+00    1.947E+00    1.947E+00    1.947E+00    1.947E+00    1.946E+00    1.946E+00    1.946E+00    1.946E+00
     1.945E+00    1.945E+00    1.945E+00    1.945E+00    1.944E+00    1.944E+00    1.944E+00    1.944E+00    1.943E+00    1.943E+00
     1.943E+00    1.942E+00    1.942E+00    1.942E+00    1.942E+00    1.941E+00    1.941E+00    1.941E+00    1.941E+00    1.940E+00
     1.940E+00    1.940E+00    1.940E+00    1.939E+00    1.939E+00    1.939E+00    1.939E+00    1.938E+00    1.938E+00    1.938E+00
     1.937E+00    1.937E+00    1.937E+00    1.937E+00    1.936E+00    1.936E+00    1.936E+00    1.936E+00    1.935E+00    1.935E+00
     1.935E+00    1.934E+00    1.934E+00    1.934E+00    1.934E+00    1.933E+00    1.933E+00    1.933E+00    1.932E+00    1.932E+00
     1.932E+00    1.932E+00    1.931E+00    1.931E+00    1.931E+00    1.931E+00    1.930E+00    1.930E+00    1.930E+00    1.929E+00
     1.929E+00    1.929E+00    1.929E+00    1.928E+00    1.928E+00    1.928E+00    1.927E+00    1.927E+00    1.927E+00    1.926E+00
     1.926E+00    1.926E+00    1.926E+00    1.925E+00    1.925E+00    1.925E+00    1.924E+00    1.924E+00
 Ala      Conc. = 1.01E+02
