 LCModel (Version 6.3-1L) Copyright: S.W. Provencher.          Ref.: Magn. Reson. Med. 30:672-679 (1993).                
 Slice#3 Row#2 Col#8  K_02_press_1_raw_act
 36 lines in following concentration table = NCONC+1
    Conc.  %SD /Cr+PCr  Metabolite                                         
   48.668 296% 6.9E-02 Ala                                                 
   74.065 175%   0.105 Asp                                                 
  705.619   8%   1.000 Cr                                                  
    0.000 999%   0.000 PCr                                                 
   51.407 157% 7.3E-02 GABA                                                
   46.778 170% 6.6E-02 Glc                                                 
  563.832  51%   0.799 Gln                                                 
  182.660 175%   0.259 Glu                                                 
    0.000 999%   0.000 GPC                                                 
  191.587  11%   0.272 PCh                                                 
  168.559  48%   0.239 GSH                                                 
  646.218  41%   0.916 Ins                                                 
  367.575  45%   0.521 Lac                                                 
  994.871   7%   1.410 NAA                                                 
    0.000 999%   0.000 NAAG                                                
   41.006  51% 5.8E-02 Scyllo                                              
  116.262 106%   0.165 Tau                                                 
  317.944  31%   0.451 -CrCH2                                              
  191.587  11%   0.272 GPC+PCh                                             
  994.871   7%   1.410 NAA+NAAG                                            
  705.619   8%   1.000 Cr+PCr                                              
  746.492  64%   1.058 Glu+Gln                                             
 5.36E+03  14%   7.593 Lip13a                                              
    0.000 999%   0.000 Lip13b                                              
 1.03E+03  31%   1.462 Lip09                                               
  687.866  35%   0.975 MM09                                                
  809.405  32%   1.147 Lip20                                               
  695.644  46%   0.986 MM20                                                
  219.357  61%   0.311 MM12                                                
 3.54E+03   6%   5.015+MM14                                                
    0.000 999%   0.000 MM17                                                
 5.36E+03  14%   7.593 Lip13a+Lip13b                                       
 9.12E+03   6%  12.920 MM14+Lip13a+Lip13b+MM12                             
 1.72E+03  14%   2.437 MM09+Lip09                                          
 1.51E+03  19%   2.133 MM20+Lip20                                          
   6 lines in following misc. output table
  FWHM = 0.061 ppm    S/N =   5                                            
  Data shift = 0.000 ppm                                                   
  Ph:  54 deg       8.5 deg/ppm                                            
  alphaB,S = 1.5E+00,   2.1E+02                                            
   14 spline knots.   Ns = 9(1)                                            
  (11) 3 infls.   ( 9) 1 extrs.                                            
  498 points on ppm-axis = NY
      4.000000     3.992357     3.984714     3.977070     3.969427     3.961784     3.954141     3.946497     3.938854     3.931211
      3.923568     3.915925     3.908281     3.900638     3.892995     3.885352     3.877708     3.870065     3.862422     3.854779
      3.847136     3.839492     3.831849     3.824206     3.816563     3.808919     3.801276     3.793633     3.785990     3.778347
      3.770703     3.763060     3.755417     3.747774     3.740130     3.732487     3.724844     3.717201     3.709558     3.701914
      3.694271     3.686628     3.678985     3.671341     3.663698     3.656055     3.648412     3.640769     3.633125     3.625482
      3.617839     3.610196     3.602552     3.594909     3.587266     3.579623     3.571980     3.564336     3.556693     3.549050
      3.541407     3.533763     3.526120     3.518477     3.510834     3.503191     3.495547     3.487904     3.480261     3.472618
      3.464974     3.457331     3.449688     3.442045     3.434402     3.426758     3.419115     3.411472     3.403829     3.396185
      3.388542     3.380899     3.373256     3.365613     3.357969     3.350326     3.342683     3.335040     3.327396     3.319753
      3.312110     3.304467     3.296824     3.289180     3.281537     3.273894     3.266251     3.258607     3.250964     3.243321
      3.235678     3.228034     3.220391     3.212748     3.205105     3.197462     3.189818     3.182175     3.174532     3.166889
      3.159245     3.151602     3.143959     3.136316     3.128673     3.121029     3.113386     3.105743     3.098100     3.090456
      3.082813     3.075170     3.067527     3.059884     3.052240     3.044597     3.036954     3.029311     3.021667     3.014024
      3.006381     2.998738     2.991095     2.983451     2.975808     2.968165     2.960522     2.952878     2.945235     2.937592
      2.929949     2.922306     2.914662     2.907019     2.899376     2.891733     2.884089     2.876446     2.868803     2.861160
      2.853517     2.845873     2.838230     2.830587     2.822944     2.815300     2.807657     2.800014     2.792371     2.784728
      2.777084     2.769441     2.761798     2.754155     2.746511     2.738868     2.731225     2.723582     2.715939     2.708295
      2.700652     2.693009     2.685366     2.677722     2.670079     2.662436     2.654793     2.647150     2.639506     2.631863
      2.624220     2.616577     2.608933     2.601290     2.593647     2.586004     2.578361     2.570717     2.563074     2.555431
      2.547788     2.540144     2.532501     2.524858     2.517215     2.509572     2.501928     2.494285     2.486642     2.478999
      2.471355     2.463712     2.456069     2.448426     2.440783     2.433139     2.425496     2.417853     2.410210     2.402566
      2.394923     2.387280     2.379637     2.371994     2.364350     2.356707     2.349064     2.341421     2.333777     2.326134
      2.318491     2.310848     2.303205     2.295561     2.287918     2.280275     2.272632     2.264988     2.257345     2.249702
      2.242059     2.234416     2.226772     2.219129     2.211486     2.203843     2.196199     2.188556     2.180913     2.173270
      2.165627     2.157983     2.150340     2.142697     2.135054     2.127410     2.119767     2.112124     2.104481     2.096838
      2.089194     2.081551     2.073908     2.066265     2.058621     2.050978     2.043335     2.035692     2.028049     2.020405
      2.012762     2.005119     1.997476     1.989833     1.982190     1.974546     1.966903     1.959260     1.951617     1.943974
      1.936331     1.928688     1.921045     1.913402     1.905759     1.898115     1.890472     1.882829     1.875186     1.867543
      1.859900     1.852257     1.844614     1.836971     1.829327     1.821684     1.814041     1.806398     1.798755     1.791112
      1.783469     1.775826     1.768183     1.760540     1.752896     1.745253     1.737610     1.729967     1.722324     1.714681
      1.707038     1.699395     1.691752     1.684108     1.676465     1.668822     1.661179     1.653536     1.645893     1.638250
      1.630607     1.622964     1.615321     1.607677     1.600034     1.592391     1.584748     1.577105     1.569462     1.561819
      1.554176     1.546533     1.538890     1.531246     1.523603     1.515960     1.508317     1.500674     1.493031     1.485388
      1.477745     1.470102     1.462458     1.454815     1.447172     1.439529     1.431886     1.424243     1.416600     1.408957
      1.401314     1.393671     1.386027     1.378384     1.370741     1.363098     1.355455     1.347812     1.340169     1.332526
      1.324883     1.317240     1.309596     1.301953     1.294310     1.286667     1.279024     1.271381     1.263738     1.256095
      1.248452     1.240808     1.233165     1.225522     1.217879     1.210236     1.202593     1.194950     1.187307     1.179664
      1.172021     1.164377     1.156734     1.149091     1.141448     1.133805     1.126162     1.118519     1.110876     1.103233
      1.095590     1.087946     1.080303     1.072660     1.065017     1.057374     1.049731     1.042088     1.034445     1.026802
      1.019158     1.011515     1.003872     0.996229     0.988586     0.980943     0.973300     0.965657     0.958014     0.950371
      0.942727     0.935084     0.927441     0.919798     0.912155     0.904512     0.896869     0.889226     0.881583     0.873940
      0.866296     0.858653     0.851010     0.843367     0.835724     0.828081     0.820438     0.812795     0.805152     0.797508
      0.789865     0.782222     0.774579     0.766936     0.759293     0.751650     0.744007     0.736364     0.728721     0.721077
      0.713434     0.705791     0.698148     0.690505     0.682862     0.675219     0.667576     0.659933     0.652290     0.644646
      0.637003     0.629360     0.621717     0.614074     0.606431     0.598788     0.591145     0.583502     0.575858     0.568215
      0.560572     0.552929     0.545286     0.537643     0.530000     0.522357     0.514714     0.507071     0.499427     0.491784
      0.484141     0.476498     0.468855     0.461212     0.453569     0.445925     0.438282     0.430639     0.422996     0.415353
      0.407710     0.400067     0.392424     0.384780     0.377137     0.369494     0.361851     0.354208     0.346565     0.338922
      0.331278     0.323635     0.315992     0.308349     0.300706     0.293063     0.285420     0.277777     0.270133     0.262490
      0.254847     0.247204     0.239561     0.231918     0.224275     0.216631     0.208988     0.201345
 NY phased data points follow
  -1.36103E+01 -6.39399E+00 -9.09148E+00 -6.11289E+00 -5.95867E+00 -7.65269E+00 -3.58920E+00 -1.20855E+01 -6.23343E+00 -6.83500E+00
  -6.78485E+00 -2.34186E+00  6.85804E-01  4.27040E+00 -1.45420E+00  5.84720E+00  6.32281E-01  4.82824E-01 -4.61757E+00  1.55685E+00
  -1.05300E+00 -7.47895E+00 -8.61284E-01 -5.19705E+00 -2.12218E+00 -5.90957E+00 -8.28278E-01 -5.04237E-01 -2.61171E+00 -2.28255E+00
  -6.03135E+00 -7.40754E+00 -1.38038E-01 -2.43651E+00 -4.54332E-01 -1.78552E+00 -1.17754E+00 -7.05107E+00 -3.73959E+00 -1.82526E+00
  -1.82858E+00 -3.70153E+00 -3.40213E+00  1.94217E+00 -3.61931E+00 -3.57457E+00 -2.29889E+00 -5.24487E+00 -1.71529E+00 -2.89396E-01
   2.48507E+00 -4.42997E-01  2.11202E+00 -3.24921E+00 -4.12286E+00 -4.80633E+00 -1.97234E+00 -3.84619E+00 -2.36134E+00 -3.85105E-01
  -1.29751E+00 -6.02431E+00 -4.90289E+00  2.05843E+00 -3.52709E+00 -4.22298E+00 -4.51697E+00 -5.05702E+00 -8.40126E+00 -7.33499E+00
  -3.49724E+00 -4.30307E+00 -3.50980E+00  1.40218E+00 -5.78235E+00 -6.41786E+00 -7.71030E+00 -6.20012E+00 -3.10362E+00 -2.27853E+00
  -2.48519E+00  2.48499E-02 -6.85236E+00 -5.11452E+00 -6.72361E+00 -2.76418E+00 -4.90912E+00 -7.06209E+00  2.46363E+00 -5.05941E-01
  -4.80975E+00 -3.25777E+00 -1.60542E+00 -5.57862E+00  4.29352E-01 -5.35529E+00 -6.18861E-01  2.16196E-01 -4.58948E+00  1.17101E+00
  -2.25767E+00  4.27136E+00  2.68173E+00  5.16819E+00  3.48579E+00  8.31286E+00  1.34986E+01  9.55805E+00  6.96979E+00  8.70688E+00
   9.95590E-01  2.74195E+00  3.86219E+00  1.11413E+00 -3.72559E+00 -3.18531E+00 -2.64130E+00 -2.94453E+00  9.77778E-01 -1.58973E+00
  -1.39476E+00 -1.10807E+00 -1.63702E+00  2.07373E-01  2.10332E+00  1.00223E+00  1.57419E+00  9.44425E+00  7.18791E+00  1.73506E+01
   1.73548E+01  1.78354E+01  1.77773E+01  1.26875E+01  3.21930E+00  4.46100E+00  5.97203E+00  1.07069E+00  1.61531E+00  5.26955E-01
   1.19547E+00 -4.85731E+00  1.12389E+00 -1.70100E+00 -4.63693E+00 -1.55826E+00 -3.18426E+00 -3.57362E+00  8.61961E-02  1.91174E+00
   8.65462E-01 -2.22740E+00 -8.90501E-01 -2.11524E+00 -4.19105E+00 -5.34717E+00 -5.79126E+00 -2.92229E+00 -3.52338E+00 -5.56879E+00
  -5.56689E+00 -5.57287E+00 -2.04083E+00 -3.23809E+00 -1.39866E+00 -2.27572E+00 -4.64201E+00 -1.56296E+00 -5.03249E+00 -5.09985E+00
  -2.46784E+00 -8.44610E+00 -1.61193E+00 -2.54586E+00 -3.20620E+00 -4.87917E+00 -7.57900E+00 -5.81575E+00 -6.03351E+00 -5.27646E+00
  -9.41992E+00 -3.48529E+00 -7.50244E+00 -6.69094E+00 -7.06036E+00 -8.16665E+00 -3.93490E+00 -5.56606E+00 -4.99944E+00 -6.86645E+00
  -8.05486E+00 -9.76683E+00 -1.78764E+00 -2.41059E+00 -2.76952E+00  2.86125E+00  1.25622E+00 -8.80289E-01 -5.08741E+00 -2.65104E+00
  -1.24504E+00 -1.55972E+00 -4.15979E+00 -3.65125E+00 -2.57342E+00 -4.25210E+00  2.31531E-01 -4.86082E+00 -4.43358E+00 -2.65392E+00
  -7.59277E+00 -2.53101E+00 -6.03920E+00 -6.29913E+00 -3.96157E+00 -2.85047E-01 -4.03135E-01  3.70201E-01  3.63601E+00  4.09614E+00
   3.54149E+00  2.38530E-01  6.65467E-01 -4.57800E+00 -1.36555E-01  7.45288E-01 -4.99731E-01 -1.09978E+00 -1.01205E+00  3.56800E+00
  -1.58662E+00  3.31691E+00  2.03375E+00  6.74321E-01  1.38199E+00  4.55900E-01 -2.71609E+00 -8.29802E-01  1.33091E-01  3.23209E+00
   2.43905E+00  6.99964E+00 -1.06069E+00  1.97475E+00 -2.88973E+00  2.64639E+00 -5.07457E-01  2.21861E+00  4.44607E-03  4.30336E+00
   4.15963E+00  3.31173E+00  9.99992E+00  6.80278E+00  4.69859E+00  1.08344E+01  9.46457E+00  1.43758E+01  2.01012E+01  1.95040E+01
   2.37418E+01  2.76988E+01  2.93591E+01  3.37836E+01  2.73071E+01  1.92665E+01  1.06788E+01  9.73377E+00  1.95332E+00  2.95125E+00
  -3.62274E+00 -6.15836E+00 -7.44019E-01  2.57759E-01 -1.64901E+00 -4.21148E+00 -4.67660E+00 -1.14175E+00 -4.00031E+00 -5.62837E+00
  -5.98345E-01 -4.72784E+00 -1.79648E+00 -8.78724E-01 -7.62457E+00 -7.47302E+00 -2.72857E+00 -5.43102E+00 -3.07061E+00 -8.70155E+00
  -4.89012E+00 -6.06406E+00 -6.53223E+00 -2.94046E+00 -8.74601E+00 -4.78840E+00 -3.01038E+00 -3.49119E+00 -1.90879E+00 -5.73029E+00
  -1.10902E+00 -3.74310E+00 -3.89352E-01  2.18394E+00 -2.41517E+00 -2.57379E+00  3.41305E+00  2.71947E+00  5.74823E-01  3.53657E+00
   6.16480E+00  5.31599E+00  7.87689E+00  6.99643E+00  8.96555E-01  6.37086E+00  6.45808E+00  5.73724E+00  1.13493E+01  1.28486E+01
   1.19474E+01  1.16505E+01  1.61349E+01  2.18457E+01  1.69804E+01  2.11064E+01  2.06010E+01  2.33097E+01  2.74572E+01  3.49431E+01
   3.20884E+01  3.12230E+01  3.21303E+01  3.55957E+01  3.28503E+01  3.80126E+01  3.56976E+01  3.67838E+01  4.01658E+01  3.63099E+01
   3.52755E+01  3.47114E+01  2.96563E+01  3.10094E+01  2.43283E+01  3.25507E+01  2.50375E+01  2.99934E+01  2.07466E+01  2.08348E+01
   2.04327E+01  1.66046E+01  1.82113E+01  1.18444E+01  2.40984E+01  2.09925E+01  2.15682E+01  1.95103E+01  1.72772E+01  2.48015E+01
   1.56383E+01  1.89431E+01  1.73123E+01  1.04426E+01  1.14466E+01  1.31818E+01  1.17418E+01  1.59574E+01  1.39778E+01  1.07016E+01
   1.27612E+01  1.33700E+01  1.52088E+01  9.72428E+00  1.24340E+01  1.50576E+01  1.06853E+01  1.58515E+01  1.30784E+01  8.34162E+00
   1.06257E+01  1.15526E+01  1.27311E+01  1.12891E+01  7.05937E+00  9.38707E+00  9.32150E+00  7.44260E+00  7.79867E+00  8.23825E+00
   1.04631E+01  1.02642E+01  1.48250E+01  6.83270E+00  1.18768E+01  1.04498E+01  8.02231E+00  8.50402E+00  8.12928E+00  8.36621E+00
   9.80702E+00  9.08097E+00  1.06655E+01  1.19540E+01  1.02352E+01  1.21783E+01  7.67042E+00  9.15518E+00  8.42910E+00  8.22400E+00
   4.35207E+00  7.85557E+00  7.01803E+00  9.03440E+00  1.20098E+01  5.67003E+00  3.02466E+00  1.12120E+01  5.86774E+00  8.15464E+00
   4.72890E+00  3.27406E+00  5.70656E+00  7.59443E+00 -1.21288E+00  1.33018E+01  6.27650E+00  5.02510E+00  9.45037E+00  2.38766E+00
   5.21047E+00  2.29893E+00  4.59964E+00  4.70353E+00  2.08819E+00  5.70162E+00  1.61809E+00 -1.52287E-01  7.30416E-01  8.46869E-01
   4.26114E+00  3.52508E+00  4.03758E+00 -1.11125E+00  2.38636E+00  1.83335E+00  5.61681E+00  5.26464E+00  6.85549E+00  2.56650E+00
   3.88105E+00  6.89774E+00  1.66034E+00  5.20222E+00  4.27676E+00  5.13500E+00  2.96444E+00  6.59504E+00  2.26891E+00  7.07107E+00
   2.05668E+00  5.53570E+00  3.83321E+00  3.38592E+00  2.68835E+00  7.71030E-01  1.06523E+00  1.79439E+00  5.36155E+00  1.84054E-01
   3.79723E+00  6.04846E+00 -1.74651E+00  1.82082E+00  6.78996E+00 -1.93548E+00  2.62643E+00  1.95368E+00  5.85279E+00  1.97576E-01
   8.17866E+00  2.62064E+00 -3.05268E+00  7.25294E+00  8.77695E+00  4.65459E+00  4.30333E+00  2.22691E+00  4.12964E+00  2.98968E+00
   4.35814E+00  1.59979E+00  1.23766E+00  1.05997E+00  2.84959E+00  8.94315E-01  1.84685E+00  6.45028E+00
 NY points of the fit to the data follow
  -4.89145E+00 -5.64057E+00 -6.21942E+00 -6.42946E+00 -6.31699E+00 -6.22351E+00 -6.27130E+00 -6.35574E+00 -6.30260E+00 -5.91173E+00
  -5.00292E+00 -3.49297E+00 -1.46586E+00  7.61329E-01  2.67186E+00  3.74462E+00  3.72357E+00  2.72270E+00  1.14060E+00 -6.07265E-01
  -2.23798E+00 -3.49030E+00 -4.22635E+00 -4.44149E+00 -4.36133E+00 -4.24493E+00 -4.12913E+00 -3.96802E+00 -3.69174E+00 -3.23731E+00
  -2.60488E+00 -1.88587E+00 -1.24121E+00 -8.53148E-01 -8.59139E-01 -1.28121E+00 -2.00879E+00 -2.85820E+00 -3.61097E+00 -4.12937E+00
  -4.40962E+00 -4.48578E+00 -4.39626E+00 -4.17684E+00 -3.84472E+00 -3.41336E+00 -2.91702E+00 -2.41663E+00 -2.00115E+00 -1.77922E+00
  -1.83423E+00 -2.18646E+00 -2.76765E+00 -3.43111E+00 -4.02520E+00 -4.44615E+00 -4.65639E+00 -4.65596E+00 -4.45637E+00 -4.12918E+00
  -3.78474E+00 -3.51640E+00 -3.37107E+00 -3.35429E+00 -3.45390E+00 -3.63382E+00 -3.82228E+00 -3.94701E+00 -3.98369E+00 -3.93507E+00
  -3.81088E+00 -3.64037E+00 -3.45900E+00 -3.29332E+00 -3.17100E+00 -3.11075E+00 -3.11499E+00 -3.15316E+00 -3.21386E+00 -3.32649E+00
  -3.47761E+00 -3.61751E+00 -3.69200E+00 -3.67381E+00 -3.58614E+00 -3.47273E+00 -3.37710E+00 -3.33866E+00 -3.40255E+00 -3.58442E+00
  -3.85086E+00 -4.14398E+00 -4.39034E+00 -4.52568E+00 -4.47168E+00 -4.01047E+00 -3.24269E+00 -2.44870E+00 -1.69140E+00 -8.53271E-01
   2.30136E-01  1.67520E+00  3.49644E+00  5.57690E+00  7.66060E+00  9.36294E+00  1.02480E+01  9.99712E+00  8.57569E+00  6.30250E+00
   3.71262E+00  1.27283E+00 -7.79112E-01 -2.35790E+00 -3.39637E+00 -3.86421E+00 -4.00387E+00 -4.02960E+00 -3.90912E+00 -3.34745E+00
  -2.39660E+00 -1.41014E+00 -4.46556E-01  6.74522E-01  2.16309E+00  4.15232E+00  6.62423E+00  9.39813E+00  1.21483E+01  1.44001E+01
   1.56145E+01  1.53902E+01  1.36641E+01  1.08073E+01  7.46682E+00  4.24592E+00  1.46986E+00 -7.32490E-01 -2.24297E+00 -2.96924E+00
  -3.16195E+00 -3.13138E+00 -2.98711E+00 -2.79840E+00 -2.61878E+00 -2.48634E+00 -2.42588E+00 -2.43344E+00 -2.48680E+00 -2.56469E+00
  -2.64807E+00 -2.72918E+00 -2.81884E+00 -2.90290E+00 -2.97109E+00 -3.01950E+00 -3.04925E+00 -3.09199E+00 -3.16867E+00 -3.27674E+00
  -3.40373E+00 -3.53454E+00 -3.64881E+00 -3.72544E+00 -3.75537E+00 -3.75298E+00 -3.75913E+00 -3.82623E+00 -3.96378E+00 -4.13909E+00
  -4.33141E+00 -4.53938E+00 -4.77374E+00 -5.00736E+00 -5.21051E+00 -5.36762E+00 -5.48042E+00 -5.56899E+00 -5.63348E+00 -5.64440E+00
  -5.59697E+00 -5.51957E+00 -5.43856E+00 -5.35875E+00 -5.27050E+00 -5.16536E+00 -5.03312E+00 -4.87034E+00 -4.65044E+00 -4.37363E+00
  -4.05736E+00 -3.73582E+00 -3.46166E+00 -3.27975E+00 -3.21297E+00 -3.24660E+00 -3.34101E+00 -3.44786E+00 -3.50569E+00 -3.44419E+00
  -3.24769E+00 -2.95061E+00 -2.54282E+00 -2.08514E+00 -1.74251E+00 -1.64326E+00 -1.83701E+00 -2.30938E+00 -2.99515E+00 -3.78081E+00
  -4.48484E+00 -4.92431E+00 -4.97951E+00 -4.63675E+00 -3.97200E+00 -3.11924E+00 -2.24125E+00 -1.48278E+00 -9.26743E-01 -6.07857E-01
  -5.20008E-01 -5.93505E-01 -7.02240E-01 -7.75070E-01 -7.73136E-01 -6.66019E-01 -4.87468E-01 -3.05923E-01 -1.49764E-01 -3.15675E-02
   2.74955E-02  2.43270E-02 -1.07255E-02 -6.20423E-02 -1.02974E-01 -7.01113E-02  7.43459E-02  3.31943E-01  6.78276E-01  1.05985E+00
   1.39372E+00  1.59666E+00  1.61729E+00  1.46520E+00  1.22247E+00  9.91308E-01  8.58217E-01  8.91353E-01  1.13938E+00  1.58959E+00
   2.29086E+00  3.65615E+00  5.53871E+00  7.31770E+00  8.87067E+00  1.04700E+01  1.24247E+01  1.49428E+01  1.80554E+01  2.15575E+01
   2.50047E+01  2.77287E+01  2.89571E+01  2.81086E+01  2.51232E+01  2.05857E+01  1.54894E+01  1.07274E+01  6.73768E+00  3.64066E+00
   1.53933E+00  5.09600E-01  1.07238E-01 -1.30983E-01 -2.97774E-01 -4.17019E-01 -5.06459E-01 -5.80456E-01 -6.48808E-01 -7.19009E-01
  -7.93774E-01 -8.70516E-01 -9.42987E-01 -1.00453E+00 -1.04900E+00 -1.07322E+00 -1.07729E+00 -1.06316E+00 -1.03483E+00 -9.97596E-01
  -9.55451E-01 -9.10736E-01 -8.64711E-01 -8.17214E-01 -7.67484E-01 -7.14291E-01 -6.55621E-01 -5.89638E-01 -5.15312E-01 -4.31652E-01
  -3.37230E-01 -2.30500E-01 -1.09671E-01  2.78996E-02  1.85746E-01  3.68132E-01  5.80601E-01  8.29845E-01  1.12370E+00  1.47115E+00
   1.88235E+00  2.36844E+00  2.94136E+00  3.61348E+00  4.39713E+00  5.30413E+00  6.34536E+00  7.53114E+00  8.86972E+00  1.03505E+01
   1.19582E+01  1.36872E+01  1.55283E+01  1.74605E+01  1.94506E+01  2.14562E+01  2.34391E+01  2.53568E+01  2.71507E+01  2.87699E+01
   3.01851E+01  3.13891E+01  3.23896E+01  3.31978E+01  3.38188E+01  3.42528E+01  3.45073E+01  3.46122E+01  3.45329E+01  3.41474E+01
   3.34733E+01  3.26159E+01  3.16612E+01  3.06422E+01  2.95472E+01  2.84105E+01  2.72481E+01  2.59417E+01  2.43931E+01  2.26370E+01
   2.08417E+01  1.92590E+01  1.81333E+01  1.75985E+01  1.76347E+01  1.81065E+01  1.88178E+01  1.95319E+01  1.99809E+01  1.99862E+01
   1.95913E+01  1.89291E+01  1.81200E+01  1.72411E+01  1.63588E+01  1.55599E+01  1.48676E+01  1.42307E+01  1.36254E+01  1.30447E+01
   1.24876E+01  1.19556E+01  1.14513E+01  1.09779E+01  1.05385E+01  1.01359E+01  9.77299E+00  9.45184E+00  9.17432E+00  8.94178E+00
   8.75512E+00  8.61472E+00  8.52042E+00  8.47156E+00  8.46690E+00  8.50459E+00  8.58214E+00  8.69635E+00  8.84333E+00  9.01848E+00
   9.21654E+00  9.43163E+00  9.65732E+00  9.88675E+00  1.01128E+01  1.03284E+01  1.05265E+01  1.07004E+01  1.08442E+01  1.09526E+01
   1.10214E+01  1.10474E+01  1.10287E+01  1.09646E+01  1.08556E+01  1.07034E+01  1.05106E+01  1.02809E+01  1.00184E+01  9.72802E+00
   9.41464E+00  9.08342E+00  8.73944E+00  8.38755E+00  8.03229E+00  7.67773E+00  7.32751E+00  6.98473E+00  6.65202E+00  6.33147E+00
   6.02473E+00  5.73297E+00  5.45701E+00  5.19731E+00  4.95408E+00  4.72723E+00  4.51651E+00  4.32147E+00  4.14156E+00  3.97615E+00
   3.82454E+00  3.68598E+00  3.55970E+00  3.44491E+00  3.34086E+00  3.24681E+00  3.16206E+00  3.08589E+00  3.01766E+00  2.95674E+00
   2.90257E+00  2.85462E+00  2.81241E+00  2.77544E+00  2.74332E+00  2.71563E+00  2.69204E+00  2.67222E+00  2.65589E+00  2.64275E+00
   2.63256E+00  2.62508E+00  2.62013E+00  2.61752E+00  2.61707E+00  2.61861E+00  2.62200E+00  2.62712E+00  2.63387E+00  2.64211E+00
   2.65176E+00  2.66269E+00  2.67485E+00  2.68815E+00  2.70254E+00  2.71793E+00  2.73426E+00  2.75147E+00  2.76952E+00  2.78835E+00
   2.80794E+00  2.82822E+00  2.84916E+00  2.87072E+00  2.89288E+00  2.91560E+00  2.93886E+00  2.96262E+00  2.98687E+00  3.01156E+00
   3.03670E+00  3.06227E+00  3.08824E+00  3.11458E+00  3.14129E+00  3.16835E+00  3.19576E+00  3.22351E+00  3.25157E+00  3.27993E+00
   3.30859E+00  3.33755E+00  3.36680E+00  3.39634E+00  3.42616E+00  3.45624E+00  3.48661E+00  3.51727E+00
 NY background values follow
    -6.470E+00   -6.457E+00   -6.444E+00   -6.431E+00   -6.418E+00   -6.405E+00   -6.392E+00   -6.379E+00   -6.366E+00   -6.353E+00
    -6.340E+00   -6.327E+00   -6.314E+00   -6.301E+00   -6.287E+00   -6.274E+00   -6.261E+00   -6.248E+00   -6.235E+00   -6.222E+00
    -6.209E+00   -6.196E+00   -6.184E+00   -6.171E+00   -6.158E+00   -6.145E+00   -6.132E+00   -6.119E+00   -6.106E+00   -6.093E+00
    -6.081E+00   -6.068E+00   -6.055E+00   -6.042E+00   -6.029E+00   -6.017E+00   -6.004E+00   -5.991E+00   -5.979E+00   -5.966E+00
    -5.954E+00   -5.941E+00   -5.929E+00   -5.916E+00   -5.904E+00   -5.891E+00   -5.879E+00   -5.867E+00   -5.854E+00   -5.842E+00
    -5.830E+00   -5.817E+00   -5.805E+00   -5.793E+00   -5.781E+00   -5.769E+00   -5.757E+00   -5.745E+00   -5.733E+00   -5.721E+00
    -5.709E+00   -5.697E+00   -5.685E+00   -5.674E+00   -5.662E+00   -5.650E+00   -5.639E+00   -5.627E+00   -5.615E+00   -5.604E+00
    -5.592E+00   -5.581E+00   -5.569E+00   -5.558E+00   -5.546E+00   -5.535E+00   -5.524E+00   -5.513E+00   -5.501E+00   -5.490E+00
    -5.479E+00   -5.468E+00   -5.457E+00   -5.446E+00   -5.435E+00   -5.424E+00   -5.413E+00   -5.402E+00   -5.391E+00   -5.381E+00
    -5.370E+00   -5.359E+00   -5.348E+00   -5.338E+00   -5.327E+00   -5.317E+00   -5.306E+00   -5.296E+00   -5.285E+00   -5.275E+00
    -5.265E+00   -5.254E+00   -5.244E+00   -5.234E+00   -5.224E+00   -5.214E+00   -5.204E+00   -5.194E+00   -5.184E+00   -5.174E+00
    -5.164E+00   -5.154E+00   -5.144E+00   -5.134E+00   -5.124E+00   -5.115E+00   -5.105E+00   -5.095E+00   -5.086E+00   -5.076E+00
    -5.067E+00   -5.057E+00   -5.048E+00   -5.038E+00   -5.029E+00   -5.019E+00   -5.010E+00   -5.001E+00   -4.992E+00   -4.982E+00
    -4.973E+00   -4.964E+00   -4.955E+00   -4.946E+00   -4.937E+00   -4.928E+00   -4.919E+00   -4.910E+00   -4.901E+00   -4.892E+00
    -4.884E+00   -4.875E+00   -4.866E+00   -4.857E+00   -4.849E+00   -4.840E+00   -4.831E+00   -4.823E+00   -4.814E+00   -4.806E+00
    -4.797E+00   -4.788E+00   -4.780E+00   -4.771E+00   -4.763E+00   -4.754E+00   -4.746E+00   -4.737E+00   -4.729E+00   -4.720E+00
    -4.712E+00   -4.703E+00   -4.695E+00   -4.686E+00   -4.678E+00   -4.669E+00   -4.661E+00   -4.652E+00   -4.644E+00   -4.635E+00
    -4.627E+00   -4.618E+00   -4.609E+00   -4.601E+00   -4.592E+00   -4.584E+00   -4.575E+00   -4.566E+00   -4.557E+00   -4.549E+00
    -4.540E+00   -4.531E+00   -4.522E+00   -4.513E+00   -4.504E+00   -4.495E+00   -4.486E+00   -4.477E+00   -4.468E+00   -4.459E+00
    -4.450E+00   -4.441E+00   -4.431E+00   -4.422E+00   -4.413E+00   -4.403E+00   -4.394E+00   -4.384E+00   -4.375E+00   -4.365E+00
    -4.355E+00   -4.346E+00   -4.336E+00   -4.326E+00   -4.316E+00   -4.306E+00   -4.296E+00   -4.286E+00   -4.276E+00   -4.266E+00
    -4.255E+00   -4.245E+00   -4.235E+00   -4.224E+00   -4.214E+00   -4.203E+00   -4.192E+00   -4.181E+00   -4.171E+00   -4.160E+00
    -4.149E+00   -4.138E+00   -4.126E+00   -4.115E+00   -4.104E+00   -4.092E+00   -4.081E+00   -4.069E+00   -4.058E+00   -4.046E+00
    -4.034E+00   -4.022E+00   -4.010E+00   -3.998E+00   -3.985E+00   -3.973E+00   -3.961E+00   -3.948E+00   -3.935E+00   -3.922E+00
    -3.909E+00   -3.896E+00   -3.883E+00   -3.870E+00   -3.856E+00   -3.843E+00   -3.829E+00   -3.815E+00   -3.801E+00   -3.787E+00
    -3.773E+00   -3.758E+00   -3.744E+00   -3.729E+00   -3.714E+00   -3.699E+00   -3.683E+00   -3.668E+00   -3.652E+00   -3.637E+00
    -3.621E+00   -3.605E+00   -3.588E+00   -3.572E+00   -3.555E+00   -3.538E+00   -3.521E+00   -3.504E+00   -3.487E+00   -3.469E+00
    -3.451E+00   -3.433E+00   -3.415E+00   -3.397E+00   -3.378E+00   -3.359E+00   -3.340E+00   -3.321E+00   -3.301E+00   -3.282E+00
    -3.262E+00   -3.242E+00   -3.222E+00   -3.201E+00   -3.181E+00   -3.160E+00   -3.139E+00   -3.118E+00   -3.096E+00   -3.075E+00
    -3.053E+00   -3.031E+00   -3.009E+00   -2.987E+00   -2.964E+00   -2.941E+00   -2.919E+00   -2.896E+00   -2.872E+00   -2.849E+00
    -2.825E+00   -2.802E+00   -2.778E+00   -2.754E+00   -2.730E+00   -2.705E+00   -2.681E+00   -2.656E+00   -2.631E+00   -2.606E+00
    -2.581E+00   -2.555E+00   -2.530E+00   -2.504E+00   -2.478E+00   -2.452E+00   -2.426E+00   -2.400E+00   -2.373E+00   -2.346E+00
    -2.320E+00   -2.293E+00   -2.266E+00   -2.238E+00   -2.211E+00   -2.183E+00   -2.156E+00   -2.128E+00   -2.100E+00   -2.072E+00
    -2.044E+00   -2.015E+00   -1.987E+00   -1.958E+00   -1.930E+00   -1.901E+00   -1.872E+00   -1.843E+00   -1.814E+00   -1.784E+00
    -1.755E+00   -1.725E+00   -1.695E+00   -1.666E+00   -1.636E+00   -1.606E+00   -1.576E+00   -1.545E+00   -1.515E+00   -1.485E+00
    -1.454E+00   -1.424E+00   -1.393E+00   -1.362E+00   -1.331E+00   -1.300E+00   -1.269E+00   -1.238E+00   -1.207E+00   -1.175E+00
    -1.144E+00   -1.112E+00   -1.081E+00   -1.049E+00   -1.018E+00   -9.857E-01   -9.539E-01   -9.219E-01   -8.899E-01   -8.578E-01
    -8.256E-01   -7.934E-01   -7.611E-01   -7.287E-01   -6.962E-01   -6.637E-01   -6.311E-01   -5.985E-01   -5.658E-01   -5.330E-01
    -5.001E-01   -4.672E-01   -4.342E-01   -4.012E-01   -3.681E-01   -3.349E-01   -3.017E-01   -2.684E-01   -2.351E-01   -2.017E-01
    -1.683E-01   -1.348E-01   -1.012E-01   -6.757E-02   -3.389E-02   -1.646E-04    3.362E-02    6.745E-02    1.013E-01    1.353E-01
     1.693E-01    2.033E-01    2.374E-01    2.715E-01    3.057E-01    3.399E-01    3.742E-01    4.085E-01    4.428E-01    4.772E-01
     5.117E-01    5.462E-01    5.807E-01    6.152E-01    6.498E-01    6.845E-01    7.191E-01    7.538E-01    7.886E-01    8.233E-01
     8.581E-01    8.930E-01    9.278E-01    9.627E-01    9.976E-01    1.033E+00    1.067E+00    1.102E+00    1.137E+00    1.173E+00
     1.208E+00    1.243E+00    1.278E+00    1.313E+00    1.348E+00    1.383E+00    1.418E+00    1.453E+00    1.488E+00    1.524E+00
     1.559E+00    1.594E+00    1.629E+00    1.664E+00    1.700E+00    1.735E+00    1.770E+00    1.805E+00    1.841E+00    1.876E+00
     1.911E+00    1.946E+00    1.981E+00    2.017E+00    2.052E+00    2.087E+00    2.122E+00    2.157E+00    2.193E+00    2.228E+00
     2.263E+00    2.298E+00    2.333E+00    2.368E+00    2.404E+00    2.439E+00    2.474E+00    2.509E+00    2.544E+00    2.579E+00
     2.614E+00    2.650E+00    2.685E+00    2.720E+00    2.755E+00    2.790E+00    2.825E+00    2.860E+00    2.895E+00    2.930E+00
     2.965E+00    3.000E+00    3.036E+00    3.071E+00    3.106E+00    3.141E+00    3.176E+00    3.211E+00    3.246E+00    3.281E+00
     3.316E+00    3.351E+00    3.386E+00    3.421E+00    3.456E+00    3.491E+00    3.526E+00    3.561E+00
 Ala      Conc. = 4.87E+01
