 LCModel (Version 6.3-1L) Copyright: S.W. Provencher.          Ref.: Magn. Reson. Med. 30:672-679 (1993).                
 Slice#1 Row#10 Col#6  K_02_press_1_raw_act
 36 lines in following concentration table = NCONC+1
    Conc.  %SD /Cr+PCr  Metabolite                                         
   71.848 106% 6.0E-02 Ala                                                 
    0.000 999%   0.000 Asp                                                 
  754.099  15%   0.625 Cr                                                  
  451.948  25%   0.375 PCr                                                 
    0.000 999%   0.000 GABA                                                
    0.000 999%   0.000 Glc                                                 
  380.797  41%   0.316 Gln                                                 
 1.43E+03  13%   1.186 Glu                                                 
  438.185   5%   0.363 GPC                                                 
    0.000 999%   0.000 PCh                                                 
  362.640  16%   0.301 GSH                                                 
  967.924  20%   0.803 Ins                                                 
    0.000 999%   0.000 Lac                                                 
 2.29E+03   4%   1.895 NAA                                                 
  455.390  18%   0.378 NAAG                                                
   17.452 130% 1.4E-02 Scyllo                                              
  270.555  61%   0.224 Tau                                                 
   53.231 167% 4.4E-02 -CrCH2                                              
  438.185   5%   0.363 GPC+PCh                                             
 2.74E+03   3%   2.272 NAA+NAAG                                            
 1.21E+03   4%   1.000 Cr+PCr                                              
 1.81E+03  13%   1.501 Glu+Gln                                             
 1.78E+03  32%   1.474 Lip13a                                              
    0.000 999%   0.000 Lip13b                                              
  425.017  64%   0.352 Lip09                                               
 1.38E+03  22%   1.148 MM09                                                
  295.239  64%   0.245 Lip20                                               
 2.37E+03  16%   1.964 MM20                                                
  444.179  49%   0.368 MM12                                                
  730.955  47%   0.606 MM14                                                
  686.976  32%   0.570 MM17                                                
 1.78E+03  32%   1.474 Lip13a+Lip13b                                       
 2.95E+03  13%   2.449 MM14+Lip13a+Lip13b+MM12                             
 1.81E+03  11%   1.500 MM09+Lip09                                          
 2.66E+03  14%   2.209 MM20+Lip20                                          
   6 lines in following misc. output table
  FWHM = 0.038 ppm    S/N =  16                                            
  Data shift = 0.015 ppm                                                   
  Ph:  19 deg       4.3 deg/ppm                                            
  alphaB,S = 3.1E+00,   2.5E+01                                            
   14 spline knots.   Ns = 5(1)                                            
  ( 5) 2 infls.   ( 3) 1 extrs.                                            
  498 points on ppm-axis = NY
      4.000000     3.992357     3.984714     3.977070     3.969427     3.961784     3.954141     3.946497     3.938854     3.931211
      3.923568     3.915925     3.908281     3.900638     3.892995     3.885352     3.877708     3.870065     3.862422     3.854779
      3.847136     3.839492     3.831849     3.824206     3.816563     3.808919     3.801276     3.793633     3.785990     3.778347
      3.770703     3.763060     3.755417     3.747774     3.740130     3.732487     3.724844     3.717201     3.709558     3.701914
      3.694271     3.686628     3.678985     3.671341     3.663698     3.656055     3.648412     3.640769     3.633125     3.625482
      3.617839     3.610196     3.602552     3.594909     3.587266     3.579623     3.571980     3.564336     3.556693     3.549050
      3.541407     3.533763     3.526120     3.518477     3.510834     3.503191     3.495547     3.487904     3.480261     3.472618
      3.464974     3.457331     3.449688     3.442045     3.434402     3.426758     3.419115     3.411472     3.403829     3.396185
      3.388542     3.380899     3.373256     3.365613     3.357969     3.350326     3.342683     3.335040     3.327396     3.319753
      3.312110     3.304467     3.296824     3.289180     3.281537     3.273894     3.266251     3.258607     3.250964     3.243321
      3.235678     3.228034     3.220391     3.212748     3.205105     3.197462     3.189818     3.182175     3.174532     3.166889
      3.159245     3.151602     3.143959     3.136316     3.128673     3.121029     3.113386     3.105743     3.098100     3.090456
      3.082813     3.075170     3.067527     3.059884     3.052240     3.044597     3.036954     3.029311     3.021667     3.014024
      3.006381     2.998738     2.991095     2.983451     2.975808     2.968165     2.960522     2.952878     2.945235     2.937592
      2.929949     2.922306     2.914662     2.907019     2.899376     2.891733     2.884089     2.876446     2.868803     2.861160
      2.853517     2.845873     2.838230     2.830587     2.822944     2.815300     2.807657     2.800014     2.792371     2.784728
      2.777084     2.769441     2.761798     2.754155     2.746511     2.738868     2.731225     2.723582     2.715939     2.708295
      2.700652     2.693009     2.685366     2.677722     2.670079     2.662436     2.654793     2.647150     2.639506     2.631863
      2.624220     2.616577     2.608933     2.601290     2.593647     2.586004     2.578361     2.570717     2.563074     2.555431
      2.547788     2.540144     2.532501     2.524858     2.517215     2.509572     2.501928     2.494285     2.486642     2.478999
      2.471355     2.463712     2.456069     2.448426     2.440783     2.433139     2.425496     2.417853     2.410210     2.402566
      2.394923     2.387280     2.379637     2.371994     2.364350     2.356707     2.349064     2.341421     2.333777     2.326134
      2.318491     2.310848     2.303205     2.295561     2.287918     2.280275     2.272632     2.264988     2.257345     2.249702
      2.242059     2.234416     2.226772     2.219129     2.211486     2.203843     2.196199     2.188556     2.180913     2.173270
      2.165627     2.157983     2.150340     2.142697     2.135054     2.127410     2.119767     2.112124     2.104481     2.096838
      2.089194     2.081551     2.073908     2.066265     2.058621     2.050978     2.043335     2.035692     2.028049     2.020405
      2.012762     2.005119     1.997476     1.989833     1.982190     1.974546     1.966903     1.959260     1.951617     1.943974
      1.936331     1.928688     1.921045     1.913402     1.905759     1.898115     1.890472     1.882829     1.875186     1.867543
      1.859900     1.852257     1.844614     1.836971     1.829327     1.821684     1.814041     1.806398     1.798755     1.791112
      1.783469     1.775826     1.768183     1.760540     1.752896     1.745253     1.737610     1.729967     1.722324     1.714681
      1.707038     1.699395     1.691752     1.684108     1.676465     1.668822     1.661179     1.653536     1.645893     1.638250
      1.630607     1.622964     1.615321     1.607677     1.600034     1.592391     1.584748     1.577105     1.569462     1.561819
      1.554176     1.546533     1.538890     1.531246     1.523603     1.515960     1.508317     1.500674     1.493031     1.485388
      1.477745     1.470102     1.462458     1.454815     1.447172     1.439529     1.431886     1.424243     1.416600     1.408957
      1.401314     1.393671     1.386027     1.378384     1.370741     1.363098     1.355455     1.347812     1.340169     1.332526
      1.324883     1.317240     1.309596     1.301953     1.294310     1.286667     1.279024     1.271381     1.263738     1.256095
      1.248452     1.240808     1.233165     1.225522     1.217879     1.210236     1.202593     1.194950     1.187307     1.179664
      1.172021     1.164377     1.156734     1.149091     1.141448     1.133805     1.126162     1.118519     1.110876     1.103233
      1.095590     1.087946     1.080303     1.072660     1.065017     1.057374     1.049731     1.042088     1.034445     1.026802
      1.019158     1.011515     1.003872     0.996229     0.988586     0.980943     0.973300     0.965657     0.958014     0.950371
      0.942727     0.935084     0.927441     0.919798     0.912155     0.904512     0.896869     0.889226     0.881583     0.873940
      0.866296     0.858653     0.851010     0.843367     0.835724     0.828081     0.820438     0.812795     0.805152     0.797508
      0.789865     0.782222     0.774579     0.766936     0.759293     0.751650     0.744007     0.736364     0.728721     0.721077
      0.713434     0.705791     0.698148     0.690505     0.682862     0.675219     0.667576     0.659933     0.652290     0.644646
      0.637003     0.629360     0.621717     0.614074     0.606431     0.598788     0.591145     0.583502     0.575858     0.568215
      0.560572     0.552929     0.545286     0.537643     0.530000     0.522357     0.514714     0.507071     0.499427     0.491784
      0.484141     0.476498     0.468855     0.461212     0.453569     0.445925     0.438282     0.430639     0.422996     0.415353
      0.407710     0.400067     0.392424     0.384780     0.377137     0.369494     0.361851     0.354208     0.346565     0.338922
      0.331278     0.323635     0.315992     0.308349     0.300706     0.293063     0.285420     0.277777     0.270133     0.262490
      0.254847     0.247204     0.239561     0.231918     0.224275     0.216631     0.208988     0.201345
 NY phased data points follow
   2.30416E+01  1.88965E+01  2.17267E+01  1.88530E+01  1.70230E+01  2.34890E+01  2.43343E+01  2.96144E+01  3.64552E+01  3.79043E+01
   3.87654E+01  4.32563E+01  4.50483E+01  3.62002E+01  3.27205E+01  3.52848E+01  2.89003E+01  2.05857E+01  1.37832E+01  1.74524E+01
   1.75924E+01  1.64997E+01  1.78403E+01  1.53338E+01  1.60563E+01  2.00888E+01  1.72289E+01  1.31756E+01  1.86188E+01  2.07985E+01
   2.47185E+01  2.42326E+01  2.47703E+01  1.98355E+01  1.88713E+01  2.47236E+01  1.82474E+01  1.82238E+01  1.61691E+01  1.39467E+01
   1.59496E+01  1.95882E+01  1.59340E+01  2.05994E+01  2.20583E+01  2.08769E+01  2.07960E+01  2.40570E+01  2.75762E+01  2.15799E+01
   1.53086E+01  6.85808E+00  1.20288E+01  1.25599E+01  1.39411E+01  1.60438E+01  1.55776E+01  1.34587E+01  1.61621E+01  1.34590E+01
   1.33209E+01  1.37960E+01  1.50826E+01  6.23654E+00  1.13088E+01  7.86787E+00  9.16096E+00  1.10023E+01  8.74745E+00  5.05199E+00
   5.05790E+00  9.95821E+00  7.90909E+00  1.06449E+01  1.24147E+01  1.18112E+01  1.09083E+01  7.34575E+00  5.70148E+00  2.76029E+00
   8.11550E+00  4.86592E+00  2.99425E+00  6.85449E+00  7.83851E+00  4.62792E+00  6.47819E+00  7.99863E+00  6.52885E+00  6.73696E+00
   1.33452E+01  5.36228E+00  8.32252E+00  1.26370E+01  1.15315E+01  1.06591E+01  1.44034E+01  8.82473E+00  1.69038E+01  1.97335E+01
   2.62810E+01  4.39298E+01  6.00796E+01  5.89268E+01  5.47043E+01  3.87823E+01  2.80434E+01  2.67984E+01  1.96455E+01  1.47751E+01
   5.59434E+00  7.70572E+00  4.24369E+00  6.36396E+00  4.84261E+00  1.50167E+00  7.66858E+00  7.10945E+00  8.61682E+00  7.35470E+00
   7.93414E+00  6.85829E+00  5.04578E+00  1.12006E+01  2.70462E+01  3.69337E+01  5.11126E+01  5.72370E+01  5.01917E+01  4.14454E+01
   3.30186E+01  2.51480E+01  1.68044E+01  1.59880E+01  1.28865E+01  1.27209E+01  5.63138E+00  6.59390E+00  7.79680E+00  6.33001E+00
   5.06746E+00  9.22793E+00  4.15830E+00  9.50463E+00  3.98728E+00  7.40719E+00  6.53005E+00  3.32793E-01  4.40385E+00  3.85142E+00
   5.24680E+00  2.39025E+00  5.62806E+00  4.33798E+00  2.28473E+00  4.59389E+00  4.36162E+00  3.64212E+00  2.65982E+00  1.37972E+00
   3.91495E+00  3.94469E+00 -2.49817E+00  5.07188E+00  5.44240E+00  3.63568E+00  3.39677E+00 -3.09497E+00 -3.45012E+00 -3.86337E+00
  -1.13171E+01 -1.17908E+00 -7.44408E+00 -1.22329E+01 -1.13652E+01 -9.71543E+00 -1.30733E+01 -1.46036E+01 -1.23977E+01 -8.05415E+00
  -1.24440E+01 -1.24353E+01 -1.44170E+01 -7.26006E+00 -8.79244E+00 -3.29265E+00  5.04590E-01 -5.02780E+00 -7.40554E+00 -4.53626E+00
  -4.08059E+00 -1.04398E+00 -2.88709E+00 -1.87739E+00 -1.08285E+00 -3.83174E+00 -5.44579E+00 -1.18200E+01 -1.46842E+01 -8.24319E+00
  -6.18813E+00 -2.15433E+00 -5.93829E-01  5.55762E+00  1.76873E+00  1.60482E+00 -4.16072E+00 -2.17664E-02 -6.70971E+00 -1.11465E+00
  -3.43590E+00  8.15139E-02 -2.08074E+00  3.34073E+00  3.66167E+00  1.19222E+01  1.72406E+01  1.14655E+01  1.36624E+01  3.68398E+00
  -3.36608E+00 -1.10815E+01 -7.88683E+00 -8.81657E+00 -3.71432E+00  2.46532E+00  3.40576E+00  1.96377E+00  8.65810E+00  5.89356E+00
   3.26130E+00  6.82730E+00  4.05817E+00  7.55905E+00  5.16276E+00 -6.21014E-01  5.74457E+00  6.20519E+00  3.07521E+00 -1.29291E-01
   2.37133E+00  1.70448E+00 -1.50296E-02 -5.50271E+00  2.02123E-01  3.87181E+00  7.35765E+00  9.33022E+00  1.66294E+01  1.01670E+01
   1.29171E+01  1.04525E+01  1.08751E+01  2.42753E+01  2.55048E+01  3.39082E+01  3.49594E+01  4.15985E+01  6.94439E+01  9.54513E+01
   1.16448E+02  1.16409E+02  9.62275E+01  6.41773E+01  3.79203E+01  2.08354E+01  1.24103E+01  2.55998E+00  4.51948E+00  2.80788E+00
   3.59541E+00 -9.90448E-01  1.14009E+00  1.25269E+00  3.37870E+00 -7.05220E-01  1.53269E+00  2.33947E+00 -9.68418E-01  3.37973E-01
   2.36613E+00  3.46851E+00 -1.86006E+00  5.52603E+00 -3.79950E+00 -2.14763E+00  8.40240E-01  4.16343E-01  8.64228E-01  1.16641E+00
   6.51751E-01  5.48502E+00  4.50665E+00  1.67915E+00  4.29877E+00  5.93047E-01  3.34113E+00 -3.03593E+00  1.49789E-01  4.57000E-01
   1.49463E+00 -2.31830E+00  3.77948E+00  7.63678E+00  2.06719E+00  2.54017E-01 -1.59468E+00  3.81935E+00  3.09211E+00  2.24933E-01
   9.43486E-01 -2.96385E+00  3.04008E+00 -1.06023E-01  1.75436E+00  4.48053E+00  6.80527E+00  2.19174E+00  4.28968E-01 -1.51783E+00
  -2.87681E+00 -1.66137E+00  3.48046E+00  1.60284E-01 -2.08547E+00  2.82971E-01 -5.59298E+00  3.08202E+00  2.75009E+00 -7.99524E-01
  -1.34709E+00 -7.67884E-02 -3.30825E-02  2.79567E+00  2.89646E+00  1.80872E+00  6.65758E+00  6.37513E+00  6.74655E+00  4.45913E+00
   4.84321E+00  1.42988E+00  2.03452E+00  9.33112E+00  9.68464E+00  1.04550E+01  1.05296E+01  6.93005E+00  9.63308E+00  1.21233E+01
   9.59689E+00  8.21428E+00  5.24125E+00  3.64447E+00  1.02895E+01  2.18592E+00  5.50582E+00  3.53772E+00  7.99669E+00  2.19266E+00
   6.67536E+00  6.45159E+00  8.35364E+00  6.13183E+00  3.07732E+00  1.06176E+01  1.06185E+01  5.80022E+00  6.90785E+00  7.60643E+00
   4.71837E+00  1.02530E+01  6.30606E+00  4.74657E+00  5.54503E+00  4.76366E+00  3.33491E+00  9.76725E-02 -4.03285E-01  1.76657E+00
   3.31465E+00  2.70905E+00  4.08075E+00  7.94453E+00  1.48288E+00  3.93854E+00  5.36859E+00  2.25724E+00  5.71216E+00  4.21618E+00
   6.41051E-01  7.46105E+00  6.50816E+00  1.30149E+01  8.26112E+00  6.16063E+00  1.19463E+01  7.89652E+00  1.21734E+01  9.40403E+00
   6.46720E+00  1.50174E+01  1.04234E+01  7.94709E+00  1.29392E+01  1.75450E+01  1.22442E+01  1.39554E+01  1.28040E+01  1.27194E+01
   1.00268E+01  7.82865E+00  8.24864E+00  1.08450E+01  3.63692E+00  1.13911E+01  1.32770E+01  3.81489E+00  2.54871E+00 -3.88711E-01
   4.51545E+00  5.01004E+00  4.68482E-01  5.12326E+00  2.24627E+00  2.26849E+00  1.73001E+00 -1.73976E+00  6.80127E+00  2.29153E+00
  -3.78432E+00  5.27491E-01  1.18546E+00  2.40366E+00  4.39493E+00  3.97131E+00  2.63038E+00  3.73051E+00  9.90606E-01 -2.49396E+00
   6.63006E+00  6.59266E+00  2.19023E+00  5.82318E-01  6.17257E+00  3.02078E+00 -2.88903E+00  3.33175E+00  2.16426E+00  1.16972E+00
   1.80481E+00  7.35440E+00 -2.17983E+00 -5.64141E-01  5.34987E+00  6.28927E+00 -2.32325E+00  1.33349E+00  1.88337E+00  2.22418E+00
   3.54861E+00  1.60841E+00 -2.00882E+00 -1.15806E+00  2.52007E+00  2.96575E+00 -1.16340E+00  8.30786E-02  2.71209E+00  5.24855E+00
  -2.11049E+00  1.77836E+00  2.24097E+00  5.10271E-01  2.23314E+00 -3.22910E+00  4.59002E+00  3.80051E+00  2.48370E+00  2.03984E+00
  -3.37766E+00  3.33122E+00  2.05332E+00  3.34114E+00 -2.19425E+00  5.63288E-01  1.72934E+00 -1.12819E+00 -3.06742E+00  5.78796E-01
   1.65904E+00 -1.43954E+00  2.71672E+00  2.73624E+00 -7.82088E-01 -2.48988E+00 -7.63403E-01  1.30607E+00
 NY points of the fit to the data follow
   1.69248E+01  1.67366E+01  1.68567E+01  1.75343E+01  1.88773E+01  2.13323E+01  2.54818E+01  3.02572E+01  3.41430E+01  3.77657E+01
   4.13636E+01  4.35539E+01  4.29258E+01  3.89224E+01  3.27669E+01  2.69862E+01  2.31334E+01  2.06442E+01  1.87090E+01  1.75430E+01
   1.70899E+01  1.68191E+01  1.65440E+01  1.60893E+01  1.56169E+01  1.52690E+01  1.49516E+01  1.57330E+01  1.83539E+01  2.19278E+01
   2.50960E+01  2.66299E+01  2.63616E+01  2.47081E+01  2.22828E+01  1.94652E+01  1.63921E+01  1.38969E+01  1.25945E+01  1.22930E+01
   1.28445E+01  1.39321E+01  1.51269E+01  1.63041E+01  1.80297E+01  2.05134E+01  2.27326E+01  2.34275E+01  2.20652E+01  1.92258E+01
   1.62069E+01  1.38863E+01  1.23546E+01  1.14716E+01  1.11822E+01  1.13181E+01  1.17853E+01  1.25613E+01  1.34834E+01  1.42243E+01
   1.43462E+01  1.36886E+01  1.25212E+01  1.13372E+01  1.05733E+01  1.02552E+01  1.03771E+01  1.06855E+01  1.09492E+01  1.12330E+01
   1.15563E+01  1.17980E+01  1.19595E+01  1.21031E+01  1.21066E+01  1.17913E+01  1.11257E+01  1.01427E+01  9.13814E+00  8.55382E+00
   8.47772E+00  8.68262E+00  8.92225E+00  9.03340E+00  8.83817E+00  8.21903E+00  7.27293E+00  6.31334E+00  5.71941E+00  5.74922E+00
   6.25317E+00  6.83224E+00  7.16643E+00  7.34013E+00  7.49677E+00  7.75698E+00  8.34316E+00  9.58129E+00  1.24151E+01  1.76323E+01
   2.88756E+01  4.47251E+01  5.79528E+01  6.20299E+01  5.53070E+01  4.20611E+01  2.90809E+01  1.99657E+01  1.41719E+01  9.97156E+00
   7.72138E+00  6.88020E+00  6.46604E+00  6.21502E+00  6.03759E+00  5.92212E+00  5.85343E+00  5.80604E+00  5.78226E+00  5.84099E+00
   6.14719E+00  7.18316E+00  9.51503E+00  1.47805E+01  2.39576E+01  3.68357E+01  4.94376E+01  5.59929E+01  5.37111E+01  4.44324E+01
   3.28752E+01  2.33556E+01  1.68751E+01  1.23301E+01  8.58936E+00  5.73009E+00  3.79713E+00  2.88004E+00  2.96103E+00  3.79536E+00
   4.87194E+00  5.72831E+00  6.04530E+00  5.80914E+00  5.26146E+00  4.65989E+00  4.14975E+00  3.78124E+00  3.46644E+00  3.18110E+00
   2.87275E+00  2.48736E+00  2.05724E+00  1.70967E+00  1.57599E+00  1.69714E+00  1.93549E+00  2.05660E+00  1.64596E+00  5.29563E-01
  -7.34463E-01 -1.50906E+00 -1.24579E+00 -1.22766E-01  8.04836E-01  7.82697E-01 -1.69416E-01 -1.49370E+00 -2.55211E+00 -3.08236E+00
  -3.21822E+00 -3.32776E+00 -3.66993E+00 -4.36123E+00 -5.52060E+00 -6.35691E+00 -6.30657E+00 -5.45330E+00 -4.52426E+00 -4.38058E+00
  -4.93624E+00 -5.39562E+00 -5.29087E+00 -4.80298E+00 -4.62605E+00 -4.90040E+00 -4.78228E+00 -3.55931E+00 -1.29386E+00  1.26739E+00
   3.23525E+00  3.98428E+00  3.61972E+00  2.53047E+00  1.34563E+00  2.48213E-01 -6.23596E-01 -1.11277E+00 -1.04400E+00 -2.97460E-01
   8.80417E-01  2.38667E+00  3.98428E+00  5.17450E+00  5.58304E+00  4.60294E+00  2.33877E+00 -6.99421E-01 -3.68437E+00 -5.72972E+00
  -6.66749E+00 -6.44046E+00 -4.78702E+00 -1.64404E+00  3.06532E+00  7.59565E+00  9.94601E+00  8.98755E+00  5.28652E+00  3.39829E-01
  -4.83964E+00 -9.35622E+00 -1.16888E+01 -1.08632E+01 -7.14943E+00 -2.31589E+00  1.82671E+00  4.40918E+00  5.52928E+00  5.42392E+00
   4.39649E+00  3.18653E+00  2.61573E+00  2.87002E+00  3.77553E+00  5.10664E+00  6.40795E+00  7.19998E+00  7.04148E+00  5.76657E+00
   3.77706E+00  1.89582E+00  9.29592E-01  1.38847E+00  3.11393E+00  5.38232E+00  7.35706E+00  8.55610E+00  8.92866E+00  8.75437E+00
   8.71222E+00  9.59252E+00  1.23111E+01  1.81205E+01  2.51175E+01  3.16332E+01  3.74262E+01  4.58060E+01  6.81223E+01  9.69337E+01
   1.16394E+02  1.14867E+02  9.33312E+01  6.42465E+01  4.05781E+01  2.56804E+01  1.58173E+01  8.40000E+00  5.56173E+00  4.37704E+00
   3.56136E+00  2.99315E+00  2.73580E+00  2.65052E+00  2.56521E+00  2.35717E+00  1.99955E+00  1.57868E+00  1.19263E+00  8.64005E-01
   6.07117E-01  4.44455E-01  3.82639E-01  3.72406E-01  3.51369E-01  2.99539E-01  2.39671E-01  1.89676E-01  1.61986E-01  1.94767E-01
   3.19439E-01  5.19927E-01  7.51063E-01  9.67660E-01  1.14968E+00  1.30012E+00  1.41727E+00  1.50896E+00  1.59215E+00  1.68500E+00
   1.78706E+00  1.88465E+00  1.95880E+00  1.99787E+00  1.99883E+00  1.96162E+00  1.88689E+00  1.78470E+00  1.66310E+00  1.52758E+00
   1.38281E+00  1.23421E+00  1.08818E+00  9.51316E-01  8.29356E-01  7.26710E-01  6.47431E-01  5.95846E-01  5.76895E-01  5.95441E-01
   6.56851E-01  7.71232E-01  9.58250E-01  1.21282E+00  1.56464E+00  1.91876E+00  2.04947E+00  1.87309E+00  1.48925E+00  1.10688E+00
   9.25375E-01  9.72242E-01  1.22667E+00  1.78411E+00  2.63091E+00  3.57184E+00  4.34201E+00  4.81550E+00  5.04626E+00  5.18703E+00
   5.33566E+00  5.49173E+00  5.65284E+00  5.85084E+00  6.06779E+00  6.29044E+00  6.51287E+00  6.73075E+00  6.93985E+00  7.13575E+00
   7.31482E+00  7.47404E+00  7.61068E+00  7.72139E+00  7.80261E+00  7.85113E+00  7.86516E+00  7.84386E+00  7.78700E+00  7.69425E+00
   7.56588E+00  7.40323E+00  7.20922E+00  6.98749E+00  6.74186E+00  6.47592E+00  6.19374E+00  5.90012E+00  5.60065E+00  5.30067E+00
   5.00496E+00  4.71764E+00  4.44307E+00  4.18589E+00  3.95089E+00  3.74205E+00  3.56267E+00  3.41563E+00  3.30424E+00  3.23208E+00
   3.20264E+00  3.21862E+00  3.28225E+00  3.39561E+00  3.56120E+00  3.78126E+00  4.05724E+00  4.38913E+00  4.77590E+00  5.21554E+00
   5.70525E+00  6.24050E+00  6.81459E+00  7.41846E+00  8.04142E+00  8.67153E+00  9.29590E+00  9.90025E+00  1.04694E+01  1.09878E+01
   1.14412E+01  1.18168E+01  1.21042E+01  1.22948E+01  1.23825E+01  1.23645E+01  1.22418E+01  1.20186E+01  1.17022E+01  1.13019E+01
   1.08287E+01  1.02954E+01  9.71603E+00  9.10483E+00  8.47550E+00  7.84031E+00  7.21029E+00  6.59523E+00  6.00369E+00  5.44226E+00
   4.91549E+00  4.42591E+00  3.97491E+00  3.56297E+00  3.18990E+00  2.85434E+00  2.55404E+00  2.28616E+00  2.04811E+00  1.83748E+00
   1.65200E+00  1.48900E+00  1.34576E+00  1.21972E+00  1.10905E+00  1.01226E+00  9.27953E-01  8.54423E-01  7.90097E-01  7.33716E-01
   6.84668E-01  6.42395E-01  6.06237E-01  5.75168E-01  5.48408E-01  5.25495E-01  5.06424E-01  4.90983E-01  4.78742E-01  4.68993E-01
   4.61408E-01  4.55939E-01  4.52789E-01  4.51775E-01  4.52516E-01  4.54518E-01  4.57750E-01  4.62359E-01  4.68544E-01  4.76033E-01
   4.84465E-01  4.93531E-01  5.03417E-01  5.14332E-01  5.26378E-01  5.39193E-01  5.52483E-01  5.66124E-01  5.80424E-01  5.95550E-01
   6.11464E-01  6.27760E-01  6.44268E-01  6.61041E-01  6.78439E-01  6.96510E-01  7.15089E-01  7.33782E-01  7.52569E-01  7.71627E-01
   7.91278E-01  8.11426E-01  8.31830E-01  8.52185E-01  8.72632E-01  8.93407E-01  9.14728E-01  9.36361E-01  9.58051E-01  9.79627E-01
   1.00136E+00  1.02346E+00  1.04602E+00  1.06869E+00  1.09129E+00  1.11380E+00  1.13656E+00  1.15970E+00
 NY background values follow
     1.420E+01    1.410E+01    1.401E+01    1.392E+01    1.382E+01    1.373E+01    1.363E+01    1.354E+01    1.344E+01    1.335E+01
     1.325E+01    1.316E+01    1.306E+01    1.297E+01    1.287E+01    1.278E+01    1.268E+01    1.259E+01    1.249E+01    1.240E+01
     1.230E+01    1.221E+01    1.212E+01    1.202E+01    1.193E+01    1.183E+01    1.174E+01    1.164E+01    1.155E+01    1.145E+01
     1.136E+01    1.127E+01    1.117E+01    1.108E+01    1.098E+01    1.089E+01    1.079E+01    1.070E+01    1.061E+01    1.051E+01
     1.042E+01    1.033E+01    1.023E+01    1.014E+01    1.004E+01    9.951E+00    9.857E+00    9.764E+00    9.671E+00    9.578E+00
     9.485E+00    9.392E+00    9.299E+00    9.206E+00    9.113E+00    9.020E+00    8.928E+00    8.835E+00    8.743E+00    8.651E+00
     8.559E+00    8.467E+00    8.375E+00    8.283E+00    8.191E+00    8.100E+00    8.009E+00    7.917E+00    7.826E+00    7.735E+00
     7.644E+00    7.554E+00    7.463E+00    7.373E+00    7.282E+00    7.192E+00    7.102E+00    7.013E+00    6.923E+00    6.833E+00
     6.744E+00    6.655E+00    6.566E+00    6.477E+00    6.389E+00    6.300E+00    6.212E+00    6.124E+00    6.036E+00    5.949E+00
     5.861E+00    5.774E+00    5.687E+00    5.600E+00    5.513E+00    5.427E+00    5.341E+00    5.255E+00    5.169E+00    5.083E+00
     4.998E+00    4.913E+00    4.828E+00    4.743E+00    4.659E+00    4.574E+00    4.490E+00    4.406E+00    4.323E+00    4.240E+00
     4.156E+00    4.074E+00    3.991E+00    3.909E+00    3.826E+00    3.745E+00    3.663E+00    3.582E+00    3.500E+00    3.420E+00
     3.339E+00    3.259E+00    3.178E+00    3.099E+00    3.019E+00    2.940E+00    2.861E+00    2.782E+00    2.703E+00    2.625E+00
     2.547E+00    2.469E+00    2.392E+00    2.315E+00    2.238E+00    2.161E+00    2.085E+00    2.009E+00    1.933E+00    1.858E+00
     1.783E+00    1.708E+00    1.633E+00    1.559E+00    1.485E+00    1.412E+00    1.339E+00    1.266E+00    1.194E+00    1.122E+00
     1.050E+00    9.786E-01    9.078E-01    8.373E-01    7.672E-01    6.975E-01    6.283E-01    5.594E-01    4.910E-01    4.230E-01
     3.555E-01    2.884E-01    2.218E-01    1.557E-01    8.999E-02    2.478E-02   -3.995E-02   -1.042E-01   -1.679E-01   -2.312E-01
    -2.939E-01   -3.561E-01   -4.178E-01   -4.789E-01   -5.395E-01   -5.996E-01   -6.591E-01   -7.181E-01   -7.765E-01   -8.343E-01
    -8.916E-01   -9.482E-01   -1.004E+00   -1.060E+00   -1.115E+00   -1.169E+00   -1.223E+00   -1.276E+00   -1.328E+00   -1.380E+00
    -1.432E+00   -1.483E+00   -1.533E+00   -1.583E+00   -1.632E+00   -1.681E+00   -1.729E+00   -1.776E+00   -1.823E+00   -1.869E+00
    -1.915E+00   -1.960E+00   -2.005E+00   -2.049E+00   -2.093E+00   -2.136E+00   -2.178E+00   -2.220E+00   -2.261E+00   -2.302E+00
    -2.342E+00   -2.382E+00   -2.421E+00   -2.460E+00   -2.498E+00   -2.536E+00   -2.573E+00   -2.609E+00   -2.645E+00   -2.681E+00
    -2.716E+00   -2.750E+00   -2.784E+00   -2.818E+00   -2.851E+00   -2.883E+00   -2.915E+00   -2.946E+00   -2.977E+00   -3.008E+00
    -3.037E+00   -3.067E+00   -3.096E+00   -3.124E+00   -3.152E+00   -3.179E+00   -3.206E+00   -3.232E+00   -3.258E+00   -3.283E+00
    -3.308E+00   -3.333E+00   -3.356E+00   -3.380E+00   -3.403E+00   -3.425E+00   -3.447E+00   -3.469E+00   -3.489E+00   -3.510E+00
    -3.530E+00   -3.549E+00   -3.569E+00   -3.587E+00   -3.605E+00   -3.623E+00   -3.640E+00   -3.657E+00   -3.673E+00   -3.689E+00
    -3.704E+00   -3.719E+00   -3.733E+00   -3.747E+00   -3.761E+00   -3.774E+00   -3.786E+00   -3.798E+00   -3.810E+00   -3.821E+00
    -3.832E+00   -3.842E+00   -3.852E+00   -3.861E+00   -3.870E+00   -3.879E+00   -3.887E+00   -3.894E+00   -3.902E+00   -3.908E+00
    -3.915E+00   -3.921E+00   -3.926E+00   -3.931E+00   -3.936E+00   -3.940E+00   -3.944E+00   -3.947E+00   -3.950E+00   -3.953E+00
    -3.955E+00   -3.957E+00   -3.958E+00   -3.959E+00   -3.960E+00   -3.960E+00   -3.960E+00   -3.959E+00   -3.958E+00   -3.957E+00
    -3.955E+00   -3.953E+00   -3.951E+00   -3.948E+00   -3.944E+00   -3.941E+00   -3.937E+00   -3.932E+00   -3.928E+00   -3.923E+00
    -3.917E+00   -3.911E+00   -3.905E+00   -3.899E+00   -3.892E+00   -3.885E+00   -3.877E+00   -3.869E+00   -3.861E+00   -3.852E+00
    -3.843E+00   -3.834E+00   -3.825E+00   -3.815E+00   -3.804E+00   -3.794E+00   -3.783E+00   -3.772E+00   -3.760E+00   -3.748E+00
    -3.736E+00   -3.724E+00   -3.711E+00   -3.698E+00   -3.685E+00   -3.671E+00   -3.657E+00   -3.643E+00   -3.628E+00   -3.614E+00
    -3.598E+00   -3.583E+00   -3.567E+00   -3.552E+00   -3.535E+00   -3.519E+00   -3.502E+00   -3.485E+00   -3.468E+00   -3.450E+00
    -3.433E+00   -3.415E+00   -3.396E+00   -3.378E+00   -3.359E+00   -3.340E+00   -3.321E+00   -3.301E+00   -3.282E+00   -3.262E+00
    -3.241E+00   -3.221E+00   -3.200E+00   -3.179E+00   -3.158E+00   -3.137E+00   -3.116E+00   -3.094E+00   -3.072E+00   -3.050E+00
    -3.027E+00   -3.005E+00   -2.982E+00   -2.959E+00   -2.936E+00   -2.913E+00   -2.889E+00   -2.865E+00   -2.841E+00   -2.817E+00
    -2.793E+00   -2.769E+00   -2.744E+00   -2.719E+00   -2.694E+00   -2.669E+00   -2.644E+00   -2.618E+00   -2.593E+00   -2.567E+00
    -2.541E+00   -2.515E+00   -2.489E+00   -2.463E+00   -2.436E+00   -2.409E+00   -2.383E+00   -2.356E+00   -2.329E+00   -2.301E+00
    -2.274E+00   -2.247E+00   -2.219E+00   -2.191E+00   -2.163E+00   -2.136E+00   -2.107E+00   -2.079E+00   -2.051E+00   -2.023E+00
    -1.994E+00   -1.966E+00   -1.937E+00   -1.908E+00   -1.879E+00   -1.850E+00   -1.821E+00   -1.792E+00   -1.763E+00   -1.734E+00
    -1.704E+00   -1.675E+00   -1.645E+00   -1.616E+00   -1.586E+00   -1.556E+00   -1.527E+00   -1.497E+00   -1.467E+00   -1.437E+00
    -1.407E+00   -1.377E+00   -1.347E+00   -1.317E+00   -1.287E+00   -1.257E+00   -1.227E+00   -1.196E+00   -1.166E+00   -1.136E+00
    -1.106E+00   -1.075E+00   -1.045E+00   -1.015E+00   -9.844E-01   -9.541E-01   -9.237E-01   -8.934E-01   -8.631E-01   -8.328E-01
    -8.025E-01   -7.722E-01   -7.419E-01   -7.116E-01   -6.814E-01   -6.511E-01   -6.209E-01   -5.907E-01   -5.605E-01   -5.303E-01
    -5.002E-01   -4.700E-01   -4.399E-01   -4.098E-01   -3.797E-01   -3.496E-01   -3.195E-01   -2.895E-01   -2.594E-01   -2.294E-01
    -1.994E-01   -1.693E-01   -1.393E-01   -1.093E-01   -7.935E-02   -4.937E-02   -1.940E-02    1.055E-02    4.050E-02    7.044E-02
     1.004E-01    1.303E-01    1.602E-01    1.901E-01    2.200E-01    2.499E-01    2.798E-01    3.097E-01    3.396E-01    3.695E-01
     3.993E-01    4.292E-01    4.590E-01    4.889E-01    5.188E-01    5.486E-01    5.784E-01    6.083E-01
 Ala      Conc. = 7.18E+01
