 LCModel (Version 6.3-1L) Copyright: S.W. Provencher.          Ref.: Magn. Reson. Med. 30:672-679 (1993).                
 Slice#1 Row#11 Col#12  K_02_press_1_raw_act
 36 lines in following concentration table = NCONC+1
    Conc.  %SD /Cr+PCr  Metabolite                                         
    0.207 999% 1.8E-03 Ala                                                 
    2.033 999% 1.8E-02 Asp                                                 
    0.000 999%   0.000 Cr                                                  
  113.910  21%   1.000 PCr                                                 
    4.851 719% 4.3E-02 GABA                                                
   36.745 102%   0.323 Glc                                                 
    0.000 999%   0.000 Gln                                                 
  250.032  31%   2.195 Glu                                                 
    0.000 999%   0.000 GPC                                                 
   21.316  36%   0.187 PCh                                                 
   36.179  70%   0.318 GSH                                                 
   63.081 123%   0.554 Ins                                                 
    0.000 999%   0.000 Lac                                                 
  417.603  12%   3.666 NAA                                                 
  195.313  20%   1.715 NAAG                                                
    0.000 999%   0.000 Scyllo                                              
    0.000 999%   0.000 Tau                                                 
   99.934  34%   0.877 -CrCH2                                              
   21.316  36%   0.187 GPC+PCh                                             
  612.916   7%   5.381 NAA+NAAG                                            
  113.910  21%   1.000 Cr+PCr                                              
  250.032  31%   2.195 Glu+Gln                                             
 4.44E+03   8%  38.987 Lip13a                                              
    0.000 999%   0.000 Lip13b                                              
 1.92E+03  11%  16.877 Lip09                                               
    0.000 999%   0.000 MM09                                                
 1.40E+03   9%  12.256 Lip20                                               
    0.000 999%   0.000 MM20                                                
    0.000 999%   0.000 MM12                                                
    0.000 999%   0.000 MM14                                                
    0.000 999%   0.000 MM17                                                
 4.44E+03   8%  38.987 Lip13a+Lip13b                                       
 4.44E+03   8%  38.987 MM14+Lip13a+Lip13b+MM12                             
 1.92E+03  11%  16.877 MM09+Lip09                                          
 1.40E+03   9%  12.256 MM20+Lip20                                          
   6 lines in following misc. output table
  FWHM = 0.031 ppm    S/N =   8                                            
  Data shift =-0.008 ppm                                                   
  Ph: -87 deg     107.9 deg/ppm                                            
  alphaB,S = 1.9E+00,   6.1E+00                                            
   14 spline knots.   Ns = 5(1)                                            
  ( 6) 2 infls.   ( 4) 2 extrs.                                            
  498 points on ppm-axis = NY
      4.000000     3.992357     3.984714     3.977070     3.969427     3.961784     3.954141     3.946497     3.938854     3.931211
      3.923568     3.915925     3.908281     3.900638     3.892995     3.885352     3.877708     3.870065     3.862422     3.854779
      3.847136     3.839492     3.831849     3.824206     3.816563     3.808919     3.801276     3.793633     3.785990     3.778347
      3.770703     3.763060     3.755417     3.747774     3.740130     3.732487     3.724844     3.717201     3.709558     3.701914
      3.694271     3.686628     3.678985     3.671341     3.663698     3.656055     3.648412     3.640769     3.633125     3.625482
      3.617839     3.610196     3.602552     3.594909     3.587266     3.579623     3.571980     3.564336     3.556693     3.549050
      3.541407     3.533763     3.526120     3.518477     3.510834     3.503191     3.495547     3.487904     3.480261     3.472618
      3.464974     3.457331     3.449688     3.442045     3.434402     3.426758     3.419115     3.411472     3.403829     3.396185
      3.388542     3.380899     3.373256     3.365613     3.357969     3.350326     3.342683     3.335040     3.327396     3.319753
      3.312110     3.304467     3.296824     3.289180     3.281537     3.273894     3.266251     3.258607     3.250964     3.243321
      3.235678     3.228034     3.220391     3.212748     3.205105     3.197462     3.189818     3.182175     3.174532     3.166889
      3.159245     3.151602     3.143959     3.136316     3.128673     3.121029     3.113386     3.105743     3.098100     3.090456
      3.082813     3.075170     3.067527     3.059884     3.052240     3.044597     3.036954     3.029311     3.021667     3.014024
      3.006381     2.998738     2.991095     2.983451     2.975808     2.968165     2.960522     2.952878     2.945235     2.937592
      2.929949     2.922306     2.914662     2.907019     2.899376     2.891733     2.884089     2.876446     2.868803     2.861160
      2.853517     2.845873     2.838230     2.830587     2.822944     2.815300     2.807657     2.800014     2.792371     2.784728
      2.777084     2.769441     2.761798     2.754155     2.746511     2.738868     2.731225     2.723582     2.715939     2.708295
      2.700652     2.693009     2.685366     2.677722     2.670079     2.662436     2.654793     2.647150     2.639506     2.631863
      2.624220     2.616577     2.608933     2.601290     2.593647     2.586004     2.578361     2.570717     2.563074     2.555431
      2.547788     2.540144     2.532501     2.524858     2.517215     2.509572     2.501928     2.494285     2.486642     2.478999
      2.471355     2.463712     2.456069     2.448426     2.440783     2.433139     2.425496     2.417853     2.410210     2.402566
      2.394923     2.387280     2.379637     2.371994     2.364350     2.356707     2.349064     2.341421     2.333777     2.326134
      2.318491     2.310848     2.303205     2.295561     2.287918     2.280275     2.272632     2.264988     2.257345     2.249702
      2.242059     2.234416     2.226772     2.219129     2.211486     2.203843     2.196199     2.188556     2.180913     2.173270
      2.165627     2.157983     2.150340     2.142697     2.135054     2.127410     2.119767     2.112124     2.104481     2.096838
      2.089194     2.081551     2.073908     2.066265     2.058621     2.050978     2.043335     2.035692     2.028049     2.020405
      2.012762     2.005119     1.997476     1.989833     1.982190     1.974546     1.966903     1.959260     1.951617     1.943974
      1.936331     1.928688     1.921045     1.913402     1.905759     1.898115     1.890472     1.882829     1.875186     1.867543
      1.859900     1.852257     1.844614     1.836971     1.829327     1.821684     1.814041     1.806398     1.798755     1.791112
      1.783469     1.775826     1.768183     1.760540     1.752896     1.745253     1.737610     1.729967     1.722324     1.714681
      1.707038     1.699395     1.691752     1.684108     1.676465     1.668822     1.661179     1.653536     1.645893     1.638250
      1.630607     1.622964     1.615321     1.607677     1.600034     1.592391     1.584748     1.577105     1.569462     1.561819
      1.554176     1.546533     1.538890     1.531246     1.523603     1.515960     1.508317     1.500674     1.493031     1.485388
      1.477745     1.470102     1.462458     1.454815     1.447172     1.439529     1.431886     1.424243     1.416600     1.408957
      1.401314     1.393671     1.386027     1.378384     1.370741     1.363098     1.355455     1.347812     1.340169     1.332526
      1.324883     1.317240     1.309596     1.301953     1.294310     1.286667     1.279024     1.271381     1.263738     1.256095
      1.248452     1.240808     1.233165     1.225522     1.217879     1.210236     1.202593     1.194950     1.187307     1.179664
      1.172021     1.164377     1.156734     1.149091     1.141448     1.133805     1.126162     1.118519     1.110876     1.103233
      1.095590     1.087946     1.080303     1.072660     1.065017     1.057374     1.049731     1.042088     1.034445     1.026802
      1.019158     1.011515     1.003872     0.996229     0.988586     0.980943     0.973300     0.965657     0.958014     0.950371
      0.942727     0.935084     0.927441     0.919798     0.912155     0.904512     0.896869     0.889226     0.881583     0.873940
      0.866296     0.858653     0.851010     0.843367     0.835724     0.828081     0.820438     0.812795     0.805152     0.797508
      0.789865     0.782222     0.774579     0.766936     0.759293     0.751650     0.744007     0.736364     0.728721     0.721077
      0.713434     0.705791     0.698148     0.690505     0.682862     0.675219     0.667576     0.659933     0.652290     0.644646
      0.637003     0.629360     0.621717     0.614074     0.606431     0.598788     0.591145     0.583502     0.575858     0.568215
      0.560572     0.552929     0.545286     0.537643     0.530000     0.522357     0.514714     0.507071     0.499427     0.491784
      0.484141     0.476498     0.468855     0.461212     0.453569     0.445925     0.438282     0.430639     0.422996     0.415353
      0.407710     0.400067     0.392424     0.384780     0.377137     0.369494     0.361851     0.354208     0.346565     0.338922
      0.331278     0.323635     0.315992     0.308349     0.300706     0.293063     0.285420     0.277777     0.270133     0.262490
      0.254847     0.247204     0.239561     0.231918     0.224275     0.216631     0.208988     0.201345
 NY phased data points follow
  -2.25161E+00 -2.69709E+00 -1.67837E+00 -7.08862E-01 -2.20191E+00  1.93329E+00 -4.05710E+00 -1.25385E+00 -5.50065E-01 -4.69214E+00
  -3.32773E+00 -2.15189E+00 -1.80411E+00 -1.30727E+00 -3.38616E+00 -3.94739E+00 -1.19409E+00  2.33324E+00  9.10366E-01 -1.17341E+00
  -1.20417E+00 -9.11156E-01 -2.82697E+00  6.35597E-01 -6.42182E-01 -1.00879E+00 -1.46175E+00  6.89081E-01 -8.15698E-01 -3.04252E+00
   4.75337E-01 -1.01366E+00 -3.00171E+00 -1.32022E-01 -8.84154E-01 -1.15412E-01 -5.41214E-01 -2.29835E+00 -1.37069E+00 -5.73030E-01
  -4.41729E+00 -2.45268E+00 -2.24492E+00 -4.39606E-01 -2.21401E+00 -2.54990E+00 -3.57179E+00 -3.24207E+00 -3.17496E+00 -1.46043E+00
  -1.93500E+00 -1.05115E+00 -5.92304E-01 -2.28807E+00 -9.89460E-01 -7.83018E-01 -7.07373E+00 -3.36236E+00  5.32543E-01 -2.88064E+00
  -1.64035E+00 -1.83449E+00  1.14279E-01 -1.60302E+00 -1.56849E+00 -3.82002E+00 -5.64800E-01 -2.79827E+00 -2.61785E+00 -1.14996E+00
  -3.42537E+00 -1.81268E+00 -2.20449E+00 -1.54106E+00  6.14008E-01 -1.62817E+00 -7.06115E-01 -2.47902E+00 -2.68696E+00 -7.00822E-01
  -1.67443E+00 -5.92664E-01 -3.88938E+00 -1.40389E+00 -4.87899E+00 -3.07857E+00 -2.55941E+00 -4.61347E+00 -1.72536E+00 -3.67659E+00
  -2.72422E+00 -4.49048E+00 -4.17744E+00 -1.45538E+00 -1.37834E+00 -3.11749E+00 -2.59388E+00 -3.93008E+00 -7.88937E+00 -8.38351E+00
  -6.10966E+00 -4.04071E+00 -7.05228E+00 -3.69063E+00 -2.02833E+00 -1.46449E+00  1.59812E+00  2.92892E+00 -5.64393E-01  8.36883E-01
  -2.59418E+00  8.56414E-01 -1.23247E+00  4.19837E-02 -2.01353E+00  1.98586E-01 -4.54432E+00 -4.42872E+00 -2.73254E+00 -2.32574E+00
  -2.25034E+00 -4.91119E+00 -4.39025E+00 -5.21908E+00 -4.10319E+00 -6.03422E+00 -7.00201E+00 -3.36448E+00 -9.86750E-01  3.84241E+00
   3.04430E+00  4.94381E+00  5.43310E+00  2.52776E+00  5.63598E+00  1.87860E+00  2.04055E+00  2.41775E+00  1.17566E+00 -4.27950E-01
  -1.32988E+00  8.92410E-01 -1.48016E+00  5.18721E-01  2.44598E-01  1.01346E+00  5.35103E-01 -1.69879E+00 -1.26168E+00 -1.37177E-01
   2.62878E+00  1.32910E-01 -3.10029E-01  1.61054E+00  1.41517E+00  1.87942E+00  1.16459E+00 -4.73910E-01  3.96519E-01 -7.79546E-01
  -1.64545E+00  3.04308E+00 -3.73421E-02  1.49416E+00 -2.28375E-01  1.14751E+00  3.60463E+00  2.10591E-01  1.44439E+00  1.23618E+00
  -4.82634E-02 -7.61049E-01 -3.60575E+00 -2.04973E+00 -3.17517E+00 -2.30716E+00 -4.80554E+00 -3.27801E+00 -3.66541E+00 -5.26281E+00
  -3.39746E+00 -5.36716E+00 -4.71812E+00 -5.50356E+00 -5.91890E+00 -2.76594E+00 -2.25499E+00 -2.89904E+00 -4.95658E+00 -1.91642E+00
  -4.53389E+00 -4.38833E+00 -2.31693E+00 -1.19490E+00 -2.72869E-01 -6.33111E+00 -1.80423E+00 -5.63153E+00 -5.86065E+00 -6.38693E+00
  -9.83623E+00 -4.52468E+00 -5.46157E+00 -6.30669E+00 -4.26829E+00 -1.60655E+00 -1.81371E+00 -3.67843E+00 -3.84755E+00 -3.89994E+00
  -5.37560E+00 -6.47775E+00 -3.39683E+00 -5.08391E+00 -2.26304E-01  5.16218E-01 -5.70240E-01  1.81001E+00  1.78294E+00 -1.15775E+00
  -2.46231E+00 -3.95604E+00 -3.27551E+00 -5.08719E+00 -5.23459E+00 -1.86662E+00 -1.41761E+00  6.80403E-01 -1.55994E-01  6.59905E-01
  -1.76017E+00 -1.43436E+00 -1.78608E+00 -1.68720E+00 -2.12368E+00 -1.86428E+00 -5.32483E-01 -4.38202E-01 -4.35367E-01 -2.34111E+00
  -1.65440E+00 -3.05639E+00 -4.09650E+00 -6.64393E-01 -1.81126E+00  8.50182E-01  2.56395E+00  1.33279E+00  8.04460E-01 -7.45436E-01
   3.01551E+00  4.65724E+00  4.68129E+00  1.09823E+01  9.02949E+00  1.12233E+01  1.25254E+01  1.73014E+01  2.15886E+01  2.97170E+01
   3.13637E+01  2.59236E+01  1.68537E+01  7.52730E+00  2.92598E+00 -1.41285E+00 -3.96062E+00 -4.55995E+00 -6.23878E+00 -7.11409E+00
  -6.77715E+00 -7.42224E+00 -4.98889E+00 -6.76997E+00 -5.08197E+00 -5.64510E+00 -3.38665E+00 -5.27413E+00 -5.56332E+00 -5.08562E+00
  -5.58228E+00 -3.26573E+00 -6.36716E+00 -6.70367E+00 -4.67176E+00 -4.78432E+00 -6.52847E+00 -4.72641E+00 -4.62012E+00 -5.19845E+00
  -4.05711E+00 -8.28204E+00 -6.84632E+00 -3.41768E+00 -3.94496E+00 -5.97765E+00 -4.90730E+00 -5.35109E+00 -3.73036E+00 -5.25617E+00
  -3.48077E+00 -6.39066E+00 -4.20899E+00 -3.06948E+00 -6.02816E+00 -4.14331E+00 -5.46812E+00 -3.45850E+00 -4.64430E+00 -7.15797E+00
  -5.32186E+00 -2.74021E+00 -5.25272E+00 -6.84583E+00 -6.00273E+00 -5.10417E+00 -5.67232E+00 -3.75727E+00 -1.69061E+00 -3.19934E+00
  -3.47696E+00 -6.03109E-01 -1.39510E+00 -3.79632E+00 -4.83863E+00 -4.05230E+00 -2.70714E-01 -5.12228E+00 -1.25818E+00 -3.82434E+00
  -1.00799E+00 -2.13906E+00  1.92455E-01  3.08742E+00  2.00755E+00  2.77521E+00  3.13330E+00  6.77090E+00  5.60355E+00  5.53926E+00
   7.41287E+00  6.30188E+00  7.73131E+00  8.08310E+00  9.79398E+00  8.45879E+00  9.88377E+00  1.32738E+01  1.30633E+01  1.32026E+01
   1.50370E+01  1.57967E+01  1.47113E+01  1.38611E+01  1.43050E+01  1.38290E+01  1.59769E+01  1.57928E+01  1.48538E+01  1.28554E+01
   1.15574E+01  1.35822E+01  1.16248E+01  1.09764E+01  1.15233E+01  1.00087E+01  1.08593E+01  1.06577E+01  8.70574E+00  6.94284E+00
   9.01937E+00  7.79366E+00  4.68674E+00  8.69703E+00  4.27242E+00  6.28240E+00  7.96795E+00  7.80425E+00  7.29426E+00  8.00493E+00
   5.61501E+00  8.20718E+00  5.09752E+00  7.41305E+00  5.67672E+00  1.07442E+01  7.62105E+00  9.44325E+00  1.03245E+01  7.99216E+00
   7.18640E+00  7.40549E+00  6.09009E+00  7.81512E+00  6.03581E+00  6.37232E+00  6.77515E+00  4.98791E+00  5.76035E+00  3.20132E+00
   4.73481E+00  2.15173E+00  5.39575E+00  1.50812E+00  6.72740E-01  1.99210E+00  2.86624E+00 -2.73167E-01  1.28102E+00  5.17478E-01
   2.15353E-01  1.55867E+00 -5.43629E-01 -1.49211E+00 -1.53463E-02 -8.47407E-01 -5.56923E-01  4.82019E-01 -7.63973E-01 -2.92737E+00
   2.88429E+00  1.47589E-01  2.61245E+00 -8.03507E-01  9.61601E-01  5.73735E-01  5.59856E-01 -1.86321E+00 -1.24693E+00 -1.49404E+00
  -4.47718E-01  1.28007E+00 -1.41416E+00 -2.10460E+00  4.83973E-01 -4.40636E+00 -2.27093E+00 -2.53182E+00 -1.71767E+00 -1.76103E+00
  -2.27168E+00 -1.45537E+00 -1.98561E+00 -3.71880E-01 -1.17392E+00 -2.79236E+00 -4.63471E+00 -2.92561E+00 -3.66976E+00 -7.22431E+00
  -5.11892E+00 -3.26684E+00 -3.50247E+00 -2.97109E+00 -3.92507E+00 -2.38245E+00 -5.55821E+00 -3.30855E+00 -2.29984E+00 -2.37459E+00
  -3.78857E+00 -5.03423E+00 -1.81119E+00 -4.58935E+00 -4.90304E+00 -5.25937E+00 -3.94993E+00 -5.06865E+00 -5.66008E+00 -4.64960E+00
  -1.86080E+00 -2.46229E+00 -2.17824E+00 -5.15421E+00 -6.64045E+00 -6.74590E+00 -5.42405E+00 -5.56066E+00 -4.04529E+00 -3.80201E+00
  -2.32711E+00 -3.39914E+00 -5.72106E+00 -2.80808E+00 -4.95597E+00 -5.40964E+00 -5.78154E+00 -5.49208E+00 -7.75911E+00 -5.45686E+00
  -2.74227E+00 -5.69294E+00 -4.46080E+00 -4.77146E+00 -2.77324E+00 -2.46948E+00 -7.43630E+00 -3.12289E+00
 NY points of the fit to the data follow
  -1.40341E+00 -1.46838E+00 -1.49745E+00 -1.49136E+00 -1.36153E+00 -1.08547E+00 -1.37262E+00 -2.35546E+00 -3.25350E+00 -3.78065E+00
  -3.24154E+00 -1.58643E+00  3.06946E-02  5.94042E-01  6.92588E-02 -5.69289E-01 -1.22626E+00 -1.72358E+00 -1.79384E+00 -1.76155E+00
  -1.69634E+00 -1.63215E+00 -1.58705E+00 -1.47235E+00 -1.35248E+00 -1.39311E+00 -1.51496E+00 -1.64090E+00 -1.73014E+00 -1.52137E+00
  -9.95458E-01 -4.19632E-01 -6.62388E-02  5.83319E-02 -4.92107E-02 -5.97031E-01 -1.38948E+00 -2.05172E+00 -2.50047E+00 -2.57277E+00
  -2.35438E+00 -2.01561E+00 -1.81336E+00 -1.82277E+00 -1.85265E+00 -1.80712E+00 -1.63505E+00 -1.37998E+00 -1.22211E+00 -1.29939E+00
  -1.58618E+00 -1.92064E+00 -2.15564E+00 -2.25380E+00 -2.25878E+00 -2.22705E+00 -2.20612E+00 -2.19582E+00 -2.14833E+00 -2.05467E+00
  -1.95530E+00 -1.91775E+00 -1.98577E+00 -2.11697E+00 -2.26216E+00 -2.37195E+00 -2.41155E+00 -2.41229E+00 -2.38430E+00 -2.34651E+00
  -2.31188E+00 -2.26708E+00 -2.22629E+00 -2.18831E+00 -2.16587E+00 -2.15583E+00 -2.15202E+00 -2.17617E+00 -2.21878E+00 -2.27452E+00
  -2.33556E+00 -2.39553E+00 -2.44009E+00 -2.47020E+00 -2.51255E+00 -2.58943E+00 -2.70906E+00 -2.84503E+00 -2.95586E+00 -3.00484E+00
  -2.98474E+00 -2.92667E+00 -2.85757E+00 -2.79285E+00 -2.74290E+00 -2.72111E+00 -2.73331E+00 -2.78638E+00 -2.86789E+00 -3.03494E+00
  -3.34404E+00 -3.31508E+00 -2.65973E+00 -1.54686E+00 -1.46909E-01  7.57193E-01  6.30460E-01 -3.44999E-01 -1.50260E+00 -2.27750E+00
  -2.82384E+00 -2.97469E+00 -2.97291E+00 -2.98133E+00 -2.99185E+00 -3.00106E+00 -3.01136E+00 -3.02670E+00 -3.04602E+00 -3.07341E+00
  -3.10559E+00 -3.12792E+00 -3.14086E+00 -3.20962E+00 -3.57268E+00 -3.81624E+00 -3.07924E+00 -1.39365E+00  9.76821E-01  3.15818E+00
   3.84211E+00  2.85811E+00  1.02609E+00 -4.64318E-01 -1.52614E+00 -2.22845E+00 -2.44617E+00 -2.55105E+00 -2.48048E+00 -2.22708E+00
  -1.85830E+00 -1.46472E+00 -1.14941E+00 -9.29666E-01 -7.81608E-01 -6.68266E-01 -5.27977E-01 -3.80297E-01 -2.06301E-01 -1.70439E-02
   1.31371E-01  1.92876E-01  1.70838E-01  7.71853E-02  1.18207E-02  1.32919E-01  3.69967E-01  4.89564E-01  3.56616E-01 -1.07124E-01
  -6.93438E-01 -1.01115E+00 -9.87846E-01 -7.76504E-01 -7.09159E-01 -9.52116E-01 -1.51510E+00 -2.19642E+00 -2.70697E+00 -3.03794E+00
  -3.10876E+00 -3.03306E+00 -3.18793E+00 -3.59903E+00 -4.12317E+00 -4.50246E+00 -4.50575E+00 -4.25977E+00 -4.06893E+00 -4.21692E+00
  -4.56349E+00 -4.72596E+00 -4.73661E+00 -4.63687E+00 -4.57387E+00 -4.59404E+00 -4.59261E+00 -4.36930E+00 -3.86787E+00 -3.31495E+00
  -2.92377E+00 -2.75119E+00 -2.75040E+00 -2.88882E+00 -3.08754E+00 -3.29635E+00 -3.50178E+00 -3.79467E+00 -4.07417E+00 -4.14222E+00
  -3.94737E+00 -3.66969E+00 -3.27905E+00 -2.86297E+00 -2.69585E+00 -2.78355E+00 -3.04638E+00 -3.39225E+00 -3.82229E+00 -4.31834E+00
  -4.76950E+00 -5.14741E+00 -5.11142E+00 -4.23309E+00 -2.80803E+00 -1.18782E+00 -1.54266E-02  3.44479E-01 -6.30688E-02 -1.09646E+00
  -2.28185E+00 -3.37220E+00 -3.99554E+00 -3.76309E+00 -2.71833E+00 -1.29436E+00 -5.05650E-02  7.08797E-01  9.66319E-01  7.64586E-01
   2.26171E-01 -3.42716E-01 -7.46018E-01 -8.59398E-01 -7.29091E-01 -5.09613E-01 -3.58625E-01 -3.96531E-01 -6.49285E-01 -1.10135E+00
  -1.66465E+00 -2.08040E+00 -2.09139E+00 -1.59406E+00 -6.89880E-01  4.05438E-01  1.41798E+00  2.11126E+00  2.49250E+00  2.55097E+00
   2.09319E+00  1.46589E+00  2.39122E+00  5.10958E+00  8.06577E+00  1.01649E+01  1.30741E+01  1.69823E+01  2.17189E+01  2.79222E+01
   3.02383E+01  2.58796E+01  1.75306E+01  9.53827E+00  4.36914E+00  4.42225E-01 -6.19142E-01 -1.27373E+00 -1.88868E+00 -2.41280E+00
  -2.83251E+00 -3.09524E+00 -3.25646E+00 -3.34051E+00 -3.41206E+00 -3.52949E+00 -3.71779E+00 -3.91994E+00 -4.08199E+00 -4.17561E+00
  -4.21468E+00 -4.20261E+00 -4.14651E+00 -4.08337E+00 -4.04263E+00 -4.03287E+00 -4.05237E+00 -4.09791E+00 -4.15394E+00 -4.18737E+00
  -4.18229E+00 -4.13124E+00 -4.05424E+00 -3.98070E+00 -3.93319E+00 -3.91339E+00 -3.91722E+00 -3.93762E+00 -3.95951E+00 -3.96461E+00
  -3.94349E+00 -3.89932E+00 -3.84621E+00 -3.79335E+00 -3.74131E+00 -3.69661E+00 -3.65209E+00 -3.60552E+00 -3.55546E+00 -3.50102E+00
  -3.44193E+00 -3.37807E+00 -3.30909E+00 -3.23470E+00 -3.15441E+00 -3.06749E+00 -2.97289E+00 -2.86963E+00 -2.75642E+00 -2.63217E+00
  -2.49602E+00 -2.34690E+00 -2.18327E+00 -2.00259E+00 -1.80249E+00 -1.58162E+00 -1.33847E+00 -1.07159E+00 -7.78530E-01 -4.55379E-01
  -9.84121E-02  2.95464E-01  7.28968E-01  1.20473E+00  1.72508E+00  2.29121E+00  2.90270E+00  3.55806E+00  4.25564E+00  4.99374E+00
   5.76902E+00  6.57610E+00  7.40805E+00  8.25551E+00  9.10799E+00  9.95383E+00  1.07804E+01  1.15740E+01  1.23205E+01  1.30058E+01
   1.36168E+01  1.41415E+01  1.45696E+01  1.48926E+01  1.51044E+01  1.52020E+01  1.51852E+01  1.50569E+01  1.48230E+01  1.44915E+01
   1.40728E+01  1.35795E+01  1.30256E+01  1.24259E+01  1.17956E+01  1.11495E+01  1.05018E+01  9.86605E+00  9.25451E+00  8.67776E+00
   8.14460E+00  7.66194E+00  7.23511E+00  6.86774E+00  6.56185E+00  6.31766E+00  6.13390E+00  6.00795E+00  5.93623E+00  5.91408E+00
   5.93597E+00  5.99534E+00  6.08501E+00  6.19734E+00  6.32456E+00  6.45866E+00  6.59161E+00  6.71533E+00  6.82229E+00  6.90551E+00
   6.95902E+00  6.97757E+00  6.95694E+00  6.89393E+00  6.78672E+00  6.63479E+00  6.43895E+00  6.20098E+00  5.92366E+00  5.61057E+00
   5.26622E+00  4.89564E+00  4.50426E+00  4.09739E+00  3.68038E+00  3.25825E+00  2.83595E+00  2.41790E+00  2.00802E+00  1.60942E+00
   1.22471E+00  8.55915E-01  5.04715E-01  1.72137E-01 -1.41228E-01 -4.35399E-01 -7.10553E-01 -9.67153E-01 -1.20568E+00 -1.42698E+00
  -1.63196E+00 -1.82178E+00 -1.99737E+00 -2.15975E+00 -2.30972E+00 -2.44833E+00 -2.57652E+00 -2.69527E+00 -2.80529E+00 -2.90728E+00
  -3.00180E+00 -3.08959E+00 -3.17126E+00 -3.24741E+00 -3.31839E+00 -3.38460E+00 -3.44635E+00 -3.50415E+00 -3.55832E+00 -3.60922E+00
  -3.65693E+00 -3.70171E+00 -3.74373E+00 -3.78338E+00 -3.82079E+00 -3.85613E+00 -3.88941E+00 -3.92081E+00 -3.95045E+00 -3.97861E+00
  -4.00532E+00 -4.03065E+00 -4.05456E+00 -4.07724E+00 -4.09877E+00 -4.11934E+00 -4.13890E+00 -4.15748E+00 -4.17506E+00 -4.19181E+00
  -4.20778E+00 -4.22312E+00 -4.23770E+00 -4.25157E+00 -4.26471E+00 -4.27729E+00 -4.28934E+00 -4.30093E+00 -4.31193E+00 -4.32239E+00
  -4.33232E+00 -4.34190E+00 -4.35108E+00 -4.35991E+00 -4.36825E+00 -4.37618E+00 -4.38374E+00 -4.39107E+00 -4.39809E+00 -4.40481E+00
  -4.41113E+00 -4.41716E+00 -4.42293E+00 -4.42855E+00 -4.43389E+00 -4.43899E+00 -4.44374E+00 -4.44830E+00 -4.45268E+00 -4.45695E+00
  -4.46097E+00 -4.46477E+00 -4.46829E+00 -4.47171E+00 -4.47498E+00 -4.47817E+00 -4.48110E+00 -4.48384E+00
 NY background values follow
    -1.637E+00   -1.650E+00   -1.663E+00   -1.676E+00   -1.689E+00   -1.701E+00   -1.714E+00   -1.727E+00   -1.740E+00   -1.752E+00
    -1.765E+00   -1.778E+00   -1.791E+00   -1.803E+00   -1.816E+00   -1.829E+00   -1.842E+00   -1.855E+00   -1.867E+00   -1.880E+00
    -1.893E+00   -1.906E+00   -1.918E+00   -1.931E+00   -1.944E+00   -1.957E+00   -1.969E+00   -1.982E+00   -1.995E+00   -2.008E+00
    -2.021E+00   -2.033E+00   -2.046E+00   -2.059E+00   -2.072E+00   -2.085E+00   -2.097E+00   -2.110E+00   -2.123E+00   -2.136E+00
    -2.148E+00   -2.161E+00   -2.174E+00   -2.187E+00   -2.200E+00   -2.212E+00   -2.225E+00   -2.238E+00   -2.251E+00   -2.264E+00
    -2.276E+00   -2.289E+00   -2.302E+00   -2.315E+00   -2.328E+00   -2.341E+00   -2.353E+00   -2.366E+00   -2.379E+00   -2.392E+00
    -2.405E+00   -2.417E+00   -2.430E+00   -2.443E+00   -2.456E+00   -2.469E+00   -2.482E+00   -2.494E+00   -2.507E+00   -2.520E+00
    -2.533E+00   -2.546E+00   -2.559E+00   -2.571E+00   -2.584E+00   -2.597E+00   -2.610E+00   -2.623E+00   -2.636E+00   -2.648E+00
    -2.661E+00   -2.674E+00   -2.687E+00   -2.700E+00   -2.713E+00   -2.725E+00   -2.738E+00   -2.751E+00   -2.764E+00   -2.777E+00
    -2.790E+00   -2.802E+00   -2.815E+00   -2.828E+00   -2.841E+00   -2.854E+00   -2.867E+00   -2.879E+00   -2.892E+00   -2.905E+00
    -2.918E+00   -2.931E+00   -2.944E+00   -2.957E+00   -2.969E+00   -2.982E+00   -2.995E+00   -3.008E+00   -3.021E+00   -3.034E+00
    -3.047E+00   -3.060E+00   -3.072E+00   -3.085E+00   -3.098E+00   -3.111E+00   -3.124E+00   -3.137E+00   -3.150E+00   -3.163E+00
    -3.176E+00   -3.189E+00   -3.202E+00   -3.214E+00   -3.227E+00   -3.240E+00   -3.253E+00   -3.266E+00   -3.279E+00   -3.292E+00
    -3.305E+00   -3.318E+00   -3.331E+00   -3.344E+00   -3.357E+00   -3.370E+00   -3.383E+00   -3.396E+00   -3.409E+00   -3.423E+00
    -3.436E+00   -3.449E+00   -3.462E+00   -3.475E+00   -3.488E+00   -3.501E+00   -3.514E+00   -3.527E+00   -3.540E+00   -3.554E+00
    -3.567E+00   -3.580E+00   -3.593E+00   -3.606E+00   -3.619E+00   -3.632E+00   -3.645E+00   -3.658E+00   -3.671E+00   -3.685E+00
    -3.698E+00   -3.711E+00   -3.724E+00   -3.737E+00   -3.750E+00   -3.763E+00   -3.776E+00   -3.789E+00   -3.802E+00   -3.815E+00
    -3.828E+00   -3.841E+00   -3.854E+00   -3.867E+00   -3.880E+00   -3.893E+00   -3.906E+00   -3.919E+00   -3.931E+00   -3.944E+00
    -3.957E+00   -3.970E+00   -3.983E+00   -3.995E+00   -4.008E+00   -4.021E+00   -4.034E+00   -4.046E+00   -4.059E+00   -4.072E+00
    -4.084E+00   -4.097E+00   -4.109E+00   -4.122E+00   -4.134E+00   -4.147E+00   -4.159E+00   -4.172E+00   -4.184E+00   -4.196E+00
    -4.208E+00   -4.221E+00   -4.233E+00   -4.245E+00   -4.257E+00   -4.269E+00   -4.281E+00   -4.293E+00   -4.305E+00   -4.317E+00
    -4.329E+00   -4.340E+00   -4.352E+00   -4.364E+00   -4.375E+00   -4.387E+00   -4.398E+00   -4.410E+00   -4.421E+00   -4.433E+00
    -4.444E+00   -4.455E+00   -4.466E+00   -4.477E+00   -4.488E+00   -4.499E+00   -4.510E+00   -4.521E+00   -4.531E+00   -4.542E+00
    -4.553E+00   -4.563E+00   -4.574E+00   -4.584E+00   -4.594E+00   -4.605E+00   -4.615E+00   -4.625E+00   -4.635E+00   -4.645E+00
    -4.655E+00   -4.664E+00   -4.674E+00   -4.684E+00   -4.693E+00   -4.703E+00   -4.712E+00   -4.721E+00   -4.730E+00   -4.740E+00
    -4.749E+00   -4.757E+00   -4.766E+00   -4.775E+00   -4.784E+00   -4.792E+00   -4.801E+00   -4.809E+00   -4.818E+00   -4.826E+00
    -4.834E+00   -4.842E+00   -4.850E+00   -4.858E+00   -4.865E+00   -4.873E+00   -4.881E+00   -4.888E+00   -4.895E+00   -4.903E+00
    -4.910E+00   -4.917E+00   -4.924E+00   -4.931E+00   -4.937E+00   -4.944E+00   -4.951E+00   -4.957E+00   -4.963E+00   -4.970E+00
    -4.976E+00   -4.982E+00   -4.988E+00   -4.994E+00   -4.999E+00   -5.005E+00   -5.010E+00   -5.016E+00   -5.021E+00   -5.026E+00
    -5.032E+00   -5.037E+00   -5.042E+00   -5.046E+00   -5.051E+00   -5.056E+00   -5.060E+00   -5.065E+00   -5.069E+00   -5.073E+00
    -5.077E+00   -5.081E+00   -5.085E+00   -5.089E+00   -5.093E+00   -5.097E+00   -5.100E+00   -5.104E+00   -5.107E+00   -5.110E+00
    -5.113E+00   -5.116E+00   -5.119E+00   -5.122E+00   -5.125E+00   -5.128E+00   -5.130E+00   -5.133E+00   -5.135E+00   -5.137E+00
    -5.139E+00   -5.142E+00   -5.144E+00   -5.145E+00   -5.147E+00   -5.149E+00   -5.151E+00   -5.152E+00   -5.154E+00   -5.155E+00
    -5.156E+00   -5.158E+00   -5.159E+00   -5.160E+00   -5.161E+00   -5.162E+00   -5.162E+00   -5.163E+00   -5.164E+00   -5.164E+00
    -5.165E+00   -5.165E+00   -5.166E+00   -5.166E+00   -5.166E+00   -5.166E+00   -5.166E+00   -5.166E+00   -5.166E+00   -5.166E+00
    -5.166E+00   -5.166E+00   -5.165E+00   -5.165E+00   -5.164E+00   -5.164E+00   -5.163E+00   -5.162E+00   -5.162E+00   -5.161E+00
    -5.160E+00   -5.159E+00   -5.158E+00   -5.157E+00   -5.156E+00   -5.155E+00   -5.154E+00   -5.153E+00   -5.151E+00   -5.150E+00
    -5.149E+00   -5.147E+00   -5.146E+00   -5.144E+00   -5.143E+00   -5.141E+00   -5.139E+00   -5.138E+00   -5.136E+00   -5.134E+00
    -5.132E+00   -5.130E+00   -5.128E+00   -5.127E+00   -5.125E+00   -5.123E+00   -5.120E+00   -5.118E+00   -5.116E+00   -5.114E+00
    -5.112E+00   -5.110E+00   -5.107E+00   -5.105E+00   -5.103E+00   -5.100E+00   -5.098E+00   -5.096E+00   -5.093E+00   -5.091E+00
    -5.088E+00   -5.086E+00   -5.083E+00   -5.081E+00   -5.078E+00   -5.076E+00   -5.073E+00   -5.070E+00   -5.068E+00   -5.065E+00
    -5.062E+00   -5.060E+00   -5.057E+00   -5.054E+00   -5.052E+00   -5.049E+00   -5.046E+00   -5.043E+00   -5.040E+00   -5.038E+00
    -5.035E+00   -5.032E+00   -5.029E+00   -5.026E+00   -5.024E+00   -5.021E+00   -5.018E+00   -5.015E+00   -5.012E+00   -5.009E+00
    -5.006E+00   -5.003E+00   -5.000E+00   -4.998E+00   -4.995E+00   -4.992E+00   -4.989E+00   -4.986E+00   -4.983E+00   -4.980E+00
    -4.977E+00   -4.974E+00   -4.971E+00   -4.968E+00   -4.965E+00   -4.962E+00   -4.960E+00   -4.957E+00   -4.954E+00   -4.951E+00
    -4.948E+00   -4.945E+00   -4.942E+00   -4.939E+00   -4.936E+00   -4.933E+00   -4.931E+00   -4.928E+00   -4.925E+00   -4.922E+00
    -4.919E+00   -4.916E+00   -4.913E+00   -4.910E+00   -4.908E+00   -4.905E+00   -4.902E+00   -4.899E+00   -4.896E+00   -4.893E+00
    -4.891E+00   -4.888E+00   -4.885E+00   -4.882E+00   -4.879E+00   -4.877E+00   -4.874E+00   -4.871E+00   -4.868E+00   -4.865E+00
    -4.862E+00   -4.860E+00   -4.857E+00   -4.854E+00   -4.851E+00   -4.848E+00   -4.846E+00   -4.843E+00   -4.840E+00   -4.837E+00
    -4.834E+00   -4.832E+00   -4.829E+00   -4.826E+00   -4.823E+00   -4.820E+00   -4.817E+00   -4.815E+00
 Ala      Conc. = 2.07E-01
