 LCModel (Version 6.3-1L) Copyright: S.W. Provencher.          Ref.: Magn. Reson. Med. 30:672-679 (1993).                
 Slice#2 Row#11 Col#12  K_02_press_1_raw_act
 36 lines in following concentration table = NCONC+1
    Conc.  %SD /Cr+PCr  Metabolite                                         
    0.000 999%   0.000 Ala                                                 
   93.804  85%   0.205 Asp                                                 
    0.000 999%   0.000 Cr                                                  
  457.372   8%   1.000 PCr                                                 
   40.629 119% 8.9E-02 GABA                                                
   20.711 233% 4.5E-02 Glc                                                 
    0.000 999%   0.000 Gln                                                 
  451.337  32%   0.987 Glu                                                 
    0.000 999%   0.000 GPC                                                 
   74.032  16%   0.162 PCh                                                 
    0.000 999%   0.000 GSH                                                 
  155.729  85%   0.340 Ins                                                 
    0.000 999%   0.000 Lac                                                 
   69.983  96%   0.153 NAA                                                 
  798.365   8%   1.746 NAAG                                                
    0.000 999%   0.000 Scyllo                                              
   60.579 125%   0.132 Tau                                                 
  333.202  16%   0.729 -CrCH2                                              
   74.032  16%   0.162 GPC+PCh                                             
  868.348   8%   1.899 NAA+NAAG                                            
  457.372   8%   1.000 Cr+PCr                                              
  451.337  32%   0.987 Glu+Gln                                             
 1.51E+04  10%  32.942 Lip13a                                              
    0.000 999%   0.000 Lip13b                                              
 4.40E+03  12%   9.611 Lip09                                               
    0.000 999%   0.000 MM09                                                
 2.95E+03  13%   6.452 Lip20                                               
  189.446 208%   0.414 MM20                                                
    0.000 999%   0.000 MM12                                                
 6.75E+03  14%  14.754 MM14                                                
    0.000 999%   0.000 MM17                                                
 1.51E+04  10%  32.942 Lip13a+Lip13b                                       
 2.18E+04   5%  47.696 MM14+Lip13a+Lip13b+MM12                             
 4.40E+03  12%   9.611 MM09+Lip09                                          
 3.14E+03  10%   6.867 MM20+Lip20                                          
   6 lines in following misc. output table
  FWHM = 0.054 ppm    S/N =  12                                            
  Data shift = 0.008 ppm                                                   
  Ph: 155 deg      66.2 deg/ppm                                            
  alphaB,S = 8.5E+01,   6.7E+01                                            
   14 spline knots.   Ns = 6(1)                                            
  ( 7) 2 infls.   ( 5) 1 extrs.                                            
  498 points on ppm-axis = NY
      4.000000     3.992357     3.984714     3.977070     3.969427     3.961784     3.954141     3.946497     3.938854     3.931211
      3.923568     3.915925     3.908281     3.900638     3.892995     3.885352     3.877708     3.870065     3.862422     3.854779
      3.847136     3.839492     3.831849     3.824206     3.816563     3.808919     3.801276     3.793633     3.785990     3.778347
      3.770703     3.763060     3.755417     3.747774     3.740130     3.732487     3.724844     3.717201     3.709558     3.701914
      3.694271     3.686628     3.678985     3.671341     3.663698     3.656055     3.648412     3.640769     3.633125     3.625482
      3.617839     3.610196     3.602552     3.594909     3.587266     3.579623     3.571980     3.564336     3.556693     3.549050
      3.541407     3.533763     3.526120     3.518477     3.510834     3.503191     3.495547     3.487904     3.480261     3.472618
      3.464974     3.457331     3.449688     3.442045     3.434402     3.426758     3.419115     3.411472     3.403829     3.396185
      3.388542     3.380899     3.373256     3.365613     3.357969     3.350326     3.342683     3.335040     3.327396     3.319753
      3.312110     3.304467     3.296824     3.289180     3.281537     3.273894     3.266251     3.258607     3.250964     3.243321
      3.235678     3.228034     3.220391     3.212748     3.205105     3.197462     3.189818     3.182175     3.174532     3.166889
      3.159245     3.151602     3.143959     3.136316     3.128673     3.121029     3.113386     3.105743     3.098100     3.090456
      3.082813     3.075170     3.067527     3.059884     3.052240     3.044597     3.036954     3.029311     3.021667     3.014024
      3.006381     2.998738     2.991095     2.983451     2.975808     2.968165     2.960522     2.952878     2.945235     2.937592
      2.929949     2.922306     2.914662     2.907019     2.899376     2.891733     2.884089     2.876446     2.868803     2.861160
      2.853517     2.845873     2.838230     2.830587     2.822944     2.815300     2.807657     2.800014     2.792371     2.784728
      2.777084     2.769441     2.761798     2.754155     2.746511     2.738868     2.731225     2.723582     2.715939     2.708295
      2.700652     2.693009     2.685366     2.677722     2.670079     2.662436     2.654793     2.647150     2.639506     2.631863
      2.624220     2.616577     2.608933     2.601290     2.593647     2.586004     2.578361     2.570717     2.563074     2.555431
      2.547788     2.540144     2.532501     2.524858     2.517215     2.509572     2.501928     2.494285     2.486642     2.478999
      2.471355     2.463712     2.456069     2.448426     2.440783     2.433139     2.425496     2.417853     2.410210     2.402566
      2.394923     2.387280     2.379637     2.371994     2.364350     2.356707     2.349064     2.341421     2.333777     2.326134
      2.318491     2.310848     2.303205     2.295561     2.287918     2.280275     2.272632     2.264988     2.257345     2.249702
      2.242059     2.234416     2.226772     2.219129     2.211486     2.203843     2.196199     2.188556     2.180913     2.173270
      2.165627     2.157983     2.150340     2.142697     2.135054     2.127410     2.119767     2.112124     2.104481     2.096838
      2.089194     2.081551     2.073908     2.066265     2.058621     2.050978     2.043335     2.035692     2.028049     2.020405
      2.012762     2.005119     1.997476     1.989833     1.982190     1.974546     1.966903     1.959260     1.951617     1.943974
      1.936331     1.928688     1.921045     1.913402     1.905759     1.898115     1.890472     1.882829     1.875186     1.867543
      1.859900     1.852257     1.844614     1.836971     1.829327     1.821684     1.814041     1.806398     1.798755     1.791112
      1.783469     1.775826     1.768183     1.760540     1.752896     1.745253     1.737610     1.729967     1.722324     1.714681
      1.707038     1.699395     1.691752     1.684108     1.676465     1.668822     1.661179     1.653536     1.645893     1.638250
      1.630607     1.622964     1.615321     1.607677     1.600034     1.592391     1.584748     1.577105     1.569462     1.561819
      1.554176     1.546533     1.538890     1.531246     1.523603     1.515960     1.508317     1.500674     1.493031     1.485388
      1.477745     1.470102     1.462458     1.454815     1.447172     1.439529     1.431886     1.424243     1.416600     1.408957
      1.401314     1.393671     1.386027     1.378384     1.370741     1.363098     1.355455     1.347812     1.340169     1.332526
      1.324883     1.317240     1.309596     1.301953     1.294310     1.286667     1.279024     1.271381     1.263738     1.256095
      1.248452     1.240808     1.233165     1.225522     1.217879     1.210236     1.202593     1.194950     1.187307     1.179664
      1.172021     1.164377     1.156734     1.149091     1.141448     1.133805     1.126162     1.118519     1.110876     1.103233
      1.095590     1.087946     1.080303     1.072660     1.065017     1.057374     1.049731     1.042088     1.034445     1.026802
      1.019158     1.011515     1.003872     0.996229     0.988586     0.980943     0.973300     0.965657     0.958014     0.950371
      0.942727     0.935084     0.927441     0.919798     0.912155     0.904512     0.896869     0.889226     0.881583     0.873940
      0.866296     0.858653     0.851010     0.843367     0.835724     0.828081     0.820438     0.812795     0.805152     0.797508
      0.789865     0.782222     0.774579     0.766936     0.759293     0.751650     0.744007     0.736364     0.728721     0.721077
      0.713434     0.705791     0.698148     0.690505     0.682862     0.675219     0.667576     0.659933     0.652290     0.644646
      0.637003     0.629360     0.621717     0.614074     0.606431     0.598788     0.591145     0.583502     0.575858     0.568215
      0.560572     0.552929     0.545286     0.537643     0.530000     0.522357     0.514714     0.507071     0.499427     0.491784
      0.484141     0.476498     0.468855     0.461212     0.453569     0.445925     0.438282     0.430639     0.422996     0.415353
      0.407710     0.400067     0.392424     0.384780     0.377137     0.369494     0.361851     0.354208     0.346565     0.338922
      0.331278     0.323635     0.315992     0.308349     0.300706     0.293063     0.285420     0.277777     0.270133     0.262490
      0.254847     0.247204     0.239561     0.231918     0.224275     0.216631     0.208988     0.201345
 NY phased data points follow
   4.49700E+00  7.98039E+00  3.57112E+00  1.86565E+00  6.15497E+00  2.93836E+00  5.61023E+00  5.87437E+00  5.12689E+00  6.24974E+00
   4.51056E+00  3.45989E+00  4.28482E+00  5.79639E+00  7.02472E+00  2.92301E+00  2.71135E+00  4.64230E+00  4.53969E+00  1.27030E+00
   4.14102E+00  2.23008E+00  3.04079E+00  2.11625E-01  4.66469E+00  1.23882E+00  3.55863E+00  1.89396E+00  2.77169E+00  1.96240E+00
   3.25579E+00  3.41428E+00  2.35264E+00  1.73139E+00  1.44618E+00  2.73576E+00  5.04282E+00  6.78526E-01  3.40092E+00  1.33225E+00
   5.69103E+00  1.40419E+00  2.21413E+00  3.77042E+00  1.88675E+00  2.57622E+00  5.86651E+00  7.47897E+00  4.41707E+00  5.05044E+00
   2.42832E+00  3.87548E+00  4.62273E+00  2.61684E+00  4.71116E+00  4.78495E+00  1.15746E+00  5.40396E+00  3.22972E+00  4.80195E+00
   2.49189E+00  2.07390E+00  5.20769E-01  3.20012E+00  1.63536E+00  1.26426E-01  3.17093E+00  3.26757E+00 -1.35590E+00  1.58140E+00
   1.73922E-01  3.43652E+00 -1.54779E+00 -2.22097E+00 -7.83711E-02  6.08639E-01 -1.10887E-01 -1.53410E+00  2.49513E+00  2.11239E-01
   1.83224E+00 -2.38929E+00 -1.76538E+00  1.06184E-01  4.00461E-01  1.65725E+00  1.30375E-01  2.65907E-01 -1.67446E+00 -2.27484E-01
   1.57536E+00  7.57538E-03  8.10234E-02 -7.09561E-02 -2.08401E+00 -2.34405E-02 -9.35372E-01 -4.26255E-01  4.40643E+00  1.24593E+00
   2.28792E+00  3.53303E+00  6.52324E+00  7.50507E+00  9.67990E+00  5.42873E+00  6.95054E+00  5.17561E+00  2.66129E+00  4.60928E+00
   4.31355E+00 -2.50597E-01  9.66474E-01 -4.28875E-01 -1.14046E+00 -1.09288E+00  4.37454E-01 -2.11399E+00  3.79550E-01  7.04495E-01
   1.16058E+00  1.70922E+00 -3.47354E-02  3.57381E-02  2.08600E+00  4.02089E+00  1.12039E+01  1.22095E+01  1.39119E+01  1.49767E+01
   1.25252E+01  1.10499E+01  7.29397E+00  3.02617E+00  6.45957E+00  2.72203E+00  1.75733E-01 -8.87969E-01  3.79897E-01 -3.88893E-01
  -8.42071E-01 -1.18363E+00 -5.83054E-01 -4.76383E-01  7.41759E-02 -2.67888E+00 -1.32478E+00  4.36457E-01 -2.20231E+00 -3.03561E+00
  -1.58892E+00 -2.61753E-01 -3.36048E+00 -7.95101E-01 -3.64551E+00 -4.39370E+00 -8.28299E-01 -3.10718E+00 -3.18215E+00 -2.48424E+00
  -5.60278E+00 -3.46230E+00 -4.15865E+00 -2.22378E+00 -4.85257E+00 -6.70571E+00 -3.99157E+00 -4.68977E+00 -6.94601E+00 -6.96233E+00
  -7.96421E+00 -8.01641E+00 -8.12341E+00 -9.65658E+00 -1.13319E+01 -8.97252E+00 -1.27571E+01 -1.09328E+01 -9.90351E+00 -1.22135E+01
  -1.07764E+01 -1.05995E+01 -9.13146E+00 -5.64860E+00 -8.40291E+00 -1.01891E+01 -9.35094E+00 -8.33459E+00 -9.43730E+00 -9.03185E+00
  -8.29272E+00 -4.24176E+00 -6.06656E+00 -5.87968E+00 -7.11210E+00 -1.02759E+01 -7.29335E+00 -1.16302E+01 -1.49496E+01 -8.16037E+00
  -9.48456E+00 -8.45285E+00 -6.33529E+00 -4.29081E+00 -6.23644E+00 -5.58772E+00 -6.46446E+00 -6.15456E+00 -7.04258E+00 -9.74639E+00
  -6.64426E+00 -8.62396E+00 -2.91447E+00 -3.54319E+00 -1.14575E+00 -3.80880E-01 -1.54849E-01 -4.31980E+00 -5.36229E+00 -6.57484E+00
  -7.01280E+00 -7.94631E+00 -7.72730E+00 -7.39327E+00 -6.54079E+00 -5.83870E+00 -4.71449E+00 -1.30933E+00 -4.51081E+00 -3.84734E+00
  -4.32672E+00 -4.58130E+00 -6.98401E+00 -7.08729E+00 -3.47084E+00 -4.53955E+00 -4.60601E+00 -3.82442E+00 -6.52946E+00 -3.64516E+00
  -4.46256E+00 -7.85836E+00 -5.36086E+00 -3.23685E+00  6.74272E-01 -1.74823E+00 -2.22355E+00 -2.61131E+00 -1.52794E+00  1.55086E+00
  -2.68845E-01  3.84362E+00  5.81843E+00  8.05544E+00  5.40965E+00  9.69046E+00  1.23683E+01  1.80071E+01  2.55605E+01  3.09983E+01
   2.99386E+01  2.47520E+01  1.78094E+01  9.63783E+00  4.95521E+00  3.28092E-01 -6.10116E+00 -8.57311E+00 -1.05049E+01 -1.15632E+01
  -1.45600E+01 -1.33754E+01 -1.17071E+01 -1.45788E+01 -1.46727E+01 -1.51292E+01 -1.25328E+01 -1.40161E+01 -1.52697E+01 -1.39021E+01
  -1.48609E+01 -1.25700E+01 -1.22255E+01 -1.75933E+01 -1.58775E+01 -1.39862E+01 -1.52855E+01 -1.61827E+01 -1.44799E+01 -1.55797E+01
  -1.51234E+01 -1.64486E+01 -1.80235E+01 -1.83260E+01 -1.70087E+01 -1.69262E+01 -1.70727E+01 -1.91034E+01 -1.88318E+01 -1.76579E+01
  -1.80372E+01 -1.98756E+01 -1.86326E+01 -1.85980E+01 -2.04224E+01 -1.91763E+01 -1.85102E+01 -2.13583E+01 -1.90323E+01 -1.63587E+01
  -1.96842E+01 -1.99867E+01 -2.20906E+01 -2.00234E+01 -1.93384E+01 -2.24407E+01 -1.91448E+01 -2.05868E+01 -1.74187E+01 -1.93576E+01
  -1.90238E+01 -1.54666E+01 -1.89758E+01 -1.85664E+01 -1.25743E+01 -1.16817E+01 -1.03231E+01 -8.83069E+00 -7.58302E+00 -5.32049E+00
  -4.70985E+00 -3.41452E-01  4.57154E+00  8.75174E+00  1.08263E+01  1.46769E+01  2.02487E+01  2.26638E+01  2.74587E+01  2.81407E+01
   3.27664E+01  3.61905E+01  3.80487E+01  3.94866E+01  3.95077E+01  4.35231E+01  4.59652E+01  4.66003E+01  4.88365E+01  4.83070E+01
   5.02287E+01  4.81921E+01  4.72934E+01  4.84214E+01  4.65702E+01  4.95297E+01  4.76386E+01  4.40097E+01  4.39939E+01  4.18191E+01
   4.16123E+01  4.05720E+01  4.18162E+01  3.95382E+01  3.72085E+01  4.05483E+01  4.17912E+01  3.68599E+01  3.46939E+01  3.49933E+01
   3.36655E+01  3.50409E+01  3.43647E+01  2.87557E+01  3.03109E+01  3.03097E+01  3.00209E+01  3.04857E+01  3.11593E+01  2.93252E+01
   3.00056E+01  2.69186E+01  2.95261E+01  2.72545E+01  2.83207E+01  2.68040E+01  2.99908E+01  2.93044E+01  2.88609E+01  2.64485E+01
   2.84776E+01  2.99104E+01  2.93680E+01  2.43753E+01  2.91672E+01  2.76658E+01  2.81840E+01  2.63249E+01  2.79775E+01  2.80390E+01
   2.69890E+01  2.66283E+01  2.81231E+01  2.63580E+01  2.61823E+01  2.42506E+01  2.69671E+01  2.69189E+01  2.59724E+01  2.18335E+01
   2.41673E+01  2.24172E+01  2.46219E+01  2.03282E+01  2.23957E+01  1.97766E+01  2.09422E+01  1.63058E+01  1.58088E+01  1.79534E+01
   1.64557E+01  1.86337E+01  1.77006E+01  1.65222E+01  1.50703E+01  1.62102E+01  1.63731E+01  1.59358E+01  1.69755E+01  1.63289E+01
   1.61403E+01  1.44200E+01  1.72288E+01  1.58764E+01  1.43043E+01  1.41125E+01  1.14322E+01  1.37389E+01  1.24286E+01  1.35478E+01
   1.40378E+01  1.19855E+01  1.51150E+01  1.41487E+01  1.35308E+01  1.04127E+01  1.35534E+01  1.52717E+01  9.46772E+00  1.27099E+01
   1.01742E+01  1.10719E+01  1.02666E+01  9.73103E+00  1.08119E+01  7.34781E+00  1.08673E+01  1.05679E+01  1.12831E+01  1.08196E+01
   9.86494E+00  1.10212E+01  6.63535E+00  1.21073E+01  9.98911E+00  7.57731E+00  9.16501E+00  8.52740E+00  7.97708E+00  9.60075E+00
   6.52220E+00  1.01401E+01  9.73318E+00  7.82534E+00  8.26901E+00  7.48581E+00  6.23266E+00  7.38932E+00  5.74548E+00  6.93088E+00
   8.97170E+00  7.72919E+00  6.80233E+00  6.05347E+00  5.63114E+00  1.07934E+01  9.11657E+00  4.58032E+00  5.29809E+00  7.90331E+00
   3.94022E+00  5.41644E+00  7.49586E+00  6.98819E+00  8.32415E+00  4.70922E+00  4.37143E+00  8.27688E+00
 NY points of the fit to the data follow
   5.03506E+00  5.00899E+00  4.99724E+00  5.02245E+00  5.14703E+00  5.29619E+00  5.42162E+00  5.55950E+00  5.80410E+00  6.13113E+00
   6.45715E+00  6.67856E+00  6.65664E+00  6.25377E+00  5.48885E+00  4.50678E+00  3.51327E+00  2.77907E+00  2.83329E+00  3.09631E+00
   3.28602E+00  3.42735E+00  3.54575E+00  3.65679E+00  3.72165E+00  3.70326E+00  3.59538E+00  3.44373E+00  3.31797E+00  3.32978E+00
   3.50397E+00  3.79464E+00  4.09656E+00  4.27186E+00  4.14578E+00  3.73143E+00  3.20005E+00  2.72614E+00  2.45619E+00  2.47779E+00
   2.72331E+00  3.05498E+00  3.29188E+00  3.38778E+00  3.36685E+00  3.30094E+00  3.28562E+00  3.32012E+00  3.31027E+00  3.20064E+00
   2.95874E+00  2.59822E+00  2.20154E+00  1.87601E+00  1.71088E+00  1.75771E+00  1.93391E+00  2.10579E+00  2.21799E+00  2.27615E+00
   2.29108E+00  2.27431E+00  2.20952E+00  2.09713E+00  1.95185E+00  1.79793E+00  1.67202E+00  1.61540E+00  1.61966E+00  1.66002E+00
   1.70549E+00  1.72787E+00  1.72289E+00  1.70261E+00  1.67330E+00  1.62802E+00  1.55099E+00  1.44398E+00  1.28769E+00  1.10986E+00
   9.50411E-01  8.19639E-01  7.32501E-01  7.13033E-01  7.25996E-01  7.14038E-01  6.61094E-01  5.77856E-01  4.87781E-01  4.36301E-01
   4.57360E-01  5.48106E-01  6.86628E-01  8.48668E-01  1.00113E+00  1.13041E+00  1.26410E+00  1.47052E+00  1.82528E+00  2.29995E+00
   2.87336E+00  3.59570E+00  4.50502E+00  5.48126E+00  6.29473E+00  6.67102E+00  6.34287E+00  5.17301E+00  3.29170E+00  1.12359E+00
  -8.15006E-01 -1.96493E+00 -2.03810E+00 -1.76366E+00 -1.51995E+00 -1.30512E+00 -1.09344E+00 -8.78223E-01 -6.46232E-01 -3.71583E-01
  -1.07814E-02  5.45501E-01  1.40265E+00  2.49973E+00  3.85888E+00  5.65283E+00  7.93648E+00  1.03896E+01  1.24762E+01  1.35902E+01
   1.31335E+01  1.08494E+01  7.11444E+00  2.80382E+00 -1.01076E+00 -3.12344E+00 -3.20353E+00 -2.70893E+00 -2.20759E+00 -1.74053E+00
  -1.31775E+00 -9.44740E-01 -6.25129E-01 -3.50130E-01 -1.05293E-01  1.05932E-01  2.79881E-01  4.13708E-01  4.85319E-01  4.69562E-01
   3.56476E-01  1.68718E-01 -7.50862E-02 -3.66758E-01 -6.96944E-01 -1.06696E+00 -1.45237E+00 -1.80210E+00 -2.09504E+00 -2.35384E+00
  -2.63163E+00 -2.98925E+00 -3.49491E+00 -4.17172E+00 -4.89140E+00 -5.54503E+00 -6.06700E+00 -6.43699E+00 -6.75125E+00 -7.09353E+00
  -7.42738E+00 -7.70384E+00 -7.89050E+00 -7.98169E+00 -8.02119E+00 -8.06314E+00 -8.17614E+00 -8.40399E+00 -8.73737E+00 -9.06961E+00
  -9.23237E+00 -9.25333E+00 -9.18978E+00 -9.08559E+00 -8.99667E+00 -8.82594E+00 -8.50869E+00 -8.09933E+00 -7.71096E+00 -7.44196E+00
  -7.34688E+00 -7.44589E+00 -7.62261E+00 -7.77246E+00 -7.94412E+00 -8.17003E+00 -8.44322E+00 -8.71347E+00 -8.90683E+00 -8.95954E+00
  -8.84100E+00 -8.57591E+00 -8.30511E+00 -8.11900E+00 -8.06064E+00 -8.13654E+00 -8.34770E+00 -8.66464E+00 -8.96700E+00 -9.16911E+00
  -9.24846E+00 -9.11547E+00 -8.65061E+00 -7.80914E+00 -6.72353E+00 -5.58971E+00 -4.66964E+00 -4.25597E+00 -4.44384E+00 -5.13031E+00
  -6.10595E+00 -7.05169E+00 -7.63072E+00 -7.56749E+00 -6.99154E+00 -6.06410E+00 -4.97892E+00 -3.98936E+00 -3.37069E+00 -3.32706E+00
  -3.76547E+00 -4.37873E+00 -4.96961E+00 -5.46029E+00 -5.74325E+00 -5.77153E+00 -5.60856E+00 -5.37208E+00 -5.14611E+00 -5.03252E+00
  -5.06267E+00 -5.14502E+00 -5.15902E+00 -4.94170E+00 -4.38311E+00 -3.51443E+00 -2.48865E+00 -1.45762E+00 -5.45967E-01  1.56789E-01
   7.16730E-01  1.43932E+00  2.45806E+00  3.97315E+00  6.46519E+00  1.03900E+01  1.54852E+01  2.09549E+01  2.57121E+01  2.83959E+01
   2.78647E+01  2.39086E+01  1.72576E+01  9.33282E+00  2.74643E+00 -7.51506E-01 -3.14539E+00 -5.22625E+00 -6.90864E+00 -8.15631E+00
  -9.15737E+00 -9.94705E+00 -1.05692E+01 -1.10479E+01 -1.13734E+01 -1.15914E+01 -1.18000E+01 -1.20913E+01 -1.25060E+01 -1.30386E+01
  -1.36044E+01 -1.41094E+01 -1.45045E+01 -1.47626E+01 -1.48804E+01 -1.49342E+01 -1.50026E+01 -1.51094E+01 -1.52647E+01 -1.54784E+01
  -1.57470E+01 -1.60375E+01 -1.62929E+01 -1.65004E+01 -1.66600E+01 -1.67754E+01 -1.68723E+01 -1.69821E+01 -1.71335E+01 -1.73549E+01
  -1.76304E+01 -1.79126E+01 -1.81843E+01 -1.84334E+01 -1.86519E+01 -1.88392E+01 -1.90018E+01 -1.91584E+01 -1.93303E+01 -1.95058E+01
  -1.96758E+01 -1.98324E+01 -1.99671E+01 -2.00708E+01 -2.01339E+01 -2.01446E+01 -2.00897E+01 -1.99534E+01 -1.97179E+01 -1.93630E+01
  -1.88675E+01 -1.82081E+01 -1.73625E+01 -1.63087E+01 -1.50264E+01 -1.34976E+01 -1.17085E+01 -9.64998E+00 -7.31946E+00 -4.72123E+00
  -1.86793E+00  1.21973E+00  4.51211E+00  7.97195E+00  1.15544E+01  1.52089E+01  1.88806E+01  2.25125E+01  2.60469E+01  2.94292E+01
   3.26084E+01  3.55407E+01  3.81898E+01  4.05288E+01  4.25407E+01  4.42189E+01  4.55662E+01  4.65946E+01  4.73233E+01  4.77778E+01
   4.79874E+01  4.79843E+01  4.78010E+01  4.74695E+01  4.70191E+01  4.64765E+01  4.58642E+01  4.52009E+01  4.45011E+01  4.37756E+01
   4.30317E+01  4.22743E+01  4.15058E+01  4.07279E+01  3.99409E+01  3.91455E+01  3.83424E+01  3.75331E+01  3.67199E+01  3.59063E+01
   3.50964E+01  3.42955E+01  3.35094E+01  3.27446E+01  3.20076E+01  3.13052E+01  3.06438E+01  3.00294E+01  2.94673E+01  2.89620E+01
   2.85168E+01  2.81340E+01  2.78145E+01  2.75579E+01  2.73626E+01  2.72256E+01  2.71425E+01  2.71079E+01  2.71153E+01  2.71574E+01
   2.72261E+01  2.73129E+01  2.74091E+01  2.75059E+01  2.75948E+01  2.76678E+01  2.77175E+01  2.77375E+01  2.77221E+01  2.76671E+01
   2.75691E+01  2.74261E+01  2.72373E+01  2.70030E+01  2.67243E+01  2.64035E+01  2.60435E+01  2.56478E+01  2.52205E+01  2.47658E+01
   2.42882E+01  2.37921E+01  2.32820E+01  2.27621E+01  2.22363E+01  2.17083E+01  2.11812E+01  2.06580E+01  2.01412E+01  1.96329E+01
   1.91349E+01  1.86487E+01  1.81752E+01  1.77154E+01  1.72698E+01  1.68389E+01  1.64229E+01  1.60217E+01  1.56352E+01  1.52634E+01
   1.49059E+01  1.45624E+01  1.42325E+01  1.39158E+01  1.36120E+01  1.33204E+01  1.30408E+01  1.27726E+01  1.25155E+01  1.22688E+01
   1.20324E+01  1.18056E+01  1.15883E+01  1.13798E+01  1.11800E+01  1.09884E+01  1.08047E+01  1.06285E+01  1.04597E+01  1.02978E+01
   1.01427E+01  9.99391E+00  9.85140E+00  9.71483E+00  9.58402E+00  9.45868E+00  9.33867E+00  9.22375E+00  9.11381E+00  9.00859E+00
   8.90799E+00  8.81176E+00  8.71985E+00  8.63203E+00  8.54826E+00  8.46829E+00  8.39210E+00  8.31945E+00  8.25035E+00  8.18460E+00
   8.12219E+00  8.06290E+00  8.00672E+00  7.95347E+00  7.90319E+00  7.85568E+00  7.81095E+00  7.76880E+00  7.72928E+00  7.69220E+00
   7.65762E+00  7.62534E+00  7.59541E+00  7.56763E+00  7.54206E+00  7.51855E+00  7.49714E+00  7.47766E+00  7.46015E+00  7.44442E+00
   7.43057E+00  7.41842E+00  7.40803E+00  7.39920E+00  7.39201E+00  7.38626E+00  7.38205E+00  7.37917E+00
 NY background values follow
    -2.968E+00   -3.014E+00   -3.061E+00   -3.107E+00   -3.154E+00   -3.201E+00   -3.248E+00   -3.295E+00   -3.342E+00   -3.390E+00
    -3.437E+00   -3.485E+00   -3.533E+00   -3.581E+00   -3.629E+00   -3.677E+00   -3.726E+00   -3.775E+00   -3.823E+00   -3.872E+00
    -3.921E+00   -3.970E+00   -4.020E+00   -4.069E+00   -4.119E+00   -4.169E+00   -4.218E+00   -4.268E+00   -4.318E+00   -4.368E+00
    -4.419E+00   -4.469E+00   -4.520E+00   -4.570E+00   -4.621E+00   -4.672E+00   -4.723E+00   -4.774E+00   -4.825E+00   -4.876E+00
    -4.927E+00   -4.979E+00   -5.030E+00   -5.082E+00   -5.134E+00   -5.185E+00   -5.237E+00   -5.289E+00   -5.341E+00   -5.393E+00
    -5.445E+00   -5.497E+00   -5.550E+00   -5.602E+00   -5.654E+00   -5.707E+00   -5.759E+00   -5.812E+00   -5.865E+00   -5.917E+00
    -5.970E+00   -6.023E+00   -6.076E+00   -6.129E+00   -6.181E+00   -6.234E+00   -6.287E+00   -6.340E+00   -6.393E+00   -6.446E+00
    -6.499E+00   -6.553E+00   -6.606E+00   -6.659E+00   -6.712E+00   -6.765E+00   -6.818E+00   -6.872E+00   -6.925E+00   -6.978E+00
    -7.031E+00   -7.084E+00   -7.138E+00   -7.191E+00   -7.244E+00   -7.297E+00   -7.350E+00   -7.404E+00   -7.457E+00   -7.510E+00
    -7.563E+00   -7.616E+00   -7.669E+00   -7.722E+00   -7.775E+00   -7.828E+00   -7.881E+00   -7.934E+00   -7.987E+00   -8.039E+00
    -8.092E+00   -8.145E+00   -8.197E+00   -8.250E+00   -8.302E+00   -8.355E+00   -8.407E+00   -8.460E+00   -8.512E+00   -8.564E+00
    -8.616E+00   -8.668E+00   -8.720E+00   -8.772E+00   -8.824E+00   -8.876E+00   -8.927E+00   -8.979E+00   -9.030E+00   -9.081E+00
    -9.133E+00   -9.184E+00   -9.235E+00   -9.286E+00   -9.337E+00   -9.387E+00   -9.438E+00   -9.488E+00   -9.539E+00   -9.589E+00
    -9.639E+00   -9.689E+00   -9.739E+00   -9.789E+00   -9.838E+00   -9.888E+00   -9.937E+00   -9.986E+00   -1.004E+01   -1.008E+01
    -1.013E+01   -1.018E+01   -1.023E+01   -1.028E+01   -1.033E+01   -1.037E+01   -1.042E+01   -1.047E+01   -1.052E+01   -1.056E+01
    -1.061E+01   -1.066E+01   -1.071E+01   -1.075E+01   -1.080E+01   -1.084E+01   -1.089E+01   -1.094E+01   -1.098E+01   -1.103E+01
    -1.107E+01   -1.112E+01   -1.116E+01   -1.121E+01   -1.125E+01   -1.130E+01   -1.134E+01   -1.138E+01   -1.143E+01   -1.147E+01
    -1.151E+01   -1.156E+01   -1.160E+01   -1.164E+01   -1.168E+01   -1.173E+01   -1.177E+01   -1.181E+01   -1.185E+01   -1.189E+01
    -1.193E+01   -1.197E+01   -1.201E+01   -1.205E+01   -1.209E+01   -1.213E+01   -1.217E+01   -1.221E+01   -1.225E+01   -1.229E+01
    -1.232E+01   -1.236E+01   -1.240E+01   -1.244E+01   -1.247E+01   -1.251E+01   -1.255E+01   -1.258E+01   -1.262E+01   -1.265E+01
    -1.269E+01   -1.272E+01   -1.276E+01   -1.279E+01   -1.283E+01   -1.286E+01   -1.289E+01   -1.293E+01   -1.296E+01   -1.299E+01
    -1.302E+01   -1.306E+01   -1.309E+01   -1.312E+01   -1.315E+01   -1.318E+01   -1.321E+01   -1.324E+01   -1.327E+01   -1.330E+01
    -1.333E+01   -1.336E+01   -1.338E+01   -1.341E+01   -1.344E+01   -1.347E+01   -1.349E+01   -1.352E+01   -1.354E+01   -1.357E+01
    -1.360E+01   -1.362E+01   -1.364E+01   -1.367E+01   -1.369E+01   -1.372E+01   -1.374E+01   -1.376E+01   -1.378E+01   -1.381E+01
    -1.383E+01   -1.385E+01   -1.387E+01   -1.389E+01   -1.391E+01   -1.393E+01   -1.395E+01   -1.397E+01   -1.399E+01   -1.400E+01
    -1.402E+01   -1.404E+01   -1.405E+01   -1.407E+01   -1.409E+01   -1.410E+01   -1.412E+01   -1.413E+01   -1.415E+01   -1.416E+01
    -1.417E+01   -1.419E+01   -1.420E+01   -1.421E+01   -1.422E+01   -1.423E+01   -1.425E+01   -1.426E+01   -1.427E+01   -1.428E+01
    -1.428E+01   -1.429E+01   -1.430E+01   -1.431E+01   -1.432E+01   -1.432E+01   -1.433E+01   -1.434E+01   -1.434E+01   -1.435E+01
    -1.435E+01   -1.436E+01   -1.436E+01   -1.436E+01   -1.437E+01   -1.437E+01   -1.437E+01   -1.437E+01   -1.437E+01   -1.437E+01
    -1.437E+01   -1.437E+01   -1.437E+01   -1.437E+01   -1.437E+01   -1.437E+01   -1.436E+01   -1.436E+01   -1.436E+01   -1.435E+01
    -1.435E+01   -1.434E+01   -1.434E+01   -1.433E+01   -1.432E+01   -1.432E+01   -1.431E+01   -1.430E+01   -1.429E+01   -1.428E+01
    -1.427E+01   -1.426E+01   -1.425E+01   -1.424E+01   -1.423E+01   -1.422E+01   -1.421E+01   -1.419E+01   -1.418E+01   -1.417E+01
    -1.415E+01   -1.414E+01   -1.412E+01   -1.411E+01   -1.409E+01   -1.407E+01   -1.405E+01   -1.404E+01   -1.402E+01   -1.400E+01
    -1.398E+01   -1.396E+01   -1.394E+01   -1.392E+01   -1.390E+01   -1.387E+01   -1.385E+01   -1.383E+01   -1.380E+01   -1.378E+01
    -1.376E+01   -1.373E+01   -1.370E+01   -1.368E+01   -1.365E+01   -1.362E+01   -1.360E+01   -1.357E+01   -1.354E+01   -1.351E+01
    -1.348E+01   -1.345E+01   -1.342E+01   -1.339E+01   -1.336E+01   -1.332E+01   -1.329E+01   -1.326E+01   -1.322E+01   -1.319E+01
    -1.315E+01   -1.312E+01   -1.308E+01   -1.305E+01   -1.301E+01   -1.297E+01   -1.293E+01   -1.289E+01   -1.286E+01   -1.282E+01
    -1.278E+01   -1.273E+01   -1.269E+01   -1.265E+01   -1.261E+01   -1.257E+01   -1.252E+01   -1.248E+01   -1.243E+01   -1.239E+01
    -1.234E+01   -1.230E+01   -1.225E+01   -1.220E+01   -1.216E+01   -1.211E+01   -1.206E+01   -1.201E+01   -1.196E+01   -1.191E+01
    -1.186E+01   -1.181E+01   -1.176E+01   -1.171E+01   -1.165E+01   -1.160E+01   -1.155E+01   -1.149E+01   -1.144E+01   -1.138E+01
    -1.133E+01   -1.127E+01   -1.121E+01   -1.116E+01   -1.110E+01   -1.104E+01   -1.098E+01   -1.092E+01   -1.086E+01   -1.080E+01
    -1.074E+01   -1.068E+01   -1.062E+01   -1.056E+01   -1.049E+01   -1.043E+01   -1.037E+01   -1.030E+01   -1.024E+01   -1.017E+01
    -1.010E+01   -1.004E+01   -9.972E+00   -9.904E+00   -9.837E+00   -9.768E+00   -9.699E+00   -9.630E+00   -9.560E+00   -9.490E+00
    -9.419E+00   -9.348E+00   -9.276E+00   -9.204E+00   -9.131E+00   -9.058E+00   -8.985E+00   -8.910E+00   -8.836E+00   -8.761E+00
    -8.685E+00   -8.609E+00   -8.533E+00   -8.456E+00   -8.378E+00   -8.300E+00   -8.222E+00   -8.143E+00   -8.064E+00   -7.984E+00
    -7.904E+00   -7.823E+00   -7.742E+00   -7.660E+00   -7.578E+00   -7.496E+00   -7.413E+00   -7.330E+00   -7.246E+00   -7.162E+00
    -7.077E+00   -6.992E+00   -6.906E+00   -6.820E+00   -6.734E+00   -6.647E+00   -6.559E+00   -6.472E+00   -6.384E+00   -6.295E+00
    -6.206E+00   -6.116E+00   -6.027E+00   -5.936E+00   -5.846E+00   -5.754E+00   -5.663E+00   -5.571E+00   -5.479E+00   -5.386E+00
    -5.293E+00   -5.199E+00   -5.105E+00   -5.011E+00   -4.916E+00   -4.821E+00   -4.725E+00   -4.629E+00   -4.533E+00   -4.436E+00
    -4.339E+00   -4.242E+00   -4.144E+00   -4.046E+00   -3.947E+00   -3.848E+00   -3.749E+00   -3.649E+00
 Asp      Conc. = 9.38E+01
