 LCModel (Version 6.3-1L) Copyright: S.W. Provencher.          Ref.: Magn. Reson. Med. 30:672-679 (1993).                
 Slice#1 Row#5 Col#5  K_02_press_1_raw_act
 36 lines in following concentration table = NCONC+1
    Conc.  %SD /Cr+PCr  Metabolite                                         
    0.000 999%   0.000 Ala                                                 
    0.000 999%   0.000 Asp                                                 
  446.084  82%   0.321 Cr                                                  
  945.447  39%   0.679 PCr                                                 
  106.530 194% 7.7E-02 GABA                                                
   25.814 764% 1.9E-02 Glc                                                 
    0.000 999%   0.000 Gln                                                 
   43.286 999% 3.1E-02 Glu                                                 
  682.747   5%   0.491 GPC                                                 
    0.000 999%   0.000 PCh                                                 
  918.857  13%   0.660 GSH                                                 
 2.75E+03  13%   1.979 Ins                                                 
    0.000 999%   0.000 Lac                                                 
 2.57E+03   7%   1.849 NAA                                                 
  172.347 122%   0.124 NAAG                                                
  208.398  19%   0.150 Scyllo                                              
  154.106 164%   0.111 Tau                                                 
  142.048 115%   0.102 -CrCH2                                              
  682.747   5%   0.491 GPC+PCh                                             
 2.74E+03   5%   1.972 NAA+NAAG                                            
 1.39E+03   6%   1.000 Cr+PCr                                              
   43.286 999% 3.1E-02 Glu+Gln                                             
 3.89E+03  12%   2.797 Lip13a                                              
    0.000 999%   0.000 Lip13b                                              
 1.17E+03  32%   0.840 Lip09                                               
  759.819  48%   0.546 MM09                                                
 1.03E+03  28%   0.741 Lip20                                               
 1.04E+03  44%   0.745 MM20                                                
  187.357 125%   0.135 MM12                                                
    0.000 999%   0.000 MM14                                                
  501.436  27%   0.360 MM17                                                
 3.89E+03  12%   2.797 Lip13a+Lip13b                                       
 4.08E+03   9%   2.932 MM14+Lip13a+Lip13b+MM12                             
 1.93E+03  11%   1.386 MM09+Lip09                                          
 2.07E+03  20%   1.486 MM20+Lip20                                          
   6 lines in following misc. output table
  FWHM = 0.069 ppm    S/N =   9                                            
  Data shift = 0.015 ppm                                                   
  Ph: -23 deg      -7.6 deg/ppm                                            
  alphaB,S = 5.4E+00,   1.2E+02                                            
   14 spline knots.   Ns =10(1)                                            
  (16) 9 infls.   (17) 3 extrs.                                            
  498 points on ppm-axis = NY
      4.000000     3.992357     3.984714     3.977070     3.969427     3.961784     3.954141     3.946497     3.938854     3.931211
      3.923568     3.915925     3.908281     3.900638     3.892995     3.885352     3.877708     3.870065     3.862422     3.854779
      3.847136     3.839492     3.831849     3.824206     3.816563     3.808919     3.801276     3.793633     3.785990     3.778347
      3.770703     3.763060     3.755417     3.747774     3.740130     3.732487     3.724844     3.717201     3.709558     3.701914
      3.694271     3.686628     3.678985     3.671341     3.663698     3.656055     3.648412     3.640769     3.633125     3.625482
      3.617839     3.610196     3.602552     3.594909     3.587266     3.579623     3.571980     3.564336     3.556693     3.549050
      3.541407     3.533763     3.526120     3.518477     3.510834     3.503191     3.495547     3.487904     3.480261     3.472618
      3.464974     3.457331     3.449688     3.442045     3.434402     3.426758     3.419115     3.411472     3.403829     3.396185
      3.388542     3.380899     3.373256     3.365613     3.357969     3.350326     3.342683     3.335040     3.327396     3.319753
      3.312110     3.304467     3.296824     3.289180     3.281537     3.273894     3.266251     3.258607     3.250964     3.243321
      3.235678     3.228034     3.220391     3.212748     3.205105     3.197462     3.189818     3.182175     3.174532     3.166889
      3.159245     3.151602     3.143959     3.136316     3.128673     3.121029     3.113386     3.105743     3.098100     3.090456
      3.082813     3.075170     3.067527     3.059884     3.052240     3.044597     3.036954     3.029311     3.021667     3.014024
      3.006381     2.998738     2.991095     2.983451     2.975808     2.968165     2.960522     2.952878     2.945235     2.937592
      2.929949     2.922306     2.914662     2.907019     2.899376     2.891733     2.884089     2.876446     2.868803     2.861160
      2.853517     2.845873     2.838230     2.830587     2.822944     2.815300     2.807657     2.800014     2.792371     2.784728
      2.777084     2.769441     2.761798     2.754155     2.746511     2.738868     2.731225     2.723582     2.715939     2.708295
      2.700652     2.693009     2.685366     2.677722     2.670079     2.662436     2.654793     2.647150     2.639506     2.631863
      2.624220     2.616577     2.608933     2.601290     2.593647     2.586004     2.578361     2.570717     2.563074     2.555431
      2.547788     2.540144     2.532501     2.524858     2.517215     2.509572     2.501928     2.494285     2.486642     2.478999
      2.471355     2.463712     2.456069     2.448426     2.440783     2.433139     2.425496     2.417853     2.410210     2.402566
      2.394923     2.387280     2.379637     2.371994     2.364350     2.356707     2.349064     2.341421     2.333777     2.326134
      2.318491     2.310848     2.303205     2.295561     2.287918     2.280275     2.272632     2.264988     2.257345     2.249702
      2.242059     2.234416     2.226772     2.219129     2.211486     2.203843     2.196199     2.188556     2.180913     2.173270
      2.165627     2.157983     2.150340     2.142697     2.135054     2.127410     2.119767     2.112124     2.104481     2.096838
      2.089194     2.081551     2.073908     2.066265     2.058621     2.050978     2.043335     2.035692     2.028049     2.020405
      2.012762     2.005119     1.997476     1.989833     1.982190     1.974546     1.966903     1.959260     1.951617     1.943974
      1.936331     1.928688     1.921045     1.913402     1.905759     1.898115     1.890472     1.882829     1.875186     1.867543
      1.859900     1.852257     1.844614     1.836971     1.829327     1.821684     1.814041     1.806398     1.798755     1.791112
      1.783469     1.775826     1.768183     1.760540     1.752896     1.745253     1.737610     1.729967     1.722324     1.714681
      1.707038     1.699395     1.691752     1.684108     1.676465     1.668822     1.661179     1.653536     1.645893     1.638250
      1.630607     1.622964     1.615321     1.607677     1.600034     1.592391     1.584748     1.577105     1.569462     1.561819
      1.554176     1.546533     1.538890     1.531246     1.523603     1.515960     1.508317     1.500674     1.493031     1.485388
      1.477745     1.470102     1.462458     1.454815     1.447172     1.439529     1.431886     1.424243     1.416600     1.408957
      1.401314     1.393671     1.386027     1.378384     1.370741     1.363098     1.355455     1.347812     1.340169     1.332526
      1.324883     1.317240     1.309596     1.301953     1.294310     1.286667     1.279024     1.271381     1.263738     1.256095
      1.248452     1.240808     1.233165     1.225522     1.217879     1.210236     1.202593     1.194950     1.187307     1.179664
      1.172021     1.164377     1.156734     1.149091     1.141448     1.133805     1.126162     1.118519     1.110876     1.103233
      1.095590     1.087946     1.080303     1.072660     1.065017     1.057374     1.049731     1.042088     1.034445     1.026802
      1.019158     1.011515     1.003872     0.996229     0.988586     0.980943     0.973300     0.965657     0.958014     0.950371
      0.942727     0.935084     0.927441     0.919798     0.912155     0.904512     0.896869     0.889226     0.881583     0.873940
      0.866296     0.858653     0.851010     0.843367     0.835724     0.828081     0.820438     0.812795     0.805152     0.797508
      0.789865     0.782222     0.774579     0.766936     0.759293     0.751650     0.744007     0.736364     0.728721     0.721077
      0.713434     0.705791     0.698148     0.690505     0.682862     0.675219     0.667576     0.659933     0.652290     0.644646
      0.637003     0.629360     0.621717     0.614074     0.606431     0.598788     0.591145     0.583502     0.575858     0.568215
      0.560572     0.552929     0.545286     0.537643     0.530000     0.522357     0.514714     0.507071     0.499427     0.491784
      0.484141     0.476498     0.468855     0.461212     0.453569     0.445925     0.438282     0.430639     0.422996     0.415353
      0.407710     0.400067     0.392424     0.384780     0.377137     0.369494     0.361851     0.354208     0.346565     0.338922
      0.331278     0.323635     0.315992     0.308349     0.300706     0.293063     0.285420     0.277777     0.270133     0.262490
      0.254847     0.247204     0.239561     0.231918     0.224275     0.216631     0.208988     0.201345
 NY phased data points follow
  -7.86829E+00 -5.05473E+00 -6.75093E+00 -7.83477E+00 -1.83553E+00 -4.15999E+00  2.40717E+00  7.48180E-01  6.01223E+00  6.93332E+00
   1.31665E+01  1.30494E+01  5.02404E+00  5.34328E+00  3.11142E+00 -1.81322E+00 -6.33911E+00 -3.13809E+00 -2.52736E+00 -1.02041E+01
  -1.30527E+00  8.38447E-01 -2.84997E+00 -6.46133E+00 -1.40480E+00 -3.58494E+00 -1.02828E+00  1.07236E+00  1.71832E+00  9.90273E-01
   7.84574E-02  2.98209E-01  1.44423E+00  1.64539E+00 -3.38409E+00 -4.63814E+00  1.46921E+00  1.54897E-01  3.05415E+00  1.92035E+00
  -7.96243E-01  2.51533E+00  1.21016E+00  4.87123E+00  7.90526E+00 -1.98068E+00  4.57850E+00  4.01271E+00  6.56203E+00  1.67736E+00
  -1.45271E+00  4.06748E+00  2.19879E+00  1.19221E+00 -6.04510E-01 -3.43233E+00 -3.86548E+00 -6.02159E+00 -5.02142E-01 -5.44447E+00
  -3.93659E+00 -7.88774E+00 -5.85295E+00 -7.30828E+00 -4.97719E+00 -1.06313E+01 -8.15742E+00 -1.01986E+01 -6.98387E+00 -4.35095E+00
  -1.05811E+01 -8.17669E+00 -4.75150E+00 -8.36142E+00 -5.19990E+00 -5.97610E+00 -1.74054E+00 -1.26606E+01 -6.34514E+00 -9.25231E+00
  -6.77609E+00 -6.09862E+00 -6.51676E-01 -2.03753E+00 -1.19248E+01 -2.75891E+00 -7.19980E+00 -3.03556E+00 -5.83720E+00 -1.07166E+01
  -5.11203E+00  1.34442E+00 -3.45708E+00 -2.08193E+00  1.17909E+00 -5.14710E-01  2.05047E+00  3.73139E+00  8.60733E+00  1.61877E+01
   2.20202E+01  3.16303E+01  3.14569E+01  3.77019E+01  3.07783E+01  2.64852E+01  2.17014E+01  1.46110E+01  3.09082E+00  1.81145E+00
   8.36620E+00  1.82433E+00 -1.94847E-01  4.96228E-01 -3.33943E+00 -2.32208E-01 -5.89534E-01 -2.57366E+00 -8.56750E-01  6.42835E-01
   6.02106E+00  2.72588E+00  3.46540E+00  1.39883E+01  8.23793E+00  1.74543E+01  2.73567E+01  2.80006E+01  2.37558E+01  1.85278E+01
   1.96889E+01  1.27442E+01  9.64720E+00  4.88506E+00  5.33154E+00 -2.25314E+00 -6.97249E-01 -1.26709E+00  2.93194E-02  6.88109E-01
  -3.01241E+00  2.07604E-01 -1.68262E+00 -6.66549E+00 -1.64462E+00 -4.33888E+00  4.16398E-01 -4.81717E+00 -8.06053E+00 -4.82737E-01
  -2.88813E+00 -5.41088E+00 -6.62364E+00 -3.76626E+00  1.11750E+00 -2.19726E+00 -5.19509E-01 -6.68393E+00 -2.24439E+00 -5.40694E+00
  -8.95607E-01 -6.06875E+00 -1.30258E+01 -6.43324E+00 -5.77724E+00 -5.38616E+00 -7.85009E+00 -1.41853E+01 -1.24935E+01 -1.15705E+01
  -1.74724E+01 -9.43373E+00 -1.86448E+01 -1.56857E+01 -1.77415E+01 -2.45140E+01 -2.31909E+01 -1.56557E+01 -1.79873E+01 -1.90734E+01
  -1.74277E+01 -2.07085E+01 -1.71774E+01 -1.72424E+01 -7.07087E+00 -9.06798E+00 -1.23114E+01 -1.73005E+01 -8.99211E+00 -9.49133E+00
  -7.65084E+00 -5.33759E+00 -1.01155E+01 -1.03304E+01 -1.14818E+01 -1.17848E+01 -1.03216E+01 -1.40190E+01 -1.38199E+01 -9.55897E+00
  -9.83295E+00 -1.28528E+01 -1.11200E+01 -7.71697E+00 -7.45384E+00 -5.57012E+00 -7.26508E+00 -1.11974E+01 -3.99256E+00 -4.44506E+00
  -5.32703E+00 -6.28537E+00 -5.59118E+00 -3.62149E+00 -9.98484E+00 -7.11399E+00  1.09451E+00  2.60528E+00 -2.60892E+00 -7.71062E+00
  -1.16962E+00 -7.38853E+00 -5.75763E+00 -6.98993E+00 -9.06268E+00 -4.85827E+00 -5.85735E+00 -6.62709E+00 -5.81863E+00 -5.29157E+00
  -5.81627E+00 -6.62452E-02  2.38900E+00 -3.29468E+00 -4.44849E+00 -4.86522E+00 -2.98464E+00 -4.06821E+00 -7.06358E+00 -3.11697E+00
  -7.81739E+00 -4.08746E+00 -5.90774E+00 -2.44716E+00 -1.32707E+00 -4.97140E+00  2.23093E+00  5.70478E+00  5.46695E+00  4.22311E+00
   7.53372E+00  1.06474E+01  1.42780E+01  2.46476E+01  2.78198E+01  3.44471E+01  4.37672E+01  4.18358E+01  4.80424E+01  6.07490E+01
   6.36173E+01  6.62480E+01  4.60942E+01  4.78054E+01  4.14048E+01  2.24878E+01  2.23690E+01  1.22767E+01  8.89676E+00  5.57697E+00
   4.57022E+00  3.97082E+00  4.73135E+00 -2.74058E+00 -8.22669E+00 -4.42076E+00 -7.58473E+00 -9.49841E+00 -6.38531E+00 -1.20246E+01
  -8.12845E+00 -1.51395E+01 -1.12794E+01 -1.33051E+01 -1.53490E+01 -1.31908E+01 -8.81654E+00 -9.56629E+00 -7.29192E+00 -1.01858E+01
  -7.58359E+00 -5.43749E+00 -4.43818E+00 -1.03402E+01 -6.23448E+00 -9.37975E+00  9.20649E-01 -4.47360E+00 -1.74457E+00  2.38383E+00
  -2.52901E+00 -2.75806E-01  1.63447E+00  1.27336E+00  1.68873E+00 -4.33097E+00 -6.88956E-01  6.40090E+00 -2.60034E+00 -7.17545E+00
  -4.98384E+00 -6.18635E+00 -6.01840E+00 -7.88146E+00 -3.57506E+00 -8.07808E+00 -1.03500E+01 -4.28746E+00 -1.29746E+01 -7.70205E+00
  -2.67717E+00 -3.68497E+00  5.40215E-01 -5.38852E+00 -2.89630E+00 -1.77723E+00 -2.32665E+00 -4.31020E+00 -6.07632E+00 -2.52524E+00
  -2.30916E+00  1.31793E-01 -1.85178E+00 -8.92708E+00  5.70392E+00  2.35130E+00  1.28084E+00 -2.99616E+00  2.36337E+00 -8.72091E-01
   3.55984E+00  1.53549E+00  1.21701E+01  8.97516E+00  1.20709E+01  1.31933E+01  1.06837E+01  1.53528E+01  1.30992E+01  1.41413E+01
   1.24388E+01  1.45065E+01  1.36403E+01  9.27665E+00  1.55941E+01  1.52541E+01  1.02905E+01  9.11431E+00  9.20475E+00  1.32503E+01
   8.68317E+00  1.24868E+01  1.00052E+01  6.08290E+00  8.50144E+00  7.40380E+00  6.86195E+00  3.59683E+00  4.19250E+00  2.48075E+00
   7.80431E+00  3.91047E+00 -1.13159E+00 -2.89092E+00 -2.32034E+00 -7.59690E-01  2.15554E+00  4.28474E+00  2.81935E+00  1.48878E+00
   4.34401E+00 -1.54513E+00  5.60039E+00  5.78484E+00  5.05309E+00 -3.30330E+00  5.31627E+00  2.09939E+00  1.86068E+00  4.38399E+00
  -4.72738E+00 -1.49237E+00  4.22013E+00  3.13168E+00  4.85272E+00  4.63672E+00  6.14267E+00  6.05299E+00  9.56812E+00  3.83536E+00
   1.00944E+01  9.03230E+00  8.75592E+00  7.43052E+00  8.56376E+00  5.56471E+00  1.33619E+01  1.05386E+01  1.77449E+01  8.49487E+00
   9.54975E+00  8.17813E+00  6.89503E+00  3.28846E+00  2.71287E+00  5.54871E+00  4.10827E+00 -7.99098E+00 -7.42635E-01 -7.08708E+00
  -6.18024E-01 -3.44080E+00 -4.09003E+00 -2.30849E+00 -2.26647E+00 -1.64217E+00  2.62193E-01 -2.67290E+00 -7.44860E-01  7.55329E-01
   1.65101E+00 -3.27977E+00 -1.00153E-01 -3.64110E+00 -3.85672E+00 -1.49848E+00 -3.41607E+00 -3.03971E-01 -1.92555E+00 -3.98687E+00
  -1.07860E+00 -4.32217E+00  2.00169E+00 -1.46303E+00 -3.70521E+00 -6.53314E-01 -3.59507E+00 -2.95363E+00 -6.40829E+00 -3.63484E+00
  -1.24950E+00 -8.00228E+00 -5.68563E+00 -5.30369E+00 -4.87934E+00 -3.76770E+00 -3.09893E+00 -4.54779E+00 -1.39758E+01 -3.37709E+00
  -1.00800E+00 -7.73368E-01 -1.46708E+00 -4.91425E+00  5.15442E-01 -1.16941E+00 -3.39285E+00 -2.70436E+00 -3.12108E+00 -3.70541E+00
  -3.02954E+00 -1.77393E-01  9.93399E-02 -7.72168E-01  2.03974E+00 -4.83923E+00  4.04087E-01 -2.92600E+00 -3.86350E+00 -4.97472E+00
  -4.54809E+00 -5.62351E-02 -1.57333E+00 -3.43036E+00 -3.96915E+00 -3.36798E+00 -2.84936E+00 -1.27596E+00 -1.17503E+00 -3.80522E-02
  -3.33796E+00 -2.69097E+00 -2.37730E+00 -2.07395E-01  1.46517E+00 -5.71762E+00 -1.35594E+00 -3.02012E+00
 NY points of the fit to the data follow
  -7.67496E+00 -6.89661E+00 -5.78019E+00 -4.71709E+00 -3.43704E+00 -1.67905E+00  4.30697E-01  3.00723E+00  5.79321E+00  8.03001E+00
   9.08632E+00  8.83083E+00  7.54091E+00  5.54235E+00  3.21413E+00  9.58750E-01 -9.89751E-01 -2.57142E+00 -3.85666E+00 -4.70807E+00
  -4.94184E+00 -5.05764E+00 -5.26264E+00 -5.32124E+00 -4.75090E+00 -3.63750E+00 -2.03969E+00  3.39087E-01  3.23772E+00  5.49385E+00
   6.12507E+00  5.17926E+00  3.51330E+00  1.65246E+00 -2.11349E-01 -1.67996E+00 -2.32086E+00 -1.98054E+00 -1.25114E+00 -9.53804E-01
  -1.44391E+00 -2.07814E+00 -1.76441E+00 -7.81878E-01  7.45880E-01  2.73798E+00  4.50024E+00  4.99094E+00  3.92269E+00  2.14067E+00
   3.38767E-01 -1.30673E+00 -2.67557E+00 -3.62880E+00 -4.02487E+00 -3.91920E+00 -3.66809E+00 -3.63863E+00 -3.88045E+00 -4.05748E+00
  -4.21958E+00 -4.55683E+00 -5.05007E+00 -5.62905E+00 -6.13487E+00 -6.39966E+00 -6.32650E+00 -5.97911E+00 -5.49252E+00 -5.07312E+00
  -4.88960E+00 -4.90933E+00 -5.12557E+00 -5.40770E+00 -5.64721E+00 -5.86954E+00 -6.00045E+00 -5.81846E+00 -5.70301E+00 -5.78665E+00
  -5.92788E+00 -5.93858E+00 -5.88062E+00 -5.72786E+00 -5.34808E+00 -4.90280E+00 -4.79178E+00 -5.34695E+00 -6.39059E+00 -7.46132E+00
  -8.37486E+00 -9.04259E+00 -8.45375E+00 -5.07294E+00 -9.02262E-01  2.43110E+00  5.10962E+00  7.84976E+00  1.12071E+01  1.57816E+01
   2.17756E+01  2.85206E+01  3.35933E+01  3.46852E+01  3.17866E+01  2.68632E+01  2.11394E+01  1.50912E+01  9.80526E+00  6.03987E+00
   3.72940E+00  2.23449E+00  5.87126E-01 -2.40659E+00 -6.18984E+00 -8.08032E+00 -8.35338E+00 -6.61847E+00 -3.72275E+00 -1.13026E+00
   1.13204E+00  3.63684E+00  6.74127E+00  1.05197E+01  1.50800E+01  2.01204E+01  2.42651E+01  2.57957E+01  2.42669E+01  2.10066E+01
   1.72095E+01  1.32252E+01  9.35956E+00  6.03770E+00  3.48383E+00  1.61825E+00  1.47781E-01 -1.61059E+00 -3.81732E+00 -4.76788E+00
  -4.47977E+00 -4.09202E+00 -3.99007E+00 -4.25261E+00 -4.77128E+00 -5.23786E+00 -5.46857E+00 -5.56570E+00 -5.58240E+00 -5.61522E+00
  -5.78235E+00 -6.08782E+00 -6.55816E+00 -6.96284E+00 -7.17453E+00 -7.20900E+00 -7.17619E+00 -7.24971E+00 -7.46418E+00 -7.81239E+00
  -8.22749E+00 -8.57112E+00 -8.74350E+00 -8.76744E+00 -8.80486E+00 -9.01005E+00 -9.45891E+00 -1.01210E+01 -1.07583E+01 -1.12992E+01
  -1.17779E+01 -1.22235E+01 -1.26457E+01 -1.30416E+01 -1.35001E+01 -1.40090E+01 -1.44433E+01 -1.46926E+01 -1.47918E+01 -1.47916E+01
  -1.46550E+01 -1.43362E+01 -1.39025E+01 -1.34796E+01 -1.30795E+01 -1.25794E+01 -1.18396E+01 -1.08358E+01 -9.68509E+00 -8.61890E+00
  -7.80491E+00 -7.36359E+00 -7.30989E+00 -7.59645E+00 -8.05032E+00 -8.43339E+00 -8.58738E+00 -8.40774E+00 -7.88516E+00 -7.29501E+00
  -6.90676E+00 -6.61728E+00 -6.35243E+00 -6.20660E+00 -6.25917E+00 -6.43676E+00 -6.63355E+00 -6.81353E+00 -7.02886E+00 -7.34198E+00
  -7.73587E+00 -8.10907E+00 -8.37287E+00 -8.42516E+00 -8.25265E+00 -7.95959E+00 -7.56522E+00 -7.09075E+00 -6.60191E+00 -6.16612E+00
  -5.84746E+00 -5.70431E+00 -5.62406E+00 -5.43774E+00 -5.13542E+00 -4.85944E+00 -4.68579E+00 -4.48692E+00 -4.35660E+00 -4.44310E+00
  -4.57907E+00 -4.49163E+00 -4.12665E+00 -3.65637E+00 -3.21562E+00 -2.80320E+00 -2.60365E+00 -2.85440E+00 -3.48449E+00 -4.14125E+00
  -4.51497E+00 -4.47613E+00 -3.98150E+00 -3.12822E+00 -2.06363E+00 -9.27801E-01  2.01057E-01  1.14070E+00  1.88916E+00  2.90640E+00
   5.68964E+00  1.18798E+01  1.85122E+01  2.39854E+01  2.89448E+01  3.41628E+01  3.96240E+01  4.53911E+01  5.21432E+01  5.89849E+01
   6.26261E+01  6.06193E+01  5.38315E+01  4.52326E+01  3.62726E+01  2.74197E+01  1.98592E+01  1.44906E+01  1.12563E+01  9.07693E+00
   6.55739E+00  2.31470E+00 -2.51089E+00 -4.52591E+00 -5.13957E+00 -5.49490E+00 -5.76794E+00 -5.99748E+00 -6.19286E+00 -6.35145E+00
  -6.46904E+00 -6.54742E+00 -6.59006E+00 -6.59395E+00 -6.56256E+00 -6.50167E+00 -6.41329E+00 -6.29621E+00 -6.14493E+00 -5.95851E+00
  -5.73892E+00 -5.48616E+00 -5.20173E+00 -4.89440E+00 -4.57105E+00 -4.23616E+00 -3.90007E+00 -3.57269E+00 -3.25775E+00 -2.96281E+00
  -2.69863E+00 -2.47485E+00 -2.30098E+00 -2.18534E+00 -2.12909E+00 -2.13084E+00 -2.18897E+00 -2.29844E+00 -2.45149E+00 -2.63813E+00
  -2.84793E+00 -3.07182E+00 -3.29905E+00 -3.51910E+00 -3.72296E+00 -3.90258E+00 -4.05162E+00 -4.16548E+00 -4.24137E+00 -4.27775E+00
  -4.27406E+00 -4.23036E+00 -4.14727E+00 -4.02567E+00 -3.86653E+00 -3.67045E+00 -3.43760E+00 -3.16754E+00 -2.85940E+00 -2.51184E+00
  -2.12317E+00 -1.69119E+00 -1.21349E+00 -6.87665E-01 -1.11722E-01  5.15783E-01  1.19542E+00  1.92685E+00  2.70832E+00  3.53641E+00
   4.40562E+00  5.30842E+00  6.23511E+00  7.17402E+00  8.11140E+00  9.03179E+00  9.91823E+00  1.07530E+01  1.15183E+01  1.21968E+01
   1.27723E+01  1.32307E+01  1.35601E+01  1.37522E+01  1.38021E+01  1.37090E+01  1.34759E+01  1.31096E+01  1.26203E+01  1.20215E+01
   1.13290E+01  1.05606E+01  9.73480E+00  8.87053E+00  7.98624E+00  7.09950E+00  6.22635E+00  5.38100E+00  4.57540E+00  3.81938E+00
   3.12058E+00  2.48467E+00  1.91543E+00  1.41499E+00  9.84104E-01  6.22574E-01  3.29489E-01  1.03579E-01 -5.67384E-02 -1.53069E-01
  -1.86976E-01 -1.59709E-01 -7.22967E-02  7.44938E-02  2.79904E-01  5.43182E-01  8.63335E-01  1.23906E+00  1.66834E+00  2.14828E+00
   2.67462E+00  3.24176E+00  3.84240E+00  4.46763E+00  5.10674E+00  5.74735E+00  6.37556E+00  6.97643E+00  7.53445E+00  8.03414E+00
   8.46059E+00  8.80021E+00  9.04131E+00  9.17489E+00  9.19501E+00  9.09924E+00  8.88863E+00  8.56782E+00  8.14468E+00  7.63017E+00
   7.03753E+00  6.38179E+00  5.67885E+00  4.94491E+00  4.19574E+00  3.44620E+00  2.70959E+00  1.99741E+00  1.31898E+00  6.81512E-01
   9.00984E-02 -4.52064E-01 -9.43619E-01 -1.38471E+00 -1.77678E+00 -2.12217E+00 -2.42390E+00 -2.68534E+00 -2.91018E+00 -3.10212E+00
  -3.26485E+00 -3.40178E+00 -3.51611E+00 -3.61070E+00 -3.68819E+00 -3.75091E+00 -3.80093E+00 -3.83999E+00 -3.86960E+00 -3.89101E+00
  -3.90541E+00 -3.91375E+00 -3.91689E+00 -3.91545E+00 -3.91002E+00 -3.90108E+00 -3.88912E+00 -3.87450E+00 -3.85756E+00 -3.83851E+00
  -3.81759E+00 -3.79500E+00 -3.77097E+00 -3.74564E+00 -3.71914E+00 -3.69155E+00 -3.66298E+00 -3.63353E+00 -3.60333E+00 -3.57243E+00
  -3.54089E+00 -3.50870E+00 -3.47597E+00 -3.44274E+00 -3.40909E+00 -3.37502E+00 -3.34054E+00 -3.30566E+00 -3.27044E+00 -3.23492E+00
  -3.19914E+00 -3.16305E+00 -3.12669E+00 -3.09004E+00 -3.05316E+00 -3.01607E+00 -2.97878E+00 -2.94123E+00 -2.90346E+00 -2.86544E+00
  -2.82725E+00 -2.78886E+00 -2.75026E+00 -2.71141E+00 -2.67231E+00 -2.63298E+00 -2.59344E+00 -2.55364E+00 -2.51358E+00 -2.47317E+00
  -2.43246E+00 -2.39141E+00 -2.35002E+00 -2.30821E+00 -2.26595E+00 -2.22313E+00 -2.17976E+00 -2.13575E+00
 NY background values follow
    -1.296E+01   -1.295E+01   -1.294E+01   -1.293E+01   -1.291E+01   -1.290E+01   -1.289E+01   -1.288E+01   -1.287E+01   -1.286E+01
    -1.284E+01   -1.283E+01   -1.282E+01   -1.281E+01   -1.280E+01   -1.278E+01   -1.277E+01   -1.276E+01   -1.275E+01   -1.274E+01
    -1.272E+01   -1.271E+01   -1.270E+01   -1.269E+01   -1.268E+01   -1.266E+01   -1.265E+01   -1.264E+01   -1.263E+01   -1.261E+01
    -1.260E+01   -1.259E+01   -1.258E+01   -1.256E+01   -1.255E+01   -1.254E+01   -1.253E+01   -1.251E+01   -1.250E+01   -1.249E+01
    -1.247E+01   -1.246E+01   -1.245E+01   -1.244E+01   -1.242E+01   -1.241E+01   -1.240E+01   -1.238E+01   -1.237E+01   -1.236E+01
    -1.234E+01   -1.233E+01   -1.232E+01   -1.231E+01   -1.229E+01   -1.228E+01   -1.227E+01   -1.225E+01   -1.224E+01   -1.223E+01
    -1.221E+01   -1.220E+01   -1.219E+01   -1.217E+01   -1.216E+01   -1.215E+01   -1.213E+01   -1.212E+01   -1.210E+01   -1.209E+01
    -1.208E+01   -1.206E+01   -1.205E+01   -1.204E+01   -1.202E+01   -1.201E+01   -1.199E+01   -1.198E+01   -1.197E+01   -1.195E+01
    -1.194E+01   -1.192E+01   -1.191E+01   -1.190E+01   -1.188E+01   -1.187E+01   -1.185E+01   -1.184E+01   -1.183E+01   -1.181E+01
    -1.180E+01   -1.178E+01   -1.177E+01   -1.175E+01   -1.174E+01   -1.173E+01   -1.171E+01   -1.170E+01   -1.168E+01   -1.167E+01
    -1.165E+01   -1.164E+01   -1.162E+01   -1.161E+01   -1.159E+01   -1.158E+01   -1.156E+01   -1.155E+01   -1.153E+01   -1.152E+01
    -1.150E+01   -1.149E+01   -1.147E+01   -1.146E+01   -1.144E+01   -1.143E+01   -1.141E+01   -1.140E+01   -1.138E+01   -1.137E+01
    -1.135E+01   -1.134E+01   -1.132E+01   -1.131E+01   -1.129E+01   -1.128E+01   -1.126E+01   -1.125E+01   -1.123E+01   -1.122E+01
    -1.120E+01   -1.118E+01   -1.117E+01   -1.115E+01   -1.114E+01   -1.112E+01   -1.111E+01   -1.109E+01   -1.107E+01   -1.106E+01
    -1.104E+01   -1.103E+01   -1.101E+01   -1.099E+01   -1.098E+01   -1.096E+01   -1.095E+01   -1.093E+01   -1.091E+01   -1.090E+01
    -1.088E+01   -1.086E+01   -1.085E+01   -1.083E+01   -1.082E+01   -1.080E+01   -1.078E+01   -1.077E+01   -1.075E+01   -1.073E+01
    -1.071E+01   -1.070E+01   -1.068E+01   -1.066E+01   -1.065E+01   -1.063E+01   -1.061E+01   -1.060E+01   -1.058E+01   -1.056E+01
    -1.054E+01   -1.053E+01   -1.051E+01   -1.049E+01   -1.047E+01   -1.045E+01   -1.044E+01   -1.042E+01   -1.040E+01   -1.038E+01
    -1.036E+01   -1.035E+01   -1.033E+01   -1.031E+01   -1.029E+01   -1.027E+01   -1.025E+01   -1.023E+01   -1.022E+01   -1.020E+01
    -1.018E+01   -1.016E+01   -1.014E+01   -1.012E+01   -1.010E+01   -1.008E+01   -1.006E+01   -1.004E+01   -1.002E+01   -1.000E+01
    -9.982E+00   -9.962E+00   -9.942E+00   -9.922E+00   -9.902E+00   -9.882E+00   -9.861E+00   -9.841E+00   -9.820E+00   -9.800E+00
    -9.779E+00   -9.758E+00   -9.737E+00   -9.716E+00   -9.695E+00   -9.674E+00   -9.652E+00   -9.631E+00   -9.610E+00   -9.588E+00
    -9.566E+00   -9.545E+00   -9.523E+00   -9.501E+00   -9.479E+00   -9.457E+00   -9.435E+00   -9.413E+00   -9.390E+00   -9.368E+00
    -9.345E+00   -9.323E+00   -9.300E+00   -9.277E+00   -9.254E+00   -9.231E+00   -9.208E+00   -9.185E+00   -9.161E+00   -9.138E+00
    -9.115E+00   -9.091E+00   -9.067E+00   -9.044E+00   -9.020E+00   -8.996E+00   -8.972E+00   -8.947E+00   -8.923E+00   -8.899E+00
    -8.874E+00   -8.850E+00   -8.825E+00   -8.800E+00   -8.775E+00   -8.750E+00   -8.725E+00   -8.700E+00   -8.675E+00   -8.649E+00
    -8.624E+00   -8.598E+00   -8.573E+00   -8.547E+00   -8.521E+00   -8.495E+00   -8.469E+00   -8.443E+00   -8.416E+00   -8.390E+00
    -8.363E+00   -8.337E+00   -8.310E+00   -8.283E+00   -8.256E+00   -8.229E+00   -8.202E+00   -8.175E+00   -8.147E+00   -8.120E+00
    -8.092E+00   -8.064E+00   -8.037E+00   -8.009E+00   -7.981E+00   -7.953E+00   -7.924E+00   -7.896E+00   -7.868E+00   -7.839E+00
    -7.810E+00   -7.782E+00   -7.753E+00   -7.724E+00   -7.695E+00   -7.666E+00   -7.637E+00   -7.607E+00   -7.578E+00   -7.548E+00
    -7.519E+00   -7.489E+00   -7.459E+00   -7.429E+00   -7.399E+00   -7.369E+00   -7.339E+00   -7.309E+00   -7.279E+00   -7.248E+00
    -7.218E+00   -7.187E+00   -7.156E+00   -7.125E+00   -7.095E+00   -7.064E+00   -7.033E+00   -7.001E+00   -6.970E+00   -6.939E+00
    -6.907E+00   -6.876E+00   -6.844E+00   -6.812E+00   -6.781E+00   -6.749E+00   -6.717E+00   -6.685E+00   -6.653E+00   -6.621E+00
    -6.588E+00   -6.556E+00   -6.524E+00   -6.491E+00   -6.459E+00   -6.426E+00   -6.393E+00   -6.361E+00   -6.328E+00   -6.295E+00
    -6.262E+00   -6.229E+00   -6.196E+00   -6.162E+00   -6.129E+00   -6.096E+00   -6.063E+00   -6.029E+00   -5.996E+00   -5.962E+00
    -5.928E+00   -5.895E+00   -5.861E+00   -5.827E+00   -5.793E+00   -5.760E+00   -5.726E+00   -5.692E+00   -5.658E+00   -5.623E+00
    -5.589E+00   -5.555E+00   -5.521E+00   -5.487E+00   -5.452E+00   -5.418E+00   -5.383E+00   -5.349E+00   -5.314E+00   -5.280E+00
    -5.245E+00   -5.210E+00   -5.176E+00   -5.141E+00   -5.106E+00   -5.071E+00   -5.037E+00   -5.002E+00   -4.967E+00   -4.932E+00
    -4.897E+00   -4.862E+00   -4.827E+00   -4.792E+00   -4.757E+00   -4.721E+00   -4.686E+00   -4.651E+00   -4.616E+00   -4.580E+00
    -4.545E+00   -4.510E+00   -4.474E+00   -4.439E+00   -4.404E+00   -4.368E+00   -4.333E+00   -4.297E+00   -4.262E+00   -4.226E+00
    -4.191E+00   -4.155E+00   -4.120E+00   -4.084E+00   -4.048E+00   -4.013E+00   -3.977E+00   -3.942E+00   -3.906E+00   -3.870E+00
    -3.835E+00   -3.799E+00   -3.763E+00   -3.727E+00   -3.692E+00   -3.656E+00   -3.620E+00   -3.584E+00   -3.549E+00   -3.513E+00
    -3.477E+00   -3.441E+00   -3.406E+00   -3.370E+00   -3.334E+00   -3.298E+00   -3.262E+00   -3.227E+00   -3.191E+00   -3.155E+00
    -3.119E+00   -3.083E+00   -3.048E+00   -3.012E+00   -2.976E+00   -2.940E+00   -2.904E+00   -2.869E+00   -2.833E+00   -2.797E+00
    -2.761E+00   -2.726E+00   -2.690E+00   -2.654E+00   -2.618E+00   -2.583E+00   -2.547E+00   -2.511E+00   -2.476E+00   -2.440E+00
    -2.404E+00   -2.369E+00   -2.333E+00   -2.297E+00   -2.262E+00   -2.226E+00   -2.191E+00   -2.155E+00   -2.120E+00   -2.084E+00
    -2.049E+00   -2.013E+00   -1.978E+00   -1.942E+00   -1.907E+00   -1.871E+00   -1.836E+00   -1.801E+00   -1.765E+00   -1.730E+00
    -1.695E+00   -1.659E+00   -1.624E+00   -1.589E+00   -1.554E+00   -1.518E+00   -1.483E+00   -1.448E+00   -1.413E+00   -1.378E+00
    -1.343E+00   -1.308E+00   -1.273E+00   -1.238E+00   -1.203E+00   -1.168E+00   -1.133E+00   -1.098E+00   -1.063E+00   -1.028E+00
    -9.932E-01   -9.584E-01   -9.236E-01   -8.888E-01   -8.541E-01   -8.194E-01   -7.847E-01   -7.501E-01
 Cr       Conc. = 4.46E+02
