 LCModel (Version 6.3-1L) Copyright: S.W. Provencher.          Ref.: Magn. Reson. Med. 30:672-679 (1993).                
 Slice#3 Row#13 Col#8  K_02_press_1_raw_act
 36 lines in following concentration table = NCONC+1
    Conc.  %SD /Cr+PCr  Metabolite                                         
  139.644  61%   0.254 Ala                                                 
   66.004 141%   0.120 Asp                                                 
  230.803  67%   0.420 Cr                                                  
  318.762  49%   0.580 PCr                                                 
   54.267 112% 9.9E-02 GABA                                                
   34.815 170% 6.3E-02 Glc                                                 
  484.087  41%   0.881 Gln                                                 
  385.670  57%   0.702 Glu                                                 
  116.398  11%   0.212 GPC                                                 
    0.000 999%   0.000 PCh                                                 
  139.008  37%   0.253 GSH                                                 
  450.068  38%   0.819 Ins                                                 
    0.000 999%   0.000 Lac                                                 
  682.049  11%   1.241 NAA                                                 
  302.344  26%   0.550 NAAG                                                
   21.375  66% 3.9E-02 Scyllo                                              
   93.070  93%   0.169 Tau                                                 
   77.392  89%   0.141 -CrCH2                                              
  116.398  11%   0.212 GPC+PCh                                             
  984.392   4%   1.791 NAA+NAAG                                            
  549.565   6%   1.000 Cr+PCr                                              
  869.757  41%   1.583 Glu+Gln                                             
    0.000 999%   0.000 Lip13a                                              
    0.000 999%   0.000 Lip13b                                              
    0.000 999%   0.000 Lip09                                               
   91.374  75%   0.166 MM09                                                
 2.11E-03 999% 3.8E-06 Lip20                                               
  137.177  75%   0.250 MM20                                                
   27.388  75% 5.0E-02 MM12                                                
   68.323  75%   0.124 MM14                                                
   34.556  74% 6.3E-02 MM17                                                
    0.000 999%   0.000 Lip13a+Lip13b                                       
   95.711  75%   0.174 MM14+Lip13a+Lip13b+MM12                             
   91.374  75%   0.166 MM09+Lip09                                          
  137.179  75%   0.250 MM20+Lip20                                          
   6 lines in following misc. output table
  FWHM = 0.084 ppm    S/N =   6                                            
  Data shift = 0.023 ppm                                                   
  Ph: -32 deg     -11.9 deg/ppm                                            
  alphaB,S = 1.1E+00,   9.4E+01                                            
   14 spline knots.   Ns =10(1)                                            
  (17) 4 infls.   (15) 3 extrs.                                            
  498 points on ppm-axis = NY
      4.000000     3.992357     3.984714     3.977070     3.969427     3.961784     3.954141     3.946497     3.938854     3.931211
      3.923568     3.915925     3.908281     3.900638     3.892995     3.885352     3.877708     3.870065     3.862422     3.854779
      3.847136     3.839492     3.831849     3.824206     3.816563     3.808919     3.801276     3.793633     3.785990     3.778347
      3.770703     3.763060     3.755417     3.747774     3.740130     3.732487     3.724844     3.717201     3.709558     3.701914
      3.694271     3.686628     3.678985     3.671341     3.663698     3.656055     3.648412     3.640769     3.633125     3.625482
      3.617839     3.610196     3.602552     3.594909     3.587266     3.579623     3.571980     3.564336     3.556693     3.549050
      3.541407     3.533763     3.526120     3.518477     3.510834     3.503191     3.495547     3.487904     3.480261     3.472618
      3.464974     3.457331     3.449688     3.442045     3.434402     3.426758     3.419115     3.411472     3.403829     3.396185
      3.388542     3.380899     3.373256     3.365613     3.357969     3.350326     3.342683     3.335040     3.327396     3.319753
      3.312110     3.304467     3.296824     3.289180     3.281537     3.273894     3.266251     3.258607     3.250964     3.243321
      3.235678     3.228034     3.220391     3.212748     3.205105     3.197462     3.189818     3.182175     3.174532     3.166889
      3.159245     3.151602     3.143959     3.136316     3.128673     3.121029     3.113386     3.105743     3.098100     3.090456
      3.082813     3.075170     3.067527     3.059884     3.052240     3.044597     3.036954     3.029311     3.021667     3.014024
      3.006381     2.998738     2.991095     2.983451     2.975808     2.968165     2.960522     2.952878     2.945235     2.937592
      2.929949     2.922306     2.914662     2.907019     2.899376     2.891733     2.884089     2.876446     2.868803     2.861160
      2.853517     2.845873     2.838230     2.830587     2.822944     2.815300     2.807657     2.800014     2.792371     2.784728
      2.777084     2.769441     2.761798     2.754155     2.746511     2.738868     2.731225     2.723582     2.715939     2.708295
      2.700652     2.693009     2.685366     2.677722     2.670079     2.662436     2.654793     2.647150     2.639506     2.631863
      2.624220     2.616577     2.608933     2.601290     2.593647     2.586004     2.578361     2.570717     2.563074     2.555431
      2.547788     2.540144     2.532501     2.524858     2.517215     2.509572     2.501928     2.494285     2.486642     2.478999
      2.471355     2.463712     2.456069     2.448426     2.440783     2.433139     2.425496     2.417853     2.410210     2.402566
      2.394923     2.387280     2.379637     2.371994     2.364350     2.356707     2.349064     2.341421     2.333777     2.326134
      2.318491     2.310848     2.303205     2.295561     2.287918     2.280275     2.272632     2.264988     2.257345     2.249702
      2.242059     2.234416     2.226772     2.219129     2.211486     2.203843     2.196199     2.188556     2.180913     2.173270
      2.165627     2.157983     2.150340     2.142697     2.135054     2.127410     2.119767     2.112124     2.104481     2.096838
      2.089194     2.081551     2.073908     2.066265     2.058621     2.050978     2.043335     2.035692     2.028049     2.020405
      2.012762     2.005119     1.997476     1.989833     1.982190     1.974546     1.966903     1.959260     1.951617     1.943974
      1.936331     1.928688     1.921045     1.913402     1.905759     1.898115     1.890472     1.882829     1.875186     1.867543
      1.859900     1.852257     1.844614     1.836971     1.829327     1.821684     1.814041     1.806398     1.798755     1.791112
      1.783469     1.775826     1.768183     1.760540     1.752896     1.745253     1.737610     1.729967     1.722324     1.714681
      1.707038     1.699395     1.691752     1.684108     1.676465     1.668822     1.661179     1.653536     1.645893     1.638250
      1.630607     1.622964     1.615321     1.607677     1.600034     1.592391     1.584748     1.577105     1.569462     1.561819
      1.554176     1.546533     1.538890     1.531246     1.523603     1.515960     1.508317     1.500674     1.493031     1.485388
      1.477745     1.470102     1.462458     1.454815     1.447172     1.439529     1.431886     1.424243     1.416600     1.408957
      1.401314     1.393671     1.386027     1.378384     1.370741     1.363098     1.355455     1.347812     1.340169     1.332526
      1.324883     1.317240     1.309596     1.301953     1.294310     1.286667     1.279024     1.271381     1.263738     1.256095
      1.248452     1.240808     1.233165     1.225522     1.217879     1.210236     1.202593     1.194950     1.187307     1.179664
      1.172021     1.164377     1.156734     1.149091     1.141448     1.133805     1.126162     1.118519     1.110876     1.103233
      1.095590     1.087946     1.080303     1.072660     1.065017     1.057374     1.049731     1.042088     1.034445     1.026802
      1.019158     1.011515     1.003872     0.996229     0.988586     0.980943     0.973300     0.965657     0.958014     0.950371
      0.942727     0.935084     0.927441     0.919798     0.912155     0.904512     0.896869     0.889226     0.881583     0.873940
      0.866296     0.858653     0.851010     0.843367     0.835724     0.828081     0.820438     0.812795     0.805152     0.797508
      0.789865     0.782222     0.774579     0.766936     0.759293     0.751650     0.744007     0.736364     0.728721     0.721077
      0.713434     0.705791     0.698148     0.690505     0.682862     0.675219     0.667576     0.659933     0.652290     0.644646
      0.637003     0.629360     0.621717     0.614074     0.606431     0.598788     0.591145     0.583502     0.575858     0.568215
      0.560572     0.552929     0.545286     0.537643     0.530000     0.522357     0.514714     0.507071     0.499427     0.491784
      0.484141     0.476498     0.468855     0.461212     0.453569     0.445925     0.438282     0.430639     0.422996     0.415353
      0.407710     0.400067     0.392424     0.384780     0.377137     0.369494     0.361851     0.354208     0.346565     0.338922
      0.331278     0.323635     0.315992     0.308349     0.300706     0.293063     0.285420     0.277777     0.270133     0.262490
      0.254847     0.247204     0.239561     0.231918     0.224275     0.216631     0.208988     0.201345
 NY phased data points follow
  -5.28008E+00 -3.08721E+00 -5.07531E+00 -3.23187E+00 -6.87069E-01 -2.81958E+00  1.06151E+00  1.10854E+00  2.61991E+00  2.43354E+00
   4.57815E+00  3.01809E+00  2.60972E+00  3.57287E+00  4.68993E+00  1.21689E+00 -1.53974E+00 -2.23000E+00 -1.05179E+00 -2.85645E+00
  -1.07841E+00 -4.43611E+00 -3.41399E+00 -2.11517E+00 -2.49816E+00 -2.33683E+00 -1.47178E+00 -2.06554E+00  9.76117E-01 -1.18090E+00
   1.53281E-01  6.03896E-01 -1.54421E-01  2.14781E+00  6.44214E-01 -3.90528E+00 -2.32977E+00 -2.12892E+00 -1.33659E+00 -1.65375E+00
  -1.16506E+00 -7.10784E-01  3.57784E-01 -2.49383E+00  3.22510E+00  1.14273E+00  1.47003E+00 -7.22299E-01  1.49675E+00  2.40830E+00
  -9.21834E-01 -4.71255E-01 -1.13211E+00  1.13658E+00 -1.78880E+00 -2.93836E+00  1.57934E+00  6.74722E-01 -6.44331E-01  1.32640E+00
  -1.07265E+00 -4.35522E-01 -7.70784E-01 -1.68468E+00 -2.01324E+00 -3.70365E+00 -3.36591E-01 -2.51144E+00  7.37702E-02 -5.04446E-01
  -1.56488E-01 -4.77688E+00 -3.02109E+00 -4.89735E-01 -7.08328E-01 -1.87733E+00  6.44771E-01  5.00298E-01 -3.02792E+00 -1.40869E+00
   1.80683E+00 -1.14313E+00 -2.64338E+00 -8.38266E-01  5.52816E-02 -1.44243E+00  1.63975E-01  4.43970E-01 -7.39263E-01 -2.73746E+00
  -1.38378E+00 -1.69366E+00 -2.73897E-01  1.34458E+00  4.07520E-01  1.05493E+00  1.24293E+00  2.72539E+00  3.64882E+00  3.07227E+00
   2.70236E+00  2.43697E+00  5.40798E+00  7.44652E+00  6.85165E+00  6.63768E+00  8.18295E+00  4.59777E+00  2.02330E+00  3.18212E+00
   2.45858E+00  3.55110E+00  2.83816E+00 -8.28688E-01  3.73890E+00  1.78272E+00  1.38215E+00  1.12411E+00  1.64954E+00  2.16144E+00
   7.20198E+00  6.84191E+00  8.13799E+00  6.40522E+00  7.59276E+00  7.44231E+00  1.16308E+01  1.12842E+01  1.16481E+01  1.37144E+01
   1.41884E+01  1.03887E+01  8.03426E+00  4.97475E+00  5.33434E+00  1.65372E+00  5.33811E-01  3.16728E-01  2.46694E+00  4.61166E+00
   2.58687E+00  8.13263E-01  1.09922E+00  2.04963E+00  1.71475E-01 -7.00004E-01 -4.98992E-01 -2.99216E+00  1.77416E+00  1.96090E+00
   1.14500E+00 -6.65750E-01 -2.94064E-02  1.38730E+00  4.10956E-01  2.23069E-01 -1.50420E-01  1.55064E+00 -5.58851E-01 -1.54188E+00
   1.57273E-01  1.33224E+00 -7.15407E-01 -1.80826E+00 -1.92585E+00  2.14822E+00 -4.22525E+00  1.17751E+00  6.95859E-01 -1.99537E+00
  -1.16512E+00 -1.79755E+00 -6.54196E-01 -2.17610E+00 -2.87109E+00 -3.90047E+00 -2.96703E+00 -1.53695E+00 -1.79941E+00 -1.30383E+00
  -2.37659E+00 -3.10039E+00 -1.67910E+00  8.34368E-01  3.38442E-01 -1.86380E+00  2.52491E+00 -6.79796E-01 -2.08843E+00 -7.11853E-01
   1.04051E+00  1.03568E+00  2.42478E+00  2.47434E+00  1.67937E+00  3.42144E+00 -3.68833E-01  1.28471E+00  4.30539E+00  1.40665E+00
   2.51224E-01  1.28869E+00  6.73032E-01  1.05240E+00  1.00428E-01  1.17471E+00  2.71656E+00  2.33314E+00  5.63003E-01 -3.53475E-01
   4.29698E-01 -6.70771E-01  1.38445E-01  2.64682E+00  1.86317E+00  1.19899E+00  8.47144E-01  3.57376E+00  2.32989E+00  5.27377E+00
   2.51404E+00  1.66959E+00  2.13255E+00  2.43262E+00  2.65017E+00 -2.49208E-01  5.15137E+00  2.35152E+00  3.30703E+00  3.13499E+00
   2.16941E+00  6.35582E+00  3.96768E+00  2.22971E+00  2.57507E+00  2.31250E+00  1.12765E+00  3.47115E-02  3.50011E+00  2.80369E+00
   2.78110E+00  3.34655E+00  3.18804E+00  2.82248E+00  3.12637E+00  1.54409E+00  4.08561E+00  6.23526E+00  5.55261E+00  7.02162E+00
   8.03060E+00  8.55824E+00  9.52302E+00  1.02320E+01  1.34381E+01  1.74113E+01  2.02139E+01  2.08928E+01  1.74930E+01  1.96484E+01
   2.35177E+01  2.03164E+01  2.25723E+01  2.06617E+01  1.88367E+01  1.21538E+01  9.86925E+00  6.04341E+00  7.30559E+00  2.99178E+00
   1.75716E+00  2.71033E+00  3.52208E+00  1.04963E+00  3.20081E+00 -1.46937E-01  1.07928E+00  4.77141E+00  4.21626E+00  2.93605E+00
   4.12266E+00  4.60983E+00  2.31065E+00  2.44250E+00  3.18290E+00  1.45754E+00  2.26475E+00  4.82374E+00  5.30471E-01  6.23122E+00
   4.52998E+00  2.57674E+00  2.24853E+00  2.65495E+00  2.79493E+00 -1.66415E-01 -3.20327E-01  5.78713E+00  3.27643E+00  1.51977E+00
   5.91391E+00  3.20702E+00  1.60780E+00  3.80562E+00  5.93392E+00  2.74757E+00  3.77347E+00  5.43497E+00  2.47929E+00  3.26943E+00
   1.67261E+00  3.47212E+00  3.71884E+00  1.32839E+00  1.33303E+00  6.64492E-01  3.12741E+00  1.42089E+00  1.12772E+00  3.72606E-01
   1.21918E+00  1.18913E+00  3.11927E+00  2.49234E+00  6.11421E-01 -9.68479E-02  3.44618E+00  6.99607E-01 -1.36184E+00 -1.00069E+00
   3.86753E-01 -2.50471E-01  1.75391E+00 -1.61933E+00 -7.81903E-01 -2.58926E+00  4.17209E-01 -3.13381E+00  1.94879E+00  2.46451E+00
   2.10295E+00  3.03442E+00 -3.89459E-01 -1.45813E+00  4.25277E-01  1.56653E-01  3.77491E-01 -4.55201E-01  8.26088E-02  7.54668E-01
  -1.43372E+00  5.15994E-01 -1.50344E+00  1.62739E+00 -1.63506E+00 -8.21240E-01 -1.53762E+00 -1.45660E+00  5.36283E-02 -2.50950E+00
  -3.08295E+00 -3.14508E+00 -3.21299E-01 -1.82765E+00 -4.68901E-02 -9.74735E-01 -1.18367E+00 -1.13188E+00  9.38453E-01  2.09611E-01
  -9.02367E-01  2.18452E-01  8.17394E-01 -2.88128E+00  1.80839E-01 -2.86992E+00 -3.99398E+00 -1.98938E+00 -6.98699E-01 -3.04027E+00
  -2.85717E+00 -1.37297E+00 -1.89489E+00  1.57770E+00 -1.75772E+00 -4.45541E-01  1.11227E+00 -5.15749E+00 -2.00432E+00 -2.06486E+00
  -3.44009E+00 -1.75665E+00 -1.14304E+00  4.98764E-02 -1.52053E+00  1.92011E+00 -1.32574E+00  2.35014E+00 -1.26036E+00 -2.09153E+00
   8.04919E-01  3.00881E-02  1.24478E+00  1.55440E+00  7.05658E-01  1.07643E+00 -3.67481E-01  2.53026E+00  1.66209E-01  5.97265E-01
  -3.84376E-01 -1.00346E+00 -2.45692E+00 -9.94858E-02 -2.20380E+00 -1.77764E-01  8.18042E-01  6.36783E-03  1.97842E+00  2.11908E+00
  -1.01249E+00  1.60319E+00  6.02633E-01  2.38408E+00  1.38272E-01  1.42095E+00 -2.83409E+00  4.22697E-01 -7.99890E-01 -3.52143E+00
   1.02846E+00  7.58584E-01  2.47629E+00 -1.09932E+00  1.82334E-01  2.01916E+00  1.26126E+00  6.14211E-01  2.31177E-01 -3.23472E-02
   3.01671E+00  1.18313E-01 -7.49796E-01 -6.60917E-01 -7.88138E-01 -2.71008E+00 -8.11111E-01  1.86874E+00  2.41504E-01  4.95340E-01
   1.18210E+00  1.42102E-01 -8.32325E-01  2.06067E+00  1.42249E+00  2.51932E-01 -4.19960E-01  3.52374E+00 -2.13706E+00  4.26662E-01
   2.75054E-01  1.44474E+00  1.12111E+00  1.19087E+00 -1.23244E+00  1.86245E+00 -1.45491E+00 -3.48982E-01  2.86759E-01 -4.17222E-01
  -1.85759E-01  7.41664E-02  1.05745E+00 -1.09149E+00  8.84046E-01  2.58476E+00  1.71848E+00  1.24807E+00  2.28415E-01 -1.43252E+00
   1.96707E+00  8.51105E-01 -4.93651E-01  2.33934E+00  8.34241E-01  7.12566E-01  1.07935E-01 -1.19959E+00  3.09513E-01  1.02294E+00
  -2.79976E+00  2.59471E+00  2.21099E+00  1.38180E+00  1.94466E-01 -3.71369E-02 -4.27311E-01  2.90922E+00
 NY points of the fit to the data follow
  -3.47705E+00 -3.10530E+00 -2.47440E+00 -1.72713E+00 -1.01615E+00 -4.37222E-01  1.90794E-02  4.95760E-01  1.13962E+00  1.97632E+00
   2.87996E+00  3.56791E+00  3.76641E+00  3.38654E+00  2.55136E+00  1.50735E+00  4.56347E-01 -4.75981E-01 -1.25255E+00 -1.85885E+00
  -2.26173E+00 -2.43830E+00 -2.31596E+00 -1.94490E+00 -1.49237E+00 -1.17877E+00 -1.10163E+00 -1.17094E+00 -1.21610E+00 -1.11137E+00
  -8.02760E-01 -3.37375E-01  1.24848E-01  3.73123E-01  2.73431E-01 -1.21163E-01 -6.27619E-01 -1.06206E+00 -1.34625E+00 -1.44367E+00
  -1.34122E+00 -1.12545E+00 -9.33631E-01 -8.49154E-01 -7.91013E-01 -6.22383E-01 -3.17329E-01  1.13405E-02  2.40360E-01  3.07526E-01
   1.59020E-01 -1.94066E-01 -6.16232E-01 -9.54881E-01 -1.16722E+00 -1.31291E+00 -1.42418E+00 -1.45933E+00 -1.39482E+00 -1.24538E+00
  -1.06509E+00 -9.08584E-01 -8.20008E-01 -8.33536E-01 -9.28310E-01 -1.02646E+00 -1.06600E+00 -1.04569E+00 -9.77705E-01 -8.76312E-01
  -7.68219E-01 -6.80312E-01 -6.19736E-01 -5.71344E-01 -5.19491E-01 -4.70061E-01 -4.25511E-01 -4.05226E-01 -4.33835E-01 -5.06477E-01
  -6.18034E-01 -7.47436E-01 -8.52795E-01 -8.93011E-01 -8.52347E-01 -7.67583E-01 -7.08245E-01 -7.30396E-01 -8.28811E-01 -9.68337E-01
  -1.11453E+00 -1.20291E+00 -1.12594E+00 -6.85694E-01  1.16551E-02  8.35110E-01  1.80169E+00  2.72483E+00  3.31026E+00  3.51463E+00
   3.68112E+00  4.24526E+00  5.25923E+00  6.34834E+00  7.12732E+00  7.32505E+00  6.75354E+00  5.48672E+00  3.96908E+00  2.67672E+00
   1.73195E+00  9.89905E-01  3.79531E-01 -2.83934E-02 -2.47957E-01 -3.17512E-01 -1.51156E-01  5.70999E-01  1.68358E+00  3.03809E+00
   4.62030E+00  6.06759E+00  6.93216E+00  7.26517E+00  7.68419E+00  8.81334E+00  1.06088E+01  1.23891E+01  1.35217E+01  1.35952E+01
   1.23876E+01  1.01582E+01  7.69320E+00  5.67644E+00  4.19092E+00  2.94829E+00  1.86271E+00  1.09449E+00  6.51211E-01  4.88145E-01
   5.16651E-01  6.26256E-01  7.43469E-01  8.27930E-01  8.54339E-01  8.22193E-01  7.58478E-01  6.81898E-01  6.06232E-01  5.44603E-01
   4.92389E-01  4.35366E-01  3.57042E-01  2.51300E-01  1.29116E-01  3.34929E-02 -8.94926E-04  2.85449E-02  8.88749E-02  1.08169E-01
   3.27271E-02 -1.13406E-01 -2.63764E-01 -3.57921E-01 -3.66582E-01 -3.17425E-01 -2.79587E-01 -3.16169E-01 -4.28425E-01 -5.76390E-01
  -6.92821E-01 -7.40233E-01 -7.38328E-01 -7.37401E-01 -7.83738E-01 -8.80077E-01 -9.69466E-01 -9.94131E-01 -9.39523E-01 -8.25342E-01
  -6.94287E-01 -5.50935E-01 -3.69891E-01 -1.48951E-01  9.31947E-02  3.27602E-01  4.95138E-01  5.91386E-01  6.61100E-01  7.78580E-01
   9.87289E-01  1.25270E+00  1.49148E+00  1.64361E+00  1.71377E+00  1.72805E+00  1.70906E+00  1.69650E+00  1.73579E+00  1.79947E+00
   1.82609E+00  1.86524E+00  1.91781E+00  1.94814E+00  1.97713E+00  2.00860E+00  1.97254E+00  1.72866E+00  1.25629E+00  7.24155E-01
   3.13798E-01  1.01441E-01  1.25443E-01  4.38374E-01  9.97946E-01  1.60445E+00  2.09326E+00  2.46814E+00  2.71005E+00  2.70285E+00
   2.40319E+00  1.95319E+00  1.55801E+00  1.34328E+00  1.32674E+00  1.50058E+00  1.83226E+00  2.23232E+00  2.54259E+00  2.67664E+00
   2.70089E+00  2.71412E+00  2.68809E+00  2.58424E+00  2.45323E+00  2.34472E+00  2.27804E+00  2.26908E+00  2.35235E+00  2.50821E+00
   2.61778E+00  2.54940E+00  2.31425E+00  2.04060E+00  1.85151E+00  1.91021E+00  2.43080E+00  3.26906E+00  4.28008E+00  5.42845E+00
   6.82122E+00  8.57019E+00  1.03750E+01  1.25522E+01  1.52381E+01  1.77128E+01  1.91839E+01  1.97409E+01  2.01180E+01  2.07950E+01
   2.15254E+01  2.18646E+01  2.15294E+01  2.00669E+01  1.71966E+01  1.35008E+01  1.01235E+01  7.64452E+00  5.86968E+00  4.43171E+00
   3.35303E+00  2.72938E+00  2.40729E+00  2.28790E+00  2.25490E+00  2.24172E+00  2.22209E+00  2.18413E+00  2.12344E+00  2.04730E+00
   1.96958E+00  1.90382E+00  1.85571E+00  1.82305E+00  1.80525E+00  1.80167E+00  1.80392E+00  1.80092E+00  1.78772E+00  1.76628E+00
   1.74399E+00  1.72574E+00  1.71317E+00  1.70737E+00  1.70646E+00  1.70492E+00  1.69655E+00  1.67880E+00  1.65521E+00  1.63054E+00
   1.60651E+00  1.58495E+00  1.56867E+00  1.55743E+00  1.54801E+00  1.53722E+00  1.52409E+00  1.50931E+00  1.49328E+00  1.47625E+00
   1.45947E+00  1.44418E+00  1.43183E+00  1.42428E+00  1.42412E+00  1.43586E+00  1.46936E+00  1.54448E+00  1.63721E+00  1.69919E+00
   1.72937E+00  1.69786E+00  1.57411E+00  1.38822E+00  1.21446E+00  1.12646E+00  1.12807E+00  1.10420E+00  1.00906E+00  8.58931E-01
   6.39549E-01  3.50434E-01  7.52939E-02 -5.58685E-02  2.42295E-02  2.73854E-01  6.16115E-01  9.96833E-01  1.32633E+00  1.50152E+00
   1.49717E+00  1.37970E+00  1.23749E+00  1.10078E+00  9.57557E-01  8.16466E-01  6.99363E-01  6.05306E-01  5.31629E-01  4.70880E-01
   4.18289E-01  3.71591E-01  3.29485E-01  2.91157E-01  2.56010E-01  2.23596E-01  1.93527E-01  1.65505E-01  1.39266E-01  1.14593E-01
   9.12625E-02  6.90817E-02  4.78656E-02  2.74796E-02  7.79823E-03 -1.12605E-02 -2.97825E-02 -4.78110E-02 -6.53718E-02 -8.24287E-02
  -9.89362E-02 -1.14816E-01 -1.30001E-01 -1.44392E-01 -1.57880E-01 -1.70315E-01 -1.81562E-01 -1.91464E-01 -1.99891E-01 -2.06678E-01
  -2.11663E-01 -2.14654E-01 -2.15480E-01 -2.13958E-01 -2.09930E-01 -2.03211E-01 -1.93638E-01 -1.81046E-01 -1.65334E-01 -1.46434E-01
  -1.24357E-01 -9.91584E-02 -7.09979E-02 -4.01275E-02 -6.94578E-03  2.80418E-02  6.41964E-02  1.00797E-01  1.37007E-01  1.71935E-01
   2.04622E-01  2.34134E-01  2.59575E-01  2.80167E-01  2.95246E-01  3.04326E-01  3.07100E-01  3.03504E-01  2.93684E-01  2.78022E-01
   2.57068E-01  2.31546E-01  2.02282E-01  1.70208E-01  1.36278E-01  1.01449E-01  6.66025E-02  3.25447E-02 -4.23578E-05 -3.05743E-02
  -5.86147E-02 -8.38442E-02 -1.06094E-01 -1.25287E-01 -1.41451E-01 -1.54662E-01 -1.65074E-01 -1.72867E-01 -1.78272E-01 -1.81508E-01
  -1.82806E-01 -1.82365E-01 -1.80395E-01 -1.77075E-01 -1.72592E-01 -1.67086E-01 -1.60694E-01 -1.53514E-01 -1.45652E-01 -1.37191E-01
  -1.28219E-01 -1.18787E-01 -1.08953E-01 -9.87496E-02 -8.82279E-02 -7.74203E-02 -6.63698E-02 -5.50899E-02 -4.36075E-02 -3.19336E-02
  -2.01028E-02 -8.12920E-03  3.96155E-03  1.61718E-02  2.84895E-02  4.09161E-02  5.34305E-02  6.60329E-02  7.87115E-02  9.14772E-02
   1.04318E-01  1.17236E-01  1.30212E-01  1.43253E-01  1.56352E-01  1.69523E-01  1.82751E-01  1.96040E-01  2.09373E-01  2.22759E-01
   2.36193E-01  2.49687E-01  2.63227E-01  2.76816E-01  2.90443E-01  3.04120E-01  3.17844E-01  3.31623E-01  3.45443E-01  3.59309E-01
   3.73212E-01  3.87168E-01  4.01172E-01  4.15231E-01  4.29334E-01  4.43488E-01  4.57688E-01  4.71954E-01  4.86278E-01  5.00672E-01
   5.15124E-01  5.29649E-01  5.44248E-01  5.58942E-01  5.73731E-01  5.88628E-01  6.03634E-01  6.18775E-01
 NY background values follow
    -5.064E+00   -5.022E+00   -4.980E+00   -4.938E+00   -4.896E+00   -4.853E+00   -4.811E+00   -4.769E+00   -4.727E+00   -4.685E+00
    -4.642E+00   -4.600E+00   -4.558E+00   -4.516E+00   -4.474E+00   -4.431E+00   -4.389E+00   -4.347E+00   -4.305E+00   -4.263E+00
    -4.221E+00   -4.179E+00   -4.137E+00   -4.095E+00   -4.053E+00   -4.011E+00   -3.970E+00   -3.928E+00   -3.886E+00   -3.845E+00
    -3.803E+00   -3.761E+00   -3.720E+00   -3.679E+00   -3.637E+00   -3.596E+00   -3.555E+00   -3.514E+00   -3.473E+00   -3.432E+00
    -3.391E+00   -3.350E+00   -3.309E+00   -3.269E+00   -3.228E+00   -3.188E+00   -3.147E+00   -3.107E+00   -3.067E+00   -3.027E+00
    -2.987E+00   -2.947E+00   -2.907E+00   -2.868E+00   -2.828E+00   -2.789E+00   -2.750E+00   -2.711E+00   -2.672E+00   -2.633E+00
    -2.594E+00   -2.555E+00   -2.517E+00   -2.478E+00   -2.440E+00   -2.402E+00   -2.364E+00   -2.326E+00   -2.288E+00   -2.251E+00
    -2.213E+00   -2.176E+00   -2.139E+00   -2.102E+00   -2.065E+00   -2.028E+00   -1.992E+00   -1.955E+00   -1.919E+00   -1.883E+00
    -1.847E+00   -1.811E+00   -1.776E+00   -1.740E+00   -1.705E+00   -1.670E+00   -1.635E+00   -1.600E+00   -1.565E+00   -1.531E+00
    -1.497E+00   -1.463E+00   -1.429E+00   -1.395E+00   -1.362E+00   -1.328E+00   -1.295E+00   -1.262E+00   -1.229E+00   -1.197E+00
    -1.164E+00   -1.132E+00   -1.100E+00   -1.068E+00   -1.036E+00   -1.005E+00   -9.732E-01   -9.420E-01   -9.111E-01   -8.803E-01
    -8.497E-01   -8.193E-01   -7.891E-01   -7.591E-01   -7.293E-01   -6.996E-01   -6.702E-01   -6.409E-01   -6.119E-01   -5.830E-01
    -5.544E-01   -5.259E-01   -4.976E-01   -4.695E-01   -4.417E-01   -4.140E-01   -3.865E-01   -3.592E-01   -3.322E-01   -3.053E-01
    -2.786E-01   -2.521E-01   -2.259E-01   -1.998E-01   -1.739E-01   -1.483E-01   -1.228E-01   -9.756E-02   -7.251E-02   -4.766E-02
    -2.301E-02    1.457E-03    2.573E-02    4.982E-02    7.372E-02    9.744E-02    1.210E-01    1.444E-01    1.676E-01    1.906E-01
     2.134E-01    2.361E-01    2.587E-01    2.810E-01    3.033E-01    3.253E-01    3.473E-01    3.690E-01    3.907E-01    4.121E-01
     4.335E-01    4.547E-01    4.758E-01    4.968E-01    5.176E-01    5.383E-01    5.589E-01    5.793E-01    5.997E-01    6.199E-01
     6.401E-01    6.601E-01    6.800E-01    6.998E-01    7.195E-01    7.392E-01    7.587E-01    7.782E-01    7.975E-01    8.168E-01
     8.360E-01    8.551E-01    8.742E-01    8.931E-01    9.120E-01    9.308E-01    9.495E-01    9.680E-01    9.865E-01    1.005E+00
     1.023E+00    1.041E+00    1.059E+00    1.077E+00    1.095E+00    1.112E+00    1.129E+00    1.146E+00    1.163E+00    1.180E+00
     1.197E+00    1.213E+00    1.230E+00    1.246E+00    1.261E+00    1.277E+00    1.292E+00    1.308E+00    1.322E+00    1.337E+00
     1.352E+00    1.366E+00    1.380E+00    1.393E+00    1.407E+00    1.420E+00    1.433E+00    1.445E+00    1.457E+00    1.469E+00
     1.481E+00    1.492E+00    1.503E+00    1.514E+00    1.524E+00    1.534E+00    1.544E+00    1.553E+00    1.562E+00    1.570E+00
     1.579E+00    1.587E+00    1.594E+00    1.601E+00    1.608E+00    1.614E+00    1.620E+00    1.626E+00    1.631E+00    1.636E+00
     1.641E+00    1.645E+00    1.648E+00    1.652E+00    1.655E+00    1.657E+00    1.659E+00    1.661E+00    1.662E+00    1.663E+00
     1.664E+00    1.664E+00    1.663E+00    1.663E+00    1.661E+00    1.660E+00    1.658E+00    1.655E+00    1.652E+00    1.649E+00
     1.645E+00    1.641E+00    1.636E+00    1.631E+00    1.626E+00    1.620E+00    1.613E+00    1.606E+00    1.599E+00    1.591E+00
     1.583E+00    1.574E+00    1.565E+00    1.555E+00    1.545E+00    1.534E+00    1.523E+00    1.512E+00    1.500E+00    1.488E+00
     1.475E+00    1.462E+00    1.448E+00    1.434E+00    1.420E+00    1.405E+00    1.390E+00    1.374E+00    1.359E+00    1.342E+00
     1.326E+00    1.309E+00    1.292E+00    1.274E+00    1.256E+00    1.238E+00    1.219E+00    1.201E+00    1.181E+00    1.162E+00
     1.142E+00    1.122E+00    1.102E+00    1.082E+00    1.061E+00    1.040E+00    1.018E+00    9.970E-01    9.752E-01    9.533E-01
     9.311E-01    9.087E-01    8.861E-01    8.633E-01    8.403E-01    8.172E-01    7.938E-01    7.703E-01    7.466E-01    7.228E-01
     6.989E-01    6.748E-01    6.507E-01    6.265E-01    6.022E-01    5.778E-01    5.535E-01    5.291E-01    5.047E-01    4.803E-01
     4.559E-01    4.316E-01    4.074E-01    3.832E-01    3.591E-01    3.351E-01    3.113E-01    2.876E-01    2.640E-01    2.406E-01
     2.174E-01    1.944E-01    1.716E-01    1.490E-01    1.267E-01    1.046E-01    8.285E-02    6.135E-02    4.017E-02    1.930E-02
    -1.221E-03   -2.139E-02   -4.119E-02   -6.061E-02   -7.963E-02   -9.823E-02   -1.164E-01   -1.341E-01   -1.514E-01   -1.682E-01
    -1.845E-01   -2.002E-01   -2.155E-01   -2.302E-01   -2.444E-01   -2.581E-01   -2.713E-01   -2.840E-01   -2.961E-01   -3.077E-01
    -3.189E-01   -3.295E-01   -3.397E-01   -3.494E-01   -3.585E-01   -3.672E-01   -3.755E-01   -3.832E-01   -3.905E-01   -3.973E-01
    -4.036E-01   -4.095E-01   -4.150E-01   -4.200E-01   -4.245E-01   -4.286E-01   -4.323E-01   -4.355E-01   -4.383E-01   -4.407E-01
    -4.427E-01   -4.442E-01   -4.453E-01   -4.460E-01   -4.464E-01   -4.463E-01   -4.458E-01   -4.449E-01   -4.436E-01   -4.420E-01
    -4.399E-01   -4.375E-01   -4.347E-01   -4.315E-01   -4.280E-01   -4.241E-01   -4.199E-01   -4.153E-01   -4.103E-01   -4.050E-01
    -3.994E-01   -3.934E-01   -3.871E-01   -3.805E-01   -3.736E-01   -3.664E-01   -3.590E-01   -3.512E-01   -3.431E-01   -3.348E-01
    -3.262E-01   -3.173E-01   -3.082E-01   -2.989E-01   -2.893E-01   -2.795E-01   -2.695E-01   -2.592E-01   -2.488E-01   -2.381E-01
    -2.273E-01   -2.162E-01   -2.050E-01   -1.936E-01   -1.821E-01   -1.704E-01   -1.585E-01   -1.465E-01   -1.343E-01   -1.220E-01
    -1.096E-01   -9.711E-02   -8.448E-02   -7.174E-02   -5.891E-02   -4.599E-02   -3.299E-02   -1.992E-02   -6.774E-03    6.430E-03
     1.969E-02    3.299E-02    4.634E-02    5.972E-02    7.313E-02    8.657E-02    1.000E-01    1.136E-01    1.271E-01    1.407E-01
     1.542E-01    1.679E-01    1.815E-01    1.952E-01    2.089E-01    2.226E-01    2.363E-01    2.501E-01    2.639E-01    2.777E-01
     2.915E-01    3.054E-01    3.192E-01    3.331E-01    3.470E-01    3.609E-01    3.748E-01    3.888E-01    4.027E-01    4.167E-01
     4.306E-01    4.446E-01    4.586E-01    4.726E-01    4.866E-01    5.007E-01    5.147E-01    5.287E-01    5.427E-01    5.568E-01
     5.708E-01    5.848E-01    5.989E-01    6.129E-01    6.270E-01    6.410E-01    6.550E-01    6.691E-01
 Ala      Conc. = 1.40E+02
