 LCModel (Version 6.3-1L) Copyright: S.W. Provencher.          Ref.: Magn. Reson. Med. 30:672-679 (1993).                
 Slice#3 Row#4 Col#4  K_02_press_1_raw_act
 36 lines in following concentration table = NCONC+1
    Conc.  %SD /Cr+PCr  Metabolite                                         
    0.000 999%   0.000 Ala                                                 
    0.000 999%   0.000 Asp                                                 
  109.850 195% 7.0E-02 Cr                                                  
 1.47E+03  15%   0.930 PCr                                                 
    0.000 999%   0.000 GABA                                                
    0.000 999%   0.000 Glc                                                 
  538.163  39%   0.341 Gln                                                 
 1.41E+03  17%   0.893 Glu                                                 
  399.281   5%   0.253 GPC                                                 
    0.000 999%   0.000 PCh                                                 
  298.121  24%   0.189 GSH                                                 
  738.550  33%   0.468 Ins                                                 
   10.097 999% 6.4E-03 Lac                                                 
 2.15E+03   3%   1.364 NAA                                                 
    0.000 999%   0.000 NAAG                                                
    0.000 999%   0.000 Scyllo                                              
    0.000 999%   0.000 Tau                                                 
    0.000 999%   0.000 -CrCH2                                              
  399.281   5%   0.253 GPC+PCh                                             
 2.15E+03   3%   1.364 NAA+NAAG                                            
 1.58E+03   4%   1.000 Cr+PCr                                              
 1.95E+03  16%   1.234 Glu+Gln                                             
    0.000 999%   0.000 Lip13a                                              
    0.000 999%   0.000 Lip13b                                              
    0.000 999%   0.000 Lip09                                               
  863.635  21%   0.547 MM09                                                
    0.000 999%   0.000 Lip20                                               
 1.05E+03  36%   0.665 MM20                                                
    0.000 999%   0.000 MM12                                                
    0.000 999%   0.000 MM14                                                
 3.41E+03   9%   2.161+MM17                                                
    0.000 999%   0.000 Lip13a+Lip13b                                       
    0.000 999%   0.000 MM14+Lip13a+Lip13b+MM12                             
  863.635  21%   0.547 MM09+Lip09                                          
 1.05E+03  36%   0.665 MM20+Lip20                                          
   6 lines in following misc. output table
  FWHM = 0.046 ppm    S/N =  11                                            
  Data shift = 0.031 ppm                                                   
  Ph:   6 deg     -15.4 deg/ppm                                            
  alphaB,S = 2.8E-01,   1.5E+02                                            
   14 spline knots.   Ns = 6(1)                                            
  ( 7) 2 infls.   ( 3) 1 extrs.                                            
  498 points on ppm-axis = NY
      4.000000     3.992357     3.984714     3.977070     3.969427     3.961784     3.954141     3.946497     3.938854     3.931211
      3.923568     3.915925     3.908281     3.900638     3.892995     3.885352     3.877708     3.870065     3.862422     3.854779
      3.847136     3.839492     3.831849     3.824206     3.816563     3.808919     3.801276     3.793633     3.785990     3.778347
      3.770703     3.763060     3.755417     3.747774     3.740130     3.732487     3.724844     3.717201     3.709558     3.701914
      3.694271     3.686628     3.678985     3.671341     3.663698     3.656055     3.648412     3.640769     3.633125     3.625482
      3.617839     3.610196     3.602552     3.594909     3.587266     3.579623     3.571980     3.564336     3.556693     3.549050
      3.541407     3.533763     3.526120     3.518477     3.510834     3.503191     3.495547     3.487904     3.480261     3.472618
      3.464974     3.457331     3.449688     3.442045     3.434402     3.426758     3.419115     3.411472     3.403829     3.396185
      3.388542     3.380899     3.373256     3.365613     3.357969     3.350326     3.342683     3.335040     3.327396     3.319753
      3.312110     3.304467     3.296824     3.289180     3.281537     3.273894     3.266251     3.258607     3.250964     3.243321
      3.235678     3.228034     3.220391     3.212748     3.205105     3.197462     3.189818     3.182175     3.174532     3.166889
      3.159245     3.151602     3.143959     3.136316     3.128673     3.121029     3.113386     3.105743     3.098100     3.090456
      3.082813     3.075170     3.067527     3.059884     3.052240     3.044597     3.036954     3.029311     3.021667     3.014024
      3.006381     2.998738     2.991095     2.983451     2.975808     2.968165     2.960522     2.952878     2.945235     2.937592
      2.929949     2.922306     2.914662     2.907019     2.899376     2.891733     2.884089     2.876446     2.868803     2.861160
      2.853517     2.845873     2.838230     2.830587     2.822944     2.815300     2.807657     2.800014     2.792371     2.784728
      2.777084     2.769441     2.761798     2.754155     2.746511     2.738868     2.731225     2.723582     2.715939     2.708295
      2.700652     2.693009     2.685366     2.677722     2.670079     2.662436     2.654793     2.647150     2.639506     2.631863
      2.624220     2.616577     2.608933     2.601290     2.593647     2.586004     2.578361     2.570717     2.563074     2.555431
      2.547788     2.540144     2.532501     2.524858     2.517215     2.509572     2.501928     2.494285     2.486642     2.478999
      2.471355     2.463712     2.456069     2.448426     2.440783     2.433139     2.425496     2.417853     2.410210     2.402566
      2.394923     2.387280     2.379637     2.371994     2.364350     2.356707     2.349064     2.341421     2.333777     2.326134
      2.318491     2.310848     2.303205     2.295561     2.287918     2.280275     2.272632     2.264988     2.257345     2.249702
      2.242059     2.234416     2.226772     2.219129     2.211486     2.203843     2.196199     2.188556     2.180913     2.173270
      2.165627     2.157983     2.150340     2.142697     2.135054     2.127410     2.119767     2.112124     2.104481     2.096838
      2.089194     2.081551     2.073908     2.066265     2.058621     2.050978     2.043335     2.035692     2.028049     2.020405
      2.012762     2.005119     1.997476     1.989833     1.982190     1.974546     1.966903     1.959260     1.951617     1.943974
      1.936331     1.928688     1.921045     1.913402     1.905759     1.898115     1.890472     1.882829     1.875186     1.867543
      1.859900     1.852257     1.844614     1.836971     1.829327     1.821684     1.814041     1.806398     1.798755     1.791112
      1.783469     1.775826     1.768183     1.760540     1.752896     1.745253     1.737610     1.729967     1.722324     1.714681
      1.707038     1.699395     1.691752     1.684108     1.676465     1.668822     1.661179     1.653536     1.645893     1.638250
      1.630607     1.622964     1.615321     1.607677     1.600034     1.592391     1.584748     1.577105     1.569462     1.561819
      1.554176     1.546533     1.538890     1.531246     1.523603     1.515960     1.508317     1.500674     1.493031     1.485388
      1.477745     1.470102     1.462458     1.454815     1.447172     1.439529     1.431886     1.424243     1.416600     1.408957
      1.401314     1.393671     1.386027     1.378384     1.370741     1.363098     1.355455     1.347812     1.340169     1.332526
      1.324883     1.317240     1.309596     1.301953     1.294310     1.286667     1.279024     1.271381     1.263738     1.256095
      1.248452     1.240808     1.233165     1.225522     1.217879     1.210236     1.202593     1.194950     1.187307     1.179664
      1.172021     1.164377     1.156734     1.149091     1.141448     1.133805     1.126162     1.118519     1.110876     1.103233
      1.095590     1.087946     1.080303     1.072660     1.065017     1.057374     1.049731     1.042088     1.034445     1.026802
      1.019158     1.011515     1.003872     0.996229     0.988586     0.980943     0.973300     0.965657     0.958014     0.950371
      0.942727     0.935084     0.927441     0.919798     0.912155     0.904512     0.896869     0.889226     0.881583     0.873940
      0.866296     0.858653     0.851010     0.843367     0.835724     0.828081     0.820438     0.812795     0.805152     0.797508
      0.789865     0.782222     0.774579     0.766936     0.759293     0.751650     0.744007     0.736364     0.728721     0.721077
      0.713434     0.705791     0.698148     0.690505     0.682862     0.675219     0.667576     0.659933     0.652290     0.644646
      0.637003     0.629360     0.621717     0.614074     0.606431     0.598788     0.591145     0.583502     0.575858     0.568215
      0.560572     0.552929     0.545286     0.537643     0.530000     0.522357     0.514714     0.507071     0.499427     0.491784
      0.484141     0.476498     0.468855     0.461212     0.453569     0.445925     0.438282     0.430639     0.422996     0.415353
      0.407710     0.400067     0.392424     0.384780     0.377137     0.369494     0.361851     0.354208     0.346565     0.338922
      0.331278     0.323635     0.315992     0.308349     0.300706     0.293063     0.285420     0.277777     0.270133     0.262490
      0.254847     0.247204     0.239561     0.231918     0.224275     0.216631     0.208988     0.201345
 NY phased data points follow
   6.28440E+01  6.26910E+01  6.13140E+01  6.47736E+01  7.05554E+01  7.13766E+01  7.36671E+01  8.16332E+01  9.11177E+01  8.85263E+01
   9.17525E+01  8.90322E+01  8.17213E+01  7.22004E+01  7.22283E+01  6.40891E+01  5.71467E+01  5.51732E+01  5.27636E+01  5.09162E+01
   5.10411E+01  5.03348E+01  5.22989E+01  4.75259E+01  4.40341E+01  4.58140E+01  4.76079E+01  4.69293E+01  5.00646E+01  4.91971E+01
   5.36401E+01  5.22347E+01  5.63036E+01  4.79605E+01  4.26954E+01  4.43261E+01  4.50582E+01  4.31000E+01  4.46011E+01  4.47420E+01
   4.57851E+01  4.30855E+01  4.19354E+01  4.40705E+01  4.14060E+01  4.70289E+01  5.00029E+01  5.19197E+01  4.78980E+01  4.29462E+01
   3.92944E+01  4.07754E+01  3.68398E+01  3.86696E+01  3.62545E+01  4.19206E+01  3.59277E+01  3.49473E+01  3.93277E+01  4.18870E+01
   3.53236E+01  3.32157E+01  3.07476E+01  3.14714E+01  2.75638E+01  2.49295E+01  2.80300E+01  2.60530E+01  2.66443E+01  2.91874E+01
   2.75423E+01  2.84816E+01  3.13091E+01  3.02318E+01  2.89455E+01  2.81519E+01  2.43094E+01  2.97299E+01  2.49429E+01  2.73448E+01
   2.27871E+01  2.38378E+01  2.74221E+01  2.59240E+01  2.10027E+01  2.54101E+01  3.13200E+01  2.60050E+01  3.02066E+01  2.01579E+01
   2.35058E+01  2.43107E+01  2.62430E+01  3.00277E+01  2.87325E+01  2.94286E+01  3.09053E+01  3.38880E+01  3.93462E+01  3.63960E+01
   4.41391E+01  5.72878E+01  6.33397E+01  6.66318E+01  6.82235E+01  5.77545E+01  4.97696E+01  4.39646E+01  3.62278E+01  3.31349E+01
   2.82239E+01  2.82757E+01  2.93838E+01  2.88552E+01  2.52017E+01  3.00727E+01  3.00689E+01  2.99221E+01  2.79001E+01  2.83565E+01
   3.39314E+01  3.41656E+01  3.31386E+01  4.18357E+01  5.39542E+01  6.70682E+01  8.01419E+01  8.04428E+01  7.66268E+01  6.66512E+01
   6.16288E+01  5.26599E+01  5.02142E+01  3.99705E+01  3.54968E+01  3.03947E+01  2.80952E+01  2.83363E+01  3.03058E+01  2.30335E+01
   2.88606E+01  2.94375E+01  3.00446E+01  2.67181E+01  2.96134E+01  3.19096E+01  3.00165E+01  3.00536E+01  2.77799E+01  2.85180E+01
   2.54608E+01  2.72264E+01  2.43199E+01  2.55034E+01  2.51422E+01  2.50012E+01  2.63628E+01  2.88395E+01  2.77697E+01  2.69352E+01
   2.32784E+01  2.16575E+01  1.94889E+01  2.01294E+01  2.32456E+01  2.26476E+01  2.28792E+01  2.19130E+01  2.34730E+01  2.49601E+01
   2.31399E+01  2.36618E+01  2.07337E+01  1.64564E+01  1.51310E+01  1.48806E+01  1.82287E+01  1.98382E+01  1.73116E+01  1.83674E+01
   1.60590E+01  1.31007E+01  1.31025E+01  1.84244E+01  2.03765E+01  1.67464E+01  1.87684E+01  2.10260E+01  2.24713E+01  2.54822E+01
   2.90616E+01  3.14947E+01  3.14865E+01  3.04886E+01  3.50632E+01  3.32109E+01  2.97900E+01  2.55604E+01  2.59975E+01  2.45983E+01
   2.52531E+01  2.49898E+01  3.16149E+01  3.33403E+01  2.90421E+01  3.14034E+01  2.49143E+01  2.45410E+01  2.59638E+01  2.17377E+01
   2.39613E+01  2.02374E+01  3.09124E+01  3.35543E+01  3.56200E+01  3.99028E+01  3.97917E+01  3.96221E+01  3.63287E+01  2.86706E+01
   2.82169E+01  2.26315E+01  2.26796E+01  2.69462E+01  2.70215E+01  2.79059E+01  3.70377E+01  3.52932E+01  3.28169E+01  3.53973E+01
   3.67491E+01  3.28324E+01  3.19217E+01  3.30439E+01  3.28050E+01  3.45513E+01  3.67972E+01  3.48913E+01  3.11493E+01  3.29885E+01
   3.22485E+01  2.87538E+01  2.88465E+01  2.95656E+01  3.32993E+01  3.46697E+01  3.80428E+01  3.96645E+01  3.58352E+01  3.78060E+01
   4.24657E+01  4.20573E+01  4.44356E+01  4.61267E+01  4.50580E+01  5.09358E+01  5.61151E+01  6.76061E+01  8.77027E+01  1.11612E+02
   1.27160E+02  1.15511E+02  1.04419E+02  8.54764E+01  6.96926E+01  6.32667E+01  5.29025E+01  4.54510E+01  4.26525E+01  3.90465E+01
   4.33846E+01  3.76683E+01  4.11626E+01  3.83528E+01  3.76429E+01  3.50654E+01  3.63665E+01  3.61033E+01  3.59924E+01  3.40800E+01
   3.58468E+01  3.37529E+01  3.98737E+01  3.66852E+01  3.76115E+01  3.88752E+01  3.68065E+01  3.30841E+01  3.72043E+01  3.51679E+01
   3.61809E+01  3.70960E+01  3.76439E+01  3.67588E+01  3.77896E+01  3.99972E+01  3.88305E+01  4.10839E+01  4.05430E+01  4.02547E+01
   4.30361E+01  4.22909E+01  4.17163E+01  4.08272E+01  4.13244E+01  4.40073E+01  4.51665E+01  4.74163E+01  4.50085E+01  4.72285E+01
   5.01843E+01  5.00876E+01  5.09465E+01  5.12284E+01  5.12650E+01  5.10386E+01  5.29991E+01  5.15335E+01  5.54430E+01  5.49524E+01
   4.85388E+01  5.24903E+01  5.31150E+01  4.66620E+01  4.83388E+01  4.58278E+01  4.84466E+01  4.54143E+01  4.56736E+01  3.54389E+01
   3.64161E+01  3.65061E+01  3.10538E+01  2.99896E+01  2.47589E+01  2.54375E+01  2.75479E+01  2.43736E+01  2.24049E+01  1.81541E+01
   1.75959E+01  1.68074E+01  1.40158E+01  1.57884E+01  1.21306E+01  1.29940E+01  6.94150E+00  5.34178E+00  4.54990E+00  8.69390E+00
   3.94957E+00  2.73862E+00  2.95017E+00  7.56748E+00  8.13918E+00  4.10791E+00  5.38182E+00  4.30786E+00  5.47146E+00  1.82027E+00
   4.80995E+00  9.77067E+00  9.55340E+00  6.29421E+00  9.40664E+00  1.09991E+01  9.27187E+00  1.02537E+01  3.71375E+00  7.52909E+00
   1.23032E+01  9.64419E+00  7.46682E+00  9.31010E+00  1.13653E+01  5.26928E+00  8.57479E+00  2.11551E+00  6.78159E+00  6.71048E+00
   1.68840E+00  5.71220E+00  7.61502E+00  7.55556E+00  6.36585E+00  5.43255E+00  3.09979E+00  9.33826E+00  7.14866E+00  8.29386E+00
   4.13639E+00  8.29767E+00  3.76347E+00  4.61234E+00  6.62719E+00  4.57303E+00  1.02596E+01  5.46680E+00  8.71098E+00  8.30356E+00
   6.02749E+00  7.68797E+00  9.09336E+00  5.99635E+00  7.59596E+00  8.06228E+00  7.52580E+00  6.47023E+00  1.33144E+01  7.63560E+00
   1.35188E+01  9.97741E+00  7.93050E+00  9.62761E+00  5.21631E+00  6.24258E+00  1.17823E+01  7.62171E+00  3.45873E+00  8.32514E+00
   3.25556E+00  4.85993E+00  5.46158E+00  6.56931E+00  4.44909E+00  7.31381E+00  5.97691E+00  3.53093E+00  6.52097E+00  1.40713E+00
  -1.44198E+00  8.13810E-01  2.94439E+00 -5.93157E-01 -3.30929E-01  6.51687E+00  3.77014E+00  2.67589E+00  1.31203E+00  2.29903E+00
   3.48835E+00  5.55012E+00 -2.24303E+00  2.08422E+00  1.39325E+00  3.79970E+00  3.61354E+00  5.38983E+00  3.62904E+00  6.80225E-01
  -1.52019E+00  5.60032E+00  5.01386E+00  3.64721E+00  8.93276E-01  3.52073E+00  1.54853E+00  4.33753E+00  5.53273E+00 -2.44883E-01
   5.36127E-01  3.30267E+00  1.81590E+00  3.51588E+00 -8.71594E-01  2.54683E+00 -2.52363E-01 -1.02624E+00  8.61608E-01  2.75072E+00
   3.77034E+00  1.11200E+00  4.36957E+00  1.75007E+00  1.07727E+00  8.61286E-01  5.25070E-01  2.23008E+00  2.30213E+00  2.28641E+00
   8.80489E-01  1.97831E-01  4.86500E+00  1.61624E+00  2.48822E-01  3.15596E+00  4.91860E+00  7.08586E-01  2.86739E+00  2.34317E+00
   4.89214E+00  2.10988E+00  3.26332E+00 -3.82620E+00 -1.09700E+00  2.57418E+00  1.72159E+00  1.71106E+00
 NY points of the fit to the data follow
   5.99811E+01  5.95535E+01  5.95797E+01  6.06957E+01  6.34603E+01  6.79286E+01  7.43229E+01  8.19654E+01  8.87628E+01  9.22528E+01
   9.12678E+01  8.65496E+01  7.99798E+01  7.33755E+01  6.75742E+01  6.25288E+01  5.82580E+01  5.53657E+01  5.38330E+01  5.28341E+01
   5.20750E+01  5.13874E+01  5.05707E+01  4.95938E+01  4.86399E+01  4.78971E+01  4.75954E+01  4.81511E+01  4.97620E+01  5.19967E+01
   5.39646E+01  5.48963E+01  5.44450E+01  5.27361E+01  5.02899E+01  4.76123E+01  4.50509E+01  4.30446E+01  4.19231E+01  4.15395E+01
   4.15646E+01  4.18758E+01  4.24095E+01  4.30922E+01  4.39032E+01  4.47622E+01  4.53523E+01  4.52836E+01  4.44339E+01  4.29285E+01
   4.11448E+01  3.94684E+01  3.80295E+01  3.68290E+01  3.59466E+01  3.54762E+01  3.53765E+01  3.54787E+01  3.56349E+01  3.56795E+01
   3.54539E+01  3.48990E+01  3.40906E+01  3.32177E+01  3.24575E+01  3.18996E+01  3.15677E+01  3.14389E+01  3.14581E+01  3.15531E+01
   3.16519E+01  3.16580E+01  3.15132E+01  3.12182E+01  3.08249E+01  3.04138E+01  3.00365E+01  2.97038E+01  2.93987E+01  2.91199E+01
   2.88741E+01  2.86084E+01  2.82785E+01  2.78457E+01  2.72908E+01  2.66371E+01  2.59792E+01  2.54640E+01  2.52156E+01  2.52657E+01
   2.55660E+01  2.60142E+01  2.65058E+01  2.69735E+01  2.73666E+01  2.76772E+01  2.82073E+01  3.00351E+01  3.36970E+01  3.94656E+01
   4.76749E+01  5.70859E+01  6.46580E+01  6.74650E+01  6.48221E+01  5.83832E+01  5.07277E+01  4.37845E+01  3.80014E+01  3.30320E+01
   2.91005E+01  2.71668E+01  2.66871E+01  2.65724E+01  2.65682E+01  2.66182E+01  2.67108E+01  2.68524E+01  2.70793E+01  2.75000E+01
   2.84975E+01  3.12560E+01  3.64570E+01  4.42576E+01  5.49780E+01  6.72318E+01  7.73833E+01  8.16975E+01  7.90307E+01  7.12387E+01
   6.15510E+01  5.25179E+01  4.47909E+01  3.78701E+01  3.19183E+01  2.82058E+01  2.66121E+01  2.59372E+01  2.58336E+01  2.61071E+01
   2.65318E+01  2.69281E+01  2.71890E+01  2.72437E+01  2.71097E+01  2.68708E+01  2.65883E+01  2.62998E+01  2.60354E+01  2.57926E+01
   2.55987E+01  2.54392E+01  2.53086E+01  2.52187E+01  2.51702E+01  2.50940E+01  2.49475E+01  2.46952E+01  2.42904E+01  2.38181E+01
   2.34448E+01  2.33626E+01  2.36440E+01  2.40946E+01  2.43786E+01  2.42785E+01  2.38499E+01  2.33205E+01  2.28553E+01  2.24263E+01
   2.19651E+01  2.14490E+01  2.09576E+01  2.05472E+01  2.02244E+01  2.00674E+01  2.02087E+01  2.05918E+01  2.09591E+01  2.11226E+01
   2.11152E+01  2.10861E+01  2.11596E+01  2.12985E+01  2.13664E+01  2.14926E+01  2.20646E+01  2.32256E+01  2.47746E+01  2.62849E+01
   2.74199E+01  2.80844E+01  2.82595E+01  2.80866E+01  2.77271E+01  2.72611E+01  2.68439E+01  2.67042E+01  2.70447E+01  2.78970E+01
   2.91358E+01  3.05069E+01  3.16806E+01  3.22986E+01  3.20538E+01  3.09639E+01  2.91097E+01  2.68597E+01  2.49000E+01  2.38170E+01
   2.39320E+01  2.51894E+01  2.74885E+01  3.05165E+01  3.35702E+01  3.56816E+01  3.60475E+01  3.44930E+01  3.15566E+01  2.81821E+01
   2.51032E+01  2.29867E+01  2.24702E+01  2.37535E+01  2.64468E+01  2.95333E+01  3.21537E+01  3.40223E+01  3.51407E+01  3.55314E+01
   3.52592E+01  3.46836E+01  3.42904E+01  3.43257E+01  3.47758E+01  3.55757E+01  3.64712E+01  3.70980E+01  3.72046E+01  3.66844E+01
   3.57212E+01  3.47611E+01  3.42369E+01  3.42998E+01  3.48762E+01  3.57877E+01  3.67592E+01  3.75702E+01  3.81477E+01  3.85794E+01
   3.89727E+01  3.94409E+01  4.00893E+01  4.11507E+01  4.40942E+01  5.04435E+01  6.01974E+01  7.44809E+01  9.24300E+01  1.09035E+02
   1.17815E+02  1.15720E+02  1.04801E+02  8.99872E+01  7.58087E+01  6.40110E+01  5.38832E+01  4.51898E+01  3.98162E+01  3.82028E+01
   3.76450E+01  3.74003E+01  3.73763E+01  3.74588E+01  3.75305E+01  3.75500E+01  3.74914E+01  3.73595E+01  3.71745E+01  3.69550E+01
   3.67185E+01  3.64994E+01  3.63207E+01  3.61742E+01  3.60421E+01  3.59138E+01  3.57876E+01  3.56645E+01  3.55415E+01  3.54179E+01
   3.53029E+01  3.52034E+01  3.51249E+01  3.50729E+01  3.50540E+01  3.50763E+01  3.51487E+01  3.52830E+01  3.54927E+01  3.57909E+01
   3.61913E+01  3.67078E+01  3.73520E+01  3.81324E+01  3.90523E+01  4.01104E+01  4.12995E+01  4.26055E+01  4.40061E+01  4.54696E+01
   4.69561E+01  4.84191E+01  4.98074E+01  5.10666E+01  5.21422E+01  5.29823E+01  5.35411E+01  5.37819E+01  5.36799E+01  5.32238E+01
   5.24158E+01  5.12716E+01  4.98199E+01  4.81005E+01  4.61620E+01  4.40583E+01  4.18455E+01  3.95787E+01  3.73096E+01  3.50847E+01
   3.29429E+01  3.09148E+01  2.90219E+01  2.72774E+01  2.56870E+01  2.42501E+01  2.29608E+01  2.18091E+01  2.07824E+01  1.98670E+01
   1.90497E+01  1.83192E+01  1.76610E+01  1.70600E+01  1.65028E+01  1.59720E+01  1.54498E+01  1.49271E+01  1.44082E+01  1.39081E+01
   1.34387E+01  1.30049E+01  1.26084E+01  1.22466E+01  1.19112E+01  1.15885E+01  1.12614E+01  1.09221E+01  1.05766E+01  1.02334E+01
   9.89708E+00  9.56794E+00  9.24746E+00  8.94219E+00  8.65342E+00  8.37828E+00  8.11537E+00  7.86406E+00  7.62416E+00  7.39569E+00
   7.17860E+00  6.97276E+00  6.77809E+00  6.59471E+00  6.42300E+00  6.26335E+00  6.11609E+00  5.98150E+00  5.86008E+00  5.75260E+00
   5.66004E+00  5.58342E+00  5.52371E+00  5.48200E+00  5.45960E+00  5.45808E+00  5.47903E+00  5.52387E+00  5.59378E+00  5.68977E+00
   5.81269E+00  5.96301E+00  6.14049E+00  6.34397E+00  6.57136E+00  6.81966E+00  7.08497E+00  7.36230E+00  7.64550E+00  7.92739E+00
   8.20007E+00  8.45534E+00  8.68497E+00  8.88089E+00  9.03553E+00  9.14224E+00  9.19579E+00  9.19274E+00  9.13156E+00  9.01261E+00
   8.83804E+00  8.61175E+00  8.33935E+00  8.02781E+00  7.68494E+00  7.31893E+00  6.93797E+00  6.55008E+00  6.16283E+00  5.78302E+00
   5.41636E+00  5.06733E+00  4.73926E+00  4.43451E+00  4.15451E+00  3.89983E+00  3.67014E+00  3.46444E+00  3.28134E+00  3.11927E+00
   2.97658E+00  2.85146E+00  2.74197E+00  2.64622E+00  2.56252E+00  2.48944E+00  2.42570E+00  2.37006E+00  2.32134E+00  2.27851E+00
   2.24080E+00  2.20761E+00  2.17841E+00  2.15260E+00  2.12963E+00  2.10906E+00  2.09065E+00  2.07418E+00  2.05943E+00  2.04607E+00
   2.03380E+00  2.02246E+00  2.01199E+00  2.00234E+00  1.99338E+00  1.98492E+00  1.97685E+00  1.96916E+00  1.96192E+00  1.95511E+00
   1.94859E+00  1.94224E+00  1.93604E+00  1.93005E+00  1.92432E+00  1.91881E+00  1.91339E+00  1.90799E+00  1.90263E+00  1.89741E+00
   1.89235E+00  1.88737E+00  1.88237E+00  1.87733E+00  1.87231E+00  1.86742E+00  1.86261E+00  1.85780E+00  1.85290E+00  1.84794E+00
   1.84303E+00  1.83821E+00  1.83343E+00  1.82857E+00  1.82362E+00  1.81866E+00  1.81376E+00  1.80894E+00  1.80411E+00  1.79920E+00
   1.79422E+00  1.78927E+00  1.78444E+00  1.77967E+00  1.77488E+00  1.77004E+00  1.76522E+00  1.76053E+00
 NY background values follow
     5.719E+01    5.670E+01    5.620E+01    5.570E+01    5.520E+01    5.471E+01    5.421E+01    5.371E+01    5.322E+01    5.272E+01
     5.223E+01    5.174E+01    5.125E+01    5.076E+01    5.027E+01    4.979E+01    4.930E+01    4.882E+01    4.834E+01    4.786E+01
     4.738E+01    4.691E+01    4.644E+01    4.597E+01    4.551E+01    4.505E+01    4.459E+01    4.413E+01    4.368E+01    4.323E+01
     4.279E+01    4.235E+01    4.191E+01    4.148E+01    4.105E+01    4.063E+01    4.021E+01    3.979E+01    3.938E+01    3.898E+01
     3.858E+01    3.818E+01    3.780E+01    3.741E+01    3.703E+01    3.666E+01    3.630E+01    3.594E+01    3.558E+01    3.523E+01
     3.489E+01    3.456E+01    3.423E+01    3.390E+01    3.358E+01    3.327E+01    3.297E+01    3.267E+01    3.237E+01    3.208E+01
     3.180E+01    3.153E+01    3.126E+01    3.099E+01    3.073E+01    3.048E+01    3.024E+01    3.000E+01    2.976E+01    2.954E+01
     2.932E+01    2.910E+01    2.889E+01    2.869E+01    2.849E+01    2.830E+01    2.812E+01    2.794E+01    2.777E+01    2.760E+01
     2.744E+01    2.729E+01    2.714E+01    2.700E+01    2.686E+01    2.673E+01    2.661E+01    2.649E+01    2.638E+01    2.628E+01
     2.618E+01    2.609E+01    2.600E+01    2.592E+01    2.585E+01    2.578E+01    2.572E+01    2.566E+01    2.560E+01    2.556E+01
     2.551E+01    2.547E+01    2.544E+01    2.540E+01    2.538E+01    2.535E+01    2.533E+01    2.531E+01    2.530E+01    2.529E+01
     2.528E+01    2.527E+01    2.526E+01    2.526E+01    2.526E+01    2.526E+01    2.526E+01    2.527E+01    2.527E+01    2.528E+01
     2.528E+01    2.529E+01    2.529E+01    2.530E+01    2.531E+01    2.531E+01    2.532E+01    2.532E+01    2.533E+01    2.533E+01
     2.533E+01    2.533E+01    2.533E+01    2.532E+01    2.532E+01    2.531E+01    2.530E+01    2.529E+01    2.527E+01    2.525E+01
     2.523E+01    2.521E+01    2.519E+01    2.516E+01    2.514E+01    2.511E+01    2.508E+01    2.505E+01    2.502E+01    2.499E+01
     2.496E+01    2.493E+01    2.490E+01    2.487E+01    2.484E+01    2.480E+01    2.477E+01    2.475E+01    2.472E+01    2.469E+01
     2.466E+01    2.464E+01    2.461E+01    2.459E+01    2.457E+01    2.456E+01    2.454E+01    2.453E+01    2.452E+01    2.451E+01
     2.450E+01    2.450E+01    2.450E+01    2.451E+01    2.451E+01    2.452E+01    2.454E+01    2.456E+01    2.458E+01    2.461E+01
     2.464E+01    2.468E+01    2.472E+01    2.477E+01    2.482E+01    2.487E+01    2.493E+01    2.499E+01    2.506E+01    2.513E+01
     2.521E+01    2.529E+01    2.537E+01    2.546E+01    2.555E+01    2.564E+01    2.574E+01    2.584E+01    2.595E+01    2.605E+01
     2.617E+01    2.628E+01    2.640E+01    2.652E+01    2.664E+01    2.676E+01    2.689E+01    2.702E+01    2.715E+01    2.729E+01
     2.742E+01    2.756E+01    2.770E+01    2.785E+01    2.799E+01    2.814E+01    2.829E+01    2.844E+01    2.859E+01    2.874E+01
     2.890E+01    2.905E+01    2.921E+01    2.937E+01    2.953E+01    2.969E+01    2.985E+01    3.001E+01    3.017E+01    3.033E+01
     3.049E+01    3.066E+01    3.082E+01    3.098E+01    3.114E+01    3.130E+01    3.146E+01    3.162E+01    3.178E+01    3.193E+01
     3.209E+01    3.224E+01    3.239E+01    3.254E+01    3.268E+01    3.282E+01    3.296E+01    3.310E+01    3.324E+01    3.337E+01
     3.349E+01    3.362E+01    3.374E+01    3.385E+01    3.397E+01    3.407E+01    3.417E+01    3.427E+01    3.437E+01    3.445E+01
     3.454E+01    3.461E+01    3.468E+01    3.475E+01    3.481E+01    3.486E+01    3.491E+01    3.495E+01    3.498E+01    3.501E+01
     3.503E+01    3.504E+01    3.505E+01    3.504E+01    3.503E+01    3.501E+01    3.499E+01    3.495E+01    3.491E+01    3.487E+01
     3.481E+01    3.475E+01    3.467E+01    3.459E+01    3.451E+01    3.441E+01    3.431E+01    3.420E+01    3.408E+01    3.395E+01
     3.382E+01    3.368E+01    3.353E+01    3.337E+01    3.320E+01    3.303E+01    3.285E+01    3.266E+01    3.246E+01    3.225E+01
     3.204E+01    3.181E+01    3.158E+01    3.134E+01    3.110E+01    3.084E+01    3.058E+01    3.031E+01    3.003E+01    2.974E+01
     2.944E+01    2.913E+01    2.882E+01    2.850E+01    2.817E+01    2.783E+01    2.748E+01    2.712E+01    2.676E+01    2.639E+01
     2.601E+01    2.562E+01    2.523E+01    2.483E+01    2.443E+01    2.402E+01    2.360E+01    2.318E+01    2.276E+01    2.233E+01
     2.190E+01    2.147E+01    2.103E+01    2.059E+01    2.015E+01    1.971E+01    1.927E+01    1.883E+01    1.839E+01    1.795E+01
     1.751E+01    1.707E+01    1.663E+01    1.620E+01    1.577E+01    1.534E+01    1.491E+01    1.449E+01    1.407E+01    1.366E+01
     1.325E+01    1.285E+01    1.245E+01    1.206E+01    1.168E+01    1.130E+01    1.093E+01    1.057E+01    1.022E+01    9.878E+00
     9.543E+00    9.218E+00    8.903E+00    8.598E+00    8.304E+00    8.018E+00    7.743E+00    7.477E+00    7.220E+00    6.972E+00
     6.733E+00    6.502E+00    6.280E+00    6.067E+00    5.861E+00    5.664E+00    5.474E+00    5.291E+00    5.116E+00    4.949E+00
     4.788E+00    4.634E+00    4.487E+00    4.346E+00    4.212E+00    4.083E+00    3.961E+00    3.844E+00    3.733E+00    3.627E+00
     3.526E+00    3.431E+00    3.340E+00    3.254E+00    3.172E+00    3.095E+00    3.021E+00    2.952E+00    2.886E+00    2.824E+00
     2.765E+00    2.710E+00    2.657E+00    2.607E+00    2.560E+00    2.515E+00    2.473E+00    2.433E+00    2.394E+00    2.358E+00
     2.323E+00    2.290E+00    2.259E+00    2.230E+00    2.202E+00    2.176E+00    2.152E+00    2.129E+00    2.107E+00    2.087E+00
     2.069E+00    2.051E+00    2.035E+00    2.020E+00    2.007E+00    1.994E+00    1.983E+00    1.973E+00    1.964E+00    1.955E+00
     1.948E+00    1.941E+00    1.936E+00    1.931E+00    1.927E+00    1.923E+00    1.920E+00    1.918E+00    1.916E+00    1.915E+00
     1.914E+00    1.913E+00    1.913E+00    1.914E+00    1.914E+00    1.915E+00    1.915E+00    1.916E+00    1.917E+00    1.918E+00
     1.919E+00    1.920E+00    1.921E+00    1.922E+00    1.922E+00    1.923E+00    1.923E+00    1.923E+00    1.923E+00    1.922E+00
     1.922E+00    1.921E+00    1.920E+00    1.920E+00    1.919E+00    1.917E+00    1.916E+00    1.915E+00    1.913E+00    1.911E+00
     1.909E+00    1.907E+00    1.905E+00    1.903E+00    1.901E+00    1.898E+00    1.895E+00    1.893E+00    1.890E+00    1.887E+00
     1.883E+00    1.880E+00    1.877E+00    1.873E+00    1.870E+00    1.866E+00    1.862E+00    1.858E+00    1.854E+00    1.850E+00
     1.846E+00    1.841E+00    1.837E+00    1.832E+00    1.828E+00    1.823E+00    1.818E+00    1.813E+00
 Cr       Conc. = 1.10E+02
