 LCModel (Version 6.3-1L) Copyright: S.W. Provencher.          Ref.: Magn. Reson. Med. 30:672-679 (1993).                
 Slice#2 Row#12 Col#12  K_02_press_1_raw_act
 36 lines in following concentration table = NCONC+1
    Conc.  %SD /Cr+PCr  Metabolite                                         
    0.000 999%   0.000 Ala                                                 
   81.455  57%   0.000 Asp                                                 
    0.000 999%   0.000 Cr                                                  
    0.000 999%   0.000 PCr                                                 
   37.254  75%   0.000 GABA                                                
   42.789  65%   0.000 Glc                                                 
 1.13E+03  79%   0.000 Gln                                                 
  887.649 129%   0.000 Glu                                                 
  100.591  33%   0.000 GPC                                                 
    0.000 999%   0.000 PCh                                                 
    0.000 999%   0.000 GSH                                                 
 1.62E+03  24%   0.000 Ins                                                 
 1.29E+04   8%   0.000 Lac                                                 
 1.01E+03  13%   0.000 NAA                                                 
    0.000 999%   0.000 NAAG                                                
   21.272  43%   0.000 Scyllo                                              
   80.865  57%   0.000 Tau                                                 
    0.841 999%   0.000 -CrCH2                                              
  100.591  33%   0.000 GPC+PCh                                             
 1.01E+03  13%   0.000 NAA+NAAG                                            
    0.000 999%   0.000 Cr+PCr                                              
 2.02E+03  89%   0.000 Glu+Gln                                             
    0.000 999%   0.000 Lip13a                                              
 6.27E+03   6%   0.000 Lip13b                                              
 8.69E+03  11%   0.000+Lip09                                               
    0.000 999%   0.000 MM09                                                
  995.892  66%   0.000 Lip20                                               
  357.600 176%   0.000 MM20                                                
 7.43E+03  12%   0.000 MM12                                                
    0.000 999%   0.000 MM14                                                
 4.09E+03  13%   0.000 MM17                                                
 6.27E+03   6%   0.000 Lip13a+Lip13b                                       
 1.37E+04   7%   0.000 MM14+Lip13a+Lip13b+MM12                             
 8.69E+03  11%   0.000 MM09+Lip09                                          
 1.35E+03  38%   0.000 MM20+Lip20                                          
   6 lines in following misc. output table
  FWHM = 0.138 ppm    S/N =   8                                            
  Data shift = 0.061 ppm                                                   
  Ph:-145 deg     198.1 deg/ppm                                            
  alphaB,S = 3.0E-01,   1.8E+02                                            
    9 spline knots.   Ns = 9(2)                                            
  (15) 2 infls.   (13) 1 extrs.                                            
  498 points on ppm-axis = NY
      4.000000     3.992357     3.984714     3.977070     3.969427     3.961784     3.954141     3.946497     3.938854     3.931211
      3.923568     3.915925     3.908281     3.900638     3.892995     3.885352     3.877708     3.870065     3.862422     3.854779
      3.847136     3.839492     3.831849     3.824206     3.816563     3.808919     3.801276     3.793633     3.785990     3.778347
      3.770703     3.763060     3.755417     3.747774     3.740130     3.732487     3.724844     3.717201     3.709558     3.701914
      3.694271     3.686628     3.678985     3.671341     3.663698     3.656055     3.648412     3.640769     3.633125     3.625482
      3.617839     3.610196     3.602552     3.594909     3.587266     3.579623     3.571980     3.564336     3.556693     3.549050
      3.541407     3.533763     3.526120     3.518477     3.510834     3.503191     3.495547     3.487904     3.480261     3.472618
      3.464974     3.457331     3.449688     3.442045     3.434402     3.426758     3.419115     3.411472     3.403829     3.396185
      3.388542     3.380899     3.373256     3.365613     3.357969     3.350326     3.342683     3.335040     3.327396     3.319753
      3.312110     3.304467     3.296824     3.289180     3.281537     3.273894     3.266251     3.258607     3.250964     3.243321
      3.235678     3.228034     3.220391     3.212748     3.205105     3.197462     3.189818     3.182175     3.174532     3.166889
      3.159245     3.151602     3.143959     3.136316     3.128673     3.121029     3.113386     3.105743     3.098100     3.090456
      3.082813     3.075170     3.067527     3.059884     3.052240     3.044597     3.036954     3.029311     3.021667     3.014024
      3.006381     2.998738     2.991095     2.983451     2.975808     2.968165     2.960522     2.952878     2.945235     2.937592
      2.929949     2.922306     2.914662     2.907019     2.899376     2.891733     2.884089     2.876446     2.868803     2.861160
      2.853517     2.845873     2.838230     2.830587     2.822944     2.815300     2.807657     2.800014     2.792371     2.784728
      2.777084     2.769441     2.761798     2.754155     2.746511     2.738868     2.731225     2.723582     2.715939     2.708295
      2.700652     2.693009     2.685366     2.677722     2.670079     2.662436     2.654793     2.647150     2.639506     2.631863
      2.624220     2.616577     2.608933     2.601290     2.593647     2.586004     2.578361     2.570717     2.563074     2.555431
      2.547788     2.540144     2.532501     2.524858     2.517215     2.509572     2.501928     2.494285     2.486642     2.478999
      2.471355     2.463712     2.456069     2.448426     2.440783     2.433139     2.425496     2.417853     2.410210     2.402566
      2.394923     2.387280     2.379637     2.371994     2.364350     2.356707     2.349064     2.341421     2.333777     2.326134
      2.318491     2.310848     2.303205     2.295561     2.287918     2.280275     2.272632     2.264988     2.257345     2.249702
      2.242059     2.234416     2.226772     2.219129     2.211486     2.203843     2.196199     2.188556     2.180913     2.173270
      2.165627     2.157983     2.150340     2.142697     2.135054     2.127410     2.119767     2.112124     2.104481     2.096838
      2.089194     2.081551     2.073908     2.066265     2.058621     2.050978     2.043335     2.035692     2.028049     2.020405
      2.012762     2.005119     1.997476     1.989833     1.982190     1.974546     1.966903     1.959260     1.951617     1.943974
      1.936331     1.928688     1.921045     1.913402     1.905759     1.898115     1.890472     1.882829     1.875186     1.867543
      1.859900     1.852257     1.844614     1.836971     1.829327     1.821684     1.814041     1.806398     1.798755     1.791112
      1.783469     1.775826     1.768183     1.760540     1.752896     1.745253     1.737610     1.729967     1.722324     1.714681
      1.707038     1.699395     1.691752     1.684108     1.676465     1.668822     1.661179     1.653536     1.645893     1.638250
      1.630607     1.622964     1.615321     1.607677     1.600034     1.592391     1.584748     1.577105     1.569462     1.561819
      1.554176     1.546533     1.538890     1.531246     1.523603     1.515960     1.508317     1.500674     1.493031     1.485388
      1.477745     1.470102     1.462458     1.454815     1.447172     1.439529     1.431886     1.424243     1.416600     1.408957
      1.401314     1.393671     1.386027     1.378384     1.370741     1.363098     1.355455     1.347812     1.340169     1.332526
      1.324883     1.317240     1.309596     1.301953     1.294310     1.286667     1.279024     1.271381     1.263738     1.256095
      1.248452     1.240808     1.233165     1.225522     1.217879     1.210236     1.202593     1.194950     1.187307     1.179664
      1.172021     1.164377     1.156734     1.149091     1.141448     1.133805     1.126162     1.118519     1.110876     1.103233
      1.095590     1.087946     1.080303     1.072660     1.065017     1.057374     1.049731     1.042088     1.034445     1.026802
      1.019158     1.011515     1.003872     0.996229     0.988586     0.980943     0.973300     0.965657     0.958014     0.950371
      0.942727     0.935084     0.927441     0.919798     0.912155     0.904512     0.896869     0.889226     0.881583     0.873940
      0.866296     0.858653     0.851010     0.843367     0.835724     0.828081     0.820438     0.812795     0.805152     0.797508
      0.789865     0.782222     0.774579     0.766936     0.759293     0.751650     0.744007     0.736364     0.728721     0.721077
      0.713434     0.705791     0.698148     0.690505     0.682862     0.675219     0.667576     0.659933     0.652290     0.644646
      0.637003     0.629360     0.621717     0.614074     0.606431     0.598788     0.591145     0.583502     0.575858     0.568215
      0.560572     0.552929     0.545286     0.537643     0.530000     0.522357     0.514714     0.507071     0.499427     0.491784
      0.484141     0.476498     0.468855     0.461212     0.453569     0.445925     0.438282     0.430639     0.422996     0.415353
      0.407710     0.400067     0.392424     0.384780     0.377137     0.369494     0.361851     0.354208     0.346565     0.338922
      0.331278     0.323635     0.315992     0.308349     0.300706     0.293063     0.285420     0.277777     0.270133     0.262490
      0.254847     0.247204     0.239561     0.231918     0.224275     0.216631     0.208988     0.201345
 NY phased data points follow
   9.57959E+00  9.33554E+00  1.03257E+01  1.05160E+01  1.00752E+01  6.05833E+00  1.00555E+01  7.97799E+00  8.04816E+00  7.65809E+00
   6.98784E+00  6.40200E+00  8.21637E+00  9.64467E+00  7.30025E+00  7.36767E+00  9.00324E+00  7.20745E+00  8.16752E+00  8.62537E+00
   7.57659E+00  8.62771E+00  8.16289E+00  9.06396E+00  7.87392E+00  7.90876E+00  6.82669E+00  8.38726E+00  6.89315E+00  9.15486E+00
   6.15807E+00  9.98054E+00  8.98431E+00  8.76656E+00  6.65154E+00  8.98613E+00  8.51247E+00  7.62201E+00  7.16292E+00  9.93823E+00
   7.17905E+00  7.72319E+00  8.26712E+00  6.16646E+00  8.76788E+00  7.07662E+00  4.68136E+00  5.09108E+00  4.60412E+00  5.44862E+00
   6.32614E+00  7.78008E+00  5.24472E+00  5.70273E+00  4.07904E+00  4.60226E+00  4.02101E+00  4.67035E+00  6.06299E+00  4.51954E+00
   2.84501E-01  1.21545E+00  3.72146E+00  2.61418E+00  1.72086E+00  4.07798E-01  3.55140E+00  2.36263E+00  3.30926E+00 -4.61411E-01
  -1.92094E-01  5.55200E-01  2.06017E+00 -4.30101E-01  2.02915E-01  6.09060E-01  5.41934E-01  1.47503E+00  1.75664E+00  1.72188E+00
   1.98116E+00 -3.10207E-01  3.77655E+00  3.66316E-01  1.36335E+00 -1.70669E-01 -1.98503E+00 -1.67667E+00 -1.05404E+00 -2.06863E+00
   1.50827E+00 -1.70049E+00 -1.67375E+00 -5.15617E-01  9.38290E-01  1.06164E+00 -8.35835E-01 -2.39296E+00 -4.15622E+00 -3.46189E+00
  -4.42939E+00 -3.42809E+00 -3.71957E+00 -3.78474E+00 -3.86717E+00 -5.14653E+00 -4.09147E+00 -2.53812E+00 -3.66033E+00 -3.96165E+00
  -2.26257E+00 -3.99564E+00 -3.47501E+00 -3.83941E+00 -4.30306E+00 -5.57377E+00 -2.46839E+00 -2.68574E+00 -2.45455E+00 -4.33053E+00
  -4.97717E+00 -7.29682E+00 -7.86569E+00 -7.62495E+00 -9.48106E+00 -7.61643E+00 -6.57463E+00 -1.10195E+01 -7.74229E+00 -8.39956E+00
  -8.55167E+00 -3.97173E+00 -4.99791E+00 -6.92779E+00 -7.35642E+00 -7.45613E+00 -7.02875E+00 -6.91557E+00 -5.94558E+00 -8.60432E+00
  -7.07407E+00 -4.98913E+00 -7.42128E+00 -7.61613E+00 -6.71254E+00 -4.73852E+00 -7.22415E+00 -6.06088E+00 -5.21218E+00 -4.90906E+00
  -4.65417E+00 -5.57126E+00 -4.43064E+00 -4.16606E+00 -5.22416E+00 -4.75310E+00 -5.51046E+00 -4.26143E+00 -4.95409E+00 -4.00582E+00
  -3.69300E+00 -3.95045E+00 -5.58487E+00 -4.27123E+00 -5.23693E+00 -1.02317E+00 -3.14738E+00 -2.51515E+00 -2.12203E+00 -3.78607E-02
  -3.09606E+00 -3.35707E-01  3.32007E-01 -1.77816E+00 -5.15107E-01  7.96985E-01 -8.08029E-01  1.62064E+00 -1.58568E-02 -2.17864E+00
   6.17984E-01 -2.58504E-01 -6.17890E-01  5.08816E-01 -1.15659E+00  6.36215E-01  1.44209E+00  3.24986E+00  2.42853E+00  1.93737E+00
   4.17236E+00  4.18970E+00  1.73668E+00  4.82162E+00  2.66233E+00  1.49341E+00  1.95707E+00  3.63453E+00  6.74373E-01  5.81803E+00
   9.15312E-01  4.94366E+00  4.37673E+00  7.08448E+00  4.65616E+00  4.46080E+00  3.15697E+00  2.11647E+00  4.94485E+00  4.86484E+00
   5.24444E+00  5.42694E+00  6.57150E+00  6.68369E+00  6.22862E+00  5.03440E+00  8.88619E+00  4.48787E+00  6.97090E+00  2.45870E+00
   6.29664E+00  5.46161E+00  6.71313E+00  6.46741E+00  5.99855E+00  9.12899E+00  5.05081E+00  8.18167E+00  7.05471E+00  7.72349E+00
   6.96715E+00  6.13475E+00  5.60104E+00  7.69531E+00  5.67605E+00  4.10976E+00  5.37348E+00  5.89167E+00  7.46612E+00  5.60331E+00
   5.40032E+00  3.63561E+00  5.92070E+00  3.88217E+00  5.07982E+00  2.76066E+00  4.75792E+00  4.44387E+00  4.57773E+00  4.40585E+00
   3.54410E+00  3.52612E+00  5.11945E+00  8.47733E+00  1.32192E+01  1.66804E+01  1.42052E+01  1.50334E+01  1.42391E+01  1.23130E+01
   1.26783E+01  1.17594E+01  1.21594E+01  1.38534E+01  1.09838E+01  1.26005E+01  1.33223E+01  1.24910E+01  9.87795E+00  9.36157E+00
   9.38775E+00  8.44623E+00  1.01538E+01  1.10998E+01  9.99757E+00  1.17898E+01  9.54150E+00  8.08882E+00  7.08268E+00  8.36993E+00
   7.21082E+00  6.77208E+00  5.66676E+00  5.34726E+00  7.04318E+00  4.25162E+00  3.49083E+00  5.15346E+00  4.32051E+00  5.01802E+00
   3.00498E+00  1.45739E-01  6.49766E-01  9.18096E-01 -1.99555E+00 -1.49187E+00 -1.80074E+00 -4.20388E+00 -3.57230E+00 -5.95977E+00
  -9.41728E+00 -9.90353E+00 -9.22124E+00 -1.42051E+01 -1.42120E+01 -1.70870E+01 -1.50179E+01 -1.99444E+01 -1.96442E+01 -2.08640E+01
  -2.61314E+01 -2.68475E+01 -2.60463E+01 -2.94354E+01 -3.14763E+01 -3.72291E+01 -3.53852E+01 -3.70702E+01 -3.98299E+01 -4.01140E+01
  -3.97845E+01 -4.41843E+01 -4.30803E+01 -4.51048E+01 -4.51071E+01 -4.50684E+01 -4.32612E+01 -4.46418E+01 -4.30069E+01 -4.29961E+01
  -4.15260E+01 -3.73013E+01 -3.34116E+01 -2.94243E+01 -2.71249E+01 -2.37180E+01 -2.14897E+01 -1.67688E+01 -1.27728E+01 -1.01472E+01
  -5.72771E+00 -3.41599E+00  9.19496E-01  1.32052E+00  1.03156E+00  3.17208E+00  6.12260E+00  8.00584E+00  1.13359E+01  1.03906E+01
   1.05046E+01  9.59266E+00  1.24150E+01  1.28784E+01  1.30237E+01  1.31459E+01  1.36515E+01  1.29264E+01  1.39803E+01  1.34651E+01
   1.46958E+01  1.28775E+01  1.30981E+01  1.22486E+01  1.36993E+01  1.21518E+01  1.18092E+01  1.05273E+01  1.38982E+01  1.17486E+01
   1.23885E+01  1.19778E+01  1.22242E+01  1.08196E+01  1.20467E+01  1.47529E+01  1.10966E+01  1.26887E+01  1.36924E+01  1.14917E+01
   1.13289E+01  1.19952E+01  1.33552E+01  1.40448E+01  1.39062E+01  1.31486E+01  1.14367E+01  1.23082E+01  1.09343E+01  1.17522E+01
   1.23866E+01  1.38652E+01  1.26494E+01  1.26189E+01  1.45622E+01  1.29203E+01  1.30979E+01  1.15968E+01  1.57226E+01  1.24270E+01
   1.15323E+01  1.02409E+01  1.22489E+01  1.35978E+01  1.24215E+01  9.89901E+00  1.01956E+01  1.14779E+01  9.24692E+00  9.49550E+00
   8.68936E+00  9.84076E+00  1.04668E+01  1.01165E+01  1.02367E+01  8.06454E+00  9.30161E+00  8.81979E+00  7.45979E+00  6.63182E+00
   9.48936E+00  7.12626E+00  6.99354E+00  6.86174E+00  7.41807E+00  7.34679E+00  5.18892E+00  4.30363E+00  4.19247E+00  4.55319E+00
   3.45964E+00  6.43044E+00  6.29028E+00  2.82374E+00  5.24893E+00  5.50737E+00  2.20955E+00  1.15729E+00  3.15046E+00  1.25940E+00
   1.14065E+00  4.56309E+00  1.86783E+00  1.97276E+00 -4.35873E-01  2.36238E+00  4.91672E-01  2.38205E+00  1.21980E+00  8.77424E-01
  -3.72797E-01 -1.53368E+00 -5.94504E-01 -9.99230E-01 -1.49691E+00  1.65953E+00 -8.95636E-01 -1.74379E+00 -1.73725E+00 -2.55057E+00
  -1.68557E+00 -2.76408E+00 -5.73936E+00 -1.48218E+00 -4.28742E+00 -3.30262E+00 -2.36636E+00 -1.80537E+00 -4.22705E+00 -4.96765E+00
  -3.70265E+00 -2.34172E+00 -2.91144E+00 -4.83391E+00 -3.73536E+00 -6.11619E+00 -3.26641E+00 -2.37776E+00 -7.18867E+00 -4.34627E+00
  -4.03363E+00 -7.65372E+00 -5.89443E+00 -4.08263E+00 -5.54786E+00 -7.47473E+00 -4.75577E+00 -5.25850E+00 -5.09444E+00 -4.69955E+00
  -8.18037E+00 -3.42893E+00 -6.39418E+00 -5.34668E+00 -5.35273E+00 -3.94868E+00 -5.30263E+00 -6.65117E+00
 NY points of the fit to the data follow
   8.60923E+00  1.06362E+01  8.48691E+00  1.00512E+01  8.64309E+00  9.60307E+00  8.54825E+00  9.15997E+00  8.43601E+00  8.73899E+00
   8.14639E+00  8.22310E+00  7.97588E+00  8.13963E+00  7.99655E+00  8.18997E+00  8.07767E+00  8.25786E+00  8.13897E+00  8.14567E+00
   8.01177E+00  8.03084E+00  7.99410E+00  7.98112E+00  8.01257E+00  7.91025E+00  7.96166E+00  7.77201E+00  7.86531E+00  7.68534E+00
   7.85627E+00  7.74068E+00  7.95791E+00  7.86231E+00  8.03133E+00  7.95567E+00  8.09006E+00  8.09552E+00  8.22952E+00  8.22098E+00
   8.25576E+00  8.16097E+00  8.07161E+00  7.88667E+00  7.71221E+00  7.41789E+00  7.16985E+00  6.78572E+00  6.49514E+00  6.03251E+00
   5.73585E+00  5.25784E+00  5.01503E+00  4.56305E+00  4.44122E+00  3.98541E+00  3.94255E+00  3.47398E+00  3.49790E+00  3.03545E+00
   3.12408E+00  2.64107E+00  2.75715E+00  2.28218E+00  2.44291E+00  1.98368E+00  2.13971E+00  1.68213E+00  1.81943E+00  1.38261E+00
   1.50200E+00  1.01316E+00  1.04958E+00  4.85075E-01  4.52758E-01 -1.51608E-01 -2.04143E-01 -8.46774E-01 -8.89820E-01 -1.55886E+00
  -1.57758E+00 -2.21658E+00 -2.18237E+00 -2.74133E+00 -2.59389E+00 -3.01706E+00 -2.77073E+00 -3.01903E+00 -2.77023E+00 -2.82829E+00
  -2.62928E+00 -2.48532E+00 -2.32704E+00 -2.00004E+00 -1.99262E+00 -1.55514E+00 -1.76917E+00 -1.28656E+00 -1.70927E+00 -1.24646E+00
  -1.84669E+00 -1.43472E+00 -2.13613E+00 -1.80793E+00 -2.58532E+00 -2.36555E+00 -3.12244E+00 -2.98240E+00 -3.64157E+00 -3.57211E+00
  -4.14075E+00 -4.12516E+00 -4.57521E+00 -4.58154E+00 -4.90130E+00 -4.91449E+00 -5.15752E+00 -5.17981E+00 -5.30902E+00 -5.31828E+00
  -5.38483E+00 -5.39074E+00 -5.42263E+00 -5.42116E+00 -5.37173E+00 -5.33915E+00 -5.28652E+00 -5.24625E+00 -5.18771E+00 -5.14029E+00
  -5.07480E+00 -5.02069E+00 -4.95074E+00 -4.88833E+00 -4.81168E+00 -4.73935E+00 -4.65358E+00 -4.57141E+00 -4.47810E+00 -4.38656E+00
  -4.28644E+00 -4.18743E+00 -4.08432E+00 -3.98634E+00 -3.88252E+00 -3.79379E+00 -3.68445E+00 -3.59817E+00 -3.48441E+00 -3.39674E+00
  -3.28993E+00 -3.21145E+00 -3.11272E+00 -3.03744E+00 -2.94497E+00 -2.86084E+00 -2.78476E+00 -2.69674E+00 -2.64829E+00 -2.56180E+00
  -2.53862E+00 -2.45422E+00 -2.44016E+00 -2.36475E+00 -2.35268E+00 -2.29823E+00 -2.28249E+00 -2.24902E+00 -2.20242E+00 -2.18732E+00
  -2.09746E+00 -2.10120E+00 -1.95932E+00 -1.96234E+00 -1.76363E+00 -1.74690E+00 -1.51119E+00 -1.47537E+00 -1.22251E+00 -1.15067E+00
  -9.06678E-01 -7.88465E-01 -5.79087E-01 -4.09938E-01 -2.31866E-01  1.74401E-02  1.82427E-01  5.34717E-01  6.93809E-01  1.13626E+00
   1.29198E+00  1.77752E+00  1.86713E+00  2.35922E+00  2.33947E+00  2.84210E+00  2.73425E+00  3.21125E+00  3.03715E+00  3.44772E+00
   3.19096E+00  3.55710E+00  3.28733E+00  3.58791E+00  3.35850E+00  3.60362E+00  3.48639E+00  3.67687E+00  3.68707E+00  3.83273E+00
   3.94170E+00  4.06480E+00  4.23906E+00  4.32220E+00  4.52109E+00  4.59412E+00  4.76588E+00  4.85663E+00  4.95577E+00  5.07146E+00
   5.08291E+00  5.24911E+00  5.18725E+00  5.45102E+00  5.39357E+00  5.69632E+00  5.55445E+00  5.82753E+00  5.65318E+00  5.82941E+00
   5.65785E+00  5.70148E+00  5.51792E+00  5.36218E+00  5.23550E+00  4.85992E+00  4.80053E+00  4.26073E+00  4.29431E+00  3.60048E+00
   3.66130E+00  2.88310E+00  3.13207E+00  2.52336E+00  3.05814E+00  2.89142E+00  3.57749E+00  3.92139E+00  4.59936E+00  5.47601E+00
   6.25136E+00  7.82740E+00  8.36672E+00  1.04515E+01  1.04674E+01  1.27688E+01  1.21567E+01  1.44612E+01  1.31752E+01  1.52570E+01
   1.34563E+01  1.51978E+01  1.29631E+01  1.42333E+01  1.18666E+01  1.26835E+01  1.04795E+01  1.10078E+01  9.10466E+00  9.43771E+00
   7.94246E+00  8.18279E+00  7.17421E+00  7.44367E+00  6.77265E+00  6.99265E+00  6.70365E+00  6.96026E+00  6.89134E+00  7.09997E+00
   7.06451E+00  7.10204E+00  7.15182E+00  7.13114E+00  7.00774E+00  6.75609E+00  6.37493E+00  5.83899E+00  5.16204E+00  4.33594E+00
   3.37585E+00  2.28585E+00  1.08339E+00 -2.18812E-01 -1.60393E+00 -3.05173E+00 -4.54803E+00 -6.07394E+00 -7.61744E+00 -9.16271E+00
  -1.07015E+01 -1.22220E+01 -1.37200E+01 -1.51887E+01 -1.66255E+01 -1.80282E+01 -1.93963E+01 -2.07306E+01 -2.20320E+01 -2.33033E+01
  -2.45461E+01 -2.57637E+01 -2.69581E+01 -2.81331E+01 -2.92904E+01 -3.04331E+01 -3.15626E+01 -3.26810E+01 -3.37893E+01 -3.48883E+01
  -3.59776E+01 -3.70554E+01 -3.81178E+01 -3.91584E+01 -4.01655E+01 -4.11182E+01 -4.19765E+01 -4.26467E+01 -4.28011E+01 -4.15719E+01
  -4.05131E+01 -3.68774E+01 -3.48433E+01 -3.03664E+01 -2.78643E+01 -2.38269E+01 -2.15110E+01 -1.64385E+01 -1.44944E+01 -9.34979E+00
  -7.33837E+00 -3.28275E+00 -1.32863E+00  1.03937E+00  2.14503E+00  4.18820E+00  5.76102E+00  7.68310E+00  9.66488E+00  1.00804E+01
   1.19336E+01  1.13522E+01  1.31946E+01  1.21105E+01  1.39667E+01  1.25717E+01  1.49018E+01  1.29164E+01  1.51650E+01  1.30890E+01
   1.48324E+01  1.22739E+01  1.37860E+01  1.20282E+01  1.33815E+01  1.18269E+01  1.26681E+01  1.15454E+01  1.27866E+01  1.28143E+01
   1.36920E+01  1.36463E+01  1.43502E+01  1.43205E+01  1.49281E+01  1.43229E+01  1.39210E+01  1.37460E+01  1.36785E+01  1.36503E+01
   1.36195E+01  1.35600E+01  1.34571E+01  1.33045E+01  1.31026E+01  1.28567E+01  1.25757E+01  1.22706E+01  1.19538E+01  1.16387E+01
   1.13376E+01  1.10624E+01  1.08226E+01  1.06257E+01  1.04771E+01  1.03800E+01  1.03348E+01  1.03400E+01  1.03917E+01  1.04846E+01
   1.06115E+01  1.07648E+01  1.09359E+01  1.11157E+01  1.12950E+01  1.14653E+01  1.16182E+01  1.17466E+01  1.18438E+01  1.19045E+01
   1.19241E+01  1.18997E+01  1.18292E+01  1.17118E+01  1.15476E+01  1.13376E+01  1.10836E+01  1.07883E+01  1.04548E+01  1.00867E+01
   9.68773E+00  9.26194E+00  8.81336E+00  8.34617E+00  7.86432E+00  7.37167E+00  6.87169E+00  6.36775E+00  5.86285E+00  5.35986E+00
   4.86122E+00  4.36915E+00  3.88539E+00  3.41162E+00  2.94916E+00  2.49927E+00  2.06278E+00  1.64044E+00  1.23271E+00  8.40067E-01
   4.62752E-01  1.01027E-01 -2.45131E-01 -5.75716E-01 -8.90912E-01 -1.19075E+00 -1.47545E+00 -1.74516E+00 -2.00024E+00 -2.24094E+00
  -2.46760E+00 -2.68044E+00 -2.87980E+00 -3.06595E+00 -3.23930E+00 -3.40014E+00 -3.54882E+00 -3.68555E+00 -3.81069E+00 -3.92452E+00
  -4.02741E+00 -4.11960E+00 -4.20138E+00 -4.27296E+00 -4.33465E+00 -4.38670E+00 -4.42942E+00 -4.46301E+00 -4.48768E+00 -4.50364E+00
  -4.51115E+00 -4.51043E+00 -4.50174E+00 -4.48521E+00 -4.46106E+00 -4.42945E+00 -4.39064E+00 -4.34482E+00 -4.29219E+00 -4.23288E+00
  -4.16710E+00 -4.09503E+00 -4.01691E+00 -3.93292E+00 -3.84328E+00 -3.74812E+00 -3.64773E+00 -3.54229E+00 -3.43213E+00 -3.31746E+00
  -3.19860E+00 -3.07579E+00 -2.94949E+00 -2.82008E+00 -2.68810E+00 -2.55407E+00 -2.41872E+00 -2.28287E+00
 NY background values follow
     1.203E+00    1.131E+00    1.058E+00    9.830E-01    9.067E-01    8.290E-01    7.497E-01    6.690E-01    5.869E-01    5.034E-01
     4.185E-01    3.324E-01    2.450E-01    1.563E-01    6.650E-02   -2.451E-02   -1.167E-01   -2.099E-01   -3.042E-01   -3.995E-01
    -4.958E-01   -5.930E-01   -6.911E-01   -7.901E-01   -8.899E-01   -9.905E-01   -1.092E+00   -1.194E+00   -1.297E+00   -1.400E+00
    -1.504E+00   -1.608E+00   -1.713E+00   -1.818E+00   -1.924E+00   -2.030E+00   -2.137E+00   -2.243E+00   -2.350E+00   -2.458E+00
    -2.565E+00   -2.672E+00   -2.780E+00   -2.887E+00   -2.994E+00   -3.102E+00   -3.209E+00   -3.316E+00   -3.423E+00   -3.529E+00
    -3.635E+00   -3.741E+00   -3.847E+00   -3.951E+00   -4.056E+00   -4.160E+00   -4.263E+00   -4.365E+00   -4.467E+00   -4.568E+00
    -4.669E+00   -4.768E+00   -4.867E+00   -4.964E+00   -5.061E+00   -5.156E+00   -5.251E+00   -5.344E+00   -5.436E+00   -5.527E+00
    -5.617E+00   -5.705E+00   -5.791E+00   -5.877E+00   -5.961E+00   -6.043E+00   -6.123E+00   -6.202E+00   -6.280E+00   -6.355E+00
    -6.429E+00   -6.501E+00   -6.571E+00   -6.639E+00   -6.705E+00   -6.769E+00   -6.830E+00   -6.890E+00   -6.948E+00   -7.003E+00
    -7.056E+00   -7.107E+00   -7.156E+00   -7.202E+00   -7.246E+00   -7.288E+00   -7.327E+00   -7.364E+00   -7.398E+00   -7.430E+00
    -7.459E+00   -7.486E+00   -7.510E+00   -7.531E+00   -7.550E+00   -7.566E+00   -7.579E+00   -7.590E+00   -7.597E+00   -7.602E+00
    -7.604E+00   -7.603E+00   -7.599E+00   -7.592E+00   -7.583E+00   -7.570E+00   -7.554E+00   -7.535E+00   -7.513E+00   -7.488E+00
    -7.459E+00   -7.428E+00   -7.393E+00   -7.355E+00   -7.314E+00   -7.269E+00   -7.221E+00   -7.170E+00   -7.116E+00   -7.057E+00
    -6.996E+00   -6.931E+00   -6.863E+00   -6.791E+00   -6.715E+00   -6.636E+00   -6.553E+00   -6.467E+00   -6.377E+00   -6.284E+00
    -6.187E+00   -6.086E+00   -5.981E+00   -5.873E+00   -5.760E+00   -5.645E+00   -5.525E+00   -5.401E+00   -5.274E+00   -5.142E+00
    -5.007E+00   -4.868E+00   -4.725E+00   -4.578E+00   -4.427E+00   -4.272E+00   -4.113E+00   -3.950E+00   -3.783E+00   -3.612E+00
    -3.437E+00   -3.258E+00   -3.075E+00   -2.888E+00   -2.696E+00   -2.501E+00   -2.301E+00   -2.097E+00   -1.889E+00   -1.678E+00
    -1.463E+00   -1.246E+00   -1.025E+00   -8.014E-01   -5.755E-01   -3.475E-01   -1.174E-01    1.144E-01    3.478E-01    5.824E-01
     8.181E-01    1.055E+00    1.292E+00    1.529E+00    1.767E+00    2.004E+00    2.242E+00    2.478E+00    2.714E+00    2.949E+00
     3.183E+00    3.415E+00    3.645E+00    3.874E+00    4.101E+00    4.325E+00    4.546E+00    4.765E+00    4.981E+00    5.194E+00
     5.403E+00    5.608E+00    5.810E+00    6.007E+00    6.201E+00    6.389E+00    6.573E+00    6.753E+00    6.926E+00    7.095E+00
     7.258E+00    7.415E+00    7.567E+00    7.712E+00    7.851E+00    7.983E+00    8.108E+00    8.227E+00    8.338E+00    8.443E+00
     8.539E+00    8.628E+00    8.709E+00    8.782E+00    8.846E+00    8.903E+00    8.950E+00    8.989E+00    9.019E+00    9.039E+00
     9.050E+00    9.052E+00    9.044E+00    9.027E+00    8.999E+00    8.961E+00    8.913E+00    8.854E+00    8.785E+00    8.705E+00
     8.614E+00    8.512E+00    8.399E+00    8.274E+00    8.138E+00    7.991E+00    7.831E+00    7.660E+00    7.476E+00    7.281E+00
     7.073E+00    6.854E+00    6.623E+00    6.381E+00    6.127E+00    5.863E+00    5.589E+00    5.305E+00    5.010E+00    4.706E+00
     4.393E+00    4.071E+00    3.740E+00    3.400E+00    3.052E+00    2.697E+00    2.333E+00    1.962E+00    1.584E+00    1.199E+00
     8.080E-01    4.101E-01    6.198E-03   -4.035E-01   -8.188E-01   -1.239E+00   -1.665E+00   -2.095E+00   -2.530E+00   -2.969E+00
    -3.413E+00   -3.860E+00   -4.310E+00   -4.764E+00   -5.220E+00   -5.680E+00   -6.141E+00   -6.606E+00   -7.072E+00   -7.539E+00
    -8.009E+00   -8.480E+00   -8.951E+00   -9.424E+00   -9.897E+00   -1.037E+01   -1.084E+01   -1.132E+01   -1.179E+01   -1.226E+01
    -1.273E+01   -1.320E+01   -1.367E+01   -1.414E+01   -1.461E+01   -1.507E+01   -1.553E+01   -1.599E+01   -1.645E+01   -1.691E+01
    -1.736E+01   -1.781E+01   -1.825E+01   -1.869E+01   -1.913E+01   -1.956E+01   -1.999E+01   -2.042E+01   -2.084E+01   -2.126E+01
    -2.167E+01   -2.207E+01   -2.248E+01   -2.287E+01   -2.326E+01   -2.365E+01   -2.403E+01   -2.440E+01   -2.476E+01   -2.512E+01
    -2.548E+01   -2.583E+01   -2.617E+01   -2.650E+01   -2.682E+01   -2.714E+01   -2.746E+01   -2.776E+01   -2.806E+01   -2.836E+01
    -2.864E+01   -2.892E+01   -2.920E+01   -2.947E+01   -2.973E+01   -2.998E+01   -3.023E+01   -3.047E+01   -3.071E+01   -3.094E+01
    -3.117E+01   -3.138E+01   -3.160E+01   -3.180E+01   -3.200E+01   -3.220E+01   -3.239E+01   -3.257E+01   -3.275E+01   -3.292E+01
    -3.309E+01   -3.325E+01   -3.341E+01   -3.356E+01   -3.370E+01   -3.384E+01   -3.397E+01   -3.410E+01   -3.423E+01   -3.435E+01
    -3.446E+01   -3.457E+01   -3.467E+01   -3.477E+01   -3.486E+01   -3.495E+01   -3.504E+01   -3.512E+01   -3.519E+01   -3.526E+01
    -3.532E+01   -3.538E+01   -3.544E+01   -3.549E+01   -3.553E+01   -3.558E+01   -3.561E+01   -3.565E+01   -3.567E+01   -3.570E+01
    -3.572E+01   -3.573E+01   -3.574E+01   -3.575E+01   -3.575E+01   -3.575E+01   -3.574E+01   -3.573E+01   -3.572E+01   -3.570E+01
    -3.568E+01   -3.565E+01   -3.562E+01   -3.559E+01   -3.555E+01   -3.551E+01   -3.547E+01   -3.542E+01   -3.536E+01   -3.531E+01
    -3.525E+01   -3.518E+01   -3.511E+01   -3.504E+01   -3.497E+01   -3.489E+01   -3.481E+01   -3.472E+01   -3.463E+01   -3.454E+01
    -3.444E+01   -3.434E+01   -3.424E+01   -3.413E+01   -3.402E+01   -3.391E+01   -3.379E+01   -3.367E+01   -3.355E+01   -3.342E+01
    -3.329E+01   -3.315E+01   -3.302E+01   -3.288E+01   -3.273E+01   -3.258E+01   -3.243E+01   -3.228E+01   -3.212E+01   -3.196E+01
    -3.180E+01   -3.163E+01   -3.146E+01   -3.129E+01   -3.111E+01   -3.093E+01   -3.075E+01   -3.056E+01   -3.037E+01   -3.018E+01
    -2.998E+01   -2.979E+01   -2.958E+01   -2.938E+01   -2.917E+01   -2.896E+01   -2.874E+01   -2.853E+01   -2.831E+01   -2.808E+01
    -2.785E+01   -2.762E+01   -2.739E+01   -2.715E+01   -2.691E+01   -2.667E+01   -2.643E+01   -2.618E+01   -2.593E+01   -2.567E+01
    -2.541E+01   -2.515E+01   -2.489E+01   -2.462E+01   -2.435E+01   -2.408E+01   -2.380E+01   -2.352E+01   -2.324E+01   -2.295E+01
    -2.266E+01   -2.237E+01   -2.207E+01   -2.178E+01   -2.147E+01   -2.117E+01   -2.086E+01   -2.055E+01   -2.024E+01   -1.992E+01
    -1.960E+01   -1.928E+01   -1.895E+01   -1.862E+01   -1.829E+01   -1.795E+01   -1.761E+01   -1.727E+01
 Asp      Conc. = 8.15E+01
