 LCModel (Version 6.3-1L) Copyright: S.W. Provencher.          Ref.: Magn. Reson. Med. 30:672-679 (1993).                
 Slice#1 Row#6 Col#13  K_02_press_1_raw_act
 36 lines in following concentration table = NCONC+1
    Conc.  %SD /Cr+PCr  Metabolite                                         
    0.000 999%   0.000 Ala                                                 
   58.056  65%   0.000 Asp                                                 
    0.000 999%   0.000 Cr                                                  
    0.000 999%   0.000 PCr                                                 
   18.702 122%   0.000 GABA                                                
   26.135  87%   0.000 Glc                                                 
    0.000 999%   0.000 Gln                                                 
    0.000 999%   0.000 Glu                                                 
    0.000 999%   0.000 GPC                                                 
    0.000 999%   0.000 PCh                                                 
    0.000 999%   0.000 GSH                                                 
    0.000 999%   0.000 Ins                                                 
    0.000 999%   0.000 Lac                                                 
  854.172   8%   0.000 NAA                                                 
    0.000 999%   0.000 NAAG                                                
    8.985  79%   0.000 Scyllo                                              
   68.589  53%   0.000 Tau                                                 
    4.789 200%   0.000 -CrCH2                                              
    0.000 999%   0.000 GPC+PCh                                             
  854.172   8%   0.000 NAA+NAAG                                            
    0.000 999%   0.000 Cr+PCr                                              
    0.000 999%   0.000 Glu+Gln                                             
 2.54E+04   6%   0.000 Lip13a                                              
    0.000 999%   0.000 Lip13b                                              
 8.08E+03   7%   0.000 Lip09                                               
    0.000 999%   0.000 MM09                                                
 4.23E+03  11%   0.000 Lip20                                               
    0.000 999%   0.000 MM20                                                
    0.000 999%   0.000 MM12                                                
 2.91E+03  21%   0.000 MM14                                                
 1.66E+03  29%   0.000 MM17                                                
 2.54E+04   6%   0.000 Lip13a+Lip13b                                       
 2.83E+04   5%   0.000 MM14+Lip13a+Lip13b+MM12                             
 8.08E+03   7%   0.000 MM09+Lip09                                          
 4.23E+03  11%   0.000 MM20+Lip20                                          
   6 lines in following misc. output table
  FWHM = 0.076 ppm    S/N =  12                                            
  Data shift = 0.031 ppm                                                   
  Ph:  12 deg       2.7 deg/ppm                                            
  alphaB,S = 8.5E+01,   2.8E+01                                            
   14 spline knots.   Ns = 6(2)                                            
   2 inflections.     1 extrema                                            
  498 points on ppm-axis = NY
      4.000000     3.992357     3.984714     3.977070     3.969427     3.961784     3.954141     3.946497     3.938854     3.931211
      3.923568     3.915925     3.908281     3.900638     3.892995     3.885352     3.877708     3.870065     3.862422     3.854779
      3.847136     3.839492     3.831849     3.824206     3.816563     3.808919     3.801276     3.793633     3.785990     3.778347
      3.770703     3.763060     3.755417     3.747774     3.740130     3.732487     3.724844     3.717201     3.709558     3.701914
      3.694271     3.686628     3.678985     3.671341     3.663698     3.656055     3.648412     3.640769     3.633125     3.625482
      3.617839     3.610196     3.602552     3.594909     3.587266     3.579623     3.571980     3.564336     3.556693     3.549050
      3.541407     3.533763     3.526120     3.518477     3.510834     3.503191     3.495547     3.487904     3.480261     3.472618
      3.464974     3.457331     3.449688     3.442045     3.434402     3.426758     3.419115     3.411472     3.403829     3.396185
      3.388542     3.380899     3.373256     3.365613     3.357969     3.350326     3.342683     3.335040     3.327396     3.319753
      3.312110     3.304467     3.296824     3.289180     3.281537     3.273894     3.266251     3.258607     3.250964     3.243321
      3.235678     3.228034     3.220391     3.212748     3.205105     3.197462     3.189818     3.182175     3.174532     3.166889
      3.159245     3.151602     3.143959     3.136316     3.128673     3.121029     3.113386     3.105743     3.098100     3.090456
      3.082813     3.075170     3.067527     3.059884     3.052240     3.044597     3.036954     3.029311     3.021667     3.014024
      3.006381     2.998738     2.991095     2.983451     2.975808     2.968165     2.960522     2.952878     2.945235     2.937592
      2.929949     2.922306     2.914662     2.907019     2.899376     2.891733     2.884089     2.876446     2.868803     2.861160
      2.853517     2.845873     2.838230     2.830587     2.822944     2.815300     2.807657     2.800014     2.792371     2.784728
      2.777084     2.769441     2.761798     2.754155     2.746511     2.738868     2.731225     2.723582     2.715939     2.708295
      2.700652     2.693009     2.685366     2.677722     2.670079     2.662436     2.654793     2.647150     2.639506     2.631863
      2.624220     2.616577     2.608933     2.601290     2.593647     2.586004     2.578361     2.570717     2.563074     2.555431
      2.547788     2.540144     2.532501     2.524858     2.517215     2.509572     2.501928     2.494285     2.486642     2.478999
      2.471355     2.463712     2.456069     2.448426     2.440783     2.433139     2.425496     2.417853     2.410210     2.402566
      2.394923     2.387280     2.379637     2.371994     2.364350     2.356707     2.349064     2.341421     2.333777     2.326134
      2.318491     2.310848     2.303205     2.295561     2.287918     2.280275     2.272632     2.264988     2.257345     2.249702
      2.242059     2.234416     2.226772     2.219129     2.211486     2.203843     2.196199     2.188556     2.180913     2.173270
      2.165627     2.157983     2.150340     2.142697     2.135054     2.127410     2.119767     2.112124     2.104481     2.096838
      2.089194     2.081551     2.073908     2.066265     2.058621     2.050978     2.043335     2.035692     2.028049     2.020405
      2.012762     2.005119     1.997476     1.989833     1.982190     1.974546     1.966903     1.959260     1.951617     1.943974
      1.936331     1.928688     1.921045     1.913402     1.905759     1.898115     1.890472     1.882829     1.875186     1.867543
      1.859900     1.852257     1.844614     1.836971     1.829327     1.821684     1.814041     1.806398     1.798755     1.791112
      1.783469     1.775826     1.768183     1.760540     1.752896     1.745253     1.737610     1.729967     1.722324     1.714681
      1.707038     1.699395     1.691752     1.684108     1.676465     1.668822     1.661179     1.653536     1.645893     1.638250
      1.630607     1.622964     1.615321     1.607677     1.600034     1.592391     1.584748     1.577105     1.569462     1.561819
      1.554176     1.546533     1.538890     1.531246     1.523603     1.515960     1.508317     1.500674     1.493031     1.485388
      1.477745     1.470102     1.462458     1.454815     1.447172     1.439529     1.431886     1.424243     1.416600     1.408957
      1.401314     1.393671     1.386027     1.378384     1.370741     1.363098     1.355455     1.347812     1.340169     1.332526
      1.324883     1.317240     1.309596     1.301953     1.294310     1.286667     1.279024     1.271381     1.263738     1.256095
      1.248452     1.240808     1.233165     1.225522     1.217879     1.210236     1.202593     1.194950     1.187307     1.179664
      1.172021     1.164377     1.156734     1.149091     1.141448     1.133805     1.126162     1.118519     1.110876     1.103233
      1.095590     1.087946     1.080303     1.072660     1.065017     1.057374     1.049731     1.042088     1.034445     1.026802
      1.019158     1.011515     1.003872     0.996229     0.988586     0.980943     0.973300     0.965657     0.958014     0.950371
      0.942727     0.935084     0.927441     0.919798     0.912155     0.904512     0.896869     0.889226     0.881583     0.873940
      0.866296     0.858653     0.851010     0.843367     0.835724     0.828081     0.820438     0.812795     0.805152     0.797508
      0.789865     0.782222     0.774579     0.766936     0.759293     0.751650     0.744007     0.736364     0.728721     0.721077
      0.713434     0.705791     0.698148     0.690505     0.682862     0.675219     0.667576     0.659933     0.652290     0.644646
      0.637003     0.629360     0.621717     0.614074     0.606431     0.598788     0.591145     0.583502     0.575858     0.568215
      0.560572     0.552929     0.545286     0.537643     0.530000     0.522357     0.514714     0.507071     0.499427     0.491784
      0.484141     0.476498     0.468855     0.461212     0.453569     0.445925     0.438282     0.430639     0.422996     0.415353
      0.407710     0.400067     0.392424     0.384780     0.377137     0.369494     0.361851     0.354208     0.346565     0.338922
      0.331278     0.323635     0.315992     0.308349     0.300706     0.293063     0.285420     0.277777     0.270133     0.262490
      0.254847     0.247204     0.239561     0.231918     0.224275     0.216631     0.208988     0.201345
 NY phased data points follow
  -2.17458E-01  2.51068E+00 -5.23432E-01  2.54506E+00  4.15188E+00  3.05489E+00  4.66505E+00  1.42110E+00  3.22930E+00  3.85714E+00
   1.09604E+00  3.19939E-01  7.65810E-01  6.38739E-01 -2.58617E-01  2.35247E+00  1.33669E+00  1.11184E+00  2.53642E+00 -7.74259E-01
   3.65979E+00  2.78241E-01  1.22360E+00  3.17644E+00  3.76377E+00  3.02533E+00  3.46787E+00  4.73631E+00  1.65595E-01  3.06192E+00
  -1.89580E+00  1.35354E+00  3.54829E+00  1.64863E+00  4.56160E+00  2.98754E+00  3.54585E+00  3.50639E+00  5.77474E+00  6.01251E+00
   1.30884E+00  5.42843E+00  4.36125E+00  4.93428E+00  3.69489E+00  3.76740E+00  3.74480E+00  1.00154E+00 -7.83861E-02  5.86400E+00
   1.43218E+00  3.46326E+00  2.62731E+00  4.12523E+00  5.71072E-01  2.28229E+00  3.24439E+00  7.22215E-01  4.35474E+00  2.76771E+00
   3.20633E+00  3.70715E+00  5.74238E+00  2.18033E+00  2.15429E+00  6.61057E+00  4.62246E+00  2.63373E+00  1.51165E+00  3.39154E+00
   3.69059E+00  4.97227E+00  7.29709E+00  2.86807E+00  5.13293E+00  3.64528E+00  1.64661E+00  8.46002E+00  3.57273E+00  2.38770E+00
   1.15198E+00  2.83336E+00  2.10900E+00  5.06073E+00  3.48006E+00  1.48547E+00  5.44238E+00  4.55040E-01  3.66593E+00  2.69235E+00
   5.80900E+00  2.68115E+00  5.36127E+00  2.96813E+00  1.21181E+00  4.12161E+00  2.72457E+00  5.78865E+00  4.82100E+00  4.24901E+00
   6.58924E+00 -3.38576E-02 -2.58968E+00 -6.05582E-01  1.59109E+00  1.52572E+00  5.29834E+00  2.85102E+00  4.00388E+00  3.42269E+00
   4.51471E+00  3.65808E+00  7.49968E+00  6.32470E+00  6.40234E+00  3.09519E+00  4.10173E+00  2.61703E+00  5.79029E+00  5.55906E+00
   5.87062E+00  6.21387E+00  7.06574E+00  5.81215E+00  4.69117E+00  1.90223E+00  1.62529E+00  5.33021E-01  2.23933E-01  3.00758E+00
   2.07232E+00  1.84894E+00  3.52680E+00  5.94123E+00  3.99120E+00  6.89548E+00  7.39297E+00  6.44021E+00  3.67815E+00  4.10352E+00
   8.67890E+00  6.79945E+00  5.67922E+00  7.37870E+00  5.17058E+00  2.36842E+00  7.63209E+00  4.59433E+00  3.96182E+00  5.70816E+00
   3.01607E+00  5.19780E+00  4.30369E+00  4.85855E+00  5.15446E+00  4.29514E+00  8.40474E-01  6.73519E+00  4.26263E+00  4.88580E+00
   6.28859E+00  3.94743E+00  8.23624E+00  4.63272E+00  5.23325E+00  7.50492E+00  6.64882E+00  5.95480E+00  3.04041E+00  5.22163E+00
   5.19765E+00  6.37302E+00  3.83394E+00  4.71496E+00  7.75301E+00  5.74452E+00  2.10730E+00  3.61180E+00  6.18054E+00  5.41994E+00
   5.77082E+00  6.26088E+00  3.54126E+00  5.34919E+00  6.18537E+00  7.87638E+00  3.39001E+00  5.22411E+00  5.52302E+00  3.08343E+00
   4.78210E+00  5.70742E+00  1.84073E+00  1.55723E+00 -3.15971E-02  1.91364E+00  8.25363E-02  2.61007E+00  2.92540E+00  4.06520E+00
   6.23112E+00  3.41559E+00  5.86960E+00  5.18071E+00  4.81551E+00  6.56062E+00  4.40556E+00  5.20983E+00  4.09787E+00  6.85789E+00
   5.43826E+00  5.61465E+00  8.73897E+00  6.65886E+00  6.29522E+00  2.97100E+00  6.91645E+00  7.29702E+00  4.41069E+00  7.56845E+00
   7.72925E+00  4.89790E+00  6.40450E+00  3.73041E+00  6.74529E+00  3.92951E+00  6.33570E+00  3.19642E+00  8.22670E+00  6.23519E+00
   6.42129E+00  6.97629E+00  9.26202E+00  9.81787E+00  8.36669E+00  7.92429E+00  8.06468E+00  7.92599E+00  7.41025E+00  8.14323E+00
   7.96246E+00  8.71636E+00  7.71354E+00  1.01157E+01  9.05842E+00  1.29986E+01  9.10970E+00  7.21682E+00  1.06745E+01  1.54039E+01
   1.21771E+01  1.30991E+01  1.58413E+01  1.93874E+01  2.37032E+01  2.71511E+01  2.86978E+01  3.28629E+01  3.52613E+01  3.22216E+01
   2.90254E+01  2.80631E+01  2.32985E+01  2.26651E+01  2.01942E+01  1.86190E+01  1.67749E+01  1.29239E+01  1.36529E+01  1.03048E+01
   5.87854E+00  9.97035E+00  6.88965E+00  6.70735E+00  8.28998E+00  7.74922E+00  7.59205E+00  9.50310E+00  6.54538E+00  4.32293E+00
   9.11008E+00  1.04375E+01  8.39345E+00  8.56092E+00  7.72875E+00  7.94134E+00  1.05574E+01  1.13896E+01  9.90821E+00  1.20794E+01
   9.65092E+00  1.13888E+01  8.92381E+00  1.08089E+01  1.17254E+01  9.50804E+00  9.78575E+00  1.14864E+01  1.48845E+01  1.36581E+01
   1.38362E+01  1.40230E+01  1.29441E+01  1.37500E+01  1.56379E+01  1.74996E+01  1.88512E+01  2.03399E+01  2.43319E+01  2.64069E+01
   2.43974E+01  2.32885E+01  2.55457E+01  2.49408E+01  2.11996E+01  2.67465E+01  2.48728E+01  2.73811E+01  2.42217E+01  2.79917E+01
   3.03362E+01  2.82863E+01  3.05256E+01  3.40946E+01  3.43722E+01  3.72008E+01  3.63827E+01  3.90846E+01  4.47526E+01  4.30152E+01
   4.42692E+01  4.37896E+01  4.76334E+01  4.72276E+01  4.54200E+01  4.68953E+01  4.78499E+01  4.59608E+01  4.71750E+01  4.78285E+01
   4.68334E+01  4.54682E+01  4.61797E+01  4.65390E+01  4.79851E+01  4.60628E+01  4.90217E+01  5.07071E+01  4.68167E+01  4.84464E+01
   4.89098E+01  4.76923E+01  4.86436E+01  4.61617E+01  4.61425E+01  4.76465E+01  4.78411E+01  4.57042E+01  5.05059E+01  5.08728E+01
   5.00886E+01  4.79792E+01  5.05492E+01  5.22632E+01  5.32627E+01  5.11639E+01  5.24412E+01  4.99090E+01  4.88044E+01  5.07459E+01
   5.31820E+01  5.03497E+01  5.46957E+01  5.05489E+01  5.17356E+01  5.29185E+01  5.22803E+01  5.07130E+01  5.35090E+01  5.05712E+01
   5.00915E+01  4.76181E+01  4.59709E+01  4.73379E+01  4.77292E+01  4.88800E+01  4.84337E+01  4.57351E+01  4.81592E+01  4.67326E+01
   4.89119E+01  4.64735E+01  4.98426E+01  4.73034E+01  4.71065E+01  4.70992E+01  4.77823E+01  4.60136E+01  4.64274E+01  4.05243E+01
   4.34700E+01  4.17790E+01  4.12397E+01  4.54770E+01  3.79653E+01  3.71545E+01  3.87484E+01  3.92652E+01  3.64440E+01  3.31508E+01
   3.35260E+01  3.23491E+01  3.22809E+01  3.08347E+01  2.86227E+01  2.73421E+01  2.52596E+01  2.45842E+01  2.60683E+01  2.37296E+01
   2.22377E+01  2.38650E+01  1.98727E+01  2.04163E+01  1.74696E+01  1.60382E+01  1.32506E+01  1.46023E+01  1.53194E+01  1.44715E+01
   1.16155E+01  1.37014E+01  1.03237E+01  9.51276E+00  8.20142E+00  8.20425E+00  7.19620E+00  1.14036E+01  1.01143E+01  7.47925E+00
   7.66865E+00  6.18307E+00  4.89434E+00  3.57026E+00  4.58161E+00  5.54674E+00  4.45745E+00  1.92970E+00  4.92833E+00  2.99527E+00
   2.37877E+00 -1.45842E-01  1.49038E+00  2.14142E+00  1.40113E-01  6.47981E-01  2.28852E-01 -5.78854E-01 -1.84342E+00 -1.68152E+00
   9.57091E-01 -2.26345E-01 -4.36780E-01 -1.38264E-01 -1.42116E+00 -5.13123E+00 -2.36063E+00 -7.80632E-01 -5.67965E+00 -4.21770E+00
  -5.86488E+00 -5.29270E+00 -2.79053E+00 -2.11798E+00 -3.55447E+00 -4.01277E+00 -3.52056E+00 -4.63894E+00 -3.66612E+00 -6.16322E+00
  -3.73805E+00 -5.82177E+00 -7.34406E+00 -6.59626E+00 -4.06621E+00 -6.67223E+00 -4.09996E+00 -6.08800E+00 -8.46078E+00 -4.63230E+00
  -7.06230E+00 -6.08904E+00 -4.31651E+00 -5.39566E+00 -4.33833E+00 -2.73168E+00 -3.28230E+00 -8.28847E+00
 NY points of the fit to the data follow
   4.16519E+00  4.13162E+00  4.08198E+00  4.03770E+00  3.98778E+00  3.94114E+00  3.90862E+00  3.86563E+00  3.86666E+00  3.83034E+00
   3.84576E+00  3.79794E+00  3.79313E+00  3.74720E+00  3.72876E+00  3.70511E+00  3.68890E+00  3.69170E+00  3.69181E+00  3.71304E+00
   3.71802E+00  3.73261E+00  3.71913E+00  3.72424E+00  3.70343E+00  3.70404E+00  3.67836E+00  3.66459E+00  3.63581E+00  3.61347E+00
   3.58757E+00  3.55488E+00  3.52518E+00  3.48630E+00  3.46006E+00  3.42201E+00  3.40362E+00  3.36393E+00  3.34645E+00  3.30963E+00
   3.29452E+00  3.26438E+00  3.25185E+00  3.22829E+00  3.21760E+00  3.20064E+00  3.19063E+00  3.18092E+00  3.17138E+00  3.16258E+00
   3.15084E+00  3.13938E+00  3.12554E+00  3.11389E+00  3.09923E+00  3.09220E+00  3.07733E+00  3.08094E+00  3.07189E+00  3.08387E+00
   3.07267E+00  3.09916E+00  3.06251E+00  3.10704E+00  3.04530E+00  3.09068E+00  3.01419E+00  3.07900E+00  3.03077E+00  3.10154E+00
   3.09239E+00  3.12935E+00  3.11808E+00  3.09791E+00  3.08845E+00  3.01936E+00  3.01725E+00  2.96366E+00  3.03355E+00  3.02047E+00
   3.15208E+00  3.14067E+00  3.23964E+00  3.19933E+00  3.23417E+00  3.15559E+00  3.11704E+00  3.03650E+00  2.96135E+00  2.89357E+00
   2.83825E+00  2.79346E+00  2.73766E+00  2.75216E+00  2.70546E+00  2.75478E+00  2.70861E+00  2.75774E+00  2.70641E+00  2.73382E+00
   2.71793E+00  2.72713E+00  2.73126E+00  2.73289E+00  2.76332E+00  2.74367E+00  2.77570E+00  2.73222E+00  2.74472E+00  2.70338E+00
   2.72443E+00  2.70614E+00  2.73271E+00  2.73757E+00  2.75100E+00  2.75636E+00  2.77162E+00  2.78619E+00  2.80804E+00  2.84400E+00
   2.88764E+00  2.93681E+00  3.00332E+00  3.06443E+00  3.14119E+00  3.20852E+00  3.28671E+00  3.35403E+00  3.43369E+00  3.50077E+00
   3.58518E+00  3.65869E+00  3.75440E+00  3.84339E+00  3.94453E+00  4.04759E+00  4.14825E+00  4.26431E+00  4.37753E+00  4.50293E+00
   4.63238E+00  4.75902E+00  4.89582E+00  5.01800E+00  5.14475E+00  5.25809E+00  5.36436E+00  5.46908E+00  5.56035E+00  5.64003E+00
   5.72578E+00  5.78266E+00  5.83597E+00  5.80831E+00  5.81185E+00  5.68126E+00  5.70291E+00  5.58622E+00  5.62084E+00  5.58925E+00
   5.56665E+00  5.60810E+00  5.46223E+00  5.47022E+00  5.20244E+00  5.11654E+00  4.84271E+00  4.70019E+00  4.40265E+00  4.23874E+00
   3.97244E+00  3.81876E+00  3.65163E+00  3.42238E+00  3.38726E+00  3.06822E+00  3.21575E+00  2.93259E+00  3.09222E+00  2.83458E+00
   2.97963E+00  2.79456E+00  3.01772E+00  2.94070E+00  3.21834E+00  3.23409E+00  3.50249E+00  3.59385E+00  3.77210E+00  3.90570E+00
   3.97649E+00  4.14782E+00  4.13909E+00  4.26988E+00  4.12625E+00  4.22460E+00  4.08505E+00  4.18301E+00  4.15646E+00  4.19016E+00
   4.27469E+00  4.21835E+00  4.36622E+00  4.24825E+00  4.31730E+00  4.10082E+00  4.15230E+00  3.90170E+00  4.05283E+00  3.86903E+00
   4.11733E+00  4.06020E+00  4.34542E+00  4.42495E+00  4.70955E+00  4.89921E+00  5.18476E+00  5.42984E+00  5.72726E+00  5.97070E+00
   6.22862E+00  6.46951E+00  6.68007E+00  6.89836E+00  7.05183E+00  7.22063E+00  7.35210E+00  7.49146E+00  7.64949E+00  7.81606E+00
   7.98021E+00  8.14614E+00  8.30341E+00  8.46116E+00  8.61160E+00  8.76463E+00  8.91624E+00  9.07124E+00  9.22559E+00  9.38119E+00
   9.53551E+00  9.69179E+00  9.84766E+00  1.00073E+01  1.01720E+01  1.03481E+01  1.05512E+01  1.08616E+01  1.15666E+01  1.21097E+01
   1.30277E+01  1.41489E+01  1.70931E+01  1.93080E+01  2.37785E+01  2.64742E+01  2.98294E+01  3.17792E+01  3.20572E+01  3.24175E+01
   2.91932E+01  2.81992E+01  2.41837E+01  2.28547E+01  1.96069E+01  1.83659E+01  1.55888E+01  1.43807E+01  1.19624E+01  1.08315E+01
   8.95337E+00  8.19362E+00  7.78927E+00  7.66207E+00  8.32847E+00  8.39598E+00  8.29438E+00  8.18204E+00  8.08329E+00  8.00285E+00
   7.94685E+00  7.91454E+00  7.91020E+00  7.93351E+00  7.98781E+00  8.07552E+00  8.19771E+00  8.35889E+00  8.55952E+00  8.80553E+00
   9.09536E+00  9.43659E+00  9.82438E+00  1.02669E+01  1.07593E+01  1.13051E+01  1.18993E+01  1.25420E+01  1.32258E+01  1.39473E+01
   1.46969E+01  1.54674E+01  1.62484E+01  1.70314E+01  1.78067E+01  1.85660E+01  1.93031E+01  2.00135E+01  2.06956E+01  2.13511E+01
   2.19848E+01  2.26048E+01  2.32221E+01  2.38505E+01  2.45050E+01  2.52017E+01  2.59560E+01  2.67825E+01  2.76924E+01  2.86940E+01
   2.97904E+01  3.09801E+01  3.22557E+01  3.36049E+01  3.50096E+01  3.64481E+01  3.78946E+01  3.93216E+01  4.07008E+01  4.20046E+01
   4.32078E+01  4.42890E+01  4.52309E+01  4.60228E+01  4.66593E+01  4.71422E+01  4.74784E+01  4.76812E+01  4.77679E+01  4.77599E+01
   4.76805E+01  4.75543E+01  4.74052E+01  4.72560E+01  4.71269E+01  4.70349E+01  4.69929E+01  4.70104E+01  4.70920E+01  4.72390E+01
   4.74485E+01  4.77151E+01  4.80306E+01  4.83852E+01  4.87673E+01  4.91653E+01  4.95671E+01  4.99615E+01  5.03375E+01  5.06857E+01
   5.09977E+01  5.12670E+01  5.14881E+01  5.16577E+01  5.17736E+01  5.18354E+01  5.18437E+01  5.18008E+01  5.17098E+01  5.15749E+01
   5.14010E+01  5.11938E+01  5.09590E+01  5.07032E+01  5.04323E+01  5.01531E+01  4.98712E+01  4.95925E+01  4.93219E+01  4.90639E+01
   4.88219E+01  4.85987E+01  4.83956E+01  4.82134E+01  4.80513E+01  4.79075E+01  4.77789E+01  4.76617E+01  4.75504E+01  4.74392E+01
   4.73210E+01  4.71886E+01  4.70338E+01  4.68488E+01  4.66251E+01  4.63552E+01  4.60315E+01  4.56475E+01  4.51975E+01  4.46770E+01
   4.40824E+01  4.34120E+01  4.26651E+01  4.18428E+01  4.09471E+01  3.99819E+01  3.89517E+01  3.78628E+01  3.67216E+01  3.55358E+01
   3.43130E+01  3.30617E+01  3.17897E+01  3.05056E+01  2.92169E+01  2.79311E+01  2.66549E+01  2.53947E+01  2.41558E+01  2.29432E+01
   2.17606E+01  2.06117E+01  1.94986E+01  1.84238E+01  1.73881E+01  1.63927E+01  1.54376E+01  1.45229E+01  1.36480E+01  1.28122E+01
   1.20144E+01  1.12537E+01  1.05284E+01  9.83738E+00  9.17897E+00  8.55190E+00  7.95440E+00  7.38521E+00  6.84262E+00  6.32544E+00
   5.83203E+00  5.36133E+00  4.91180E+00  4.48250E+00  4.07202E+00  3.67952E+00  3.30374E+00  2.94397E+00  2.59905E+00  2.26837E+00
   1.95089E+00  1.64612E+00  1.35310E+00  1.07143E+00  8.00241E-01  5.39209E-01  2.87540E-01  4.49859E-02 -1.89174E-01 -4.15132E-01
  -6.33563E-01 -8.44602E-01 -1.04887E+00 -1.24645E+00 -1.43792E+00 -1.62332E+00 -1.80321E+00 -1.97760E+00 -2.14699E+00 -2.31136E+00
  -2.47119E+00 -2.62643E+00 -2.77756E+00 -2.92449E+00 -3.06767E+00 -3.20699E+00 -3.34288E+00 -3.47523E+00 -3.60445E+00 -3.73041E+00
  -3.85349E+00 -3.97356E+00 -4.09099E+00 -4.20564E+00 -4.31786E+00 -4.42750E+00 -4.53491E+00 -4.63991E+00 -4.74286E+00 -4.84358E+00
  -4.94240E+00 -5.03914E+00 -5.13411E+00 -5.22714E+00 -5.31854E+00 -5.40813E+00 -5.49621E+00 -5.58257E+00
 NY background values follow
     3.525E+00    3.499E+00    3.474E+00    3.448E+00    3.422E+00    3.397E+00    3.371E+00    3.345E+00    3.320E+00    3.294E+00
     3.268E+00    3.243E+00    3.217E+00    3.191E+00    3.165E+00    3.140E+00    3.114E+00    3.088E+00    3.063E+00    3.037E+00
     3.011E+00    2.986E+00    2.960E+00    2.934E+00    2.909E+00    2.883E+00    2.857E+00    2.832E+00    2.806E+00    2.780E+00
     2.755E+00    2.729E+00    2.703E+00    2.678E+00    2.652E+00    2.626E+00    2.600E+00    2.575E+00    2.549E+00    2.523E+00
     2.498E+00    2.472E+00    2.446E+00    2.421E+00    2.395E+00    2.369E+00    2.344E+00    2.318E+00    2.292E+00    2.267E+00
     2.241E+00    2.215E+00    2.189E+00    2.164E+00    2.138E+00    2.112E+00    2.087E+00    2.061E+00    2.035E+00    2.010E+00
     1.984E+00    1.958E+00    1.933E+00    1.907E+00    1.881E+00    1.856E+00    1.830E+00    1.804E+00    1.778E+00    1.753E+00
     1.727E+00    1.701E+00    1.676E+00    1.650E+00    1.624E+00    1.599E+00    1.573E+00    1.547E+00    1.522E+00    1.496E+00
     1.470E+00    1.444E+00    1.419E+00    1.393E+00    1.367E+00    1.342E+00    1.316E+00    1.290E+00    1.265E+00    1.239E+00
     1.213E+00    1.187E+00    1.162E+00    1.136E+00    1.110E+00    1.085E+00    1.059E+00    1.033E+00    1.008E+00    9.819E-01
     9.562E-01    9.305E-01    9.048E-01    8.791E-01    8.534E-01    8.277E-01    8.020E-01    7.763E-01    7.506E-01    7.249E-01
     6.992E-01    6.734E-01    6.477E-01    6.220E-01    5.963E-01    5.706E-01    5.449E-01    5.192E-01    4.935E-01    4.678E-01
     4.421E-01    4.164E-01    3.906E-01    3.649E-01    3.392E-01    3.135E-01    2.878E-01    2.621E-01    2.364E-01    2.107E-01
     1.849E-01    1.592E-01    1.335E-01    1.078E-01    8.208E-02    5.636E-02    3.064E-02    4.927E-03   -2.079E-02   -4.651E-02
    -7.223E-02   -9.795E-02   -1.237E-01   -1.494E-01   -1.751E-01   -2.008E-01   -2.266E-01   -2.523E-01   -2.780E-01   -3.037E-01
    -3.295E-01   -3.552E-01   -3.809E-01   -4.066E-01   -4.324E-01   -4.581E-01   -4.838E-01   -5.095E-01   -5.353E-01   -5.610E-01
    -5.867E-01   -6.125E-01   -6.382E-01   -6.639E-01   -6.896E-01   -7.154E-01   -7.411E-01   -7.668E-01   -7.926E-01   -8.183E-01
    -8.440E-01   -8.698E-01   -8.955E-01   -9.212E-01   -9.470E-01   -9.727E-01   -9.985E-01   -1.024E+00   -1.050E+00   -1.076E+00
    -1.101E+00   -1.127E+00   -1.153E+00   -1.179E+00   -1.204E+00   -1.230E+00   -1.256E+00   -1.282E+00   -1.307E+00   -1.333E+00
    -1.359E+00   -1.385E+00   -1.410E+00   -1.436E+00   -1.462E+00   -1.488E+00   -1.513E+00   -1.539E+00   -1.565E+00   -1.591E+00
    -1.616E+00   -1.642E+00   -1.668E+00   -1.694E+00   -1.719E+00   -1.745E+00   -1.771E+00   -1.797E+00   -1.822E+00   -1.848E+00
    -1.874E+00   -1.900E+00   -1.925E+00   -1.951E+00   -1.977E+00   -2.003E+00   -2.028E+00   -2.054E+00   -2.080E+00   -2.106E+00
    -2.131E+00   -2.157E+00   -2.183E+00   -2.209E+00   -2.234E+00   -2.260E+00   -2.286E+00   -2.312E+00   -2.337E+00   -2.363E+00
    -2.389E+00   -2.415E+00   -2.440E+00   -2.466E+00   -2.492E+00   -2.518E+00   -2.544E+00   -2.569E+00   -2.595E+00   -2.621E+00
    -2.647E+00   -2.672E+00   -2.698E+00   -2.724E+00   -2.750E+00   -2.775E+00   -2.801E+00   -2.827E+00   -2.853E+00   -2.878E+00
    -2.904E+00   -2.930E+00   -2.956E+00   -2.982E+00   -3.007E+00   -3.033E+00   -3.059E+00   -3.085E+00   -3.110E+00   -3.136E+00
    -3.162E+00   -3.188E+00   -3.213E+00   -3.239E+00   -3.265E+00   -3.291E+00   -3.317E+00   -3.342E+00   -3.368E+00   -3.394E+00
    -3.420E+00   -3.445E+00   -3.471E+00   -3.497E+00   -3.523E+00   -3.549E+00   -3.574E+00   -3.600E+00   -3.626E+00   -3.652E+00
    -3.677E+00   -3.703E+00   -3.729E+00   -3.755E+00   -3.781E+00   -3.806E+00   -3.832E+00   -3.858E+00   -3.884E+00   -3.909E+00
    -3.935E+00   -3.961E+00   -3.987E+00   -4.013E+00   -4.038E+00   -4.064E+00   -4.090E+00   -4.116E+00   -4.141E+00   -4.167E+00
    -4.193E+00   -4.219E+00   -4.245E+00   -4.270E+00   -4.296E+00   -4.322E+00   -4.348E+00   -4.374E+00   -4.399E+00   -4.425E+00
    -4.451E+00   -4.477E+00   -4.502E+00   -4.528E+00   -4.554E+00   -4.580E+00   -4.606E+00   -4.631E+00   -4.657E+00   -4.683E+00
    -4.709E+00   -4.735E+00   -4.760E+00   -4.786E+00   -4.812E+00   -4.838E+00   -4.864E+00   -4.889E+00   -4.915E+00   -4.941E+00
    -4.967E+00   -4.992E+00   -5.018E+00   -5.044E+00   -5.070E+00   -5.096E+00   -5.121E+00   -5.147E+00   -5.173E+00   -5.199E+00
    -5.225E+00   -5.250E+00   -5.276E+00   -5.302E+00   -5.328E+00   -5.354E+00   -5.379E+00   -5.405E+00   -5.431E+00   -5.457E+00
    -5.483E+00   -5.508E+00   -5.534E+00   -5.560E+00   -5.586E+00   -5.612E+00   -5.637E+00   -5.663E+00   -5.689E+00   -5.715E+00
    -5.740E+00   -5.766E+00   -5.792E+00   -5.818E+00   -5.844E+00   -5.869E+00   -5.895E+00   -5.921E+00   -5.947E+00   -5.973E+00
    -5.998E+00   -6.024E+00   -6.050E+00   -6.076E+00   -6.102E+00   -6.127E+00   -6.153E+00   -6.179E+00   -6.205E+00   -6.231E+00
    -6.256E+00   -6.282E+00   -6.308E+00   -6.334E+00   -6.360E+00   -6.385E+00   -6.411E+00   -6.437E+00   -6.463E+00   -6.489E+00
    -6.514E+00   -6.540E+00   -6.566E+00   -6.592E+00   -6.618E+00   -6.644E+00   -6.669E+00   -6.695E+00   -6.721E+00   -6.747E+00
    -6.773E+00   -6.798E+00   -6.824E+00   -6.850E+00   -6.876E+00   -6.902E+00   -6.927E+00   -6.953E+00   -6.979E+00   -7.005E+00
    -7.031E+00   -7.056E+00   -7.082E+00   -7.108E+00   -7.134E+00   -7.160E+00   -7.185E+00   -7.211E+00   -7.237E+00   -7.263E+00
    -7.289E+00   -7.314E+00   -7.340E+00   -7.366E+00   -7.392E+00   -7.418E+00   -7.443E+00   -7.469E+00   -7.495E+00   -7.521E+00
    -7.547E+00   -7.573E+00   -7.598E+00   -7.624E+00   -7.650E+00   -7.676E+00   -7.702E+00   -7.727E+00   -7.753E+00   -7.779E+00
    -7.805E+00   -7.831E+00   -7.856E+00   -7.882E+00   -7.908E+00   -7.934E+00   -7.960E+00   -7.985E+00   -8.011E+00   -8.037E+00
    -8.063E+00   -8.089E+00   -8.115E+00   -8.140E+00   -8.166E+00   -8.192E+00   -8.218E+00   -8.244E+00   -8.269E+00   -8.295E+00
    -8.321E+00   -8.347E+00   -8.373E+00   -8.398E+00   -8.424E+00   -8.450E+00   -8.476E+00   -8.502E+00   -8.528E+00   -8.553E+00
    -8.579E+00   -8.605E+00   -8.631E+00   -8.657E+00   -8.682E+00   -8.708E+00   -8.734E+00   -8.760E+00   -8.786E+00   -8.811E+00
    -8.837E+00   -8.863E+00   -8.889E+00   -8.915E+00   -8.940E+00   -8.966E+00   -8.992E+00   -9.018E+00   -9.044E+00   -9.070E+00
    -9.095E+00   -9.121E+00   -9.147E+00   -9.173E+00   -9.199E+00   -9.224E+00   -9.250E+00   -9.276E+00
 Asp      Conc. = 5.81E+01
