 LCModel (Version 6.3-1L) Copyright: S.W. Provencher.          Ref.: Magn. Reson. Med. 30:672-679 (1993).                
 Slice#3 Row#13 Col#11  K_02_press_1_raw_act
 36 lines in following concentration table = NCONC+1
    Conc.  %SD /Cr+PCr  Metabolite                                         
   23.151 154%   0.429 Ala                                                 
    8.380 120%   0.155 Asp                                                 
   11.383 440%   0.211 Cr                                                  
   42.644 119%   0.789 PCr                                                 
    4.768 127% 8.8E-02 GABA                                                
    4.231 143% 7.8E-02 Glc                                                 
    0.000 999%   0.000 Gln                                                 
   73.450 104%   1.360 Glu                                                 
    8.487  72%   0.157 GPC                                                 
    0.000 999%   0.000 PCh                                                 
    7.626 299%   0.141 GSH                                                 
   56.594 133%   1.048 Ins                                                 
    0.000 999%   0.000 Lac                                                 
    0.000 999%   0.000 NAA                                                 
   75.861  31%   1.404 NAAG                                                
    1.319 151% 2.4E-02 Scyllo                                              
    4.883 205% 9.0E-02 Tau                                                 
    0.000 999%   0.000 -CrCH2                                              
    8.487  72%   0.157 GPC+PCh                                             
   75.861  31%   1.404 NAA+NAAG                                            
   54.027  31%   1.000 Cr+PCr                                              
   73.450 104%   1.360 Glu+Gln                                             
 3.17E+03  14%  58.690 Lip13a                                              
    0.000 999%   0.000 Lip13b                                              
    0.000 999%   0.000 Lip09                                               
  134.564  52%   2.491 MM09                                                
   72.043 226%   1.333 Lip20                                               
  519.223  32%   9.610 MM20                                                
   84.551 113%   1.565 MM12                                                
 1.69E+03  14%  31.202+MM14                                                
  804.329  19%  14.888 MM17                                                
 3.17E+03  14%  58.690 Lip13a+Lip13b                                       
 4.94E+03   7%  91.456 MM14+Lip13a+Lip13b+MM12                             
  134.564  52%   2.491 MM09+Lip09                                          
  591.266  25%  10.944 MM20+Lip20                                          
   6 lines in following misc. output table
  FWHM = 0.054 ppm    S/N =   3                                            
  Data shift = 0.008 ppm                                                   
  Ph:  89 deg      72.4 deg/ppm                                            
  alphaB,S = 8.5E+01,   5.1E+01                                            
   14 spline knots.   Ns = 7(1)                                            
  (11) 2 infls.   ( 9) 1 extrs.                                            
  498 points on ppm-axis = NY
      4.000000     3.992357     3.984714     3.977070     3.969427     3.961784     3.954141     3.946497     3.938854     3.931211
      3.923568     3.915925     3.908281     3.900638     3.892995     3.885352     3.877708     3.870065     3.862422     3.854779
      3.847136     3.839492     3.831849     3.824206     3.816563     3.808919     3.801276     3.793633     3.785990     3.778347
      3.770703     3.763060     3.755417     3.747774     3.740130     3.732487     3.724844     3.717201     3.709558     3.701914
      3.694271     3.686628     3.678985     3.671341     3.663698     3.656055     3.648412     3.640769     3.633125     3.625482
      3.617839     3.610196     3.602552     3.594909     3.587266     3.579623     3.571980     3.564336     3.556693     3.549050
      3.541407     3.533763     3.526120     3.518477     3.510834     3.503191     3.495547     3.487904     3.480261     3.472618
      3.464974     3.457331     3.449688     3.442045     3.434402     3.426758     3.419115     3.411472     3.403829     3.396185
      3.388542     3.380899     3.373256     3.365613     3.357969     3.350326     3.342683     3.335040     3.327396     3.319753
      3.312110     3.304467     3.296824     3.289180     3.281537     3.273894     3.266251     3.258607     3.250964     3.243321
      3.235678     3.228034     3.220391     3.212748     3.205105     3.197462     3.189818     3.182175     3.174532     3.166889
      3.159245     3.151602     3.143959     3.136316     3.128673     3.121029     3.113386     3.105743     3.098100     3.090456
      3.082813     3.075170     3.067527     3.059884     3.052240     3.044597     3.036954     3.029311     3.021667     3.014024
      3.006381     2.998738     2.991095     2.983451     2.975808     2.968165     2.960522     2.952878     2.945235     2.937592
      2.929949     2.922306     2.914662     2.907019     2.899376     2.891733     2.884089     2.876446     2.868803     2.861160
      2.853517     2.845873     2.838230     2.830587     2.822944     2.815300     2.807657     2.800014     2.792371     2.784728
      2.777084     2.769441     2.761798     2.754155     2.746511     2.738868     2.731225     2.723582     2.715939     2.708295
      2.700652     2.693009     2.685366     2.677722     2.670079     2.662436     2.654793     2.647150     2.639506     2.631863
      2.624220     2.616577     2.608933     2.601290     2.593647     2.586004     2.578361     2.570717     2.563074     2.555431
      2.547788     2.540144     2.532501     2.524858     2.517215     2.509572     2.501928     2.494285     2.486642     2.478999
      2.471355     2.463712     2.456069     2.448426     2.440783     2.433139     2.425496     2.417853     2.410210     2.402566
      2.394923     2.387280     2.379637     2.371994     2.364350     2.356707     2.349064     2.341421     2.333777     2.326134
      2.318491     2.310848     2.303205     2.295561     2.287918     2.280275     2.272632     2.264988     2.257345     2.249702
      2.242059     2.234416     2.226772     2.219129     2.211486     2.203843     2.196199     2.188556     2.180913     2.173270
      2.165627     2.157983     2.150340     2.142697     2.135054     2.127410     2.119767     2.112124     2.104481     2.096838
      2.089194     2.081551     2.073908     2.066265     2.058621     2.050978     2.043335     2.035692     2.028049     2.020405
      2.012762     2.005119     1.997476     1.989833     1.982190     1.974546     1.966903     1.959260     1.951617     1.943974
      1.936331     1.928688     1.921045     1.913402     1.905759     1.898115     1.890472     1.882829     1.875186     1.867543
      1.859900     1.852257     1.844614     1.836971     1.829327     1.821684     1.814041     1.806398     1.798755     1.791112
      1.783469     1.775826     1.768183     1.760540     1.752896     1.745253     1.737610     1.729967     1.722324     1.714681
      1.707038     1.699395     1.691752     1.684108     1.676465     1.668822     1.661179     1.653536     1.645893     1.638250
      1.630607     1.622964     1.615321     1.607677     1.600034     1.592391     1.584748     1.577105     1.569462     1.561819
      1.554176     1.546533     1.538890     1.531246     1.523603     1.515960     1.508317     1.500674     1.493031     1.485388
      1.477745     1.470102     1.462458     1.454815     1.447172     1.439529     1.431886     1.424243     1.416600     1.408957
      1.401314     1.393671     1.386027     1.378384     1.370741     1.363098     1.355455     1.347812     1.340169     1.332526
      1.324883     1.317240     1.309596     1.301953     1.294310     1.286667     1.279024     1.271381     1.263738     1.256095
      1.248452     1.240808     1.233165     1.225522     1.217879     1.210236     1.202593     1.194950     1.187307     1.179664
      1.172021     1.164377     1.156734     1.149091     1.141448     1.133805     1.126162     1.118519     1.110876     1.103233
      1.095590     1.087946     1.080303     1.072660     1.065017     1.057374     1.049731     1.042088     1.034445     1.026802
      1.019158     1.011515     1.003872     0.996229     0.988586     0.980943     0.973300     0.965657     0.958014     0.950371
      0.942727     0.935084     0.927441     0.919798     0.912155     0.904512     0.896869     0.889226     0.881583     0.873940
      0.866296     0.858653     0.851010     0.843367     0.835724     0.828081     0.820438     0.812795     0.805152     0.797508
      0.789865     0.782222     0.774579     0.766936     0.759293     0.751650     0.744007     0.736364     0.728721     0.721077
      0.713434     0.705791     0.698148     0.690505     0.682862     0.675219     0.667576     0.659933     0.652290     0.644646
      0.637003     0.629360     0.621717     0.614074     0.606431     0.598788     0.591145     0.583502     0.575858     0.568215
      0.560572     0.552929     0.545286     0.537643     0.530000     0.522357     0.514714     0.507071     0.499427     0.491784
      0.484141     0.476498     0.468855     0.461212     0.453569     0.445925     0.438282     0.430639     0.422996     0.415353
      0.407710     0.400067     0.392424     0.384780     0.377137     0.369494     0.361851     0.354208     0.346565     0.338922
      0.331278     0.323635     0.315992     0.308349     0.300706     0.293063     0.285420     0.277777     0.270133     0.262490
      0.254847     0.247204     0.239561     0.231918     0.224275     0.216631     0.208988     0.201345
 NY phased data points follow
   2.81291E+00  2.04322E+00  3.87058E+00  3.04507E+00  2.26723E+00  1.15855E+00  4.16407E+00  2.12279E+00  5.37957E+00  2.62089E+00
   3.58140E+00  3.06018E+00  3.90773E+00  2.25693E+00  2.33422E+00  2.15120E+00  1.35141E+00  2.82503E+00 -1.22204E+00  2.62979E+00
   3.85450E-01  1.68724E+00  3.56360E+00  2.79217E+00  2.78872E-01  1.85794E+00  8.41162E-01  2.89755E+00  1.76198E+00  3.02669E-01
   2.25633E+00 -1.53868E-01  1.53602E+00  2.21684E+00 -3.98106E-01  3.42190E+00 -6.88860E-01  2.90598E-01  1.88937E+00  8.02292E-01
   1.15775E+00  2.11333E+00  1.02069E+00  1.64069E+00  4.49988E+00  2.73514E+00  8.05127E-01  8.28455E-01  1.80097E+00  5.22439E-01
  -1.06506E+00  3.20197E-01  2.19780E+00  1.74361E-01  1.43014E+00  1.41662E+00  2.14898E+00  4.89371E-01 -1.15191E-01  1.06089E+00
   5.94472E-01  2.36140E+00  1.66714E+00  1.08784E-01  1.05297E+00  1.84828E+00 -6.90261E-01 -2.94058E-02 -1.56840E-01  9.88499E-01
   2.38729E-01 -7.42447E-01 -1.54525E+00 -2.28627E+00  7.29519E-01  1.17879E+00 -1.98918E-01  1.92710E-01 -3.87537E-01  3.04503E-02
  -2.79508E-01 -7.85725E-01 -7.74480E-01  7.15263E-01  7.39324E-01 -1.27267E+00 -3.69249E-01 -5.57291E-02 -1.44762E+00  1.80356E-02
  -5.16290E-01 -5.37353E-01 -7.74180E-01 -4.29409E-01 -1.45883E+00 -5.21727E-01 -1.25115E+00 -2.34911E+00 -1.64894E+00 -1.86480E+00
  -2.06940E+00  6.10465E-01  1.23624E+00  1.88129E+00 -8.44242E-01 -1.02291E+00  2.97227E-01 -1.24390E+00  7.71558E-02  1.04454E-02
  -7.82570E-01 -1.83507E+00 -2.66334E+00 -7.72122E-01 -1.36173E+00 -3.77341E-01 -1.02483E+00  7.50363E-01 -2.38977E+00 -4.42831E-01
  -2.30154E-01  1.31887E-01 -6.51761E-01  2.22721E-01 -1.43648E-01  1.24558E+00  6.33537E-01  1.52070E+00 -4.79394E-01  1.01664E+00
  -9.08250E-01 -8.23690E-01  2.54835E-02 -6.70753E-01  2.09971E-01  6.97545E-01 -2.58047E+00 -2.38995E+00 -1.84779E+00 -1.05014E+00
  -3.89515E-01 -2.88472E+00 -2.16197E+00 -9.63639E-01 -4.18368E-01 -3.08891E+00 -2.72304E+00 -7.08710E-01 -6.28469E-01  1.04551E+00
  -3.15526E+00 -2.81329E-01 -1.26731E+00 -1.47849E+00 -3.74048E+00 -2.02012E+00 -2.06566E+00 -2.93592E+00 -2.27216E+00 -1.53858E+00
  -1.75925E+00 -2.39640E+00 -2.59619E+00 -1.43279E+00 -2.88545E+00 -3.44542E+00 -1.32387E+00 -3.04710E+00 -1.67152E+00 -3.24765E+00
  -2.25490E+00 -2.77954E+00 -2.56054E+00 -2.62308E+00 -3.20389E+00 -4.57968E+00 -4.59205E+00 -2.52000E+00 -2.68235E+00 -1.75512E+00
  -5.89198E+00 -3.55712E+00 -1.28984E+00 -3.69820E+00 -4.88850E+00 -1.60753E+00 -5.32974E+00 -3.41083E+00 -2.49414E+00 -6.56311E+00
  -3.76571E+00 -1.81780E+00 -4.63389E+00 -1.77695E+00 -4.48789E+00 -5.06117E+00 -3.71727E+00 -4.41234E+00 -5.16765E+00 -4.10586E+00
  -5.83546E+00 -5.87367E+00 -4.11159E+00 -4.35773E+00 -4.71483E+00 -3.92049E+00 -4.21887E+00 -4.72237E+00 -3.22155E+00 -3.69729E+00
  -4.46067E+00 -3.78964E+00 -3.25692E+00 -2.86487E+00 -3.53219E+00 -2.67077E+00 -2.22535E+00 -3.43580E+00 -3.60983E+00 -4.50044E+00
  -3.61565E+00 -3.40193E+00 -4.05955E+00 -5.71381E+00 -3.28410E+00 -3.10606E+00 -3.34292E+00 -3.43982E+00 -4.16376E+00 -5.59792E+00
  -4.26423E+00 -2.52106E+00 -3.62910E+00 -3.88213E+00 -3.12266E+00 -2.24618E+00 -3.23976E+00 -2.26834E+00 -4.43960E+00 -1.52078E+00
  -1.52571E+00 -3.63718E+00 -3.01116E+00 -3.69089E+00 -2.93210E+00 -3.22135E+00 -2.39374E+00 -4.58738E+00 -3.26401E+00  3.05862E-01
  -3.28867E+00 -3.87284E+00 -6.07810E-01 -3.49112E+00 -1.49729E+00 -2.00601E+00  1.25127E+00  7.62092E-01  7.22876E-01 -1.87181E+00
   2.85308E-02 -1.47318E+00 -2.08820E+00 -3.86189E+00 -5.84140E+00 -4.22950E+00 -6.42517E+00 -5.66580E+00 -4.81845E+00 -5.25511E+00
  -5.92126E+00 -5.07527E+00 -6.37321E+00 -6.09703E+00 -5.51873E+00 -4.93334E+00 -6.71588E+00 -4.12765E+00 -4.42805E+00 -4.11523E+00
  -4.56582E+00 -3.69289E+00 -5.29869E+00 -5.31348E+00 -4.55179E+00 -4.31875E+00 -3.94283E+00 -3.41691E+00 -4.52763E+00 -2.38834E+00
  -4.94162E+00 -4.65455E+00 -3.12112E+00 -3.52933E+00 -2.84331E+00 -3.66917E+00 -4.98071E+00 -3.40110E+00 -1.95843E+00 -5.05917E+00
  -4.03717E+00 -2.51636E+00 -2.43085E+00 -1.84463E+00 -2.66691E+00 -2.49425E+00 -3.00078E+00 -2.93424E+00 -5.21400E+00 -2.47132E+00
  -1.17128E+00 -1.75828E+00 -1.63188E+00 -2.33472E+00 -1.42998E+00 -2.99132E+00 -7.02991E-01 -1.72391E+00  9.65251E-02 -9.80624E-01
   2.44254E+00 -7.37531E-01  7.12960E-01  1.90324E+00  3.67982E+00  5.02369E+00  3.95369E+00  2.66574E+00  4.42639E+00  5.07985E+00
   5.15944E+00  3.54921E+00  5.35233E+00  4.16887E+00  7.00673E+00  5.97945E+00  4.63945E+00  4.51463E+00  4.62734E+00  4.65726E+00
   5.37921E+00  2.86129E+00  5.58255E+00  5.20588E+00  4.80790E+00  5.89798E+00  4.72053E+00  5.63622E+00  3.60385E+00  5.46883E+00
   3.69463E+00  3.75492E+00  5.56022E+00  5.56330E+00  5.87545E+00  5.67679E+00  4.39617E+00  4.15086E+00  3.94777E+00  5.16212E+00
   6.78322E+00  4.74544E+00  5.63577E+00  5.63591E+00  5.07039E+00  4.59174E+00  7.04383E+00  6.13580E+00  4.96254E+00  5.43734E+00
   5.42119E+00  5.78473E+00  5.62895E+00  4.56996E+00  4.73922E+00  3.41679E+00  6.28648E+00  5.60890E+00  4.97586E+00  5.64190E+00
   6.25809E+00  7.16385E+00  4.60578E+00  6.07319E+00  6.86604E+00  2.98873E+00  5.00450E+00  4.96019E+00  4.30474E+00  5.44145E+00
   5.71701E+00  4.02868E+00  3.05180E+00  3.66535E+00  3.42973E+00  4.53458E+00  2.66910E+00  1.49209E+00  3.93733E+00  2.27916E+00
   3.09144E+00  3.16912E+00  3.25370E+00  4.64831E+00  2.95115E+00  2.33387E+00  2.11912E+00  2.01020E+00  1.23840E+00  3.77943E+00
   2.56278E+00  1.17281E+00  2.50471E+00  2.15711E+00  2.80441E+00  6.61718E-01  4.28616E-01  6.18885E-01 -3.66816E-01  9.86713E-02
   9.29911E-01 -1.40428E-01  5.95404E-01  2.30459E-01  2.60008E+00 -4.05450E-01  9.12421E-01  2.34362E-01  6.65854E-01  3.43571E-01
   1.24092E+00  4.28234E-01  1.45000E-01  7.60668E-01  1.74302E+00  6.22384E-01  5.25181E-01  1.56166E+00  1.75680E+00  2.81710E-01
   3.59881E-01 -2.30425E+00  7.78110E-01  6.08672E-02  7.45700E-01  4.38065E-01  1.39407E+00  5.86345E-01 -6.58212E-01 -1.20808E+00
  -1.63465E+00 -1.30713E+00 -6.40406E-01  2.53287E-01  4.79464E-01 -4.82004E-01  3.54114E-01 -5.72541E-01  2.63502E-01 -1.36689E+00
   1.45393E-01  4.41192E-01  8.34114E-02 -9.91873E-01 -1.21438E+00 -1.62390E+00  5.97707E-01 -1.42311E+00 -4.72438E-01 -7.19015E-01
  -6.97363E-01 -1.80766E-01 -3.11883E-02 -4.71895E-01  2.15742E-01 -1.37642E+00  1.15228E+00  5.39695E-01  2.74392E+00 -5.43760E-01
   5.47667E-01 -1.14969E+00  4.70711E-02  9.31966E-01 -8.48609E-01 -1.57507E+00 -1.89609E+00 -1.11334E+00 -9.62221E-02 -1.77241E+00
  -1.19355E+00 -7.17327E-01 -1.66368E+00 -1.54529E+00  5.59486E-02 -7.21876E-01 -1.23823E+00 -1.50762E+00
 NY points of the fit to the data follow
   2.03058E+00  2.00990E+00  2.05299E+00  2.16184E+00  2.32610E+00  2.52795E+00  2.73636E+00  2.91410E+00  3.02021E+00  3.02261E+00
   2.91344E+00  2.71345E+00  2.46246E+00  2.20303E+00  1.97215E+00  1.79944E+00  1.69972E+00  1.65823E+00  1.63748E+00  1.63222E+00
   1.63446E+00  1.62613E+00  1.60340E+00  1.57048E+00  1.52784E+00  1.47617E+00  1.42805E+00  1.40175E+00  1.40573E+00  1.43598E+00
   1.48059E+00  1.52190E+00  1.54057E+00  1.52602E+00  1.46949E+00  1.37410E+00  1.25915E+00  1.15089E+00  1.06301E+00  1.00098E+00
   9.79417E-01  1.00749E+00  1.07057E+00  1.14603E+00  1.21871E+00  1.27596E+00  1.30094E+00  1.27960E+00  1.20920E+00  1.09744E+00
   9.64991E-01  8.33924E-01  7.24080E-01  6.50909E-01  6.22263E-01  6.32741E-01  6.59900E-01  6.82338E-01  6.90914E-01  6.81997E-01
   6.53409E-01  6.05404E-01  5.44420E-01  4.79451E-01  4.19576E-01  3.73849E-01  3.46410E-01  3.36518E-01  3.37425E-01  3.41215E-01
   3.41026E-01  3.31683E-01  3.12072E-01  2.82571E-01  2.45428E-01  2.03786E-01  1.59407E-01  1.14304E-01  7.09908E-02  3.45452E-02
   4.37358E-03 -2.65645E-02 -6.22802E-02 -1.04108E-01 -1.53570E-01 -2.11046E-01 -2.73542E-01 -3.35057E-01 -3.88890E-01 -4.28617E-01
  -4.53268E-01 -4.68097E-01 -4.79214E-01 -4.93466E-01 -5.17361E-01 -5.50593E-01 -5.59404E-01 -5.19731E-01 -4.36546E-01 -3.16454E-01
  -1.74761E-01 -3.59747E-02  6.67472E-02  1.00485E-01  4.86733E-02 -7.89585E-02 -2.51333E-01 -4.33463E-01 -5.98821E-01 -7.26459E-01
  -8.01747E-01 -8.30117E-01 -8.48007E-01 -8.75753E-01 -9.07049E-01 -9.40669E-01 -9.77148E-01 -1.01777E+00 -1.06122E+00 -1.08116E+00
  -9.97329E-01 -7.94840E-01 -4.95247E-01 -1.24597E-01  2.74478E-01  6.40131E-01  8.97283E-01  9.81449E-01  8.70974E-01  6.03960E-01
   2.52355E-01 -1.14507E-01 -4.42257E-01 -6.85865E-01 -8.18641E-01 -8.66002E-01 -9.06752E-01 -9.54757E-01 -9.96109E-01 -1.02910E+00
  -1.05656E+00 -1.08287E+00 -1.11215E+00 -1.14731E+00 -1.18787E+00 -1.23223E+00 -1.27860E+00 -1.32667E+00 -1.37868E+00 -1.43440E+00
  -1.49267E+00 -1.55154E+00 -1.60573E+00 -1.65360E+00 -1.69464E+00 -1.72856E+00 -1.75729E+00 -1.78515E+00 -1.81782E+00 -1.85912E+00
  -1.90897E+00 -1.96514E+00 -2.02531E+00 -2.08761E+00 -2.14791E+00 -2.20145E+00 -2.24676E+00 -2.28460E+00 -2.31862E+00 -2.35079E+00
  -2.37921E+00 -2.40540E+00 -2.43362E+00 -2.46791E+00 -2.50957E+00 -2.55796E+00 -2.61386E+00 -2.67254E+00 -2.72777E+00 -2.77438E+00
  -2.81006E+00 -2.83670E+00 -2.85478E+00 -2.86503E+00 -2.86781E+00 -2.86246E+00 -2.85366E+00 -2.84873E+00 -2.85175E+00 -2.86632E+00
  -2.89580E+00 -2.94157E+00 -2.99975E+00 -3.06542E+00 -3.13350E+00 -3.19586E+00 -3.24528E+00 -3.27726E+00 -3.29061E+00 -3.28812E+00
  -3.27954E+00 -3.27810E+00 -3.29260E+00 -3.32830E+00 -3.38643E+00 -3.46607E+00 -3.56169E+00 -3.66024E+00 -3.74695E+00 -3.79844E+00
  -3.80006E+00 -3.75331E+00 -3.66718E+00 -3.56067E+00 -3.46299E+00 -3.41456E+00 -3.44940E+00 -3.57245E+00 -3.75935E+00 -3.97284E+00
  -4.17256E+00 -4.32143E+00 -4.39070E+00 -4.36791E+00 -4.27219E+00 -4.15090E+00 -4.04147E+00 -3.96367E+00 -3.92621E+00 -3.92740E+00
  -3.95444E+00 -3.98266E+00 -3.98733E+00 -3.96587E+00 -3.93201E+00 -3.90035E+00 -3.88969E+00 -3.90565E+00 -3.94384E+00 -3.99398E+00
  -4.03872E+00 -4.05848E+00 -4.04163E+00 -3.98782E+00 -3.91264E+00 -3.84047E+00 -3.79235E+00 -3.78455E+00 -3.81602E+00 -3.78665E+00
  -3.60751E+00 -3.27661E+00 -2.79992E+00 -2.21601E+00 -1.59956E+00 -1.05700E+00 -7.04803E-01 -6.23206E-01 -8.11419E-01 -1.19445E+00
  -1.66990E+00 -2.15202E+00 -2.57253E+00 -2.87150E+00 -3.03761E+00 -3.16437E+00 -3.31854E+00 -3.47921E+00 -3.63218E+00 -3.77186E+00
  -3.89811E+00 -4.01244E+00 -4.11787E+00 -4.21992E+00 -4.32327E+00 -4.42965E+00 -4.53980E+00 -4.64891E+00 -4.75062E+00 -4.83774E+00
  -4.90462E+00 -4.94803E+00 -4.96680E+00 -4.96275E+00 -4.94023E+00 -4.90140E+00 -4.84448E+00 -4.76772E+00 -4.67036E+00 -4.55198E+00
  -4.41218E+00 -4.25232E+00 -4.07741E+00 -3.89503E+00 -3.71153E+00 -3.53347E+00 -3.36637E+00 -3.21450E+00 -3.08083E+00 -2.96664E+00
  -2.87162E+00 -2.79622E+00 -2.74083E+00 -2.70429E+00 -2.68404E+00 -2.67617E+00 -2.67556E+00 -2.67579E+00 -2.66885E+00 -2.64628E+00
  -2.60021E+00 -2.52304E+00 -2.40797E+00 -2.24934E+00 -2.04280E+00 -1.78561E+00 -1.47679E+00 -1.11709E+00 -7.08770E-01 -2.53858E-01
   2.51671E-01  8.05294E-01  1.38558E+00  1.97237E+00  2.54401E+00  3.07671E+00  3.54560E+00  3.92621E+00  4.20994E+00  4.42017E+00
   4.58263E+00  4.71986E+00  4.84874E+00  4.97998E+00  5.11630E+00  5.24490E+00  5.33553E+00  5.36505E+00  5.33516E+00  5.25354E+00
   5.13197E+00  4.98500E+00  4.83170E+00  4.69526E+00  4.58862E+00  4.50580E+00  4.44641E+00  4.41236E+00  4.40451E+00  4.42272E+00
   4.46594E+00  4.53237E+00  4.61956E+00  4.72456E+00  4.84403E+00  4.97437E+00  5.11185E+00  5.25269E+00  5.39322E+00  5.52991E+00
   5.65946E+00  5.77888E+00  5.88554E+00  5.97719E+00  6.05199E+00  6.10855E+00  6.14588E+00  6.16346E+00  6.16113E+00  6.13913E+00
   6.09803E+00  6.03874E+00  5.96239E+00  5.87035E+00  5.76417E+00  5.64552E+00  5.51616E+00  5.37792E+00  5.23264E+00  5.08213E+00
   4.92820E+00  4.77258E+00  4.61694E+00  4.46285E+00  4.31177E+00  4.16505E+00  4.02388E+00  3.88930E+00  3.76217E+00  3.64318E+00
   3.53277E+00  3.43118E+00  3.33839E+00  3.25417E+00  3.17801E+00  3.10921E+00  3.04686E+00  2.98987E+00  2.93702E+00  2.88704E+00
   2.83861E+00  2.79046E+00  2.74138E+00  2.69033E+00  2.63643E+00  2.57900E+00  2.51758E+00  2.45194E+00  2.38208E+00  2.30818E+00
   2.23060E+00  2.14984E+00  2.06649E+00  1.98121E+00  1.89468E+00  1.80757E+00  1.72052E+00  1.63411E+00  1.54885E+00  1.46518E+00
   1.38344E+00  1.30391E+00  1.22677E+00  1.15216E+00  1.08014E+00  1.01074E+00  9.43940E-01  8.79681E-01  8.17896E-01  7.58496E-01
   7.01386E-01  6.46463E-01  5.93622E-01  5.42762E-01  4.93781E-01  4.46587E-01  4.01087E-01  3.57196E-01  3.14836E-01  2.73929E-01
   2.34408E-01  1.96209E-01  1.59272E-01  1.23541E-01  8.89635E-02  5.54919E-02  2.30813E-02 -8.31072E-03 -3.87226E-02 -6.81925E-02
  -9.67538E-02 -1.24440E-01 -1.51281E-01 -1.77304E-01 -2.02538E-01 -2.27009E-01 -2.50739E-01 -2.73752E-01 -2.96071E-01 -3.17715E-01
  -3.38705E-01 -3.59059E-01 -3.78795E-01 -3.97930E-01 -4.16480E-01 -4.34461E-01 -4.51887E-01 -4.68774E-01 -4.85134E-01 -5.00980E-01
  -5.16326E-01 -5.31183E-01 -5.45563E-01 -5.59477E-01 -5.72936E-01 -5.85949E-01 -5.98529E-01 -6.10683E-01 -6.22422E-01 -6.33755E-01
  -6.44691E-01 -6.55238E-01 -6.65406E-01 -6.75202E-01 -6.84636E-01 -6.93714E-01 -7.02446E-01 -7.10838E-01 -7.18899E-01 -7.26637E-01
  -7.34061E-01 -7.41177E-01 -7.47996E-01 -7.54523E-01 -7.60770E-01 -7.66746E-01 -7.72459E-01 -7.77922E-01
 NY background values follow
     2.149E+00    2.127E+00    2.105E+00    2.084E+00    2.062E+00    2.040E+00    2.019E+00    1.997E+00    1.975E+00    1.954E+00
     1.932E+00    1.910E+00    1.889E+00    1.867E+00    1.846E+00    1.824E+00    1.802E+00    1.781E+00    1.759E+00    1.738E+00
     1.716E+00    1.695E+00    1.673E+00    1.652E+00    1.630E+00    1.609E+00    1.587E+00    1.566E+00    1.544E+00    1.523E+00
     1.501E+00    1.480E+00    1.458E+00    1.437E+00    1.416E+00    1.394E+00    1.373E+00    1.352E+00    1.330E+00    1.309E+00
     1.288E+00    1.266E+00    1.245E+00    1.224E+00    1.203E+00    1.181E+00    1.160E+00    1.139E+00    1.118E+00    1.097E+00
     1.075E+00    1.054E+00    1.033E+00    1.012E+00    9.912E-01    9.701E-01    9.491E-01    9.281E-01    9.071E-01    8.862E-01
     8.652E-01    8.443E-01    8.235E-01    8.026E-01    7.817E-01    7.609E-01    7.401E-01    7.194E-01    6.986E-01    6.779E-01
     6.572E-01    6.365E-01    6.158E-01    5.952E-01    5.746E-01    5.540E-01    5.335E-01    5.130E-01    4.925E-01    4.720E-01
     4.516E-01    4.312E-01    4.108E-01    3.904E-01    3.701E-01    3.498E-01    3.295E-01    3.093E-01    2.891E-01    2.689E-01
     2.487E-01    2.286E-01    2.085E-01    1.884E-01    1.684E-01    1.484E-01    1.285E-01    1.085E-01    8.863E-02    6.876E-02
     4.893E-02    2.913E-02    9.361E-03   -1.037E-02   -3.007E-02   -4.973E-02   -6.936E-02   -8.895E-02   -1.085E-01   -1.280E-01
    -1.475E-01   -1.670E-01   -1.864E-01   -2.058E-01   -2.251E-01   -2.444E-01   -2.637E-01   -2.829E-01   -3.021E-01   -3.212E-01
    -3.403E-01   -3.594E-01   -3.784E-01   -3.974E-01   -4.164E-01   -4.353E-01   -4.542E-01   -4.730E-01   -4.918E-01   -5.105E-01
    -5.292E-01   -5.479E-01   -5.665E-01   -5.851E-01   -6.036E-01   -6.221E-01   -6.406E-01   -6.590E-01   -6.774E-01   -6.957E-01
    -7.139E-01   -7.322E-01   -7.504E-01   -7.685E-01   -7.866E-01   -8.046E-01   -8.226E-01   -8.406E-01   -8.585E-01   -8.764E-01
    -8.942E-01   -9.120E-01   -9.297E-01   -9.474E-01   -9.650E-01   -9.826E-01   -1.000E+00   -1.018E+00   -1.035E+00   -1.052E+00
    -1.070E+00   -1.087E+00   -1.104E+00   -1.121E+00   -1.139E+00   -1.156E+00   -1.173E+00   -1.190E+00   -1.206E+00   -1.223E+00
    -1.240E+00   -1.257E+00   -1.274E+00   -1.290E+00   -1.307E+00   -1.323E+00   -1.340E+00   -1.356E+00   -1.373E+00   -1.389E+00
    -1.405E+00   -1.422E+00   -1.438E+00   -1.454E+00   -1.470E+00   -1.486E+00   -1.502E+00   -1.518E+00   -1.534E+00   -1.549E+00
    -1.565E+00   -1.581E+00   -1.596E+00   -1.612E+00   -1.627E+00   -1.643E+00   -1.658E+00   -1.673E+00   -1.689E+00   -1.704E+00
    -1.719E+00   -1.734E+00   -1.749E+00   -1.764E+00   -1.779E+00   -1.794E+00   -1.809E+00   -1.823E+00   -1.838E+00   -1.852E+00
    -1.867E+00   -1.881E+00   -1.896E+00   -1.910E+00   -1.924E+00   -1.939E+00   -1.953E+00   -1.967E+00   -1.981E+00   -1.995E+00
    -2.009E+00   -2.022E+00   -2.036E+00   -2.050E+00   -2.063E+00   -2.077E+00   -2.090E+00   -2.104E+00   -2.117E+00   -2.130E+00
    -2.144E+00   -2.157E+00   -2.170E+00   -2.183E+00   -2.196E+00   -2.209E+00   -2.222E+00   -2.234E+00   -2.247E+00   -2.260E+00
    -2.272E+00   -2.285E+00   -2.297E+00   -2.309E+00   -2.321E+00   -2.334E+00   -2.346E+00   -2.358E+00   -2.370E+00   -2.382E+00
    -2.394E+00   -2.405E+00   -2.417E+00   -2.429E+00   -2.440E+00   -2.452E+00   -2.463E+00   -2.474E+00   -2.485E+00   -2.497E+00
    -2.508E+00   -2.519E+00   -2.530E+00   -2.541E+00   -2.551E+00   -2.562E+00   -2.573E+00   -2.583E+00   -2.594E+00   -2.604E+00
    -2.615E+00   -2.625E+00   -2.635E+00   -2.645E+00   -2.655E+00   -2.665E+00   -2.675E+00   -2.685E+00   -2.695E+00   -2.704E+00
    -2.714E+00   -2.723E+00   -2.733E+00   -2.742E+00   -2.751E+00   -2.761E+00   -2.770E+00   -2.779E+00   -2.788E+00   -2.797E+00
    -2.805E+00   -2.814E+00   -2.823E+00   -2.831E+00   -2.840E+00   -2.848E+00   -2.856E+00   -2.865E+00   -2.873E+00   -2.881E+00
    -2.889E+00   -2.897E+00   -2.905E+00   -2.912E+00   -2.920E+00   -2.928E+00   -2.935E+00   -2.943E+00   -2.950E+00   -2.957E+00
    -2.964E+00   -2.971E+00   -2.978E+00   -2.985E+00   -2.992E+00   -2.999E+00   -3.005E+00   -3.012E+00   -3.019E+00   -3.025E+00
    -3.031E+00   -3.037E+00   -3.044E+00   -3.050E+00   -3.056E+00   -3.062E+00   -3.067E+00   -3.073E+00   -3.079E+00   -3.084E+00
    -3.090E+00   -3.095E+00   -3.100E+00   -3.106E+00   -3.111E+00   -3.116E+00   -3.121E+00   -3.126E+00   -3.130E+00   -3.135E+00
    -3.140E+00   -3.144E+00   -3.148E+00   -3.153E+00   -3.157E+00   -3.161E+00   -3.165E+00   -3.169E+00   -3.173E+00   -3.177E+00
    -3.181E+00   -3.184E+00   -3.188E+00   -3.191E+00   -3.194E+00   -3.198E+00   -3.201E+00   -3.204E+00   -3.207E+00   -3.210E+00
    -3.213E+00   -3.215E+00   -3.218E+00   -3.220E+00   -3.223E+00   -3.225E+00   -3.227E+00   -3.230E+00   -3.232E+00   -3.234E+00
    -3.235E+00   -3.237E+00   -3.239E+00   -3.241E+00   -3.242E+00   -3.243E+00   -3.245E+00   -3.246E+00   -3.247E+00   -3.248E+00
    -3.249E+00   -3.250E+00   -3.251E+00   -3.251E+00   -3.252E+00   -3.252E+00   -3.253E+00   -3.253E+00   -3.253E+00   -3.253E+00
    -3.253E+00   -3.253E+00   -3.253E+00   -3.253E+00   -3.252E+00   -3.252E+00   -3.251E+00   -3.251E+00   -3.250E+00   -3.249E+00
    -3.248E+00   -3.247E+00   -3.246E+00   -3.245E+00   -3.243E+00   -3.242E+00   -3.241E+00   -3.239E+00   -3.237E+00   -3.235E+00
    -3.233E+00   -3.231E+00   -3.229E+00   -3.227E+00   -3.225E+00   -3.222E+00   -3.220E+00   -3.217E+00   -3.215E+00   -3.212E+00
    -3.209E+00   -3.206E+00   -3.203E+00   -3.200E+00   -3.196E+00   -3.193E+00   -3.190E+00   -3.186E+00   -3.182E+00   -3.179E+00
    -3.175E+00   -3.171E+00   -3.167E+00   -3.163E+00   -3.158E+00   -3.154E+00   -3.150E+00   -3.145E+00   -3.140E+00   -3.136E+00
    -3.131E+00   -3.126E+00   -3.121E+00   -3.116E+00   -3.110E+00   -3.105E+00   -3.100E+00   -3.094E+00   -3.088E+00   -3.083E+00
    -3.077E+00   -3.071E+00   -3.065E+00   -3.059E+00   -3.052E+00   -3.046E+00   -3.040E+00   -3.033E+00   -3.026E+00   -3.020E+00
    -3.013E+00   -3.006E+00   -2.999E+00   -2.992E+00   -2.984E+00   -2.977E+00   -2.970E+00   -2.962E+00   -2.954E+00   -2.947E+00
    -2.939E+00   -2.931E+00   -2.923E+00   -2.915E+00   -2.906E+00   -2.898E+00   -2.889E+00   -2.881E+00   -2.872E+00   -2.864E+00
    -2.855E+00   -2.846E+00   -2.837E+00   -2.827E+00   -2.818E+00   -2.809E+00   -2.799E+00   -2.790E+00   -2.780E+00   -2.770E+00
    -2.760E+00   -2.750E+00   -2.740E+00   -2.730E+00   -2.720E+00   -2.710E+00   -2.699E+00   -2.688E+00
 Ala      Conc. = 2.32E+01
