 LCModel (Version 6.3-1L) Copyright: S.W. Provencher.          Ref.: Magn. Reson. Med. 30:672-679 (1993).                
 Slice#2 Row#1 Col#9  K_02_press_1_raw_act
 36 lines in following concentration table = NCONC+1
    Conc.  %SD /Cr+PCr  Metabolite                                         
    4.424 432% 4.5E-02 Ala                                                 
   13.776  49%   0.140 Asp                                                 
   98.727  25%   1.000 Cr                                                  
    0.000 999%   0.000 PCr                                                 
    7.900  51% 8.0E-02 GABA                                                
    8.020  51% 8.1E-02 Glc                                                 
    0.000 999%   0.000 Gln                                                 
   75.867  57%   0.768 Glu                                                 
    0.000 999%   0.000 GPC                                                 
   19.271  34%   0.195 PCh                                                 
   27.914  60%   0.283 GSH                                                 
    5.799 835% 5.9E-02 Ins                                                 
    0.000 999%   0.000 Lac                                                 
   88.563  26%   0.897 NAA                                                 
   25.975  65%   0.263 NAAG                                                
    2.796  48% 2.8E-02 Scyllo                                              
   13.136  52%   0.133 Tau                                                 
   10.194  85%   0.103 -CrCH2                                              
   19.271  34%   0.195 GPC+PCh                                             
  114.538  29%   1.160 NAA+NAAG                                            
   98.727  25%   1.000 Cr+PCr                                              
   75.867  57%   0.768 Glu+Gln                                             
  197.679 445%   2.002 Lip13a                                              
 1.09E+03  72%  11.050 Lip13b                                              
    0.000 999%   0.000 Lip09                                               
 3.14E-03 999% 3.2E-05 MM09                                                
   70.224 176%   0.711 Lip20                                               
    0.000 999%   0.000 MM20                                                
 2.16E-03 999% 2.2E-05 MM12                                                
    0.000 999%   0.000 MM14                                                
 6.54E-02 999% 6.6E-04 MM17                                                
 1.29E+03  16%  13.052 Lip13a+Lip13b                                       
 1.29E+03  16%  13.052 MM14+Lip13a+Lip13b+MM12                             
 3.14E-03 999% 3.2E-05 MM09+Lip09                                          
   70.224 176%   0.711 MM20+Lip20                                          
   6 lines in following misc. output table
  FWHM = 0.031 ppm    S/N =   2                                            
  Data shift = 0.031 ppm                                                   
  Ph: 100 deg      42.8 deg/ppm                                            
  alphaB,S = 1.2E+01,   9.9E+00                                            
   14 spline knots.   Ns = 5(1)                                            
  ( 6) 3 infls.   ( 4) 2 extrs.                                            
  498 points on ppm-axis = NY
      4.000000     3.992357     3.984714     3.977070     3.969427     3.961784     3.954141     3.946497     3.938854     3.931211
      3.923568     3.915925     3.908281     3.900638     3.892995     3.885352     3.877708     3.870065     3.862422     3.854779
      3.847136     3.839492     3.831849     3.824206     3.816563     3.808919     3.801276     3.793633     3.785990     3.778347
      3.770703     3.763060     3.755417     3.747774     3.740130     3.732487     3.724844     3.717201     3.709558     3.701914
      3.694271     3.686628     3.678985     3.671341     3.663698     3.656055     3.648412     3.640769     3.633125     3.625482
      3.617839     3.610196     3.602552     3.594909     3.587266     3.579623     3.571980     3.564336     3.556693     3.549050
      3.541407     3.533763     3.526120     3.518477     3.510834     3.503191     3.495547     3.487904     3.480261     3.472618
      3.464974     3.457331     3.449688     3.442045     3.434402     3.426758     3.419115     3.411472     3.403829     3.396185
      3.388542     3.380899     3.373256     3.365613     3.357969     3.350326     3.342683     3.335040     3.327396     3.319753
      3.312110     3.304467     3.296824     3.289180     3.281537     3.273894     3.266251     3.258607     3.250964     3.243321
      3.235678     3.228034     3.220391     3.212748     3.205105     3.197462     3.189818     3.182175     3.174532     3.166889
      3.159245     3.151602     3.143959     3.136316     3.128673     3.121029     3.113386     3.105743     3.098100     3.090456
      3.082813     3.075170     3.067527     3.059884     3.052240     3.044597     3.036954     3.029311     3.021667     3.014024
      3.006381     2.998738     2.991095     2.983451     2.975808     2.968165     2.960522     2.952878     2.945235     2.937592
      2.929949     2.922306     2.914662     2.907019     2.899376     2.891733     2.884089     2.876446     2.868803     2.861160
      2.853517     2.845873     2.838230     2.830587     2.822944     2.815300     2.807657     2.800014     2.792371     2.784728
      2.777084     2.769441     2.761798     2.754155     2.746511     2.738868     2.731225     2.723582     2.715939     2.708295
      2.700652     2.693009     2.685366     2.677722     2.670079     2.662436     2.654793     2.647150     2.639506     2.631863
      2.624220     2.616577     2.608933     2.601290     2.593647     2.586004     2.578361     2.570717     2.563074     2.555431
      2.547788     2.540144     2.532501     2.524858     2.517215     2.509572     2.501928     2.494285     2.486642     2.478999
      2.471355     2.463712     2.456069     2.448426     2.440783     2.433139     2.425496     2.417853     2.410210     2.402566
      2.394923     2.387280     2.379637     2.371994     2.364350     2.356707     2.349064     2.341421     2.333777     2.326134
      2.318491     2.310848     2.303205     2.295561     2.287918     2.280275     2.272632     2.264988     2.257345     2.249702
      2.242059     2.234416     2.226772     2.219129     2.211486     2.203843     2.196199     2.188556     2.180913     2.173270
      2.165627     2.157983     2.150340     2.142697     2.135054     2.127410     2.119767     2.112124     2.104481     2.096838
      2.089194     2.081551     2.073908     2.066265     2.058621     2.050978     2.043335     2.035692     2.028049     2.020405
      2.012762     2.005119     1.997476     1.989833     1.982190     1.974546     1.966903     1.959260     1.951617     1.943974
      1.936331     1.928688     1.921045     1.913402     1.905759     1.898115     1.890472     1.882829     1.875186     1.867543
      1.859900     1.852257     1.844614     1.836971     1.829327     1.821684     1.814041     1.806398     1.798755     1.791112
      1.783469     1.775826     1.768183     1.760540     1.752896     1.745253     1.737610     1.729967     1.722324     1.714681
      1.707038     1.699395     1.691752     1.684108     1.676465     1.668822     1.661179     1.653536     1.645893     1.638250
      1.630607     1.622964     1.615321     1.607677     1.600034     1.592391     1.584748     1.577105     1.569462     1.561819
      1.554176     1.546533     1.538890     1.531246     1.523603     1.515960     1.508317     1.500674     1.493031     1.485388
      1.477745     1.470102     1.462458     1.454815     1.447172     1.439529     1.431886     1.424243     1.416600     1.408957
      1.401314     1.393671     1.386027     1.378384     1.370741     1.363098     1.355455     1.347812     1.340169     1.332526
      1.324883     1.317240     1.309596     1.301953     1.294310     1.286667     1.279024     1.271381     1.263738     1.256095
      1.248452     1.240808     1.233165     1.225522     1.217879     1.210236     1.202593     1.194950     1.187307     1.179664
      1.172021     1.164377     1.156734     1.149091     1.141448     1.133805     1.126162     1.118519     1.110876     1.103233
      1.095590     1.087946     1.080303     1.072660     1.065017     1.057374     1.049731     1.042088     1.034445     1.026802
      1.019158     1.011515     1.003872     0.996229     0.988586     0.980943     0.973300     0.965657     0.958014     0.950371
      0.942727     0.935084     0.927441     0.919798     0.912155     0.904512     0.896869     0.889226     0.881583     0.873940
      0.866296     0.858653     0.851010     0.843367     0.835724     0.828081     0.820438     0.812795     0.805152     0.797508
      0.789865     0.782222     0.774579     0.766936     0.759293     0.751650     0.744007     0.736364     0.728721     0.721077
      0.713434     0.705791     0.698148     0.690505     0.682862     0.675219     0.667576     0.659933     0.652290     0.644646
      0.637003     0.629360     0.621717     0.614074     0.606431     0.598788     0.591145     0.583502     0.575858     0.568215
      0.560572     0.552929     0.545286     0.537643     0.530000     0.522357     0.514714     0.507071     0.499427     0.491784
      0.484141     0.476498     0.468855     0.461212     0.453569     0.445925     0.438282     0.430639     0.422996     0.415353
      0.407710     0.400067     0.392424     0.384780     0.377137     0.369494     0.361851     0.354208     0.346565     0.338922
      0.331278     0.323635     0.315992     0.308349     0.300706     0.293063     0.285420     0.277777     0.270133     0.262490
      0.254847     0.247204     0.239561     0.231918     0.224275     0.216631     0.208988     0.201345
 NY phased data points follow
   8.76115E+00  1.51664E+01  9.97928E+00  7.51928E+00  1.39778E+01  1.02866E+01  9.93376E+00  5.30803E+00  1.23932E+01  1.44413E+01
   1.77253E+01  1.82184E+01  1.70508E+01  1.63925E+01  1.49719E+01  9.41227E+00  9.44688E+00  7.73192E+00  1.02723E+01  1.11939E+01
   1.04998E+01  7.52102E+00  9.56349E+00  8.61585E+00  9.39046E+00  1.05245E+01  9.88482E+00  1.04417E+01  1.18064E+01  8.01484E+00
   5.38086E+00  4.90211E+00  9.75219E+00  6.06129E+00  6.16244E+00  5.81534E+00  5.19106E+00  8.26217E+00  1.02301E+01  8.77492E+00
   6.56140E+00  4.61815E+00  5.68237E+00  6.42067E+00  3.64743E+00  5.25174E+00  1.12038E+01  8.20778E+00  6.48894E+00  8.76728E+00
   1.69946E+00  5.46975E+00  9.66847E+00  5.71979E+00  6.69118E+00  5.39915E+00  6.61541E+00  5.03936E+00  8.22371E+00  4.12570E+00
   8.26980E+00  7.52675E+00  4.44581E+00  6.18074E+00  7.39118E+00  6.47821E+00  5.63275E+00  6.22908E+00  2.98771E+00  2.37578E+00
   1.11989E+00  9.01344E+00  2.93687E+00  8.10717E+00  6.20116E+00  4.38498E+00  6.14728E+00  5.82097E+00  4.35230E+00  2.82899E+00
   4.83732E+00  5.42505E+00  6.98249E+00  2.85868E+00  6.19225E+00  7.87097E+00  7.09641E+00  4.47782E+00  7.41908E+00  1.90400E+00
   5.50852E+00  4.89544E+00  2.73288E+00  4.97869E+00  6.81696E+00  6.83709E+00  6.10003E+00  4.54035E+00  2.49185E+00  1.97683E+00
   5.35165E+00  7.13172E+00  1.25450E+01  1.13130E+01  9.61006E+00  7.19255E+00  2.72043E+00  5.67557E+00 -5.41085E-02  7.04772E+00
   2.62161E+00  3.60514E-01 -1.89336E-01  1.31517E+00 -7.38532E-01  5.69470E+00  5.04427E+00  1.98548E+00  1.69556E+00 -9.26216E-01
   4.02025E+00 -1.07253E+00  1.63931E+00  2.26556E+00  7.32258E+00  1.04072E+01  1.28433E+01  1.24139E+01  8.35701E+00  9.89623E+00
   4.80195E+00  1.02180E+00  2.12761E+00  4.16703E+00 -1.85919E+00  4.20563E+00 -2.08607E+00  3.92531E+00  5.64983E-01  2.61611E+00
   3.73569E+00  3.54313E+00  3.11763E+00  1.30220E+00  1.27401E+00  1.52418E+00  4.97250E+00  2.56159E+00  5.48049E+00  3.69599E+00
  -5.31132E-01  4.64450E+00  2.32423E+00  3.34853E+00  4.94040E-01  1.51854E+00  4.37818E+00  1.76832E+00  1.28260E+00  4.46377E+00
   1.17003E+00 -5.50402E+00  1.87839E+00  1.82921E+00  3.64706E+00 -7.09404E-01  3.34177E+00  3.89297E+00  3.86554E+00 -1.47569E+00
   1.75179E+00  1.97424E+00 -1.22895E+00  6.64059E-01 -1.14015E-01  1.52038E+00 -3.25872E+00  2.53060E+00  1.19377E+00  1.85036E+00
  -1.82356E+00  2.30741E+00  4.05187E+00  6.74521E-01  4.20511E+00 -2.67063E+00  1.02842E+00 -2.65616E+00  1.32669E+00  1.36343E+00
   4.52854E+00  2.64982E+00  3.37408E+00  1.71277E+00  1.83128E+00  8.80066E-01  2.93908E+00 -4.42961E+00  1.35512E+00 -1.87972E+00
   3.08430E-01 -1.54600E-01  3.74970E+00  6.68688E+00 -9.19093E-02  5.67478E-02 -8.23630E-02 -9.06711E-01 -3.38481E-01  4.81384E+00
  -8.82462E-01  4.86240E+00  9.26706E-01  2.43354E+00  1.43349E+00  4.99981E+00  6.10777E+00  2.90250E+00 -3.33268E-01 -1.56190E+00
  -2.43742E-01  8.31656E-01 -1.19847E+00 -2.47317E+00  9.73897E-01  3.42633E+00  3.53470E+00  3.32821E+00  3.29518E+00 -4.16333E+00
   2.85416E+00  2.87479E+00  2.45904E+00  3.23102E+00  2.53340E+00  4.95734E+00  4.31553E+00  5.93476E+00  2.55063E+00  3.61615E-01
  -2.72755E+00  1.66046E+00 -3.64684E+00  4.20216E+00  2.83509E+00 -9.24330E-01  5.47680E-02 -2.40023E+00 -3.87345E-01  3.19709E+00
  -3.22804E+00  2.50783E+00  3.38288E-02  6.84975E+00  4.06604E+00  9.95103E-01 -5.67692E+00  3.35139E+00  8.43349E+00  8.76678E+00
   1.13922E+01  5.06188E+00 -2.24490E+00 -1.95313E+00 -1.01004E+01 -1.94345E+00 -7.66835E+00 -6.25623E+00 -5.81618E+00  1.31426E+00
  -2.10732E+00  2.38010E-01 -3.15325E+00 -1.57023E+00 -5.99771E-01 -2.90970E+00 -2.34187E+00 -3.95291E+00  2.85893E-01  2.35762E+00
   9.73636E-01 -1.68077E+00 -2.15539E+00 -5.04077E+00 -3.60336E+00  1.40245E+00 -2.81252E+00  3.84624E-01  2.44447E+00 -5.55265E+00
   6.34066E-01 -1.19557E+00 -4.17012E+00  4.09880E-01 -1.25330E+00 -2.21668E+00 -2.47263E+00 -2.37804E+00 -1.80606E+00  8.35163E-01
  -1.09846E+00 -2.82675E-01  1.75472E+00  5.17901E-01  7.60617E-01 -1.76541E+00  3.66031E+00 -6.24744E-01 -3.10470E+00  1.91489E+00
  -1.53130E+00  1.80740E+00  7.29853E-01 -1.46943E+00 -6.25027E-01  3.81823E+00 -3.29153E-01 -1.41907E+00  1.14835E-01 -2.98950E-01
  -6.03053E-01  3.10164E+00 -7.82976E-02  3.54874E+00  1.09122E+00  1.78541E-01 -2.37511E-01 -2.09708E+00  2.37274E-01 -1.80232E+00
  -2.71046E+00 -4.63530E+00 -6.91410E-01 -8.53026E+00 -3.55495E+00 -6.58580E+00 -7.70306E+00 -3.56636E+00 -7.79670E+00 -6.83523E+00
  -9.10031E+00 -4.84006E+00 -4.90509E+00 -1.76066E+00 -8.22309E+00 -3.86067E+00 -1.10411E+00  2.45360E+00  2.79063E+00  2.05452E+00
   7.84329E+00  3.59189E+00  5.39227E+00  1.47391E+00  1.72840E+00  8.95524E+00  6.72777E+00  4.79587E+00  8.02995E+00  3.87520E+00
   6.37689E+00  8.45226E+00  5.52899E+00  3.83074E+00  2.65006E+00  3.62920E+00  3.62285E+00  6.29367E+00  3.79028E-01 -3.82771E-01
   4.17172E+00  6.51535E+00  5.08209E+00 -1.23589E+00  3.62504E-01  1.24469E+00  9.36863E-01  2.83642E+00  2.30378E+00 -8.23476E-01
   1.73200E+00 -2.46540E+00  5.17897E+00  1.58414E+00 -2.39611E-01  6.70505E+00  4.71413E+00  2.34773E+00  1.91512E+00  2.24539E+00
   4.06093E+00 -2.56069E+00 -1.61434E+00  2.66383E+00 -1.35883E+00  5.53801E+00  1.45204E+00  2.91183E+00 -1.61147E+00  2.13087E+00
   1.25980E+00 -6.87539E-01  6.79270E-01  2.47814E+00 -2.90670E+00  2.10877E+00 -1.13182E+00  1.10537E+00  1.23734E+00  9.83701E-01
  -1.16948E+00 -9.62247E-01 -5.71461E-01  8.57273E-01 -2.29721E+00 -4.19364E+00  3.42982E-02 -1.05674E+00 -3.09077E+00 -2.26952E+00
  -2.41996E+00 -2.53676E+00 -3.45269E+00 -1.37869E+00 -7.37064E+00 -1.10244E+00 -1.04811E+00 -1.77060E+00  5.55222E-01 -1.20086E+00
  -6.85591E-01 -2.63351E-01 -3.96603E+00  2.52084E+00 -4.30981E+00 -1.43470E-01  2.20069E+00  3.83863E+00 -2.44031E+00 -2.77604E+00
  -1.28976E+00 -2.04081E+00 -1.40654E+00  1.47491E+00 -2.63357E+00 -7.57430E+00 -2.36296E+00 -1.02570E+00 -2.51365E+00 -2.09970E+00
   4.43465E-02  1.59679E+00 -4.10843E+00 -1.42525E+00 -1.78226E+00 -6.10132E+00 -2.42973E+00 -5.35111E-01 -4.67514E+00 -2.38965E+00
  -3.21040E+00 -1.05636E+00 -8.94428E-01 -2.54040E+00 -1.38758E+00 -4.09647E+00  5.78454E-01  2.65367E-02 -4.46349E+00 -7.85633E-01
  -3.77609E+00 -4.84784E-01 -8.83527E-01 -1.64811E+00 -3.69848E+00 -3.76585E+00 -6.74273E+00 -1.60859E+00 -1.36080E+00  1.54722E+00
  -2.01728E+00 -6.62090E+00  7.14262E-02 -2.40577E+00 -7.12916E+00  2.51570E+00 -3.52700E+00 -3.54380E+00  7.85335E-02 -3.09765E+00
   2.00213E-01 -4.17554E+00 -2.81878E+00 -1.05683E+00 -1.60686E+00 -7.26934E+00 -3.55249E-01 -7.89685E-01
 NY points of the fit to the data follow
   8.45743E+00  8.40094E+00  8.34811E+00  8.25949E+00  8.02080E+00  7.58021E+00  7.18390E+00  7.77249E+00  9.92584E+00  1.27945E+01
   1.48402E+01  1.50455E+01  1.34602E+01  1.08914E+01  8.31001E+00  6.48279E+00  5.81742E+00  6.16339E+00  7.01635E+00  7.64585E+00
   7.86489E+00  7.93102E+00  7.94044E+00  7.85456E+00  7.68729E+00  7.76540E+00  8.28660E+00  9.02831E+00  9.59867E+00  9.76217E+00
   9.51573E+00  8.95206E+00  8.19514E+00  7.43034E+00  6.83599E+00  6.55311E+00  6.59274E+00  6.79252E+00  7.08174E+00  7.36811E+00
   7.52167E+00  7.49704E+00  7.34748E+00  7.19146E+00  7.09438E+00  7.06342E+00  7.06779E+00  7.03395E+00  6.94774E+00  6.84582E+00
   6.76873E+00  6.73325E+00  6.72540E+00  6.72085E+00  6.69554E+00  6.64185E+00  6.57964E+00  6.52852E+00  6.49032E+00  6.45878E+00
   6.41846E+00  6.36883E+00  6.32399E+00  6.28476E+00  6.24920E+00  6.21223E+00  6.15811E+00  6.08393E+00  6.00502E+00  5.93423E+00
   5.89457E+00  5.92018E+00  6.00122E+00  6.07612E+00  6.07412E+00  5.96868E+00  5.77751E+00  5.56577E+00  5.40573E+00  5.32890E+00
   5.32424E+00  5.40005E+00  5.56926E+00  5.76106E+00  5.87062E+00  5.82471E+00  5.63198E+00  5.37349E+00  5.13119E+00  4.93487E+00
   4.78328E+00  4.66460E+00  4.56475E+00  4.47025E+00  4.40133E+00  4.37958E+00  4.34973E+00  4.23750E+00  4.13590E+00  4.78488E+00
   6.62121E+00  8.94992E+00  1.05368E+01  1.05876E+01  9.17583E+00  6.98657E+00  4.80933E+00  3.28292E+00  2.71324E+00  2.94581E+00
   3.56362E+00  3.95727E+00  4.05229E+00  4.05099E+00  4.01531E+00  3.94212E+00  3.82345E+00  3.66484E+00  3.47340E+00  3.24841E+00
   2.98252E+00  2.65573E+00  2.45288E+00  3.57509E+00  6.80797E+00  1.10178E+01  1.40804E+01  1.45377E+01  1.24328E+01  8.93504E+00
   5.37735E+00  2.75313E+00  1.54403E+00  1.56361E+00  2.24982E+00  2.74273E+00  2.95933E+00  3.27757E+00  3.70624E+00  4.10000E+00
   4.32176E+00  4.32857E+00  4.19727E+00  4.01611E+00  3.84591E+00  3.72850E+00  3.66064E+00  3.61369E+00  3.57266E+00  3.51570E+00
   3.44330E+00  3.36373E+00  3.30169E+00  3.28124E+00  3.31425E+00  3.37899E+00  3.39809E+00  3.30554E+00  3.11590E+00  2.91099E+00
   2.79832E+00  2.82690E+00  2.94668E+00  3.06203E+00  3.09892E+00  3.02832E+00  2.87353E+00  2.70732E+00  2.60710E+00  2.59764E+00
   2.63097E+00  2.62307E+00  2.49787E+00  2.30247E+00  2.15633E+00  2.12877E+00  2.18569E+00  2.22523E+00  2.18102E+00  2.07727E+00
   1.98082E+00  1.92434E+00  1.87990E+00  1.80877E+00  1.74277E+00  1.73663E+00  1.85199E+00  2.10105E+00  2.41240E+00  2.64849E+00
   2.69085E+00  2.51390E+00  2.19662E+00  1.82091E+00  1.47587E+00  1.26662E+00  1.23269E+00  1.33676E+00  1.48981E+00  1.64725E+00
   1.81237E+00  1.97786E+00  2.08642E+00  2.07944E+00  1.95075E+00  1.72742E+00  1.42546E+00  1.08753E+00  7.70503E-01  5.29880E-01
   4.47670E-01  6.68967E-01  1.25701E+00  1.99225E+00  2.52556E+00  2.62422E+00  2.25007E+00  1.49330E+00  4.67686E-01 -5.63015E-01
  -1.18359E+00 -1.15991E+00 -5.71802E-01  2.57842E-01  1.02753E+00  1.56430E+00  1.72409E+00  1.45256E+00  8.90764E-01  3.25783E-01
   5.02766E-03 -4.77704E-03  2.37153E-01  6.52396E-01  1.07388E+00  1.28472E+00  1.14139E+00  6.66011E-01  7.34056E-03 -6.34509E-01
  -1.07382E+00 -1.15593E+00 -8.80596E-01 -4.03919E-01  5.39554E-02  3.02840E-01  2.46626E-01 -1.15605E-01 -6.71931E-01 -1.26902E+00
  -1.72822E+00 -1.70702E+00 -1.02031E+00 -6.23907E-02  4.61326E-01  5.48437E-01  1.59175E+00  4.16497E+00  7.18359E+00  9.01320E+00
   8.77364E+00  6.69752E+00  3.69587E+00  6.91309E-01 -1.42117E+00 -2.14860E+00 -1.73114E+00 -8.93160E-01 -4.98473E-01 -3.65824E-01
  -2.76592E-01 -1.79338E-01 -8.11762E-02 -3.16529E-03  2.08427E-02 -1.66969E-02 -1.04042E-01 -2.17462E-01 -3.29986E-01 -4.17725E-01
  -4.73371E-01 -5.06019E-01 -5.26660E-01 -5.45104E-01 -5.68850E-01 -6.03809E-01 -6.52808E-01 -7.11425E-01 -7.67216E-01 -8.12389E-01
  -8.47536E-01 -8.78721E-01 -9.10385E-01 -9.47200E-01 -9.92742E-01 -1.04738E+00 -1.10714E+00 -1.16621E+00 -1.21893E+00 -1.26453E+00
  -1.30545E+00 -1.34403E+00 -1.38312E+00 -1.42529E+00 -1.47151E+00 -1.52118E+00 -1.57215E+00 -1.62328E+00 -1.67472E+00 -1.72648E+00
  -1.77893E+00 -1.83246E+00 -1.88729E+00 -1.94348E+00 -2.00108E+00 -2.06004E+00 -2.12033E+00 -2.18196E+00 -2.24496E+00 -2.30920E+00
  -2.37397E+00 -2.43581E+00 -2.47946E+00 -2.49255E+00 -2.50500E+00 -2.56403E+00 -2.69314E+00 -2.87837E+00 -3.08569E+00 -3.29030E+00
  -3.47839E+00 -3.61399E+00 -3.67115E+00 -3.66582E+00 -3.64899E+00 -3.66862E+00 -3.73554E+00 -3.84515E+00 -3.97789E+00 -4.10075E+00
  -4.17630E+00 -4.17321E+00 -4.07164E+00 -3.86957E+00 -3.55138E+00 -3.09810E+00 -2.49751E+00 -1.74750E+00 -8.58781E-01  1.43763E-01
   1.22150E+00  2.32475E+00  3.39749E+00  4.38348E+00  5.23270E+00  5.90696E+00  6.38370E+00  6.65746E+00  6.73876E+00  6.65110E+00
   6.42643E+00  6.10043E+00  5.70816E+00  5.28075E+00  4.84350E+00  4.41517E+00  4.00824E+00  3.62980E+00  3.28280E+00  2.96732E+00
   2.68165E+00  2.42318E+00  2.18896E+00  1.97605E+00  1.78174E+00  1.60366E+00  1.43978E+00  1.28841E+00  1.14811E+00  1.01765E+00
   8.95972E-01  7.82195E-01  6.75560E-01  5.75426E-01  4.81198E-01  3.92349E-01  3.08395E-01  2.28939E-01  1.53618E-01  8.21189E-02
   1.41227E-02 -5.06518E-02 -1.12464E-01 -1.71513E-01 -2.27993E-01 -2.82077E-01 -3.33955E-01 -3.83784E-01 -4.31705E-01 -4.77818E-01
  -5.22236E-01 -5.65062E-01 -6.06416E-01 -6.46385E-01 -6.85045E-01 -7.22447E-01 -7.58663E-01 -7.93763E-01 -8.27825E-01 -8.60895E-01
  -8.93015E-01 -9.24212E-01 -9.54543E-01 -9.84055E-01 -1.01280E+00 -1.04079E+00 -1.06805E+00 -1.09461E+00 -1.12051E+00 -1.14578E+00
  -1.17045E+00 -1.19454E+00 -1.21805E+00 -1.24100E+00 -1.26343E+00 -1.28537E+00 -1.30682E+00 -1.32778E+00 -1.34828E+00 -1.36833E+00
  -1.38796E+00 -1.40718E+00 -1.42599E+00 -1.44439E+00 -1.46241E+00 -1.48005E+00 -1.49734E+00 -1.51428E+00 -1.53087E+00 -1.54711E+00
  -1.56302E+00 -1.57861E+00 -1.59390E+00 -1.60889E+00 -1.62356E+00 -1.63793E+00 -1.65202E+00 -1.66584E+00 -1.67939E+00 -1.69266E+00
  -1.70566E+00 -1.71839E+00 -1.73088E+00 -1.74312E+00 -1.75513E+00 -1.76687E+00 -1.77837E+00 -1.78964E+00 -1.80069E+00 -1.81151E+00
  -1.82212E+00 -1.83249E+00 -1.84265E+00 -1.85259E+00 -1.86234E+00 -1.87189E+00 -1.88122E+00 -1.89034E+00 -1.89927E+00 -1.90801E+00
  -1.91658E+00 -1.92495E+00 -1.93312E+00 -1.94110E+00 -1.94891E+00 -1.95654E+00 -1.96401E+00 -1.97130E+00 -1.97842E+00 -1.98536E+00
  -1.99215E+00 -1.99878E+00 -2.00526E+00 -2.01157E+00 -2.01773E+00 -2.02374E+00 -2.02962E+00 -2.03537E+00 -2.04097E+00 -2.04644E+00
  -2.05178E+00 -2.05700E+00 -2.06213E+00 -2.06714E+00 -2.07206E+00 -2.07688E+00 -2.08162E+00 -2.08630E+00
 NY background values follow
     8.974E+00    8.934E+00    8.894E+00    8.855E+00    8.815E+00    8.776E+00    8.736E+00    8.696E+00    8.657E+00    8.618E+00
     8.578E+00    8.539E+00    8.499E+00    8.460E+00    8.421E+00    8.381E+00    8.342E+00    8.303E+00    8.264E+00    8.225E+00
     8.186E+00    8.147E+00    8.108E+00    8.069E+00    8.030E+00    7.991E+00    7.952E+00    7.913E+00    7.874E+00    7.836E+00
     7.797E+00    7.758E+00    7.720E+00    7.681E+00    7.643E+00    7.604E+00    7.566E+00    7.527E+00    7.489E+00    7.450E+00
     7.412E+00    7.374E+00    7.336E+00    7.297E+00    7.259E+00    7.221E+00    7.183E+00    7.145E+00    7.107E+00    7.069E+00
     7.031E+00    6.993E+00    6.956E+00    6.918E+00    6.880E+00    6.842E+00    6.805E+00    6.767E+00    6.730E+00    6.692E+00
     6.655E+00    6.617E+00    6.580E+00    6.543E+00    6.505E+00    6.468E+00    6.431E+00    6.394E+00    6.357E+00    6.320E+00
     6.283E+00    6.246E+00    6.209E+00    6.172E+00    6.135E+00    6.099E+00    6.062E+00    6.025E+00    5.989E+00    5.952E+00
     5.916E+00    5.879E+00    5.843E+00    5.806E+00    5.770E+00    5.734E+00    5.698E+00    5.662E+00    5.625E+00    5.589E+00
     5.553E+00    5.518E+00    5.482E+00    5.446E+00    5.410E+00    5.374E+00    5.339E+00    5.303E+00    5.268E+00    5.232E+00
     5.197E+00    5.161E+00    5.126E+00    5.091E+00    5.055E+00    5.020E+00    4.985E+00    4.950E+00    4.915E+00    4.880E+00
     4.845E+00    4.810E+00    4.776E+00    4.741E+00    4.706E+00    4.672E+00    4.637E+00    4.603E+00    4.568E+00    4.534E+00
     4.500E+00    4.465E+00    4.431E+00    4.397E+00    4.363E+00    4.329E+00    4.295E+00    4.261E+00    4.227E+00    4.194E+00
     4.160E+00    4.126E+00    4.093E+00    4.059E+00    4.026E+00    3.992E+00    3.959E+00    3.926E+00    3.893E+00    3.860E+00
     3.827E+00    3.794E+00    3.761E+00    3.728E+00    3.695E+00    3.662E+00    3.630E+00    3.597E+00    3.564E+00    3.532E+00
     3.499E+00    3.467E+00    3.435E+00    3.403E+00    3.370E+00    3.338E+00    3.306E+00    3.274E+00    3.243E+00    3.211E+00
     3.179E+00    3.147E+00    3.116E+00    3.084E+00    3.053E+00    3.021E+00    2.990E+00    2.959E+00    2.927E+00    2.896E+00
     2.865E+00    2.834E+00    2.803E+00    2.773E+00    2.742E+00    2.711E+00    2.680E+00    2.650E+00    2.619E+00    2.589E+00
     2.559E+00    2.528E+00    2.498E+00    2.468E+00    2.438E+00    2.408E+00    2.378E+00    2.348E+00    2.318E+00    2.289E+00
     2.259E+00    2.230E+00    2.200E+00    2.171E+00    2.141E+00    2.112E+00    2.083E+00    2.054E+00    2.025E+00    1.996E+00
     1.967E+00    1.938E+00    1.910E+00    1.881E+00    1.852E+00    1.824E+00    1.796E+00    1.767E+00    1.739E+00    1.711E+00
     1.683E+00    1.655E+00    1.627E+00    1.599E+00    1.571E+00    1.543E+00    1.516E+00    1.488E+00    1.461E+00    1.433E+00
     1.406E+00    1.379E+00    1.352E+00    1.324E+00    1.297E+00    1.271E+00    1.244E+00    1.217E+00    1.190E+00    1.164E+00
     1.137E+00    1.111E+00    1.084E+00    1.058E+00    1.032E+00    1.006E+00    9.798E-01    9.539E-01    9.280E-01    9.022E-01
     8.765E-01    8.509E-01    8.254E-01    8.000E-01    7.746E-01    7.493E-01    7.241E-01    6.990E-01    6.740E-01    6.491E-01
     6.242E-01    5.995E-01    5.748E-01    5.502E-01    5.257E-01    5.012E-01    4.769E-01    4.526E-01    4.285E-01    4.044E-01
     3.804E-01    3.565E-01    3.326E-01    3.089E-01    2.853E-01    2.617E-01    2.382E-01    2.148E-01    1.915E-01    1.683E-01
     1.452E-01    1.221E-01    9.919E-02    7.633E-02    5.356E-02    3.087E-02    8.277E-03   -1.423E-02   -3.665E-02   -5.897E-02
    -8.121E-02   -1.034E-01   -1.254E-01   -1.474E-01   -1.693E-01   -1.911E-01   -2.128E-01   -2.344E-01   -2.559E-01   -2.773E-01
    -2.986E-01   -3.199E-01   -3.410E-01   -3.621E-01   -3.831E-01   -4.039E-01   -4.247E-01   -4.454E-01   -4.660E-01   -4.865E-01
    -5.069E-01   -5.273E-01   -5.475E-01   -5.676E-01   -5.877E-01   -6.076E-01   -6.275E-01   -6.472E-01   -6.669E-01   -6.865E-01
    -7.060E-01   -7.254E-01   -7.446E-01   -7.638E-01   -7.830E-01   -8.020E-01   -8.209E-01   -8.397E-01   -8.584E-01   -8.770E-01
    -8.956E-01   -9.140E-01   -9.324E-01   -9.506E-01   -9.688E-01   -9.868E-01   -1.005E+00   -1.023E+00   -1.040E+00   -1.058E+00
    -1.076E+00   -1.093E+00   -1.110E+00   -1.128E+00   -1.145E+00   -1.162E+00   -1.179E+00   -1.196E+00   -1.213E+00   -1.229E+00
    -1.246E+00   -1.262E+00   -1.279E+00   -1.295E+00   -1.311E+00   -1.327E+00   -1.343E+00   -1.359E+00   -1.375E+00   -1.391E+00
    -1.407E+00   -1.422E+00   -1.437E+00   -1.453E+00   -1.468E+00   -1.483E+00   -1.498E+00   -1.513E+00   -1.528E+00   -1.542E+00
    -1.557E+00   -1.572E+00   -1.586E+00   -1.600E+00   -1.614E+00   -1.629E+00   -1.643E+00   -1.656E+00   -1.670E+00   -1.684E+00
    -1.698E+00   -1.711E+00   -1.724E+00   -1.738E+00   -1.751E+00   -1.764E+00   -1.777E+00   -1.790E+00   -1.803E+00   -1.815E+00
    -1.828E+00   -1.840E+00   -1.853E+00   -1.865E+00   -1.877E+00   -1.889E+00   -1.901E+00   -1.913E+00   -1.925E+00   -1.936E+00
    -1.948E+00   -1.959E+00   -1.970E+00   -1.982E+00   -1.993E+00   -2.004E+00   -2.015E+00   -2.025E+00   -2.036E+00   -2.047E+00
    -2.057E+00   -2.068E+00   -2.078E+00   -2.088E+00   -2.098E+00   -2.108E+00   -2.118E+00   -2.128E+00   -2.137E+00   -2.147E+00
    -2.156E+00   -2.166E+00   -2.175E+00   -2.184E+00   -2.193E+00   -2.202E+00   -2.210E+00   -2.219E+00   -2.228E+00   -2.236E+00
    -2.245E+00   -2.253E+00   -2.261E+00   -2.269E+00   -2.277E+00   -2.285E+00   -2.292E+00   -2.300E+00   -2.307E+00   -2.315E+00
    -2.322E+00   -2.329E+00   -2.336E+00   -2.343E+00   -2.350E+00   -2.357E+00   -2.363E+00   -2.370E+00   -2.376E+00   -2.383E+00
    -2.389E+00   -2.395E+00   -2.401E+00   -2.407E+00   -2.412E+00   -2.418E+00   -2.424E+00   -2.429E+00   -2.434E+00   -2.439E+00
    -2.445E+00   -2.450E+00   -2.454E+00   -2.459E+00   -2.464E+00   -2.468E+00   -2.473E+00   -2.477E+00   -2.481E+00   -2.485E+00
    -2.489E+00   -2.493E+00   -2.497E+00   -2.501E+00   -2.504E+00   -2.508E+00   -2.511E+00   -2.514E+00   -2.517E+00   -2.520E+00
    -2.523E+00   -2.526E+00   -2.528E+00   -2.531E+00   -2.533E+00   -2.536E+00   -2.538E+00   -2.540E+00   -2.542E+00   -2.544E+00
    -2.546E+00   -2.547E+00   -2.549E+00   -2.550E+00   -2.551E+00   -2.553E+00   -2.554E+00   -2.555E+00   -2.556E+00   -2.556E+00
    -2.557E+00   -2.557E+00   -2.558E+00   -2.558E+00   -2.558E+00   -2.558E+00   -2.558E+00   -2.558E+00
 Ala      Conc. = 4.42E+00
