 LCModel (Version 6.3-1L) Copyright: S.W. Provencher.          Ref.: Magn. Reson. Med. 30:672-679 (1993).                
 Slice#1 Row#3 Col#5  K_02_press_1_raw_act
 36 lines in following concentration table = NCONC+1
    Conc.  %SD /Cr+PCr  Metabolite                                         
  555.220  32%   0.628 Ala                                                 
   60.541 310% 6.8E-02 Asp                                                 
    0.000 999%   0.000 Cr                                                  
  884.062   7%   1.000 PCr                                                 
   66.545 190% 7.5E-02 GABA                                                
  120.129 101%   0.136 Glc                                                 
  255.444 149%   0.289 Gln                                                 
  606.140  71%   0.686 Glu                                                 
  397.948   6%   0.450 GPC                                                 
    0.000 999%   0.000 PCh                                                 
  362.684  26%   0.410 GSH                                                 
  293.016  97%   0.331 Ins                                                 
    0.000 999%   0.000 Lac                                                 
 1.70E+03   9%   1.921 NAA                                                 
   92.870 182%   0.105 NAAG                                                
   94.755  30%   0.107 Scyllo                                              
  454.459  38%   0.514 Tau                                                 
  561.167  19%   0.635 -CrCH2                                              
  397.948   6%   0.450 GPC+PCh                                             
 1.79E+03   6%   2.027 NAA+NAAG                                            
  884.062   7%   1.000 Cr+PCr                                              
  861.584  80%   0.975 Glu+Gln                                             
  712.443  63%   0.806 Lip13a                                              
    0.000 999%   0.000 Lip13b                                              
  125.654 118%   0.142 Lip09                                               
 1.52E+03  15%   1.719 MM09                                                
  112.305  80%   0.127 Lip20                                               
 2.91E+03  13%   3.291 MM20                                                
  471.769  32%   0.534 MM12                                                
 2.71E+03  15%   3.069 MM14                                                
 1.37E+03  20%   1.553 MM17                                                
  712.443  63%   0.806 Lip13a+Lip13b                                       
 3.90E+03   9%   4.408 MM14+Lip13a+Lip13b+MM12                             
 1.65E+03  10%   1.861 MM09+Lip09                                          
 3.02E+03  12%   3.418 MM20+Lip20                                          
   6 lines in following misc. output table
  FWHM = 0.084 ppm    S/N =   8                                            
  Data shift = 0.054 ppm                                                   
  Ph: -57 deg     -22.9 deg/ppm                                            
  alphaB,S = 8.5E+01,   2.5E+02                                            
   14 spline knots.   Ns =10(1)                                            
  (14) 2 infls.   (11) 1 extrs.                                            
  498 points on ppm-axis = NY
      4.000000     3.992357     3.984714     3.977070     3.969427     3.961784     3.954141     3.946497     3.938854     3.931211
      3.923568     3.915925     3.908281     3.900638     3.892995     3.885352     3.877708     3.870065     3.862422     3.854779
      3.847136     3.839492     3.831849     3.824206     3.816563     3.808919     3.801276     3.793633     3.785990     3.778347
      3.770703     3.763060     3.755417     3.747774     3.740130     3.732487     3.724844     3.717201     3.709558     3.701914
      3.694271     3.686628     3.678985     3.671341     3.663698     3.656055     3.648412     3.640769     3.633125     3.625482
      3.617839     3.610196     3.602552     3.594909     3.587266     3.579623     3.571980     3.564336     3.556693     3.549050
      3.541407     3.533763     3.526120     3.518477     3.510834     3.503191     3.495547     3.487904     3.480261     3.472618
      3.464974     3.457331     3.449688     3.442045     3.434402     3.426758     3.419115     3.411472     3.403829     3.396185
      3.388542     3.380899     3.373256     3.365613     3.357969     3.350326     3.342683     3.335040     3.327396     3.319753
      3.312110     3.304467     3.296824     3.289180     3.281537     3.273894     3.266251     3.258607     3.250964     3.243321
      3.235678     3.228034     3.220391     3.212748     3.205105     3.197462     3.189818     3.182175     3.174532     3.166889
      3.159245     3.151602     3.143959     3.136316     3.128673     3.121029     3.113386     3.105743     3.098100     3.090456
      3.082813     3.075170     3.067527     3.059884     3.052240     3.044597     3.036954     3.029311     3.021667     3.014024
      3.006381     2.998738     2.991095     2.983451     2.975808     2.968165     2.960522     2.952878     2.945235     2.937592
      2.929949     2.922306     2.914662     2.907019     2.899376     2.891733     2.884089     2.876446     2.868803     2.861160
      2.853517     2.845873     2.838230     2.830587     2.822944     2.815300     2.807657     2.800014     2.792371     2.784728
      2.777084     2.769441     2.761798     2.754155     2.746511     2.738868     2.731225     2.723582     2.715939     2.708295
      2.700652     2.693009     2.685366     2.677722     2.670079     2.662436     2.654793     2.647150     2.639506     2.631863
      2.624220     2.616577     2.608933     2.601290     2.593647     2.586004     2.578361     2.570717     2.563074     2.555431
      2.547788     2.540144     2.532501     2.524858     2.517215     2.509572     2.501928     2.494285     2.486642     2.478999
      2.471355     2.463712     2.456069     2.448426     2.440783     2.433139     2.425496     2.417853     2.410210     2.402566
      2.394923     2.387280     2.379637     2.371994     2.364350     2.356707     2.349064     2.341421     2.333777     2.326134
      2.318491     2.310848     2.303205     2.295561     2.287918     2.280275     2.272632     2.264988     2.257345     2.249702
      2.242059     2.234416     2.226772     2.219129     2.211486     2.203843     2.196199     2.188556     2.180913     2.173270
      2.165627     2.157983     2.150340     2.142697     2.135054     2.127410     2.119767     2.112124     2.104481     2.096838
      2.089194     2.081551     2.073908     2.066265     2.058621     2.050978     2.043335     2.035692     2.028049     2.020405
      2.012762     2.005119     1.997476     1.989833     1.982190     1.974546     1.966903     1.959260     1.951617     1.943974
      1.936331     1.928688     1.921045     1.913402     1.905759     1.898115     1.890472     1.882829     1.875186     1.867543
      1.859900     1.852257     1.844614     1.836971     1.829327     1.821684     1.814041     1.806398     1.798755     1.791112
      1.783469     1.775826     1.768183     1.760540     1.752896     1.745253     1.737610     1.729967     1.722324     1.714681
      1.707038     1.699395     1.691752     1.684108     1.676465     1.668822     1.661179     1.653536     1.645893     1.638250
      1.630607     1.622964     1.615321     1.607677     1.600034     1.592391     1.584748     1.577105     1.569462     1.561819
      1.554176     1.546533     1.538890     1.531246     1.523603     1.515960     1.508317     1.500674     1.493031     1.485388
      1.477745     1.470102     1.462458     1.454815     1.447172     1.439529     1.431886     1.424243     1.416600     1.408957
      1.401314     1.393671     1.386027     1.378384     1.370741     1.363098     1.355455     1.347812     1.340169     1.332526
      1.324883     1.317240     1.309596     1.301953     1.294310     1.286667     1.279024     1.271381     1.263738     1.256095
      1.248452     1.240808     1.233165     1.225522     1.217879     1.210236     1.202593     1.194950     1.187307     1.179664
      1.172021     1.164377     1.156734     1.149091     1.141448     1.133805     1.126162     1.118519     1.110876     1.103233
      1.095590     1.087946     1.080303     1.072660     1.065017     1.057374     1.049731     1.042088     1.034445     1.026802
      1.019158     1.011515     1.003872     0.996229     0.988586     0.980943     0.973300     0.965657     0.958014     0.950371
      0.942727     0.935084     0.927441     0.919798     0.912155     0.904512     0.896869     0.889226     0.881583     0.873940
      0.866296     0.858653     0.851010     0.843367     0.835724     0.828081     0.820438     0.812795     0.805152     0.797508
      0.789865     0.782222     0.774579     0.766936     0.759293     0.751650     0.744007     0.736364     0.728721     0.721077
      0.713434     0.705791     0.698148     0.690505     0.682862     0.675219     0.667576     0.659933     0.652290     0.644646
      0.637003     0.629360     0.621717     0.614074     0.606431     0.598788     0.591145     0.583502     0.575858     0.568215
      0.560572     0.552929     0.545286     0.537643     0.530000     0.522357     0.514714     0.507071     0.499427     0.491784
      0.484141     0.476498     0.468855     0.461212     0.453569     0.445925     0.438282     0.430639     0.422996     0.415353
      0.407710     0.400067     0.392424     0.384780     0.377137     0.369494     0.361851     0.354208     0.346565     0.338922
      0.331278     0.323635     0.315992     0.308349     0.300706     0.293063     0.285420     0.277777     0.270133     0.262490
      0.254847     0.247204     0.239561     0.231918     0.224275     0.216631     0.208988     0.201345
 NY phased data points follow
  -1.58726E+01 -1.80836E+01 -1.36252E+01 -7.30814E+00 -9.50075E+00 -6.81261E+00 -2.31374E+00 -6.78328E+00 -2.46284E+00 -1.20015E+00
  -4.82758E+00 -4.24523E+00 -4.56191E+00 -7.77775E+00 -1.18094E+01 -1.07648E+01 -1.40298E+01 -9.55969E+00 -1.36154E+01 -1.27767E+01
  -1.33765E+01 -1.09866E+01 -8.01837E+00 -1.27932E+01 -7.97822E+00 -1.89157E+00 -3.40704E+00 -6.52226E+00 -6.36654E+00 -5.56657E+00
  -7.68559E+00 -2.64793E+00 -6.42852E+00 -6.08281E+00 -3.22700E+00 -5.61882E+00 -6.49180E+00 -6.56333E+00 -6.37247E+00 -2.43061E+00
  -2.36769E+00 -4.31301E+00 -2.63976E+00 -4.25226E+00 -3.75140E+00 -2.73547E+00 -4.27901E+00 -6.34213E+00 -4.09121E+00 -6.35937E+00
  -8.41002E+00 -1.06868E+01 -9.10083E+00 -7.64124E+00 -8.23635E+00 -8.46703E+00 -5.76911E+00 -1.28691E+01 -6.58318E+00 -9.58406E+00
  -7.20451E+00 -1.28458E+01 -6.51376E+00 -1.08984E+01 -3.65095E+00 -1.21402E+01 -7.92655E+00 -4.04060E-01 -1.01243E+01 -7.12184E+00
  -6.51183E+00 -4.63210E+00 -5.58549E+00 -8.35709E+00 -5.64109E+00 -8.79733E+00 -1.03306E+01 -6.57429E+00 -8.58230E+00 -5.39320E+00
  -8.16501E+00 -2.05381E+00 -3.77542E+00 -3.83143E+00 -8.50615E+00 -1.14446E+01 -4.87036E+00 -5.46302E+00 -4.59594E+00 -4.22118E+00
   7.53760E-02 -1.02065E+00 -4.03238E+00 -1.12134E+00 -1.72605E+00  2.76038E+00  6.47407E+00  8.96601E+00  9.79293E+00  1.92224E+01
   2.37363E+01  2.36183E+01  2.13320E+01  1.74869E+01  1.91307E+01  1.15628E+01  9.08511E+00  6.05802E+00  2.40905E+00 -2.33955E+00
  -4.01968E+00 -4.01542E+00 -2.13564E+00  8.42921E-01 -1.09845E+00 -4.12306E+00  1.43695E+00 -6.05886E+00 -9.38261E-01  2.04017E+00
   1.19643E+00  7.12977E+00  1.46482E+01  1.21641E+01  1.68556E+01  1.63057E+01  1.63858E+01  2.12046E+01  1.61617E+01  1.74605E+01
   1.03193E+01  1.60035E+00  4.63045E+00  1.95492E+00 -3.03461E-01 -4.18497E+00 -4.41091E+00 -8.11391E-02 -2.37112E+00 -4.31311E+00
  -5.25610E+00 -4.95793E+00  1.39221E+00 -7.69769E+00 -3.43175E+00 -5.26313E+00 -2.94714E+00 -1.09057E+00  3.85314E+00 -2.63511E+00
  -7.55624E+00 -4.84626E+00 -3.21099E+00 -4.52899E+00  2.69820E+00 -7.28560E+00 -9.60063E+00 -4.95975E+00 -2.30000E+00 -2.47412E+00
  -4.73197E+00 -3.75547E+00 -5.92884E+00 -6.39871E+00 -1.06285E+00 -6.18087E+00 -7.59970E+00 -8.85388E+00 -7.60527E+00 -1.03715E+01
  -7.46132E+00 -6.54484E+00 -5.73768E+00 -1.15070E+01 -1.50587E+01 -1.55960E+01 -1.20352E+01 -9.24143E+00 -6.75910E+00 -1.17106E+01
  -8.84200E+00 -9.80086E+00 -4.75099E+00 -9.92605E+00 -6.37622E+00 -8.10927E+00 -2.93428E+00 -9.06764E+00 -7.29217E-01 -6.04189E+00
  -6.17215E+00 -2.40644E+00 -2.46392E+00 -6.54824E+00 -8.98285E+00 -5.37701E+00 -3.50595E+00 -4.09521E+00 -1.02853E+01 -4.70545E+00
  -3.22883E+00 -2.74204E+00 -2.22051E+00  1.30349E+00 -3.27411E+00 -4.68416E+00 -5.05424E+00 -4.91963E+00  2.16895E+00  3.23433E+00
  -5.31535E+00  1.25374E-02 -2.85145E+00  2.27197E+00 -2.83859E-01  5.16361E+00  2.85797E-01  9.20388E-01  1.96016E+00  3.44866E+00
  -1.43927E-01 -3.47589E+00 -3.72783E+00  3.38661E+00  1.21628E-01  1.37948E+00 -2.27809E+00  1.97030E+00  1.71368E+00  1.57087E+00
   1.21236E+00 -6.22144E-02  5.10549E-01 -5.37783E-01  7.89723E+00  4.71894E-01  2.74939E+00  4.09366E+00 -6.44968E-01 -1.60632E+00
   3.74464E+00  6.13768E+00  6.18098E+00  5.73689E+00  6.82358E+00  5.85147E+00  1.06222E+01  1.03694E+01  1.37370E+01  8.54340E+00
   1.73300E+01  1.80257E+01  2.34419E+01  2.69904E+01  2.86426E+01  2.79040E+01  3.58582E+01  4.30074E+01  4.66750E+01  5.50759E+01
   4.70078E+01  4.66949E+01  4.43883E+01  3.83530E+01  3.27892E+01  2.49400E+01  2.38509E+01  1.27473E+01  6.88228E+00  1.07487E+01
   1.01230E+01  6.53265E+00  5.48133E+00  3.75781E+00  2.32454E+00  2.36413E+00 -1.95447E+00  6.78289E+00  4.98489E+00  5.36470E+00
   2.57312E+00  2.33812E+00  3.35895E+00  1.02900E+01  5.97260E+00  4.58099E+00  8.09931E+00  4.90940E+00  3.93156E+00  3.64159E+00
   5.35166E+00  1.53501E+00  3.20466E+00  4.41112E+00  1.77573E+00  1.07596E+00  2.31756E+00  3.26207E+00  6.82042E+00  4.08628E+00
   6.40876E+00  9.73667E+00  1.09025E+01  5.13513E+00  3.72788E+00  9.31351E+00  4.05550E+00  8.55128E+00  5.00383E+00  7.08763E+00
   1.11824E+01  1.03658E+01  1.07699E+01  6.92503E+00  1.41415E+01  1.69093E+01  1.23010E+01  1.20442E+01  1.31267E+01  1.82967E+01
   1.30502E+01  1.37036E+01  1.47174E+01  1.25362E+01  1.20947E+01  1.37227E+01  1.03129E+01  1.12546E+01  1.02815E+01  1.11224E+01
   9.52000E+00  1.22696E+01  1.31031E+01  1.35834E+01  1.25918E+01  1.21664E+01  1.36587E+01  1.23829E+01  1.38061E+01  1.11942E+01
   1.55075E+01  1.50372E+01  1.67938E+01  1.24648E+01  1.66237E+01  1.21451E+01  1.33617E+01  1.44413E+01  1.50934E+01  1.91475E+01
   1.35512E+01  8.11998E+00  5.17782E+00  8.32849E+00  2.29382E+00  5.48711E+00  8.37766E+00  2.82906E+00  5.00060E+00  7.07228E+00
   3.37862E+00  7.35269E+00  7.43261E+00  6.93045E+00  2.93079E+00  8.18069E+00  5.16381E+00  1.04684E+00  4.94906E+00  9.96839E+00
   1.88013E+00  2.76465E+00  4.54408E+00  5.37419E+00  6.48346E+00  6.35643E+00  6.12534E+00  6.95623E+00  1.74696E+00  8.32945E-01
   4.28110E+00  7.22623E+00  4.67525E+00  6.79510E+00  5.06087E+00  9.21430E+00  5.57720E+00  2.10644E+00  3.83160E+00  5.87858E+00
   2.03692E+00  6.66625E+00  7.70301E+00  1.05144E+01  8.46032E+00  5.97031E+00  6.52843E+00  3.54296E+00  8.86487E+00  1.09184E+01
   1.07076E+01  1.07713E+01  1.06446E+01  6.56218E+00  9.60326E+00  9.65777E+00  8.41386E+00  1.07180E+01  7.22796E+00  5.47464E+00
   9.01632E+00  9.31842E+00  1.03987E+01  5.90001E+00  4.43120E+00  5.21161E+00  1.33522E+00  2.02269E+00  1.00617E+00  7.79032E+00
   6.85884E+00  5.19829E+00  5.10643E+00 -1.52432E+00  1.92483E+00  4.51628E+00  1.20503E+00 -1.07665E+00  1.00242E+00  5.23198E+00
  -3.42198E+00  3.92688E-01  2.54174E+00  9.89989E-01  1.74020E+00  3.38948E-01  8.03203E+00 -1.15182E-01  4.39459E+00  1.09438E+00
   9.85314E-01  2.48110E+00  2.10151E+00  2.66981E+00  3.96973E-01  2.80976E+00  5.30860E-01  1.04265E-01  3.29767E+00  2.95872E+00
   3.00879E+00  1.19058E+00 -8.87110E-01  6.23426E+00  2.59789E+00 -8.27659E-01 -2.19019E+00  4.01813E+00  5.37698E+00  2.67175E+00
  -9.09850E-01  4.18388E+00  1.48138E+00  1.50138E-01 -3.49088E-02 -1.44261E+00  7.50688E-01  2.58764E+00  4.03879E+00  8.86773E-02
  -2.35022E+00  1.05936E+00  7.10333E-01 -5.35586E+00  4.68611E+00  2.51074E+00 -2.69904E+00  2.25661E+00  2.42481E+00  7.33814E+00
   2.42780E+00 -3.73111E+00 -1.01635E+00 -4.83651E+00  5.92789E-01 -1.51570E+00  3.87384E-01 -2.32107E+00  8.20640E-01  2.37279E+00
   7.28207E-02 -2.57168E+00 -4.53888E-02 -5.53322E-01  1.89676E+00 -2.01060E+00  7.47847E-01 -3.04344E+00
 NY points of the fit to the data follow
  -1.03350E+01 -9.63842E+00 -8.80968E+00 -7.81598E+00 -6.72629E+00 -5.67259E+00 -4.81858E+00 -4.30010E+00 -4.15132E+00 -4.32588E+00
  -4.76193E+00 -5.39318E+00 -6.13851E+00 -6.90741E+00 -7.62877E+00 -8.20487E+00 -8.57896E+00 -8.82590E+00 -9.07147E+00 -9.30549E+00
  -9.26059E+00 -8.96498E+00 -8.61641E+00 -8.23769E+00 -7.75930E+00 -7.13815E+00 -6.41383E+00 -5.63312E+00 -4.85742E+00 -4.19872E+00
  -3.73397E+00 -3.47823E+00 -3.42641E+00 -3.61141E+00 -4.02913E+00 -4.60210E+00 -5.25807E+00 -5.89247E+00 -6.38428E+00 -6.69266E+00
  -6.87649E+00 -6.96665E+00 -6.92722E+00 -6.78759E+00 -6.60759E+00 -6.42962E+00 -6.28613E+00 -6.22310E+00 -6.27591E+00 -6.42291E+00
  -6.62691E+00 -6.87493E+00 -7.15331E+00 -7.43565E+00 -7.69062E+00 -7.90142E+00 -8.04492E+00 -8.10574E+00 -8.12660E+00 -8.12680E+00
  -8.11996E+00 -8.12050E+00 -8.12341E+00 -8.12228E+00 -8.13263E+00 -8.12932E+00 -8.06188E+00 -7.95246E+00 -7.83880E+00 -7.73283E+00
  -7.63667E+00 -7.54754E+00 -7.45344E+00 -7.36730E+00 -7.33447E+00 -7.38269E+00 -7.43407E+00 -7.37266E+00 -7.24209E+00 -7.08178E+00
  -6.87110E+00 -6.55581E+00 -6.11628E+00 -5.60603E+00 -5.14078E+00 -4.84827E+00 -4.80277E+00 -5.00047E+00 -5.38630E+00 -5.88576E+00
  -6.41734E+00 -6.46955E+00 -5.33918E+00 -3.37365E+00 -9.54629E-01  1.90986E+00  5.34507E+00  9.28553E+00  1.34120E+01  1.71850E+01
   1.99673E+01  2.13495E+01  2.12832E+01  1.99102E+01  1.74450E+01  1.41712E+01  1.04618E+01  6.73616E+00  3.37708E+00  6.84247E-01
  -1.25527E+00 -2.63100E+00 -3.70565E+00 -4.51020E+00 -4.96496E+00 -5.11730E+00 -4.48776E+00 -2.98372E+00 -1.06786E+00  1.05357E+00
   3.46912E+00  6.29134E+00  9.42703E+00  1.25700E+01  1.52701E+01  1.70604E+01  1.77290E+01  1.73162E+01  1.59458E+01  1.37986E+01
   1.11155E+01  8.18976E+00  5.33253E+00  2.82486E+00  8.81150E-01 -4.90908E-01 -1.45723E+00 -2.14230E+00 -2.49322E+00 -2.57724E+00
  -2.55647E+00 -2.50169E+00 -2.46036E+00 -2.47526E+00 -2.57266E+00 -2.74828E+00 -2.97470E+00 -3.22789E+00 -3.48236E+00 -3.71806E+00
  -3.93283E+00 -4.14856E+00 -4.38163E+00 -4.60678E+00 -4.79955E+00 -4.94790E+00 -5.07048E+00 -5.21035E+00 -5.37109E+00 -5.52814E+00
  -5.65542E+00 -5.74496E+00 -5.81148E+00 -5.87745E+00 -5.96229E+00 -6.08039E+00 -6.25146E+00 -6.49077E+00 -6.75437E+00 -7.01331E+00
  -7.26919E+00 -7.53740E+00 -7.81400E+00 -8.05059E+00 -8.21112E+00 -8.30180E+00 -8.35322E+00 -8.39903E+00 -8.44162E+00 -8.42314E+00
  -8.30345E+00 -8.08356E+00 -7.78675E+00 -7.43392E+00 -7.02550E+00 -6.53758E+00 -5.96021E+00 -5.32671E+00 -4.72643E+00 -4.21974E+00
  -3.82080E+00 -3.53619E+00 -3.36831E+00 -3.30838E+00 -3.30014E+00 -3.27974E+00 -3.20507E+00 -3.05097E+00 -2.81283E+00 -2.51300E+00
  -2.22489E+00 -1.98033E+00 -1.80834E+00 -1.77730E+00 -1.91845E+00 -2.18273E+00 -2.46885E+00 -2.71831E+00 -2.92214E+00 -3.03812E+00
  -3.02104E+00 -2.84709E+00 -2.55860E+00 -2.23705E+00 -1.93533E+00 -1.68659E+00 -1.53455E+00 -1.50231E+00 -1.57357E+00 -1.68550E+00
  -1.75629E+00 -1.73787E+00 -1.60613E+00 -1.31411E+00 -8.59239E-01 -3.10093E-01  2.46860E-01  7.91424E-01  1.32664E+00  1.81212E+00
   2.22621E+00  2.59902E+00  2.96808E+00  3.32350E+00  3.65326E+00  3.96147E+00  4.25149E+00  4.50365E+00  4.71245E+00  4.90067E+00
   5.10794E+00  5.38375E+00  5.76435E+00  6.25851E+00  6.85426E+00  7.55329E+00  8.37430E+00  9.26088E+00  1.01557E+01  1.11666E+01
   1.29445E+01  1.62935E+01  2.05103E+01  2.48948E+01  2.93671E+01  3.41045E+01  3.90601E+01  4.37767E+01  4.75128E+01  4.95032E+01
   4.93422E+01  4.71370E+01  4.32271E+01  3.80148E+01  3.19729E+01  2.56583E+01  1.96501E+01  1.44650E+01  1.04919E+01  7.77551E+00
   5.95821E+00  4.63256E+00  3.71798E+00  3.27190E+00  3.01382E+00  2.80500E+00  2.61946E+00  2.44768E+00  2.28535E+00  2.13836E+00
   2.01423E+00  1.91984E+00  1.86143E+00  1.84292E+00  1.86330E+00  1.92077E+00  2.01409E+00  2.14157E+00  2.30115E+00  2.49061E+00
   2.70875E+00  2.95522E+00  3.22916E+00  3.52902E+00  3.85328E+00  4.19962E+00  4.56462E+00  4.94468E+00  5.33601E+00  5.73403E+00
   6.13356E+00  6.52937E+00  6.91604E+00  7.28850E+00  7.64269E+00  7.97559E+00  8.28511E+00  8.57081E+00  8.83396E+00  9.07771E+00
   9.30688E+00  9.52806E+00  9.74999E+00  9.98390E+00  1.02447E+01  1.05548E+01  1.09548E+01  1.15159E+01  1.21623E+01  1.26954E+01
   1.30884E+01  1.33816E+01  1.35675E+01  1.35585E+01  1.32386E+01  1.26425E+01  1.19787E+01  1.13217E+01  1.07197E+01  1.02601E+01
   1.00724E+01  1.02715E+01  1.08949E+01  1.18741E+01  1.30445E+01  1.42072E+01  1.51818E+01  1.58356E+01  1.61203E+01  1.60652E+01
   1.57016E+01  1.50726E+01  1.42897E+01  1.34767E+01  1.27232E+01  1.20441E+01  1.14096E+01  1.08243E+01  1.03198E+01  9.87282E+00
   9.46568E+00  9.09090E+00  8.74403E+00  8.42167E+00  8.12071E+00  7.83829E+00  7.57156E+00  7.31786E+00  7.07473E+00  6.84008E+00
   6.61215E+00  6.38972E+00  6.17194E+00  5.95851E+00  5.74954E+00  5.54569E+00  5.34793E+00  5.15769E+00  4.97656E+00  4.80644E+00
   4.64930E+00  4.50730E+00  4.38256E+00  4.27724E+00  4.19336E+00  4.13290E+00  4.09766E+00  4.08934E+00  4.10946E+00  4.15935E+00
   4.24006E+00  4.35247E+00  4.49716E+00  4.67441E+00  4.88411E+00  5.12571E+00  5.39809E+00  5.69957E+00  6.02774E+00  6.37949E+00
   6.75077E+00  7.13670E+00  7.53149E+00  7.92850E+00  8.32034E+00  8.69900E+00  9.05599E+00  9.38268E+00  9.67047E+00  9.91126E+00
   1.00977E+01  1.02234E+01  1.02836E+01  1.02748E+01  1.01955E+01  1.00461E+01  9.82889E+00  9.54799E+00  9.20908E+00  8.81931E+00
   8.38687E+00  7.92076E+00  7.43029E+00  6.92481E+00  6.41329E+00  5.90415E+00  5.40493E+00  4.92216E+00  4.46122E+00  4.02631E+00
   3.62047E+00  3.24569E+00  2.90292E+00  2.59230E+00  2.31321E+00  2.06448E+00  1.84449E+00  1.65134E+00  1.48297E+00  1.33722E+00
   1.21191E+00  1.10495E+00  1.01433E+00  9.38207E-01  8.74872E-01  8.22795E-01  7.80557E-01  7.46944E-01  7.20852E-01  7.01358E-01
   6.87613E-01  6.78907E-01  6.74583E-01  6.74114E-01  6.77016E-01  6.82906E-01  6.91410E-01  7.02233E-01  7.15080E-01  7.29743E-01
   7.46005E-01  7.63717E-01  7.82698E-01  8.02824E-01  8.23952E-01  8.46003E-01  8.68871E-01  8.92496E-01  9.16776E-01  9.41660E-01
   9.67070E-01  9.92984E-01  1.01934E+00  1.04612E+00  1.07325E+00  1.10072E+00  1.12849E+00  1.15656E+00  1.18488E+00  1.21346E+00
   1.24224E+00  1.27123E+00  1.30041E+00  1.32979E+00  1.35934E+00  1.38905E+00  1.41891E+00  1.44893E+00  1.47909E+00  1.50941E+00
   1.53986E+00  1.57047E+00  1.60121E+00  1.63211E+00  1.66316E+00  1.69440E+00  1.72579E+00  1.75737E+00  1.78914E+00  1.82113E+00
   1.85335E+00  1.88584E+00  1.91861E+00  1.95169E+00  1.98512E+00  2.01896E+00  2.05325E+00  2.08808E+00
 NY background values follow
    -1.011E+01   -1.009E+01   -1.007E+01   -1.004E+01   -1.002E+01   -1.000E+01   -9.979E+00   -9.957E+00   -9.935E+00   -9.913E+00
    -9.891E+00   -9.868E+00   -9.846E+00   -9.824E+00   -9.802E+00   -9.779E+00   -9.757E+00   -9.734E+00   -9.711E+00   -9.689E+00
    -9.666E+00   -9.643E+00   -9.620E+00   -9.597E+00   -9.574E+00   -9.551E+00   -9.528E+00   -9.505E+00   -9.482E+00   -9.459E+00
    -9.435E+00   -9.412E+00   -9.388E+00   -9.365E+00   -9.341E+00   -9.318E+00   -9.294E+00   -9.270E+00   -9.247E+00   -9.223E+00
    -9.199E+00   -9.175E+00   -9.151E+00   -9.127E+00   -9.103E+00   -9.079E+00   -9.054E+00   -9.030E+00   -9.006E+00   -8.981E+00
    -8.957E+00   -8.933E+00   -8.908E+00   -8.883E+00   -8.859E+00   -8.834E+00   -8.809E+00   -8.785E+00   -8.760E+00   -8.735E+00
    -8.710E+00   -8.685E+00   -8.660E+00   -8.635E+00   -8.610E+00   -8.584E+00   -8.559E+00   -8.534E+00   -8.509E+00   -8.483E+00
    -8.458E+00   -8.432E+00   -8.407E+00   -8.381E+00   -8.356E+00   -8.330E+00   -8.304E+00   -8.278E+00   -8.253E+00   -8.227E+00
    -8.201E+00   -8.175E+00   -8.149E+00   -8.123E+00   -8.097E+00   -8.071E+00   -8.045E+00   -8.018E+00   -7.992E+00   -7.966E+00
    -7.939E+00   -7.913E+00   -7.887E+00   -7.860E+00   -7.834E+00   -7.807E+00   -7.780E+00   -7.754E+00   -7.727E+00   -7.700E+00
    -7.674E+00   -7.647E+00   -7.620E+00   -7.593E+00   -7.566E+00   -7.539E+00   -7.512E+00   -7.485E+00   -7.458E+00   -7.431E+00
    -7.404E+00   -7.376E+00   -7.349E+00   -7.322E+00   -7.295E+00   -7.267E+00   -7.240E+00   -7.212E+00   -7.185E+00   -7.157E+00
    -7.130E+00   -7.102E+00   -7.075E+00   -7.047E+00   -7.019E+00   -6.992E+00   -6.964E+00   -6.936E+00   -6.908E+00   -6.880E+00
    -6.852E+00   -6.824E+00   -6.797E+00   -6.769E+00   -6.740E+00   -6.712E+00   -6.684E+00   -6.656E+00   -6.628E+00   -6.600E+00
    -6.572E+00   -6.543E+00   -6.515E+00   -6.487E+00   -6.458E+00   -6.430E+00   -6.401E+00   -6.373E+00   -6.345E+00   -6.316E+00
    -6.288E+00   -6.259E+00   -6.230E+00   -6.202E+00   -6.173E+00   -6.144E+00   -6.116E+00   -6.087E+00   -6.058E+00   -6.029E+00
    -6.001E+00   -5.972E+00   -5.943E+00   -5.914E+00   -5.885E+00   -5.856E+00   -5.827E+00   -5.798E+00   -5.769E+00   -5.740E+00
    -5.711E+00   -5.682E+00   -5.653E+00   -5.623E+00   -5.594E+00   -5.565E+00   -5.536E+00   -5.507E+00   -5.477E+00   -5.448E+00
    -5.419E+00   -5.389E+00   -5.360E+00   -5.331E+00   -5.301E+00   -5.272E+00   -5.242E+00   -5.213E+00   -5.183E+00   -5.154E+00
    -5.124E+00   -5.095E+00   -5.065E+00   -5.036E+00   -5.006E+00   -4.976E+00   -4.947E+00   -4.917E+00   -4.887E+00   -4.858E+00
    -4.828E+00   -4.798E+00   -4.769E+00   -4.739E+00   -4.709E+00   -4.679E+00   -4.649E+00   -4.620E+00   -4.590E+00   -4.560E+00
    -4.530E+00   -4.500E+00   -4.470E+00   -4.440E+00   -4.410E+00   -4.380E+00   -4.350E+00   -4.320E+00   -4.290E+00   -4.260E+00
    -4.230E+00   -4.200E+00   -4.170E+00   -4.140E+00   -4.110E+00   -4.080E+00   -4.050E+00   -4.020E+00   -3.990E+00   -3.960E+00
    -3.930E+00   -3.899E+00   -3.869E+00   -3.839E+00   -3.809E+00   -3.779E+00   -3.749E+00   -3.718E+00   -3.688E+00   -3.658E+00
    -3.628E+00   -3.598E+00   -3.567E+00   -3.537E+00   -3.507E+00   -3.477E+00   -3.446E+00   -3.416E+00   -3.386E+00   -3.356E+00
    -3.325E+00   -3.295E+00   -3.265E+00   -3.234E+00   -3.204E+00   -3.174E+00   -3.143E+00   -3.113E+00   -3.083E+00   -3.052E+00
    -3.022E+00   -2.992E+00   -2.962E+00   -2.931E+00   -2.901E+00   -2.871E+00   -2.840E+00   -2.810E+00   -2.779E+00   -2.749E+00
    -2.719E+00   -2.688E+00   -2.658E+00   -2.628E+00   -2.597E+00   -2.567E+00   -2.537E+00   -2.506E+00   -2.476E+00   -2.446E+00
    -2.415E+00   -2.385E+00   -2.355E+00   -2.324E+00   -2.294E+00   -2.264E+00   -2.233E+00   -2.203E+00   -2.173E+00   -2.143E+00
    -2.112E+00   -2.082E+00   -2.052E+00   -2.021E+00   -1.991E+00   -1.961E+00   -1.931E+00   -1.900E+00   -1.870E+00   -1.840E+00
    -1.810E+00   -1.779E+00   -1.749E+00   -1.719E+00   -1.689E+00   -1.658E+00   -1.628E+00   -1.598E+00   -1.568E+00   -1.538E+00
    -1.508E+00   -1.477E+00   -1.447E+00   -1.417E+00   -1.387E+00   -1.357E+00   -1.327E+00   -1.297E+00   -1.267E+00   -1.237E+00
    -1.207E+00   -1.176E+00   -1.146E+00   -1.116E+00   -1.086E+00   -1.056E+00   -1.026E+00   -9.965E-01   -9.665E-01   -9.366E-01
    -9.066E-01   -8.767E-01   -8.468E-01   -8.169E-01   -7.871E-01   -7.572E-01   -7.274E-01   -6.976E-01   -6.678E-01   -6.380E-01
    -6.082E-01   -5.784E-01   -5.487E-01   -5.190E-01   -4.893E-01   -4.596E-01   -4.299E-01   -4.003E-01   -3.706E-01   -3.410E-01
    -3.114E-01   -2.818E-01   -2.523E-01   -2.227E-01   -1.932E-01   -1.637E-01   -1.342E-01   -1.048E-01   -7.535E-02   -4.593E-02
    -1.654E-02    1.284E-02    4.219E-02    7.152E-02    1.008E-01    1.301E-01    1.594E-01    1.886E-01    2.178E-01    2.470E-01
     2.762E-01    3.053E-01    3.345E-01    3.636E-01    3.926E-01    4.217E-01    4.507E-01    4.797E-01    5.087E-01    5.376E-01
     5.666E-01    5.954E-01    6.243E-01    6.532E-01    6.820E-01    7.108E-01    7.395E-01    7.683E-01    7.970E-01    8.256E-01
     8.543E-01    8.829E-01    9.115E-01    9.401E-01    9.686E-01    9.971E-01    1.026E+00    1.054E+00    1.082E+00    1.111E+00
     1.139E+00    1.168E+00    1.196E+00    1.224E+00    1.252E+00    1.280E+00    1.309E+00    1.337E+00    1.365E+00    1.393E+00
     1.421E+00    1.449E+00    1.477E+00    1.505E+00    1.533E+00    1.561E+00    1.589E+00    1.616E+00    1.644E+00    1.672E+00
     1.700E+00    1.727E+00    1.755E+00    1.782E+00    1.810E+00    1.837E+00    1.865E+00    1.892E+00    1.920E+00    1.947E+00
     1.974E+00    2.002E+00    2.029E+00    2.056E+00    2.083E+00    2.111E+00    2.138E+00    2.165E+00    2.192E+00    2.219E+00
     2.246E+00    2.273E+00    2.299E+00    2.326E+00    2.353E+00    2.380E+00    2.406E+00    2.433E+00    2.460E+00    2.486E+00
     2.513E+00    2.539E+00    2.566E+00    2.592E+00    2.619E+00    2.645E+00    2.671E+00    2.697E+00    2.724E+00    2.750E+00
     2.776E+00    2.802E+00    2.828E+00    2.854E+00    2.880E+00    2.906E+00    2.932E+00    2.957E+00    2.983E+00    3.009E+00
     3.034E+00    3.060E+00    3.086E+00    3.111E+00    3.137E+00    3.162E+00    3.187E+00    3.213E+00    3.238E+00    3.263E+00
     3.288E+00    3.313E+00    3.338E+00    3.364E+00    3.388E+00    3.413E+00    3.438E+00    3.463E+00    3.488E+00    3.513E+00
     3.537E+00    3.562E+00    3.586E+00    3.611E+00    3.635E+00    3.660E+00    3.684E+00    3.709E+00
 Ala      Conc. = 5.55E+02
