 LCModel (Version 6.3-1L) Copyright: S.W. Provencher.          Ref.: Magn. Reson. Med. 30:672-679 (1993).                
 Slice#2 Row#3 Col#11  K_02_press_1_raw_act
 36 lines in following concentration table = NCONC+1
    Conc.  %SD /Cr+PCr  Metabolite                                         
 9.30E+03  19%   5.795 Ala                                                 
    0.000 999%   0.000 Asp                                                 
    0.000 999%   0.000 Cr                                                  
 1.60E+03   9%   1.000 PCr                                                 
  135.134 109% 8.4E-02 GABA                                                
    0.000 999%   0.000 Glc                                                 
    0.000 999%   0.000 Gln                                                 
 2.98E+03  44%   1.858 Glu                                                 
  305.723  17%   0.191 GPC                                                 
    0.000 999%   0.000 PCh                                                 
 1.50E+03  15%   0.935 GSH                                                 
 3.13E+03  24%   1.949 Ins                                                 
    0.000 999%   0.000 Lac                                                 
    0.000 999%   0.000 NAA                                                 
 1.93E+03  13%   1.205 NAAG                                                
   40.123 106% 2.5E-02 Scyllo                                              
    0.000 999%   0.000 Tau                                                 
  137.495 252% 8.6E-02 -CrCH2                                              
  305.723  17%   0.191 GPC+PCh                                             
 1.93E+03  13%   1.205 NAA+NAAG                                            
 1.60E+03   9%   1.000 Cr+PCr                                              
 2.98E+03  44%   1.858 Glu+Gln                                             
 4.60E+04  11%  28.646 Lip13a                                              
    0.000 999%   0.000 Lip13b                                              
 2.02E+03  45%   1.261 Lip09                                               
 1.85E+03  29%   1.153 MM09                                                
 4.09E+03  31%   2.552 Lip20                                               
    0.000 999%   0.000 MM20                                                
  310.146 166%   0.193 MM12                                                
 7.88E+03   6%   4.912 MM14                                                
 5.13E+03  23%   3.194 MM17                                                
 4.60E+04  11%  28.646 Lip13a+Lip13b                                       
 5.42E+04   9%  33.751 MM14+Lip13a+Lip13b+MM12                             
 3.87E+03  23%   2.413 MM09+Lip09                                          
 4.09E+03  25%   2.552 MM20+Lip20                                          
   6 lines in following misc. output table
  FWHM = 0.153 ppm    S/N =  17                                            
  Data shift = 0.161 ppm                                                   
  Ph:  72 deg      -6.9 deg/ppm                                            
  alphaB,S = 7.7E-01,   3.6E+02                                            
    9 spline knots.   Ns = 9(2)                                            
  (13) 2 infls.   ( 7) 1 extrs.                                            
  498 points on ppm-axis = NY
      4.000000     3.992357     3.984714     3.977070     3.969427     3.961784     3.954141     3.946497     3.938854     3.931211
      3.923568     3.915925     3.908281     3.900638     3.892995     3.885352     3.877708     3.870065     3.862422     3.854779
      3.847136     3.839492     3.831849     3.824206     3.816563     3.808919     3.801276     3.793633     3.785990     3.778347
      3.770703     3.763060     3.755417     3.747774     3.740130     3.732487     3.724844     3.717201     3.709558     3.701914
      3.694271     3.686628     3.678985     3.671341     3.663698     3.656055     3.648412     3.640769     3.633125     3.625482
      3.617839     3.610196     3.602552     3.594909     3.587266     3.579623     3.571980     3.564336     3.556693     3.549050
      3.541407     3.533763     3.526120     3.518477     3.510834     3.503191     3.495547     3.487904     3.480261     3.472618
      3.464974     3.457331     3.449688     3.442045     3.434402     3.426758     3.419115     3.411472     3.403829     3.396185
      3.388542     3.380899     3.373256     3.365613     3.357969     3.350326     3.342683     3.335040     3.327396     3.319753
      3.312110     3.304467     3.296824     3.289180     3.281537     3.273894     3.266251     3.258607     3.250964     3.243321
      3.235678     3.228034     3.220391     3.212748     3.205105     3.197462     3.189818     3.182175     3.174532     3.166889
      3.159245     3.151602     3.143959     3.136316     3.128673     3.121029     3.113386     3.105743     3.098100     3.090456
      3.082813     3.075170     3.067527     3.059884     3.052240     3.044597     3.036954     3.029311     3.021667     3.014024
      3.006381     2.998738     2.991095     2.983451     2.975808     2.968165     2.960522     2.952878     2.945235     2.937592
      2.929949     2.922306     2.914662     2.907019     2.899376     2.891733     2.884089     2.876446     2.868803     2.861160
      2.853517     2.845873     2.838230     2.830587     2.822944     2.815300     2.807657     2.800014     2.792371     2.784728
      2.777084     2.769441     2.761798     2.754155     2.746511     2.738868     2.731225     2.723582     2.715939     2.708295
      2.700652     2.693009     2.685366     2.677722     2.670079     2.662436     2.654793     2.647150     2.639506     2.631863
      2.624220     2.616577     2.608933     2.601290     2.593647     2.586004     2.578361     2.570717     2.563074     2.555431
      2.547788     2.540144     2.532501     2.524858     2.517215     2.509572     2.501928     2.494285     2.486642     2.478999
      2.471355     2.463712     2.456069     2.448426     2.440783     2.433139     2.425496     2.417853     2.410210     2.402566
      2.394923     2.387280     2.379637     2.371994     2.364350     2.356707     2.349064     2.341421     2.333777     2.326134
      2.318491     2.310848     2.303205     2.295561     2.287918     2.280275     2.272632     2.264988     2.257345     2.249702
      2.242059     2.234416     2.226772     2.219129     2.211486     2.203843     2.196199     2.188556     2.180913     2.173270
      2.165627     2.157983     2.150340     2.142697     2.135054     2.127410     2.119767     2.112124     2.104481     2.096838
      2.089194     2.081551     2.073908     2.066265     2.058621     2.050978     2.043335     2.035692     2.028049     2.020405
      2.012762     2.005119     1.997476     1.989833     1.982190     1.974546     1.966903     1.959260     1.951617     1.943974
      1.936331     1.928688     1.921045     1.913402     1.905759     1.898115     1.890472     1.882829     1.875186     1.867543
      1.859900     1.852257     1.844614     1.836971     1.829327     1.821684     1.814041     1.806398     1.798755     1.791112
      1.783469     1.775826     1.768183     1.760540     1.752896     1.745253     1.737610     1.729967     1.722324     1.714681
      1.707038     1.699395     1.691752     1.684108     1.676465     1.668822     1.661179     1.653536     1.645893     1.638250
      1.630607     1.622964     1.615321     1.607677     1.600034     1.592391     1.584748     1.577105     1.569462     1.561819
      1.554176     1.546533     1.538890     1.531246     1.523603     1.515960     1.508317     1.500674     1.493031     1.485388
      1.477745     1.470102     1.462458     1.454815     1.447172     1.439529     1.431886     1.424243     1.416600     1.408957
      1.401314     1.393671     1.386027     1.378384     1.370741     1.363098     1.355455     1.347812     1.340169     1.332526
      1.324883     1.317240     1.309596     1.301953     1.294310     1.286667     1.279024     1.271381     1.263738     1.256095
      1.248452     1.240808     1.233165     1.225522     1.217879     1.210236     1.202593     1.194950     1.187307     1.179664
      1.172021     1.164377     1.156734     1.149091     1.141448     1.133805     1.126162     1.118519     1.110876     1.103233
      1.095590     1.087946     1.080303     1.072660     1.065017     1.057374     1.049731     1.042088     1.034445     1.026802
      1.019158     1.011515     1.003872     0.996229     0.988586     0.980943     0.973300     0.965657     0.958014     0.950371
      0.942727     0.935084     0.927441     0.919798     0.912155     0.904512     0.896869     0.889226     0.881583     0.873940
      0.866296     0.858653     0.851010     0.843367     0.835724     0.828081     0.820438     0.812795     0.805152     0.797508
      0.789865     0.782222     0.774579     0.766936     0.759293     0.751650     0.744007     0.736364     0.728721     0.721077
      0.713434     0.705791     0.698148     0.690505     0.682862     0.675219     0.667576     0.659933     0.652290     0.644646
      0.637003     0.629360     0.621717     0.614074     0.606431     0.598788     0.591145     0.583502     0.575858     0.568215
      0.560572     0.552929     0.545286     0.537643     0.530000     0.522357     0.514714     0.507071     0.499427     0.491784
      0.484141     0.476498     0.468855     0.461212     0.453569     0.445925     0.438282     0.430639     0.422996     0.415353
      0.407710     0.400067     0.392424     0.384780     0.377137     0.369494     0.361851     0.354208     0.346565     0.338922
      0.331278     0.323635     0.315992     0.308349     0.300706     0.293063     0.285420     0.277777     0.270133     0.262490
      0.254847     0.247204     0.239561     0.231918     0.224275     0.216631     0.208988     0.201345
 NY phased data points follow
  -1.48496E+01 -1.44709E+01 -1.55876E+01 -1.15780E+01 -1.21154E+01 -1.49578E+01 -1.71112E+01 -1.87421E+01 -1.38145E+01 -1.54540E+01
  -1.48886E+01 -1.51165E+01 -1.62877E+01 -1.82561E+01 -1.69035E+01 -1.39856E+01 -1.64347E+01 -1.26704E+01 -1.64698E+01 -1.85040E+01
  -1.96492E+01 -1.81286E+01 -1.77280E+01 -1.38475E+01 -1.85321E+01 -1.45596E+01 -1.84982E+01 -1.54277E+01 -1.82962E+01 -1.31939E+01
  -1.38782E+01 -1.37524E+01 -1.51334E+01 -1.24490E+01 -1.32305E+01 -9.12546E+00 -7.89643E+00 -1.07448E+01 -1.58959E+01 -9.89156E+00
  -1.15393E+01 -1.12992E+01 -1.15137E+01 -1.32260E+01 -1.64711E+01 -1.35622E+01 -1.22384E+01 -1.17637E+01 -1.34739E+01 -1.73170E+01
  -1.55255E+01 -1.79907E+01 -1.77870E+01 -1.88874E+01 -1.91117E+01 -2.22209E+01 -2.38937E+01 -2.09935E+01 -2.07773E+01 -2.33188E+01
  -1.97283E+01 -2.39971E+01 -2.18574E+01 -2.46297E+01 -2.43844E+01 -2.15820E+01 -2.63189E+01 -2.68295E+01 -2.70140E+01 -2.93234E+01
  -2.66331E+01 -3.01886E+01 -2.59086E+01 -2.26796E+01 -2.87808E+01 -2.91828E+01 -2.61609E+01 -2.66985E+01 -3.22725E+01 -2.72922E+01
  -2.56404E+01 -2.78175E+01 -2.65423E+01 -2.79407E+01 -2.30637E+01 -2.35662E+01 -2.70482E+01 -2.30153E+01 -1.74667E+01 -1.79867E+01
  -1.71365E+01 -1.85679E+01 -1.80576E+01 -1.66768E+01 -1.84549E+01 -1.78674E+01 -2.20077E+01 -2.26624E+01 -1.75621E+01 -2.05840E+01
  -2.26016E+01 -2.63874E+01 -2.47203E+01 -2.85574E+01 -2.73732E+01 -2.00227E+01 -2.13310E+01 -2.16333E+01 -1.93865E+01 -2.17947E+01
  -1.67140E+01 -1.63796E+01 -1.29512E+01 -1.21858E+01 -6.62087E+00 -1.29684E+01 -6.42220E+00 -7.38777E+00 -5.71655E+00 -7.38852E+00
  -6.24212E+00 -7.97319E+00 -1.29390E+01 -9.91568E+00 -6.48995E+00 -8.97849E+00 -9.88334E+00 -1.29276E+01 -1.51495E+01 -1.20845E+01
  -1.49849E+01 -1.70359E+01 -1.57623E+01 -1.63988E+01 -1.63578E+01 -1.30840E+01 -1.51585E+01 -1.68826E+01 -1.71630E+01 -1.93303E+01
  -1.93123E+01 -2.13945E+01 -1.97479E+01 -1.80615E+01 -2.26861E+01 -1.84032E+01 -1.63215E+01 -2.50026E+01 -1.99679E+01 -2.24587E+01
  -1.95963E+01 -2.37489E+01 -2.28102E+01 -2.59779E+01 -2.36128E+01 -2.88563E+01 -2.96271E+01 -2.71130E+01 -2.88457E+01 -3.59493E+01
  -2.76750E+01 -3.37985E+01 -3.58186E+01 -3.27606E+01 -3.21897E+01 -3.59677E+01 -3.80739E+01 -3.68291E+01 -3.90235E+01 -3.45877E+01
  -3.93039E+01 -4.21661E+01 -3.99420E+01 -3.57500E+01 -3.67427E+01 -3.94192E+01 -4.05139E+01 -3.94907E+01 -4.09378E+01 -4.44589E+01
  -3.80232E+01 -4.08619E+01 -3.99623E+01 -4.25089E+01 -4.24192E+01 -4.50723E+01 -4.55980E+01 -4.80359E+01 -4.76126E+01 -4.65988E+01
  -4.65334E+01 -4.52077E+01 -4.61845E+01 -4.70152E+01 -4.80201E+01 -4.88154E+01 -4.53881E+01 -4.56921E+01 -4.38410E+01 -4.50947E+01
  -4.97892E+01 -4.77164E+01 -4.68384E+01 -4.70234E+01 -4.55121E+01 -4.67552E+01 -4.87495E+01 -4.62615E+01 -5.14468E+01 -4.72507E+01
  -4.76093E+01 -4.70724E+01 -5.00481E+01 -4.74354E+01 -4.81792E+01 -4.78479E+01 -4.88494E+01 -4.79180E+01 -4.75237E+01 -4.91154E+01
  -4.83535E+01 -5.28613E+01 -5.35320E+01 -4.97421E+01 -4.59558E+01 -5.14474E+01 -5.33823E+01 -4.73548E+01 -5.21094E+01 -4.99207E+01
  -5.11906E+01 -5.13067E+01 -5.19297E+01 -4.91869E+01 -5.57558E+01 -5.37039E+01 -5.19016E+01 -4.97635E+01 -4.68408E+01 -4.00268E+01
  -3.55837E+01 -3.53762E+01 -3.45656E+01 -3.39488E+01 -2.61762E+01 -2.34163E+01 -2.07040E+01 -1.64722E+01 -1.45284E+01 -1.24727E+01
  -1.48333E+01 -1.63825E+01 -1.62723E+01 -1.61407E+01 -1.40142E+01 -1.53800E+01 -1.30080E+01 -1.72585E+01 -1.99744E+01 -2.14545E+01
  -2.09367E+01 -2.07959E+01 -2.31846E+01 -2.18237E+01 -2.55907E+01 -2.34375E+01 -2.15680E+01 -2.34789E+01 -2.29264E+01 -2.35753E+01
  -2.26772E+01 -2.47300E+01 -2.30523E+01 -2.33432E+01 -2.53844E+01 -2.01306E+01 -2.08190E+01 -1.96848E+01 -2.33965E+01 -1.36440E+01
  -1.70365E+01 -2.01672E+01 -1.85705E+01 -1.53715E+01 -1.14724E+01 -8.06787E+00 -6.03243E+00 -9.05195E+00 -4.42786E+00 -1.00478E+00
  -8.19839E-01  3.50829E+00  6.27927E+00  1.15636E+01  1.59651E+01  1.91698E+01  2.16530E+01  2.54930E+01  3.08752E+01  3.35250E+01
   3.59134E+01  4.16030E+01  4.26427E+01  4.98179E+01  5.20231E+01  5.56136E+01  6.05861E+01  6.81875E+01  7.37573E+01  7.57345E+01
   8.31206E+01  8.76634E+01  9.56741E+01  1.00416E+02  1.04086E+02  1.07518E+02  1.11365E+02  1.09551E+02  1.12228E+02  1.14046E+02
   1.06020E+02  1.07620E+02  1.02156E+02  1.00505E+02  1.00647E+02  1.00805E+02  9.49536E+01  9.49721E+01  9.42459E+01  9.67841E+01
   9.38910E+01  9.34380E+01  9.58395E+01  9.70720E+01  9.67023E+01  9.50952E+01  1.02327E+02  1.02409E+02  1.04072E+02  1.06084E+02
   1.04612E+02  1.10202E+02  1.13971E+02  1.13504E+02  1.16687E+02  1.16178E+02  1.18272E+02  1.21795E+02  1.19953E+02  1.21900E+02
   1.25471E+02  1.19405E+02  1.21087E+02  1.18405E+02  1.22486E+02  1.20222E+02  1.22588E+02  1.19541E+02  1.17615E+02  1.16380E+02
   1.16821E+02  1.19571E+02  1.17394E+02  1.15678E+02  1.10253E+02  1.13269E+02  1.14281E+02  1.11166E+02  1.11219E+02  1.11818E+02
   1.09275E+02  1.07050E+02  1.03738E+02  1.04323E+02  1.03049E+02  1.06593E+02  9.83515E+01  1.02736E+02  9.90849E+01  9.73003E+01
   9.48835E+01  9.60730E+01  9.91065E+01  9.38666E+01  9.27999E+01  9.04576E+01  9.22567E+01  9.09290E+01  8.82203E+01  9.26668E+01
   9.04054E+01  8.99497E+01  9.08359E+01  8.83706E+01  8.49183E+01  8.48905E+01  8.65343E+01  8.37762E+01  8.17838E+01  8.36372E+01
   8.70094E+01  8.16622E+01  8.43748E+01  7.64794E+01  7.58564E+01  7.75213E+01  7.68453E+01  7.48781E+01  7.31707E+01  7.84363E+01
   7.02902E+01  7.10377E+01  6.68382E+01  7.11337E+01  6.86305E+01  6.84358E+01  6.69271E+01  6.65972E+01  6.50732E+01  6.48332E+01
   6.20477E+01  6.15289E+01  6.00283E+01  6.27967E+01  5.73861E+01  5.82496E+01  6.07953E+01  5.95803E+01  5.61152E+01  5.93822E+01
   5.31843E+01  5.75987E+01  5.49970E+01  5.48416E+01  5.66435E+01  5.34011E+01  5.24326E+01  5.02587E+01  5.57806E+01  5.15865E+01
   4.92279E+01  4.81129E+01  4.92252E+01  4.72095E+01  5.14691E+01  4.83584E+01  4.55569E+01  4.75714E+01  4.76359E+01  4.59577E+01
   4.36213E+01  4.81802E+01  4.72706E+01  4.57653E+01  4.20086E+01  4.31534E+01  4.27543E+01  3.93293E+01  4.18192E+01  4.56047E+01
   4.38673E+01  4.27819E+01  3.90974E+01  4.25579E+01  4.19246E+01  4.13356E+01  4.01566E+01  4.00880E+01  3.71763E+01  3.61268E+01
   3.86822E+01  3.74003E+01  3.74523E+01  3.89419E+01  3.85091E+01  4.03242E+01  3.82570E+01  3.60602E+01  3.64445E+01  3.31598E+01
   4.07588E+01  3.53354E+01  3.46986E+01  3.55981E+01  3.76258E+01  3.30057E+01  3.00657E+01  3.14277E+01  3.07871E+01  3.09952E+01
   2.94372E+01  3.44138E+01  3.77391E+01  3.25365E+01  3.43894E+01  3.10976E+01  3.06387E+01  3.18215E+01
 NY points of the fit to the data follow
  -1.37170E+01 -1.41103E+01 -1.38593E+01 -1.43438E+01 -1.44648E+01 -1.47892E+01 -1.49028E+01 -1.47706E+01 -1.53736E+01 -1.51276E+01
  -1.63815E+01 -1.61030E+01 -1.76078E+01 -1.66790E+01 -1.87308E+01 -1.67490E+01 -1.90500E+01 -1.61520E+01 -1.87142E+01 -1.50813E+01
  -1.77821E+01 -1.36893E+01 -1.66093E+01 -1.24829E+01 -1.55570E+01 -1.18790E+01 -1.49872E+01 -1.20088E+01 -1.48885E+01 -1.21910E+01
  -1.42878E+01 -1.20057E+01 -1.37520E+01 -1.20237E+01 -1.34465E+01 -1.22497E+01 -1.34252E+01 -1.27511E+01 -1.37818E+01 -1.36247E+01
  -1.45867E+01 -1.46906E+01 -1.54804E+01 -1.57221E+01 -1.62366E+01 -1.65826E+01 -1.68694E+01 -1.73314E+01 -1.76993E+01 -1.84322E+01
  -1.88490E+01 -1.97006E+01 -1.99907E+01 -2.05577E+01 -2.07940E+01 -2.10788E+01 -2.10871E+01 -2.12477E+01 -2.11920E+01 -2.13470E+01
  -2.12551E+01 -2.15076E+01 -2.14762E+01 -2.18353E+01 -2.17763E+01 -2.21820E+01 -2.21041E+01 -2.24867E+01 -2.23413E+01 -2.26757E+01
  -2.25372E+01 -2.30151E+01 -2.30213E+01 -2.36484E+01 -2.37483E+01 -2.44535E+01 -2.45714E+01 -2.52957E+01 -2.53346E+01 -2.60566E+01
  -2.60369E+01 -2.66841E+01 -2.65277E+01 -2.69280E+01 -2.60534E+01 -2.63094E+01 -2.50533E+01 -2.52812E+01 -2.37485E+01 -2.39782E+01
  -2.22393E+01 -2.25220E+01 -2.07471E+01 -2.11553E+01 -1.95198E+01 -2.01372E+01 -1.88628E+01 -1.96720E+01 -1.87428E+01 -1.96513E+01
  -1.89825E+01 -1.99285E+01 -1.95362E+01 -2.04895E+01 -2.03309E+01 -2.12310E+01 -2.11678E+01 -2.15701E+01 -2.03867E+01 -2.05037E+01
  -1.86040E+01 -1.86792E+01 -1.61250E+01 -1.62891E+01 -1.32041E+01 -1.35811E+01 -1.01405E+01 -1.08692E+01 -7.64946E+00 -8.97263E+00
  -6.47488E+00 -8.32650E+00 -6.45383E+00 -8.49031E+00 -6.89166E+00 -8.97787E+00 -8.01483E+00 -1.00889E+01 -9.72747E+00 -1.16459E+01
  -1.17380E+01 -1.33366E+01 -1.36961E+01 -1.49571E+01 -1.55870E+01 -1.65682E+01 -1.74305E+01 -1.82508E+01 -1.93238E+01 -1.99733E+01
  -2.11195E+01 -2.15833E+01 -2.27946E+01 -2.31363E+01 -2.43617E+01 -2.45767E+01 -2.56936E+01 -2.56801E+01 -2.63088E+01 -2.62809E+01
  -2.68789E+01 -2.69596E+01 -2.75957E+01 -2.77688E+01 -2.83819E+01 -2.86198E+01 -2.91670E+01 -2.95080E+01 -3.01390E+01 -3.06093E+01
  -3.12938E+01 -3.18528E+01 -3.25323E+01 -3.31168E+01 -3.38050E+01 -3.44096E+01 -3.50951E+01 -3.57081E+01 -3.64314E+01 -3.70377E+01
  -3.77612E+01 -3.83386E+01 -3.89844E+01 -3.94234E+01 -3.98831E+01 -4.01458E+01 -4.05082E+01 -4.06677E+01 -4.09849E+01 -4.11051E+01
  -4.15041E+01 -4.16649E+01 -4.20000E+01 -4.22187E+01 -4.24959E+01 -4.28277E+01 -4.30381E+01 -4.34763E+01 -4.35328E+01 -4.40533E+01
  -4.40011E+01 -4.45760E+01 -4.45257E+01 -4.51426E+01 -4.51384E+01 -4.57605E+01 -4.57909E+01 -4.62888E+01 -4.61404E+01 -4.63169E+01
  -4.62399E+01 -4.61402E+01 -4.62696E+01 -4.59972E+01 -4.65920E+01 -4.63774E+01 -4.73612E+01 -4.69918E+01 -4.83254E+01 -4.78018E+01
  -4.93585E+01 -4.86749E+01 -5.02249E+01 -4.93706E+01 -5.08294E+01 -4.98435E+01 -5.11057E+01 -4.99688E+01 -5.09649E+01 -4.97594E+01
  -5.04589E+01 -4.92190E+01 -4.96963E+01 -4.85526E+01 -4.89745E+01 -4.80310E+01 -4.84116E+01 -4.76407E+01 -4.79600E+01 -4.73611E+01
  -4.76546E+01 -4.71962E+01 -4.74635E+01 -4.71343E+01 -4.72411E+01 -4.68477E+01 -4.65991E+01 -4.56426E+01 -4.36817E+01 -4.23430E+01
  -3.94310E+01 -3.81557E+01 -3.44653E+01 -3.34131E+01 -2.90780E+01 -2.84591E+01 -2.37780E+01 -2.36652E+01 -1.91687E+01 -1.97155E+01
  -1.59282E+01 -1.70851E+01 -1.40741E+01 -1.56629E+01 -1.33864E+01 -1.52654E+01 -1.37015E+01 -1.56793E+01 -1.47572E+01 -1.67262E+01
  -1.63170E+01 -1.81535E+01 -1.81324E+01 -1.98407E+01 -2.01074E+01 -2.15994E+01 -2.19372E+01 -2.31486E+01 -2.35005E+01 -2.43837E+01
  -2.46589E+01 -2.51953E+01 -2.53500E+01 -2.55512E+01 -2.54973E+01 -2.52868E+01 -2.48508E+01 -2.40853E+01 -2.28098E+01 -2.16716E+01
  -2.00926E+01 -1.86960E+01 -1.67904E+01 -1.50870E+01 -1.28411E+01 -1.08163E+01 -8.24503E+00 -5.90356E+00 -3.06109E+00 -4.20211E-01
   2.65508E+00  5.54234E+00  8.78865E+00  1.18682E+01  1.52275E+01  1.84416E+01  2.18744E+01  2.51919E+01  2.86775E+01  3.20914E+01
   3.56689E+01  3.92549E+01  4.30338E+01  4.69247E+01  5.10799E+01  5.54958E+01  6.03249E+01  6.57142E+01  7.21368E+01  7.96993E+01
   8.53921E+01  9.28840E+01  9.68546E+01  1.03366E+02  1.04740E+02  1.09116E+02  1.06814E+02  1.10607E+02  1.06720E+02  1.09390E+02
   1.04419E+02  1.05795E+02  1.00947E+02  1.01824E+02  9.82154E+01  9.89538E+01  9.68932E+01  9.72648E+01  9.67961E+01  9.64571E+01
   9.71338E+01  9.62895E+01  9.79677E+01  9.71480E+01  9.97122E+01  9.88915E+01  1.02046E+02  1.01263E+02  1.04590E+02  1.03745E+02
   1.07137E+02  1.06525E+02  1.09992E+02  1.09622E+02  1.13049E+02  1.13023E+02  1.16473E+02  1.16746E+02  1.20088E+02  1.20776E+02
   1.22849E+02  1.22791E+02  1.23782E+02  1.23150E+02  1.23166E+02  1.22090E+02  1.21341E+02  1.20847E+02  1.20387E+02  1.19884E+02
   1.19292E+02  1.18601E+02  1.17797E+02  1.16887E+02  1.15868E+02  1.14755E+02  1.13552E+02  1.12277E+02  1.10940E+02  1.09559E+02
   1.08144E+02  1.06718E+02  1.05289E+02  1.03879E+02  1.02495E+02  1.01158E+02  9.98734E+01  9.86581E+01  9.75145E+01  9.64555E+01
   9.54793E+01  9.45939E+01  9.37921E+01  9.30767E+01  9.24351E+01  9.18651E+01  9.13495E+01  9.08820E+01  9.04421E+01  9.00216E+01
   8.95991E+01  8.91667E+01  8.87046E+01  8.82077E+01  8.76602E+01  8.70613E+01  8.64004E+01  8.56820E+01  8.49007E+01  8.40657E+01
   8.31755E+01  8.22427E+01  8.12681E+01  8.02656E+01  7.92362E+01  7.81934E+01  7.71373E+01  7.60798E+01  7.50191E+01  7.39654E+01
   7.29150E+01  7.18766E+01  7.08454E+01  6.98291E+01  6.88221E+01  6.78320E+01  6.68532E+01  6.58933E+01  6.49470E+01  6.40221E+01
   6.31134E+01  6.22288E+01  6.13632E+01  6.05240E+01  5.97060E+01  5.89164E+01  5.81493E+01  5.74115E+01  5.66967E+01  5.60110E+01
   5.53477E+01  5.47125E+01  5.40980E+01  5.35099E+01  5.29406E+01  5.23952E+01  5.18662E+01  5.13587E+01  5.08650E+01  5.03904E+01
   4.99271E+01  4.94805E+01  4.90429E+01  4.86200E+01  4.82041E+01  4.78009E+01  4.74031E+01  4.70164E+01  4.66335E+01  4.62604E+01
   4.58899E+01  4.55280E+01  4.51677E+01  4.48151E+01  4.44633E+01  4.41184E+01  4.37735E+01  4.34350E+01  4.30959E+01  4.27626E+01
   4.24284E+01  4.20996E+01  4.17694E+01  4.14443E+01  4.11176E+01  4.07957E+01  4.04720E+01  4.01530E+01  3.98319E+01  3.95153E+01
   3.91965E+01  3.88822E+01  3.85657E+01  3.82535E+01  3.79390E+01  3.76288E+01  3.73164E+01  3.70082E+01  3.66978E+01  3.63916E+01
   3.60833E+01  3.57793E+01  3.54731E+01  3.51713E+01  3.48674E+01  3.45680E+01  3.42666E+01  3.39698E+01  3.36710E+01  3.33770E+01
   3.30812E+01  3.27904E+01  3.24978E+01  3.22104E+01  3.19216E+01  3.16381E+01  3.13536E+01  3.10747E+01
 NY background values follow
    -3.420E+01   -3.415E+01   -3.410E+01   -3.405E+01   -3.400E+01   -3.395E+01   -3.390E+01   -3.385E+01   -3.379E+01   -3.374E+01
    -3.369E+01   -3.364E+01   -3.359E+01   -3.353E+01   -3.348E+01   -3.343E+01   -3.337E+01   -3.332E+01   -3.327E+01   -3.321E+01
    -3.316E+01   -3.311E+01   -3.305E+01   -3.300E+01   -3.295E+01   -3.290E+01   -3.284E+01   -3.279E+01   -3.274E+01   -3.268E+01
    -3.263E+01   -3.258E+01   -3.253E+01   -3.248E+01   -3.242E+01   -3.237E+01   -3.232E+01   -3.227E+01   -3.222E+01   -3.217E+01
    -3.212E+01   -3.207E+01   -3.202E+01   -3.197E+01   -3.192E+01   -3.187E+01   -3.183E+01   -3.178E+01   -3.173E+01   -3.169E+01
    -3.164E+01   -3.160E+01   -3.155E+01   -3.151E+01   -3.146E+01   -3.142E+01   -3.138E+01   -3.133E+01   -3.129E+01   -3.125E+01
    -3.121E+01   -3.117E+01   -3.113E+01   -3.109E+01   -3.106E+01   -3.102E+01   -3.098E+01   -3.095E+01   -3.091E+01   -3.088E+01
    -3.085E+01   -3.082E+01   -3.078E+01   -3.075E+01   -3.072E+01   -3.070E+01   -3.067E+01   -3.064E+01   -3.062E+01   -3.059E+01
    -3.057E+01   -3.054E+01   -3.052E+01   -3.050E+01   -3.048E+01   -3.046E+01   -3.044E+01   -3.043E+01   -3.041E+01   -3.040E+01
    -3.039E+01   -3.038E+01   -3.037E+01   -3.036E+01   -3.036E+01   -3.035E+01   -3.035E+01   -3.035E+01   -3.036E+01   -3.036E+01
    -3.037E+01   -3.038E+01   -3.039E+01   -3.041E+01   -3.043E+01   -3.045E+01   -3.047E+01   -3.050E+01   -3.053E+01   -3.056E+01
    -3.059E+01   -3.063E+01   -3.068E+01   -3.072E+01   -3.077E+01   -3.082E+01   -3.088E+01   -3.094E+01   -3.100E+01   -3.107E+01
    -3.114E+01   -3.122E+01   -3.130E+01   -3.138E+01   -3.147E+01   -3.156E+01   -3.166E+01   -3.176E+01   -3.187E+01   -3.198E+01
    -3.209E+01   -3.221E+01   -3.234E+01   -3.247E+01   -3.260E+01   -3.274E+01   -3.289E+01   -3.304E+01   -3.320E+01   -3.336E+01
    -3.353E+01   -3.370E+01   -3.388E+01   -3.406E+01   -3.426E+01   -3.445E+01   -3.465E+01   -3.486E+01   -3.508E+01   -3.530E+01
    -3.553E+01   -3.576E+01   -3.600E+01   -3.625E+01   -3.650E+01   -3.677E+01   -3.703E+01   -3.731E+01   -3.759E+01   -3.788E+01
    -3.817E+01   -3.848E+01   -3.879E+01   -3.911E+01   -3.943E+01   -3.976E+01   -4.011E+01   -4.045E+01   -4.081E+01   -4.117E+01
    -4.154E+01   -4.192E+01   -4.230E+01   -4.268E+01   -4.308E+01   -4.347E+01   -4.387E+01   -4.428E+01   -4.469E+01   -4.510E+01
    -4.551E+01   -4.593E+01   -4.635E+01   -4.677E+01   -4.719E+01   -4.762E+01   -4.804E+01   -4.847E+01   -4.889E+01   -4.932E+01
    -4.974E+01   -5.016E+01   -5.058E+01   -5.101E+01   -5.142E+01   -5.184E+01   -5.225E+01   -5.266E+01   -5.307E+01   -5.347E+01
    -5.387E+01   -5.426E+01   -5.465E+01   -5.503E+01   -5.541E+01   -5.578E+01   -5.615E+01   -5.650E+01   -5.686E+01   -5.720E+01
    -5.753E+01   -5.786E+01   -5.818E+01   -5.849E+01   -5.879E+01   -5.908E+01   -5.936E+01   -5.964E+01   -5.990E+01   -6.014E+01
    -6.038E+01   -6.061E+01   -6.082E+01   -6.102E+01   -6.121E+01   -6.139E+01   -6.155E+01   -6.170E+01   -6.183E+01   -6.195E+01
    -6.205E+01   -6.214E+01   -6.221E+01   -6.227E+01   -6.231E+01   -6.233E+01   -6.234E+01   -6.233E+01   -6.230E+01   -6.225E+01
    -6.218E+01   -6.210E+01   -6.200E+01   -6.187E+01   -6.173E+01   -6.156E+01   -6.138E+01   -6.117E+01   -6.094E+01   -6.069E+01
    -6.042E+01   -6.013E+01   -5.981E+01   -5.948E+01   -5.912E+01   -5.875E+01   -5.835E+01   -5.794E+01   -5.751E+01   -5.706E+01
    -5.659E+01   -5.610E+01   -5.559E+01   -5.507E+01   -5.454E+01   -5.398E+01   -5.341E+01   -5.282E+01   -5.222E+01   -5.161E+01
    -5.098E+01   -5.033E+01   -4.967E+01   -4.900E+01   -4.832E+01   -4.762E+01   -4.691E+01   -4.619E+01   -4.546E+01   -4.472E+01
    -4.396E+01   -4.320E+01   -4.242E+01   -4.164E+01   -4.084E+01   -4.004E+01   -3.923E+01   -3.841E+01   -3.759E+01   -3.675E+01
    -3.591E+01   -3.506E+01   -3.421E+01   -3.335E+01   -3.248E+01   -3.161E+01   -3.074E+01   -2.986E+01   -2.898E+01   -2.809E+01
    -2.720E+01   -2.630E+01   -2.541E+01   -2.451E+01   -2.361E+01   -2.271E+01   -2.180E+01   -2.090E+01   -2.000E+01   -1.909E+01
    -1.819E+01   -1.729E+01   -1.639E+01   -1.549E+01   -1.459E+01   -1.369E+01   -1.280E+01   -1.191E+01   -1.102E+01   -1.014E+01
    -9.260E+00   -8.386E+00   -7.516E+00   -6.651E+00   -5.793E+00   -4.940E+00   -4.093E+00   -3.253E+00   -2.420E+00   -1.595E+00
    -7.775E-01    3.188E-02    8.327E-01    1.625E+00    2.408E+00    3.183E+00    3.949E+00    4.707E+00    5.456E+00    6.196E+00
     6.928E+00    7.651E+00    8.365E+00    9.071E+00    9.768E+00    1.046E+01    1.114E+01    1.181E+01    1.247E+01    1.312E+01
     1.377E+01    1.441E+01    1.503E+01    1.565E+01    1.626E+01    1.687E+01    1.746E+01    1.805E+01    1.862E+01    1.919E+01
     1.975E+01    2.030E+01    2.084E+01    2.138E+01    2.190E+01    2.242E+01    2.293E+01    2.343E+01    2.392E+01    2.440E+01
     2.487E+01    2.534E+01    2.580E+01    2.625E+01    2.668E+01    2.712E+01    2.754E+01    2.795E+01    2.836E+01    2.876E+01
     2.915E+01    2.953E+01    2.990E+01    3.026E+01    3.062E+01    3.096E+01    3.130E+01    3.163E+01    3.195E+01    3.227E+01
     3.257E+01    3.287E+01    3.315E+01    3.343E+01    3.370E+01    3.396E+01    3.422E+01    3.446E+01    3.470E+01    3.493E+01
     3.515E+01    3.536E+01    3.556E+01    3.576E+01    3.594E+01    3.612E+01    3.629E+01    3.645E+01    3.661E+01    3.675E+01
     3.689E+01    3.701E+01    3.713E+01    3.724E+01    3.735E+01    3.744E+01    3.753E+01    3.760E+01    3.767E+01    3.774E+01
     3.779E+01    3.784E+01    3.787E+01    3.791E+01    3.793E+01    3.795E+01    3.796E+01    3.796E+01    3.795E+01    3.794E+01
     3.792E+01    3.790E+01    3.787E+01    3.783E+01    3.778E+01    3.773E+01    3.768E+01    3.761E+01    3.755E+01    3.747E+01
     3.739E+01    3.731E+01    3.721E+01    3.712E+01    3.702E+01    3.691E+01    3.680E+01    3.668E+01    3.656E+01    3.643E+01
     3.630E+01    3.617E+01    3.603E+01    3.588E+01    3.574E+01    3.558E+01    3.543E+01    3.527E+01    3.510E+01    3.494E+01
     3.477E+01    3.459E+01    3.441E+01    3.423E+01    3.405E+01    3.386E+01    3.367E+01    3.348E+01    3.328E+01    3.309E+01
     3.289E+01    3.268E+01    3.248E+01    3.227E+01    3.206E+01    3.185E+01    3.164E+01    3.143E+01    3.121E+01    3.099E+01
     3.078E+01    3.056E+01    3.033E+01    3.011E+01    2.989E+01    2.967E+01    2.944E+01    2.922E+01    2.899E+01    2.876E+01
     2.854E+01    2.831E+01    2.808E+01    2.786E+01    2.763E+01    2.741E+01    2.718E+01    2.695E+01
 Ala      Conc. = 9.30E+03
