 LCModel (Version 6.3-1L) Copyright: S.W. Provencher.          Ref.: Magn. Reson. Med. 30:672-679 (1993).                
 Slice#1 Row#14 Col#5  K_02_press_1_raw_act
 36 lines in following concentration table = NCONC+1
    Conc.  %SD /Cr+PCr  Metabolite                                         
   40.265  94%   0.370 Ala                                                 
   13.138 121%   0.121 Asp                                                 
   47.422  79%   0.436 Cr                                                  
   61.326  61%   0.564 PCr                                                 
    7.342 130% 6.8E-02 GABA                                                
    5.632 171% 5.2E-02 Glc                                                 
   38.343 199%   0.353 Gln                                                 
  106.858  79%   0.983 Glu                                                 
   25.431  28%   0.234 GPC                                                 
    0.000 999%   0.000 PCh                                                 
    0.000 999%   0.000 GSH                                                 
   58.875 149%   0.541 Ins                                                 
   11.690 365%   0.107 Lac                                                 
   85.333  29%   0.785 NAA                                                 
   15.230 173%   0.140 NAAG                                                
    0.215 999% 2.0E-03 Scyllo                                              
    0.117 999% 1.1E-03 Tau                                                 
    0.000 999%   0.000 -CrCH2                                              
   25.431  28%   0.234 GPC+PCh                                             
  100.563  26%   0.925 NAA+NAAG                                            
  108.748  17%   1.000 Cr+PCr                                              
  145.201  78%   1.335 Glu+Gln                                             
  321.877  75%   2.960 Lip13a                                              
   23.317 307%   0.214 Lip13b                                              
  105.027  65%   0.966 Lip09                                               
  124.315  60%   1.143 MM09                                                
   53.264  82%   0.490 Lip20                                               
   24.203 519%   0.223 MM20                                                
   37.394 114%   0.344 MM12                                                
  118.278  91%   1.088 MM14                                                
  130.476  59%   1.200 MM17                                                
  345.194  55%   3.174 Lip13a+Lip13b                                       
  500.866  37%   4.606 MM14+Lip13a+Lip13b+MM12                             
  229.341  30%   2.109 MM09+Lip09                                          
   77.467 160%   0.712 MM20+Lip20                                          
   6 lines in following misc. output table
  FWHM = 0.054 ppm    S/N =   1                                            
  Data shift = 0.031 ppm                                                   
  Ph:  91 deg      16.7 deg/ppm                                            
  alphaB,S = 6.1E-01,   4.6E+01                                            
   14 spline knots.   Ns = 5(1)                                            
  ( 4) 2 infls.   ( 1) 1 extrs.                                            
  498 points on ppm-axis = NY
      4.000000     3.992357     3.984714     3.977070     3.969427     3.961784     3.954141     3.946497     3.938854     3.931211
      3.923568     3.915925     3.908281     3.900638     3.892995     3.885352     3.877708     3.870065     3.862422     3.854779
      3.847136     3.839492     3.831849     3.824206     3.816563     3.808919     3.801276     3.793633     3.785990     3.778347
      3.770703     3.763060     3.755417     3.747774     3.740130     3.732487     3.724844     3.717201     3.709558     3.701914
      3.694271     3.686628     3.678985     3.671341     3.663698     3.656055     3.648412     3.640769     3.633125     3.625482
      3.617839     3.610196     3.602552     3.594909     3.587266     3.579623     3.571980     3.564336     3.556693     3.549050
      3.541407     3.533763     3.526120     3.518477     3.510834     3.503191     3.495547     3.487904     3.480261     3.472618
      3.464974     3.457331     3.449688     3.442045     3.434402     3.426758     3.419115     3.411472     3.403829     3.396185
      3.388542     3.380899     3.373256     3.365613     3.357969     3.350326     3.342683     3.335040     3.327396     3.319753
      3.312110     3.304467     3.296824     3.289180     3.281537     3.273894     3.266251     3.258607     3.250964     3.243321
      3.235678     3.228034     3.220391     3.212748     3.205105     3.197462     3.189818     3.182175     3.174532     3.166889
      3.159245     3.151602     3.143959     3.136316     3.128673     3.121029     3.113386     3.105743     3.098100     3.090456
      3.082813     3.075170     3.067527     3.059884     3.052240     3.044597     3.036954     3.029311     3.021667     3.014024
      3.006381     2.998738     2.991095     2.983451     2.975808     2.968165     2.960522     2.952878     2.945235     2.937592
      2.929949     2.922306     2.914662     2.907019     2.899376     2.891733     2.884089     2.876446     2.868803     2.861160
      2.853517     2.845873     2.838230     2.830587     2.822944     2.815300     2.807657     2.800014     2.792371     2.784728
      2.777084     2.769441     2.761798     2.754155     2.746511     2.738868     2.731225     2.723582     2.715939     2.708295
      2.700652     2.693009     2.685366     2.677722     2.670079     2.662436     2.654793     2.647150     2.639506     2.631863
      2.624220     2.616577     2.608933     2.601290     2.593647     2.586004     2.578361     2.570717     2.563074     2.555431
      2.547788     2.540144     2.532501     2.524858     2.517215     2.509572     2.501928     2.494285     2.486642     2.478999
      2.471355     2.463712     2.456069     2.448426     2.440783     2.433139     2.425496     2.417853     2.410210     2.402566
      2.394923     2.387280     2.379637     2.371994     2.364350     2.356707     2.349064     2.341421     2.333777     2.326134
      2.318491     2.310848     2.303205     2.295561     2.287918     2.280275     2.272632     2.264988     2.257345     2.249702
      2.242059     2.234416     2.226772     2.219129     2.211486     2.203843     2.196199     2.188556     2.180913     2.173270
      2.165627     2.157983     2.150340     2.142697     2.135054     2.127410     2.119767     2.112124     2.104481     2.096838
      2.089194     2.081551     2.073908     2.066265     2.058621     2.050978     2.043335     2.035692     2.028049     2.020405
      2.012762     2.005119     1.997476     1.989833     1.982190     1.974546     1.966903     1.959260     1.951617     1.943974
      1.936331     1.928688     1.921045     1.913402     1.905759     1.898115     1.890472     1.882829     1.875186     1.867543
      1.859900     1.852257     1.844614     1.836971     1.829327     1.821684     1.814041     1.806398     1.798755     1.791112
      1.783469     1.775826     1.768183     1.760540     1.752896     1.745253     1.737610     1.729967     1.722324     1.714681
      1.707038     1.699395     1.691752     1.684108     1.676465     1.668822     1.661179     1.653536     1.645893     1.638250
      1.630607     1.622964     1.615321     1.607677     1.600034     1.592391     1.584748     1.577105     1.569462     1.561819
      1.554176     1.546533     1.538890     1.531246     1.523603     1.515960     1.508317     1.500674     1.493031     1.485388
      1.477745     1.470102     1.462458     1.454815     1.447172     1.439529     1.431886     1.424243     1.416600     1.408957
      1.401314     1.393671     1.386027     1.378384     1.370741     1.363098     1.355455     1.347812     1.340169     1.332526
      1.324883     1.317240     1.309596     1.301953     1.294310     1.286667     1.279024     1.271381     1.263738     1.256095
      1.248452     1.240808     1.233165     1.225522     1.217879     1.210236     1.202593     1.194950     1.187307     1.179664
      1.172021     1.164377     1.156734     1.149091     1.141448     1.133805     1.126162     1.118519     1.110876     1.103233
      1.095590     1.087946     1.080303     1.072660     1.065017     1.057374     1.049731     1.042088     1.034445     1.026802
      1.019158     1.011515     1.003872     0.996229     0.988586     0.980943     0.973300     0.965657     0.958014     0.950371
      0.942727     0.935084     0.927441     0.919798     0.912155     0.904512     0.896869     0.889226     0.881583     0.873940
      0.866296     0.858653     0.851010     0.843367     0.835724     0.828081     0.820438     0.812795     0.805152     0.797508
      0.789865     0.782222     0.774579     0.766936     0.759293     0.751650     0.744007     0.736364     0.728721     0.721077
      0.713434     0.705791     0.698148     0.690505     0.682862     0.675219     0.667576     0.659933     0.652290     0.644646
      0.637003     0.629360     0.621717     0.614074     0.606431     0.598788     0.591145     0.583502     0.575858     0.568215
      0.560572     0.552929     0.545286     0.537643     0.530000     0.522357     0.514714     0.507071     0.499427     0.491784
      0.484141     0.476498     0.468855     0.461212     0.453569     0.445925     0.438282     0.430639     0.422996     0.415353
      0.407710     0.400067     0.392424     0.384780     0.377137     0.369494     0.361851     0.354208     0.346565     0.338922
      0.331278     0.323635     0.315992     0.308349     0.300706     0.293063     0.285420     0.277777     0.270133     0.262490
      0.254847     0.247204     0.239561     0.231918     0.224275     0.216631     0.208988     0.201345
 NY phased data points follow
   4.51683E+01  4.42707E+01  4.20183E+01  4.35967E+01  4.38292E+01  4.32715E+01  4.30826E+01  3.94974E+01  4.18683E+01  4.02518E+01
   3.93592E+01  3.81399E+01  4.12970E+01  3.94117E+01  3.90363E+01  3.79485E+01  3.81585E+01  3.91397E+01  3.61604E+01  3.64370E+01
   3.35287E+01  3.22549E+01  3.50407E+01  3.13893E+01  3.70984E+01  3.18703E+01  3.41109E+01  3.29892E+01  3.10266E+01  3.04775E+01
   3.26697E+01  3.09183E+01  3.10600E+01  3.23531E+01  3.20817E+01  3.22867E+01  3.22246E+01  3.04326E+01  2.91626E+01  3.13530E+01
   2.90788E+01  2.93138E+01  2.76702E+01  2.84348E+01  3.22089E+01  2.77719E+01  3.07041E+01  2.76963E+01  2.94283E+01  2.89061E+01
   2.78019E+01  2.68836E+01  2.67968E+01  2.75735E+01  2.63522E+01  2.44123E+01  2.56457E+01  2.54527E+01  2.59301E+01  2.56710E+01
   2.41648E+01  2.43628E+01  2.40677E+01  2.22483E+01  2.26279E+01  2.29472E+01  2.25580E+01  2.16481E+01  2.15548E+01  2.10272E+01
   2.14043E+01  2.10690E+01  2.29498E+01  2.05767E+01  2.15678E+01  1.79494E+01  2.21568E+01  2.10325E+01  2.07090E+01  1.92184E+01
   2.01128E+01  1.83470E+01  1.69283E+01  1.79958E+01  1.95295E+01  2.00994E+01  1.59513E+01  1.71727E+01  1.95070E+01  1.90883E+01
   1.70121E+01  1.87045E+01  1.79254E+01  1.93094E+01  1.85318E+01  1.74389E+01  1.76465E+01  1.49520E+01  1.64186E+01  1.66210E+01
   1.90860E+01  1.78852E+01  2.07100E+01  2.10917E+01  2.03631E+01  1.80063E+01  1.66789E+01  1.80299E+01  1.87684E+01  1.61800E+01
   1.57017E+01  1.53513E+01  1.63702E+01  1.62916E+01  1.61523E+01  1.64176E+01  1.67399E+01  1.52508E+01  1.53714E+01  1.33266E+01
   1.52205E+01  1.78490E+01  1.48911E+01  1.48995E+01  1.50925E+01  1.80672E+01  1.72621E+01  1.84360E+01  1.84200E+01  1.70189E+01
   1.70585E+01  1.49788E+01  1.59916E+01  1.64625E+01  1.45467E+01  1.42357E+01  1.53194E+01  1.60884E+01  1.50061E+01  1.56432E+01
   1.45566E+01  1.52637E+01  1.17220E+01  1.47067E+01  1.29330E+01  1.15852E+01  1.52058E+01  1.26924E+01  1.38747E+01  1.19203E+01
   1.20720E+01  1.47727E+01  1.26631E+01  1.26248E+01  1.18784E+01  1.31005E+01  1.15423E+01  1.43289E+01  1.49901E+01  1.02314E+01
   1.14919E+01  1.36430E+01  1.35922E+01  1.32574E+01  1.04521E+01  1.13225E+01  1.38935E+01  1.36600E+01  1.29485E+01  1.22136E+01
   1.12511E+01  1.29151E+01  1.03377E+01  9.96585E+00  1.20187E+01  1.14786E+01  1.05377E+01  8.82677E+00  1.03405E+01  1.31538E+01
   9.33373E+00  1.17872E+01  1.18364E+01  8.17698E+00  1.01615E+01  8.29422E+00  1.03230E+01  1.15601E+01  1.15064E+01  1.20715E+01
   1.16815E+01  1.06966E+01  8.09779E+00  1.05542E+01  1.00143E+01  1.30971E+01  1.27578E+01  1.25896E+01  9.26192E+00  1.01847E+01
   8.53207E+00  6.99014E+00  1.13005E+01  1.00774E+01  9.29473E+00  1.04481E+01  1.01033E+01  1.23273E+01  1.13731E+01  8.46954E+00
   8.21212E+00  9.62884E+00  1.03131E+01  1.08074E+01  9.27960E+00  1.06253E+01  9.79130E+00  1.07087E+01  8.21914E+00  9.38302E+00
   9.63356E+00  8.27023E+00  9.62097E+00  8.20014E+00  7.99061E+00  7.91635E+00  9.40571E+00  9.81445E+00  8.69975E+00  1.02792E+01
   9.96960E+00  8.28073E+00  6.94336E+00  8.04730E+00  9.98030E+00  8.15891E+00  1.03563E+01  8.58170E+00  9.82618E+00  1.03320E+01
   7.97893E+00  9.36253E+00  7.62207E+00  7.60564E+00  9.99495E+00  6.37559E+00  7.57448E+00  3.95587E+00  7.11757E+00  4.81256E+00
   5.40127E+00  4.88211E+00  6.92219E+00  8.65191E+00  9.60709E+00  7.69127E+00  7.22681E+00  9.53119E+00  1.13722E+01  9.83154E+00
   1.16445E+01  1.09805E+01  9.46329E+00  7.82698E+00  8.65558E+00  8.76747E+00  8.17577E+00  6.48266E+00  6.70502E+00  7.09856E+00
   8.40341E+00  6.41272E+00  6.33501E+00  6.88707E+00  4.55623E+00  5.95881E+00  5.19855E+00  5.05157E+00  5.88018E+00  5.39324E+00
   4.55947E+00  4.84648E+00  5.65519E+00  6.39582E+00  7.36123E+00  5.40043E+00  5.70191E+00  5.00950E+00  4.99387E+00  8.29561E+00
   8.33014E+00  8.24665E+00  5.55679E+00  8.22343E+00  6.80008E+00  6.53531E+00  1.01527E+01  6.46254E+00  6.16555E+00  6.00822E+00
   8.81101E+00  5.42585E+00  3.88733E+00  5.69674E+00  6.37330E+00  5.48474E+00  3.77593E+00  4.82786E+00  5.93712E+00  6.62827E+00
   6.52979E+00  5.75154E+00  6.26748E+00  5.23650E+00  4.71354E+00  8.18275E+00  4.06571E+00  7.98213E+00  7.42963E+00  6.89030E+00
   4.40533E+00  6.09521E+00  5.34387E+00  5.71309E+00  6.17019E+00  7.37067E+00  4.14900E+00  4.60502E+00  5.26832E+00  6.74556E+00
   3.62603E+00  4.06418E+00  6.11395E+00  5.92016E+00  4.61246E+00  3.97169E+00  4.20877E+00  4.74469E+00  7.14665E+00  5.27002E+00
   6.10873E+00  4.83319E+00  5.97279E+00  5.47693E+00  6.90872E+00  3.88271E+00  8.27943E+00  5.22416E+00  5.70630E+00  4.24327E+00
   4.00447E+00  5.82514E+00  6.44678E+00  6.12213E+00  5.16177E+00  5.97190E+00  7.94147E+00  6.05726E+00  5.94291E+00  4.79738E+00
   3.22506E+00  7.09622E+00  3.38991E+00  4.89937E+00  3.30807E+00  4.26491E+00  3.14818E+00  4.64046E+00  3.08648E+00  3.32320E+00
   5.40714E+00  4.22796E+00  7.22867E+00  6.29424E+00  6.52437E+00  4.09962E+00  3.88704E+00  4.85840E+00  6.36847E+00  3.59247E+00
   5.35946E+00  5.41317E+00  1.00795E+00  3.19169E+00  7.92314E-01  2.68211E+00  2.99915E+00  2.09183E+00  3.01524E+00  3.50910E+00
   3.92007E+00  4.79710E+00  1.20218E+00  2.05792E+00  2.72071E+00  3.74026E+00  4.30663E+00  3.97168E+00  6.87789E+00  6.60508E+00
   4.27259E+00  5.74508E+00  5.88288E+00  5.90899E+00  4.49842E+00  6.98800E+00  3.66019E+00  4.31966E+00  3.41710E+00  5.24815E+00
   3.48710E+00  1.20638E+00  5.15059E+00  2.53244E+00  3.84238E+00  2.57116E+00  1.87296E+00  3.91870E+00  4.27569E+00  2.66543E+00
   2.84137E+00  3.28556E-01  3.37901E+00  5.76087E-01  1.72630E+00  2.33576E+00  2.68892E+00  2.96713E+00  1.52455E+00  7.60524E-01
   2.35399E+00  1.95023E+00  1.94094E+00  2.17574E+00  1.60442E+00  2.56219E+00  1.43277E+00  1.86691E+00  1.49896E+00  2.38424E+00
   1.37082E+00  1.70844E+00  3.03349E+00  3.49345E+00  1.48541E+00  1.10406E+00  3.01104E+00  2.40310E+00  3.80085E+00 -7.09703E-01
   1.04320E+00  9.60075E-01  1.61350E+00  2.14087E+00  1.88192E+00  2.81130E+00  8.18870E-01  1.54057E+00  2.35575E+00  1.53745E+00
   7.97610E-01  9.27807E-01  3.22120E-01  3.77402E+00  7.26022E-01  1.02273E+00  2.61270E+00  3.00720E+00  1.34988E+00 -1.14985E-01
  -2.22381E-01  1.43058E+00  1.06915E+00 -1.05629E+00 -1.37639E+00  1.05704E+00  3.47329E-01 -9.33086E-01  2.36444E+00 -7.14608E-02
   5.32856E-01  2.87770E+00  2.56767E+00  3.11412E-01  5.03950E-02  6.46416E-02  5.65618E-01  1.81847E+00 -2.59038E-01  1.12488E+00
  -6.08802E-01 -1.32962E+00  1.68618E+00  2.52607E+00  2.47947E+00  1.52895E+00  2.08951E+00  2.70808E+00
 NY points of the fit to the data follow
   4.08028E+01  4.05107E+01  4.02472E+01  4.00613E+01  4.00042E+01  4.00511E+01  4.01523E+01  4.02866E+01  4.03994E+01  4.04024E+01
   4.02374E+01  3.99046E+01  3.94241E+01  3.88100E+01  3.81133E+01  3.74513E+01  3.68840E+01  3.63561E+01  3.58904E+01  3.55422E+01
   3.52700E+01  3.50286E+01  3.47906E+01  3.45255E+01  3.42128E+01  3.38444E+01  3.34363E+01  3.30311E+01  3.26822E+01  3.24265E+01
   3.22599E+01  3.21480E+01  3.20488E+01  3.19125E+01  3.16968E+01  3.13971E+01  3.10419E+01  3.06655E+01  3.03001E+01  2.99739E+01
   2.96956E+01  2.94643E+01  2.92743E+01  2.91179E+01  2.89806E+01  2.88390E+01  2.86746E+01  2.84737E+01  2.82143E+01  2.79022E+01
   2.75617E+01  2.72093E+01  2.68574E+01  2.65257E+01  2.62358E+01  2.59937E+01  2.57852E+01  2.55950E+01  2.54083E+01  2.52131E+01
   2.49984E+01  2.47595E+01  2.45023E+01  2.42381E+01  2.39766E+01  2.37247E+01  2.34919E+01  2.32842E+01  2.30972E+01  2.29225E+01
   2.27487E+01  2.25693E+01  2.23806E+01  2.21817E+01  2.19763E+01  2.17685E+01  2.15614E+01  2.13551E+01  2.11512E+01  2.09539E+01
   2.07612E+01  2.05705E+01  2.03772E+01  2.01768E+01  1.99670E+01  1.97507E+01  1.95351E+01  1.93292E+01  1.91410E+01  1.89759E+01
   1.88333E+01  1.87094E+01  1.85984E+01  1.84905E+01  1.83737E+01  1.82441E+01  1.81102E+01  1.80243E+01  1.81249E+01  1.84520E+01
   1.89133E+01  1.93689E+01  1.96880E+01  1.97626E+01  1.95423E+01  1.90775E+01  1.84847E+01  1.78507E+01  1.72196E+01  1.66906E+01
   1.63950E+01  1.62328E+01  1.61018E+01  1.59824E+01  1.58687E+01  1.57580E+01  1.56493E+01  1.55436E+01  1.54427E+01  1.53512E+01
   1.52893E+01  1.53453E+01  1.56362E+01  1.62017E+01  1.69398E+01  1.76706E+01  1.82094E+01  1.84110E+01  1.82192E+01  1.76943E+01
   1.69655E+01  1.61511E+01  1.53510E+01  1.47079E+01  1.43050E+01  1.40972E+01  1.39718E+01  1.38709E+01  1.37809E+01  1.36967E+01
   1.36162E+01  1.35388E+01  1.34652E+01  1.33955E+01  1.33274E+01  1.32588E+01  1.31892E+01  1.31185E+01  1.30473E+01  1.29746E+01
   1.29007E+01  1.28271E+01  1.27556E+01  1.26882E+01  1.26247E+01  1.25616E+01  1.24928E+01  1.24148E+01  1.23296E+01  1.22431E+01
   1.21640E+01  1.20964E+01  1.20398E+01  1.19902E+01  1.19414E+01  1.18882E+01  1.18289E+01  1.17628E+01  1.16890E+01  1.16119E+01
   1.15350E+01  1.14575E+01  1.13801E+01  1.13033E+01  1.12313E+01  1.11681E+01  1.11109E+01  1.10555E+01  1.10008E+01  1.09472E+01
   1.08968E+01  1.08518E+01  1.08083E+01  1.07608E+01  1.07141E+01  1.06772E+01  1.06509E+01  1.06321E+01  1.06124E+01  1.05849E+01
   1.05472E+01  1.05011E+01  1.04505E+01  1.03935E+01  1.03272E+01  1.02592E+01  1.01989E+01  1.01506E+01  1.01197E+01  1.01103E+01
   1.01204E+01  1.01415E+01  1.01572E+01  1.01478E+01  1.00969E+01  9.98080E+00  9.79712E+00  9.57455E+00  9.35192E+00  9.17096E+00
   9.07180E+00  9.09411E+00  9.23138E+00  9.42923E+00  9.61793E+00  9.74363E+00  9.75669E+00  9.61037E+00  9.32689E+00  8.98082E+00
   8.64677E+00  8.38753E+00  8.25386E+00  8.27538E+00  8.40510E+00  8.57252E+00  8.72653E+00  8.83779E+00  8.88921E+00  8.86491E+00
   8.77886E+00  8.67199E+00  8.57293E+00  8.48617E+00  8.41881E+00  8.37144E+00  8.34218E+00  8.32438E+00  8.29432E+00  8.24184E+00
   8.17364E+00  8.09935E+00  8.02294E+00  7.94786E+00  7.88483E+00  7.83406E+00  7.78664E+00  7.73793E+00  7.69561E+00  7.66356E+00
   7.64144E+00  7.66786E+00  7.75599E+00  7.87595E+00  8.00635E+00  8.23303E+00  8.65901E+00  9.22757E+00  9.81118E+00  1.02867E+01
   1.05412E+01  1.04783E+01  1.01096E+01  9.56495E+00  8.94750E+00  8.29129E+00  7.66265E+00  7.23034E+00  7.03106E+00  6.91021E+00
   6.82192E+00  6.76063E+00  6.71725E+00  6.68256E+00  6.65349E+00  6.62359E+00  6.58752E+00  6.54377E+00  6.49404E+00  6.44068E+00
   6.38857E+00  6.34300E+00  6.30579E+00  6.27633E+00  6.25301E+00  6.23441E+00  6.21957E+00  6.20755E+00  6.19765E+00  6.19056E+00
   6.18680E+00  6.18612E+00  6.18804E+00  6.19226E+00  6.19770E+00  6.20322E+00  6.20816E+00  6.21189E+00  6.21360E+00  6.21308E+00
   6.20985E+00  6.20298E+00  6.19163E+00  6.17518E+00  6.15325E+00  6.12563E+00  6.09226E+00  6.05364E+00  6.01050E+00  5.96367E+00
   5.91416E+00  5.86302E+00  5.81134E+00  5.76024E+00  5.71086E+00  5.66434E+00  5.62182E+00  5.58452E+00  5.55385E+00  5.53166E+00
   5.52103E+00  5.52864E+00  5.56998E+00  5.64456E+00  5.71243E+00  5.73294E+00  5.68265E+00  5.55568E+00  5.36066E+00  5.12326E+00
   4.89213E+00  4.73496E+00  4.68732E+00  4.75919E+00  4.94728E+00  5.19891E+00  5.42819E+00  5.59736E+00  5.69815E+00  5.74206E+00
   5.73901E+00  5.69419E+00  5.64395E+00  5.63269E+00  5.64060E+00  5.64542E+00  5.63750E+00  5.61403E+00  5.57739E+00  5.53669E+00
   5.51098E+00  5.51358E+00  5.54485E+00  5.60019E+00  5.67097E+00  5.73091E+00  5.75644E+00  5.74150E+00  5.68933E+00  5.60609E+00
   5.49623E+00  5.36851E+00  5.24171E+00  5.12166E+00  5.00639E+00  4.89557E+00  4.78918E+00  4.68706E+00  4.58893E+00  4.49451E+00
   4.40358E+00  4.31610E+00  4.23215E+00  4.15191E+00  4.07566E+00  4.00371E+00  3.93641E+00  3.87411E+00  3.81716E+00  3.76593E+00
   3.72076E+00  3.68204E+00  3.65013E+00  3.62544E+00  3.60835E+00  3.59926E+00  3.59848E+00  3.60631E+00  3.62290E+00  3.64829E+00
   3.68233E+00  3.72462E+00  3.77449E+00  3.83100E+00  3.89285E+00  3.95845E+00  4.02593E+00  4.09313E+00  4.15772E+00  4.21726E+00
   4.26932E+00  4.31157E+00  4.34190E+00  4.35852E+00  4.36005E+00  4.34563E+00  4.31492E+00  4.26812E+00  4.20597E+00  4.12967E+00
   4.04085E+00  3.94144E+00  3.83359E+00  3.71954E+00  3.60152E+00  3.48167E+00  3.36196E+00  3.24409E+00  3.12952E+00  3.01939E+00
   2.91454E+00  2.81556E+00  2.72274E+00  2.63619E+00  2.55583E+00  2.48142E+00  2.41263E+00  2.34906E+00  2.29029E+00  2.23586E+00
   2.18534E+00  2.13828E+00  2.09430E+00  2.05304E+00  2.01417E+00  1.97740E+00  1.94248E+00  1.90918E+00  1.87731E+00  1.84671E+00
   1.81724E+00  1.78879E+00  1.76123E+00  1.73449E+00  1.70848E+00  1.68315E+00  1.65843E+00  1.63428E+00  1.61065E+00  1.58750E+00
   1.56480E+00  1.54253E+00  1.52066E+00  1.49916E+00  1.47801E+00  1.45719E+00  1.43669E+00  1.41650E+00  1.39658E+00  1.37694E+00
   1.35756E+00  1.33842E+00  1.31952E+00  1.30085E+00  1.28240E+00  1.26416E+00  1.24612E+00  1.22828E+00  1.21063E+00  1.19316E+00
   1.17587E+00  1.15874E+00  1.14178E+00  1.12498E+00  1.10834E+00  1.09185E+00  1.07551E+00  1.05930E+00  1.04323E+00  1.02729E+00
   1.01149E+00  9.95812E-01  9.80252E-01  9.64810E-01  9.49483E-01  9.34271E-01  9.19168E-01  9.04169E-01  8.89269E-01  8.74468E-01
   8.59765E-01  8.45157E-01  8.30639E-01  8.16206E-01  8.01855E-01  7.87587E-01  7.73400E-01  7.59290E-01
 NY background values follow
     4.063E+01    4.035E+01    4.006E+01    3.978E+01    3.949E+01    3.921E+01    3.892E+01    3.864E+01    3.836E+01    3.807E+01
     3.779E+01    3.750E+01    3.722E+01    3.694E+01    3.665E+01    3.637E+01    3.609E+01    3.581E+01    3.553E+01    3.525E+01
     3.497E+01    3.469E+01    3.441E+01    3.413E+01    3.386E+01    3.358E+01    3.331E+01    3.303E+01    3.276E+01    3.249E+01
     3.221E+01    3.194E+01    3.167E+01    3.141E+01    3.114E+01    3.087E+01    3.061E+01    3.035E+01    3.008E+01    2.982E+01
     2.956E+01    2.931E+01    2.905E+01    2.879E+01    2.854E+01    2.829E+01    2.804E+01    2.779E+01    2.754E+01    2.730E+01
     2.706E+01    2.681E+01    2.657E+01    2.634E+01    2.610E+01    2.586E+01    2.563E+01    2.540E+01    2.517E+01    2.494E+01
     2.472E+01    2.450E+01    2.427E+01    2.405E+01    2.384E+01    2.362E+01    2.341E+01    2.320E+01    2.299E+01    2.278E+01
     2.257E+01    2.237E+01    2.217E+01    2.197E+01    2.177E+01    2.158E+01    2.139E+01    2.120E+01    2.101E+01    2.083E+01
     2.064E+01    2.046E+01    2.028E+01    2.011E+01    1.993E+01    1.976E+01    1.959E+01    1.943E+01    1.926E+01    1.910E+01
     1.894E+01    1.879E+01    1.863E+01    1.848E+01    1.833E+01    1.819E+01    1.804E+01    1.790E+01    1.776E+01    1.763E+01
     1.749E+01    1.736E+01    1.723E+01    1.710E+01    1.697E+01    1.685E+01    1.673E+01    1.661E+01    1.649E+01    1.637E+01
     1.626E+01    1.614E+01    1.603E+01    1.592E+01    1.582E+01    1.571E+01    1.561E+01    1.550E+01    1.540E+01    1.530E+01
     1.521E+01    1.511E+01    1.502E+01    1.492E+01    1.483E+01    1.474E+01    1.465E+01    1.456E+01    1.447E+01    1.439E+01
     1.430E+01    1.422E+01    1.414E+01    1.406E+01    1.398E+01    1.390E+01    1.382E+01    1.374E+01    1.366E+01    1.359E+01
     1.351E+01    1.344E+01    1.337E+01    1.329E+01    1.322E+01    1.315E+01    1.308E+01    1.301E+01    1.294E+01    1.288E+01
     1.281E+01    1.274E+01    1.268E+01    1.261E+01    1.255E+01    1.248E+01    1.242E+01    1.236E+01    1.229E+01    1.223E+01
     1.217E+01    1.211E+01    1.205E+01    1.199E+01    1.193E+01    1.187E+01    1.181E+01    1.175E+01    1.170E+01    1.164E+01
     1.158E+01    1.153E+01    1.147E+01    1.141E+01    1.136E+01    1.130E+01    1.125E+01    1.119E+01    1.114E+01    1.108E+01
     1.103E+01    1.097E+01    1.092E+01    1.086E+01    1.081E+01    1.076E+01    1.070E+01    1.065E+01    1.060E+01    1.054E+01
     1.049E+01    1.044E+01    1.038E+01    1.033E+01    1.028E+01    1.023E+01    1.017E+01    1.012E+01    1.007E+01    1.002E+01
     9.963E+00    9.911E+00    9.859E+00    9.807E+00    9.755E+00    9.703E+00    9.652E+00    9.600E+00    9.548E+00    9.497E+00
     9.445E+00    9.394E+00    9.342E+00    9.291E+00    9.240E+00    9.188E+00    9.137E+00    9.086E+00    9.035E+00    8.984E+00
     8.933E+00    8.881E+00    8.830E+00    8.779E+00    8.728E+00    8.677E+00    8.626E+00    8.575E+00    8.524E+00    8.473E+00
     8.422E+00    8.371E+00    8.320E+00    8.269E+00    8.218E+00    8.168E+00    8.117E+00    8.067E+00    8.016E+00    7.966E+00
     7.916E+00    7.865E+00    7.816E+00    7.766E+00    7.716E+00    7.667E+00    7.617E+00    7.568E+00    7.519E+00    7.470E+00
     7.422E+00    7.373E+00    7.325E+00    7.277E+00    7.230E+00    7.182E+00    7.135E+00    7.088E+00    7.042E+00    6.995E+00
     6.949E+00    6.903E+00    6.858E+00    6.813E+00    6.768E+00    6.724E+00    6.679E+00    6.636E+00    6.592E+00    6.549E+00
     6.507E+00    6.464E+00    6.422E+00    6.381E+00    6.340E+00    6.299E+00    6.259E+00    6.219E+00    6.179E+00    6.140E+00
     6.101E+00    6.062E+00    6.024E+00    5.986E+00    5.948E+00    5.911E+00    5.874E+00    5.837E+00    5.800E+00    5.764E+00
     5.728E+00    5.692E+00    5.656E+00    5.621E+00    5.586E+00    5.551E+00    5.516E+00    5.482E+00    5.448E+00    5.413E+00
     5.379E+00    5.346E+00    5.312E+00    5.279E+00    5.245E+00    5.212E+00    5.179E+00    5.146E+00    5.113E+00    5.081E+00
     5.048E+00    5.015E+00    4.983E+00    4.951E+00    4.918E+00    4.886E+00    4.854E+00    4.822E+00    4.789E+00    4.757E+00
     4.725E+00    4.693E+00    4.661E+00    4.629E+00    4.598E+00    4.566E+00    4.534E+00    4.502E+00    4.471E+00    4.439E+00
     4.407E+00    4.376E+00    4.345E+00    4.313E+00    4.282E+00    4.251E+00    4.220E+00    4.188E+00    4.157E+00    4.126E+00
     4.096E+00    4.065E+00    4.034E+00    4.003E+00    3.973E+00    3.942E+00    3.912E+00    3.882E+00    3.851E+00    3.821E+00
     3.791E+00    3.761E+00    3.731E+00    3.702E+00    3.672E+00    3.642E+00    3.613E+00    3.583E+00    3.554E+00    3.525E+00
     3.496E+00    3.467E+00    3.438E+00    3.409E+00    3.380E+00    3.352E+00    3.323E+00    3.295E+00    3.267E+00    3.239E+00
     3.211E+00    3.183E+00    3.155E+00    3.127E+00    3.100E+00    3.073E+00    3.045E+00    3.018E+00    2.991E+00    2.964E+00
     2.937E+00    2.910E+00    2.884E+00    2.857E+00    2.831E+00    2.805E+00    2.779E+00    2.753E+00    2.727E+00    2.701E+00
     2.675E+00    2.650E+00    2.625E+00    2.599E+00    2.574E+00    2.549E+00    2.525E+00    2.500E+00    2.475E+00    2.451E+00
     2.426E+00    2.402E+00    2.378E+00    2.354E+00    2.331E+00    2.307E+00    2.283E+00    2.260E+00    2.237E+00    2.214E+00
     2.191E+00    2.168E+00    2.145E+00    2.123E+00    2.100E+00    2.078E+00    2.056E+00    2.034E+00    2.012E+00    1.990E+00
     1.969E+00    1.947E+00    1.926E+00    1.905E+00    1.884E+00    1.863E+00    1.842E+00    1.821E+00    1.801E+00    1.780E+00
     1.760E+00    1.740E+00    1.720E+00    1.700E+00    1.680E+00    1.661E+00    1.641E+00    1.622E+00    1.603E+00    1.584E+00
     1.565E+00    1.546E+00    1.527E+00    1.509E+00    1.491E+00    1.472E+00    1.454E+00    1.436E+00    1.418E+00    1.401E+00
     1.383E+00    1.365E+00    1.348E+00    1.331E+00    1.314E+00    1.297E+00    1.280E+00    1.263E+00    1.247E+00    1.230E+00
     1.214E+00    1.198E+00    1.182E+00    1.166E+00    1.150E+00    1.134E+00    1.118E+00    1.103E+00    1.087E+00    1.072E+00
     1.057E+00    1.042E+00    1.026E+00    1.012E+00    9.967E-01    9.819E-01    9.672E-01    9.527E-01    9.382E-01    9.238E-01
     9.095E-01    8.953E-01    8.811E-01    8.671E-01    8.531E-01    8.392E-01    8.253E-01    8.116E-01    7.979E-01    7.843E-01
     7.708E-01    7.573E-01    7.439E-01    7.306E-01    7.173E-01    7.041E-01    6.909E-01    6.779E-01
 Ala      Conc. = 4.03E+01
