 LCModel (Version 6.3-1L) Copyright: S.W. Provencher.          Ref.: Magn. Reson. Med. 30:672-679 (1993).                
 Slice#2 Row#11 Col#9  K_02_press_1_raw_act
 36 lines in following concentration table = NCONC+1
    Conc.  %SD /Cr+PCr  Metabolite                                         
    0.000 999%   0.000 Ala                                                 
    0.000 999%   0.000 Asp                                                 
  833.275  24%   0.387 Cr                                                  
 1.32E+03  16%   0.613 PCr                                                 
    0.000 999%   0.000 GABA                                                
   69.622 261% 3.2E-02 Glc                                                 
  839.909  25%   0.390 Gln                                                 
 1.94E+03  12%   0.900 Glu                                                 
  714.742   4%   0.332 GPC                                                 
    0.000 999%   0.000 PCh                                                 
  512.948  14%   0.238 GSH                                                 
 1.96E+03  14%   0.908 Ins                                                 
  101.750 111% 4.7E-02 Lac                                                 
 2.85E+03   4%   1.323 NAA                                                 
  382.650  32%   0.178 NAAG                                                
  132.659  23% 6.2E-02 Scyllo                                              
    0.000 999%   0.000 Tau                                                 
    0.000 999%   0.000 -CrCH2                                              
  714.742   4%   0.332 GPC+PCh                                             
 3.23E+03   3%   1.501 NAA+NAAG                                            
 2.15E+03   3%   1.000 Cr+PCr                                              
 2.78E+03  12%   1.290 Glu+Gln                                             
    0.000 999%   0.000 Lip13a                                              
  201.247  59% 9.3E-02 Lip13b                                              
   13.980 745% 6.5E-03 Lip09                                               
 2.06E+03  15%   0.958 MM09                                                
   40.215 178% 1.9E-02 Lip20                                               
 4.56E+03  11%   2.117 MM20                                                
  658.491  33%   0.306 MM12                                                
 2.01E+03  22%   0.933 MM14                                                
  676.207  50%   0.314 MM17                                                
  201.247  59% 9.3E-02 Lip13a+Lip13b                                       
 2.87E+03  19%   1.332 MM14+Lip13a+Lip13b+MM12                             
 2.08E+03  15%   0.964 MM09+Lip09                                          
 4.60E+03  11%   2.136 MM20+Lip20                                          
   6 lines in following misc. output table
  FWHM = 0.046 ppm    S/N =  17                                            
  Data shift = 0.015 ppm                                                   
  Ph: -27 deg      -3.9 deg/ppm                                            
  alphaB,S = 8.7E-01,   5.3E+01                                            
   14 spline knots.   Ns = 6(1)                                            
  (12) 5 infls.   ( 9) 1 extrs.                                            
  498 points on ppm-axis = NY
      4.000000     3.992357     3.984714     3.977070     3.969427     3.961784     3.954141     3.946497     3.938854     3.931211
      3.923568     3.915925     3.908281     3.900638     3.892995     3.885352     3.877708     3.870065     3.862422     3.854779
      3.847136     3.839492     3.831849     3.824206     3.816563     3.808919     3.801276     3.793633     3.785990     3.778347
      3.770703     3.763060     3.755417     3.747774     3.740130     3.732487     3.724844     3.717201     3.709558     3.701914
      3.694271     3.686628     3.678985     3.671341     3.663698     3.656055     3.648412     3.640769     3.633125     3.625482
      3.617839     3.610196     3.602552     3.594909     3.587266     3.579623     3.571980     3.564336     3.556693     3.549050
      3.541407     3.533763     3.526120     3.518477     3.510834     3.503191     3.495547     3.487904     3.480261     3.472618
      3.464974     3.457331     3.449688     3.442045     3.434402     3.426758     3.419115     3.411472     3.403829     3.396185
      3.388542     3.380899     3.373256     3.365613     3.357969     3.350326     3.342683     3.335040     3.327396     3.319753
      3.312110     3.304467     3.296824     3.289180     3.281537     3.273894     3.266251     3.258607     3.250964     3.243321
      3.235678     3.228034     3.220391     3.212748     3.205105     3.197462     3.189818     3.182175     3.174532     3.166889
      3.159245     3.151602     3.143959     3.136316     3.128673     3.121029     3.113386     3.105743     3.098100     3.090456
      3.082813     3.075170     3.067527     3.059884     3.052240     3.044597     3.036954     3.029311     3.021667     3.014024
      3.006381     2.998738     2.991095     2.983451     2.975808     2.968165     2.960522     2.952878     2.945235     2.937592
      2.929949     2.922306     2.914662     2.907019     2.899376     2.891733     2.884089     2.876446     2.868803     2.861160
      2.853517     2.845873     2.838230     2.830587     2.822944     2.815300     2.807657     2.800014     2.792371     2.784728
      2.777084     2.769441     2.761798     2.754155     2.746511     2.738868     2.731225     2.723582     2.715939     2.708295
      2.700652     2.693009     2.685366     2.677722     2.670079     2.662436     2.654793     2.647150     2.639506     2.631863
      2.624220     2.616577     2.608933     2.601290     2.593647     2.586004     2.578361     2.570717     2.563074     2.555431
      2.547788     2.540144     2.532501     2.524858     2.517215     2.509572     2.501928     2.494285     2.486642     2.478999
      2.471355     2.463712     2.456069     2.448426     2.440783     2.433139     2.425496     2.417853     2.410210     2.402566
      2.394923     2.387280     2.379637     2.371994     2.364350     2.356707     2.349064     2.341421     2.333777     2.326134
      2.318491     2.310848     2.303205     2.295561     2.287918     2.280275     2.272632     2.264988     2.257345     2.249702
      2.242059     2.234416     2.226772     2.219129     2.211486     2.203843     2.196199     2.188556     2.180913     2.173270
      2.165627     2.157983     2.150340     2.142697     2.135054     2.127410     2.119767     2.112124     2.104481     2.096838
      2.089194     2.081551     2.073908     2.066265     2.058621     2.050978     2.043335     2.035692     2.028049     2.020405
      2.012762     2.005119     1.997476     1.989833     1.982190     1.974546     1.966903     1.959260     1.951617     1.943974
      1.936331     1.928688     1.921045     1.913402     1.905759     1.898115     1.890472     1.882829     1.875186     1.867543
      1.859900     1.852257     1.844614     1.836971     1.829327     1.821684     1.814041     1.806398     1.798755     1.791112
      1.783469     1.775826     1.768183     1.760540     1.752896     1.745253     1.737610     1.729967     1.722324     1.714681
      1.707038     1.699395     1.691752     1.684108     1.676465     1.668822     1.661179     1.653536     1.645893     1.638250
      1.630607     1.622964     1.615321     1.607677     1.600034     1.592391     1.584748     1.577105     1.569462     1.561819
      1.554176     1.546533     1.538890     1.531246     1.523603     1.515960     1.508317     1.500674     1.493031     1.485388
      1.477745     1.470102     1.462458     1.454815     1.447172     1.439529     1.431886     1.424243     1.416600     1.408957
      1.401314     1.393671     1.386027     1.378384     1.370741     1.363098     1.355455     1.347812     1.340169     1.332526
      1.324883     1.317240     1.309596     1.301953     1.294310     1.286667     1.279024     1.271381     1.263738     1.256095
      1.248452     1.240808     1.233165     1.225522     1.217879     1.210236     1.202593     1.194950     1.187307     1.179664
      1.172021     1.164377     1.156734     1.149091     1.141448     1.133805     1.126162     1.118519     1.110876     1.103233
      1.095590     1.087946     1.080303     1.072660     1.065017     1.057374     1.049731     1.042088     1.034445     1.026802
      1.019158     1.011515     1.003872     0.996229     0.988586     0.980943     0.973300     0.965657     0.958014     0.950371
      0.942727     0.935084     0.927441     0.919798     0.912155     0.904512     0.896869     0.889226     0.881583     0.873940
      0.866296     0.858653     0.851010     0.843367     0.835724     0.828081     0.820438     0.812795     0.805152     0.797508
      0.789865     0.782222     0.774579     0.766936     0.759293     0.751650     0.744007     0.736364     0.728721     0.721077
      0.713434     0.705791     0.698148     0.690505     0.682862     0.675219     0.667576     0.659933     0.652290     0.644646
      0.637003     0.629360     0.621717     0.614074     0.606431     0.598788     0.591145     0.583502     0.575858     0.568215
      0.560572     0.552929     0.545286     0.537643     0.530000     0.522357     0.514714     0.507071     0.499427     0.491784
      0.484141     0.476498     0.468855     0.461212     0.453569     0.445925     0.438282     0.430639     0.422996     0.415353
      0.407710     0.400067     0.392424     0.384780     0.377137     0.369494     0.361851     0.354208     0.346565     0.338922
      0.331278     0.323635     0.315992     0.308349     0.300706     0.293063     0.285420     0.277777     0.270133     0.262490
      0.254847     0.247204     0.239561     0.231918     0.224275     0.216631     0.208988     0.201345
 NY phased data points follow
  -1.03594E+02 -1.03304E+02 -1.00319E+02 -9.20070E+01 -9.13219E+01 -8.20841E+01 -7.63237E+01 -6.50006E+01 -5.67371E+01 -4.55790E+01
  -4.05841E+01 -4.17997E+01 -4.86258E+01 -6.02049E+01 -6.81069E+01 -7.51138E+01 -8.68947E+01 -8.84481E+01 -9.37508E+01 -8.96183E+01
  -8.88297E+01 -9.26346E+01 -8.58624E+01 -8.31296E+01 -8.49402E+01 -7.92611E+01 -7.63289E+01 -7.79621E+01 -7.58020E+01 -7.40662E+01
  -6.87394E+01 -6.89975E+01 -6.61545E+01 -6.66844E+01 -7.26552E+01 -7.13791E+01 -7.81466E+01 -7.26187E+01 -7.34200E+01 -7.29442E+01
  -7.11316E+01 -6.93131E+01 -6.55295E+01 -6.71884E+01 -6.23710E+01 -5.81018E+01 -5.71237E+01 -5.11744E+01 -5.31687E+01 -5.71286E+01
  -5.77667E+01 -6.02870E+01 -6.27499E+01 -6.57820E+01 -6.09864E+01 -6.09127E+01 -6.05518E+01 -5.83566E+01 -5.69746E+01 -6.16242E+01
  -6.41868E+01 -6.53389E+01 -6.91169E+01 -6.77526E+01 -6.94509E+01 -7.00584E+01 -7.22203E+01 -6.54537E+01 -6.76509E+01 -6.78695E+01
  -6.27141E+01 -6.40674E+01 -6.41047E+01 -6.35990E+01 -6.07114E+01 -6.12433E+01 -5.93094E+01 -5.80523E+01 -5.89229E+01 -5.98265E+01
  -6.02775E+01 -5.72050E+01 -5.65370E+01 -5.89427E+01 -6.00491E+01 -5.51227E+01 -5.84811E+01 -5.11157E+01 -5.32356E+01 -4.92730E+01
  -5.13025E+01 -4.92687E+01 -4.97474E+01 -4.71205E+01 -4.84631E+01 -4.37524E+01 -4.24543E+01 -3.98658E+01 -3.46119E+01 -2.55435E+01
  -1.17195E+01  4.29721E+00  1.27014E+01  1.68121E+01  1.14822E+01 -3.07822E-01 -1.32354E+01 -2.50919E+01 -3.13799E+01 -3.77534E+01
  -4.29354E+01 -4.33373E+01 -4.10630E+01 -4.53609E+01 -4.45988E+01 -4.62577E+01 -4.36140E+01 -4.06057E+01 -4.02712E+01 -3.82983E+01
  -3.13446E+01 -3.11131E+01 -2.67855E+01 -1.92967E+01 -9.88578E+00  1.15265E+01  2.80633E+01  3.57566E+01  2.71814E+01  2.06359E+01
   1.50493E+00 -4.17736E+00 -1.79181E+01 -2.59672E+01 -3.53960E+01 -3.75253E+01 -3.74697E+01 -3.88064E+01 -4.44363E+01 -4.24335E+01
  -4.36852E+01 -4.08709E+01 -3.84501E+01 -3.49326E+01 -3.92068E+01 -4.10963E+01 -4.07782E+01 -3.86064E+01 -3.75033E+01 -4.29101E+01
  -3.88789E+01 -3.75856E+01 -3.72123E+01 -3.90619E+01 -3.84898E+01 -3.96757E+01 -3.96974E+01 -4.11258E+01 -3.68035E+01 -3.53085E+01
  -3.71949E+01 -3.88483E+01 -4.23201E+01 -4.44893E+01 -4.17746E+01 -3.70534E+01 -4.09326E+01 -3.68544E+01 -4.47824E+01 -4.34268E+01
  -4.34502E+01 -4.74356E+01 -4.68665E+01 -5.52049E+01 -5.32951E+01 -5.54695E+01 -5.52118E+01 -5.17813E+01 -4.80807E+01 -4.86920E+01
  -4.87690E+01 -5.23437E+01 -4.56768E+01 -4.74094E+01 -4.62499E+01 -4.61473E+01 -4.80362E+01 -4.64879E+01 -3.88018E+01 -3.62353E+01
  -2.50609E+01 -3.04172E+01 -2.92509E+01 -2.85721E+01 -2.76603E+01 -2.92812E+01 -2.98040E+01 -3.23733E+01 -3.05476E+01 -3.47093E+01
  -3.16567E+01 -2.84000E+01 -3.07605E+01 -2.92798E+01 -2.70372E+01 -2.68833E+01 -3.21845E+01 -3.21380E+01 -3.48452E+01 -3.69663E+01
  -3.71176E+01 -3.74234E+01 -3.49495E+01 -2.72615E+01 -1.88776E+01 -1.76477E+01 -1.45396E+01 -1.15017E+01 -1.54390E+01 -2.27296E+01
  -2.90109E+01 -3.63924E+01 -3.57063E+01 -3.25832E+01 -2.60791E+01 -2.34506E+01 -1.78861E+01 -1.87078E+01 -1.38217E+01 -1.52328E+01
  -1.34910E+01 -1.69812E+01 -2.20224E+01 -1.56607E+01 -1.61288E+01 -1.74032E+01 -2.06124E+01 -1.79442E+01 -1.72380E+01 -1.46442E+01
  -2.02159E+01 -1.97247E+01 -2.27161E+01 -2.04533E+01 -2.21549E+01 -1.25739E+01 -1.21731E+01 -7.07251E+00 -2.27100E+00 -5.13936E-01
  -6.85813E+00 -6.04216E-01  5.37082E+00  1.24306E+01  2.30394E+01  2.75142E+01  2.60977E+01  3.73351E+01  6.15093E+01  8.54682E+01
   1.04734E+02  9.70095E+01  7.98104E+01  6.01433E+01  3.72999E+01  1.92265E+01  9.01931E+00  3.11884E+00 -3.40092E+00 -8.92190E+00
  -1.18986E+01 -1.32239E+01 -1.09427E+01 -1.72774E+01 -1.13905E+01 -1.66921E+01 -1.03802E+01 -1.68911E+01 -1.68974E+01 -1.73397E+01
  -1.39793E+01 -1.52211E+01 -1.51251E+01 -1.52763E+01 -1.80605E+01 -1.74735E+01 -1.80149E+01 -1.51162E+01 -2.07370E+01 -1.68068E+01
  -1.70978E+01 -1.82443E+01 -1.49263E+01 -1.62164E+01 -1.50067E+01 -1.62761E+01 -1.67980E+01 -1.61330E+01 -1.69377E+01 -1.66514E+01
  -1.79699E+01 -1.61957E+01 -1.78010E+01 -1.83782E+01 -1.75161E+01 -1.63786E+01 -1.74718E+01 -1.74761E+01 -1.57322E+01 -1.42701E+01
  -1.01690E+01 -1.04075E+01 -1.08963E+01 -8.61613E+00 -8.78185E+00 -6.36789E+00 -8.83570E+00 -9.71229E+00 -6.62850E+00 -8.10663E+00
  -4.12385E+00 -1.13905E+01 -6.46343E+00 -9.22141E+00 -5.97751E+00 -6.60979E+00 -8.50634E+00 -1.08903E+01 -7.04453E+00 -6.02709E+00
  -6.53530E+00 -6.86810E+00 -6.08946E+00 -6.10332E+00 -3.27269E+00 -3.72093E+00 -3.96736E+00 -5.88404E+00 -7.26845E+00 -7.31627E+00
  -6.95478E+00 -1.07874E+01 -1.01383E+01 -8.82716E+00 -9.87915E+00 -1.21645E+01 -1.03127E+01 -1.17607E+01 -1.35186E+01 -9.88659E+00
  -1.24981E+01 -1.32026E+01 -9.85480E+00 -1.29444E+01 -9.59317E+00 -7.35874E+00 -8.54320E+00 -8.52482E+00 -6.40745E+00 -9.81539E+00
  -6.11754E+00 -7.05981E+00 -9.88035E+00 -7.30164E+00 -7.49626E+00 -9.91380E+00 -1.07425E+01 -9.98288E+00 -6.94270E+00 -1.31337E+01
  -8.94364E+00 -1.03178E+01 -8.60417E+00 -1.20613E+01 -7.82608E+00 -1.52086E+01 -1.09059E+01 -1.16367E+01 -9.03593E+00 -9.52783E+00
  -1.26475E+01 -1.45480E+01 -1.09773E+01 -1.10712E+01 -1.12028E+01 -9.02752E+00 -1.15956E+01 -7.79785E+00 -9.97588E+00 -4.93916E+00
  -5.05599E+00 -3.28925E+00 -7.16482E+00 -6.83842E-01 -6.28794E+00 -1.75986E+00 -2.85744E+00 -3.06966E+00 -5.01481E+00 -6.23196E+00
  -1.68073E+00 -2.91043E+00  1.32646E+00 -1.43792E+00 -7.68589E-02  2.59485E+00  8.35587E-01 -8.67975E-02  4.14841E+00  4.91884E+00
   3.04519E-01  2.96487E+00  2.26519E+00  3.27845E+00 -1.43927E+00 -7.95779E-01 -3.75584E+00 -3.03170E+00 -5.55862E+00 -4.70773E+00
  -6.43654E+00 -3.96542E+00 -7.13152E+00 -4.46634E+00 -6.41715E+00 -9.70151E+00 -8.24411E+00 -8.55944E+00 -6.60066E+00 -8.95288E+00
  -6.76991E+00 -5.14431E+00 -6.59765E+00 -6.48621E+00 -1.07419E+01 -8.04794E+00 -6.43976E+00 -1.08608E+01 -9.31937E+00 -1.00530E+01
  -1.00250E+01 -6.88203E+00 -8.07779E+00 -4.51736E+00 -8.74191E+00 -1.02884E+01 -1.10893E+01 -6.97229E+00 -9.64410E+00 -8.28822E+00
  -7.53913E+00 -8.16218E+00 -1.30083E+01 -9.80524E+00 -8.70654E+00 -1.04136E+01 -6.15227E+00 -4.85154E+00 -7.55400E+00 -7.93147E+00
  -8.46179E+00 -9.39183E+00 -9.21213E+00 -1.00257E+01 -5.92262E+00 -5.99164E+00 -6.93616E+00 -9.74388E+00 -1.04213E+01 -8.80754E+00
  -5.59437E+00 -9.09045E+00 -5.14306E+00 -9.80416E+00 -7.95185E+00 -1.12132E+01 -7.23863E+00 -1.28802E+01 -6.03028E+00 -8.17546E+00
  -8.02770E+00 -6.41972E+00 -4.13564E+00 -4.73736E+00 -8.44446E+00 -6.76838E+00 -7.65229E+00 -7.92512E+00 -3.38002E+00 -1.04522E+01
  -6.22151E+00 -8.65939E+00 -7.35338E+00 -7.69602E+00 -8.90045E+00 -3.31281E+00 -8.08844E+00 -6.54412E+00
 NY points of the fit to the data follow
  -9.87388E+01 -9.81300E+01 -9.66500E+01 -9.27567E+01 -8.77143E+01 -8.31409E+01 -7.73354E+01 -6.75468E+01 -5.51307E+01 -4.48798E+01
  -4.09811E+01 -4.40495E+01 -5.16770E+01 -6.06335E+01 -6.85555E+01 -7.47031E+01 -7.97069E+01 -8.33364E+01 -8.51595E+01 -8.55216E+01
  -8.53638E+01 -8.50973E+01 -8.51369E+01 -8.46350E+01 -8.32727E+01 -8.27263E+01 -8.21905E+01 -8.02307E+01 -7.63832E+01 -7.17562E+01
  -6.78846E+01 -6.53627E+01 -6.46640E+01 -6.58408E+01 -6.80501E+01 -7.06270E+01 -7.33484E+01 -7.57955E+01 -7.71439E+01 -7.70239E+01
  -7.52021E+01 -7.26563E+01 -7.04911E+01 -6.82347E+01 -6.48429E+01 -6.05222E+01 -5.70009E+01 -5.59100E+01 -5.73071E+01 -6.02828E+01
  -6.36682E+01 -6.65369E+01 -6.83521E+01 -6.92048E+01 -6.94308E+01 -6.88061E+01 -6.75338E+01 -6.58163E+01 -6.39504E+01 -6.25194E+01
  -6.19147E+01 -6.22387E+01 -6.32744E+01 -6.44151E+01 -6.51375E+01 -6.50921E+01 -6.45406E+01 -6.36630E+01 -6.25183E+01 -6.11301E+01
  -5.97826E+01 -5.88009E+01 -5.83050E+01 -5.81981E+01 -5.82781E+01 -5.83652E+01 -5.83640E+01 -5.82523E+01 -5.81373E+01 -5.79740E+01
  -5.78110E+01 -5.71430E+01 -5.64946E+01 -5.63966E+01 -5.60093E+01 -5.49427E+01 -5.35705E+01 -5.25362E+01 -5.22600E+01 -5.24469E+01
  -5.26456E+01 -5.27542E+01 -5.24727E+01 -5.17838E+01 -5.10518E+01 -4.95140E+01 -4.46148E+01 -3.88350E+01 -3.56000E+01 -2.83569E+01
  -1.36026E+01  4.18306E+00  1.68219E+01  1.90215E+01  1.18169E+01 -3.93777E-01 -1.35673E+01 -2.47671E+01 -3.33432E+01 -4.05909E+01
  -4.55637E+01 -4.70546E+01 -4.72532E+01 -4.70966E+01 -4.68160E+01 -4.64391E+01 -4.59872E+01 -4.54562E+01 -4.47341E+01 -4.33216E+01
  -3.90791E+01 -3.15736E+01 -2.65485E+01 -2.06828E+01 -7.36900E+00  1.17476E+01  2.85494E+01  3.54828E+01  3.08893E+01  1.87619E+01
   4.36803E+00 -8.46808E+00 -1.84815E+01 -2.70139E+01 -3.46765E+01 -3.90387E+01 -4.09275E+01 -4.18097E+01 -4.17657E+01 -4.09849E+01
  -3.99592E+01 -3.90501E+01 -3.84447E+01 -3.82819E+01 -3.84758E+01 -3.88281E+01 -3.92295E+01 -3.95863E+01 -3.99333E+01 -4.02244E+01
  -4.03951E+01 -4.05587E+01 -4.07336E+01 -4.08666E+01 -4.09785E+01 -4.11332E+01 -4.09957E+01 -4.07546E+01 -4.08207E+01 -4.12639E+01
  -4.21094E+01 -4.26021E+01 -4.22678E+01 -4.14855E+01 -4.08650E+01 -4.07771E+01 -4.12517E+01 -4.19398E+01 -4.25456E+01 -4.31074E+01
  -4.35813E+01 -4.37691E+01 -4.37981E+01 -4.41157E+01 -4.47856E+01 -4.53991E+01 -4.51841E+01 -4.42586E+01 -4.34460E+01 -4.32324E+01
  -4.33666E+01 -4.34550E+01 -4.29012E+01 -4.20462E+01 -4.15506E+01 -4.12441E+01 -4.04605E+01 -3.89474E+01 -3.66962E+01 -3.42804E+01
  -3.23517E+01 -3.12986E+01 -3.13823E+01 -3.19038E+01 -3.25495E+01 -3.33902E+01 -3.41551E+01 -3.42831E+01 -3.33977E+01 -3.18794E+01
  -2.99997E+01 -2.80678E+01 -2.63176E+01 -2.53164E+01 -2.54709E+01 -2.63111E+01 -2.85725E+01 -3.21050E+01 -3.52067E+01 -3.68138E+01
  -3.64099E+01 -3.52478E+01 -3.30482E+01 -2.90140E+01 -2.39716E+01 -1.99762E+01 -1.86548E+01 -1.98937E+01 -2.26960E+01 -2.65327E+01
  -3.11737E+01 -3.51360E+01 -3.68054E+01 -3.56929E+01 -3.21070E+01 -2.77264E+01 -2.36834E+01 -2.03994E+01 -1.83787E+01 -1.76929E+01
  -1.78723E+01 -1.82160E+01 -1.84268E+01 -1.83152E+01 -1.76649E+01 -1.63349E+01 -1.48837E+01 -1.37640E+01 -1.29809E+01 -1.29432E+01
  -1.39163E+01 -1.53658E+01 -1.61462E+01 -1.58231E+01 -1.46054E+01 -1.27809E+01 -1.07288E+01 -8.83449E+00 -7.38622E+00 -5.79315E+00
  -3.95917E+00 -2.73238E+00 -6.97947E-01  4.80955E+00  1.77789E+01  2.86543E+01  3.28192E+01  4.27768E+01  6.33636E+01  8.64480E+01
   9.98219E+01  9.73293E+01  8.19888E+01  6.08473E+01  4.01201E+01  2.34426E+01  1.04978E+01 -1.26314E+00 -8.79145E+00 -1.13443E+01
  -1.26446E+01 -1.34913E+01 -1.39065E+01 -1.40690E+01 -1.42630E+01 -1.45432E+01 -1.48897E+01 -1.52827E+01 -1.57191E+01 -1.61494E+01
  -1.65398E+01 -1.68556E+01 -1.70748E+01 -1.72165E+01 -1.73285E+01 -1.74334E+01 -1.75327E+01 -1.76232E+01 -1.76921E+01 -1.77285E+01
  -1.77117E+01 -1.76320E+01 -1.75118E+01 -1.73699E+01 -1.72051E+01 -1.70296E+01 -1.68505E+01 -1.66592E+01 -1.64479E+01 -1.62057E+01
  -1.59242E+01 -1.56087E+01 -1.52677E+01 -1.49109E+01 -1.45457E+01 -1.41747E+01 -1.38021E+01 -1.34345E+01 -1.30699E+01 -1.27071E+01
  -1.23467E+01 -1.19889E+01 -1.16340E+01 -1.12821E+01 -1.09315E+01 -1.05804E+01 -1.02277E+01 -9.87313E+00 -9.51706E+00 -9.15999E+00
  -8.80268E+00 -8.44726E+00 -8.09770E+00 -7.75922E+00 -7.43747E+00 -7.13807E+00 -6.86686E+00 -6.63021E+00 -6.43475E+00 -6.28643E+00
  -6.18964E+00 -6.14698E+00 -6.15965E+00 -6.22772E+00 -6.34976E+00 -6.52218E+00 -6.73874E+00 -6.99075E+00 -7.26701E+00 -7.55179E+00
  -7.81550E+00 -8.02112E+00 -8.30116E+00 -8.62236E+00 -8.78185E+00 -8.85339E+00 -9.05409E+00 -9.51435E+00 -1.01442E+01 -1.06186E+01
  -1.09176E+01 -1.10778E+01 -1.09395E+01 -1.04330E+01 -9.67456E+00 -8.84321E+00 -8.18716E+00 -7.86129E+00 -7.83716E+00 -8.03239E+00
  -8.34410E+00 -8.71654E+00 -9.15647E+00 -9.56922E+00 -9.89954E+00 -1.01644E+01 -1.03721E+01 -1.05300E+01 -1.06467E+01 -1.07311E+01
  -1.07911E+01 -1.08330E+01 -1.08612E+01 -1.08783E+01 -1.08846E+01 -1.08788E+01 -1.08583E+01 -1.08203E+01 -1.07617E+01 -1.06793E+01
  -1.05694E+01 -1.04285E+01 -1.02527E+01 -1.00390E+01 -9.78439E+00 -9.48628E+00 -9.14206E+00 -8.74951E+00 -8.30721E+00 -7.81491E+00
  -7.27346E+00 -6.68479E+00 -6.05205E+00 -5.38000E+00 -4.67545E+00 -3.94727E+00 -3.20603E+00 -2.46371E+00 -1.73349E+00 -1.02971E+00
  -3.67497E-01  2.37913E-01  7.72122E-01  1.22228E+00  1.57745E+00  1.82895E+00  1.97075E+00  2.00000E+00  1.91743E+00  1.72718E+00
   1.43641E+00  1.05467E+00  5.93606E-01  6.65722E-02 -5.11846E-01 -1.12666E+00 -1.76334E+00 -2.40839E+00 -3.04958E+00 -3.67603E+00
  -4.27843E+00 -4.84941E+00 -5.38364E+00 -5.87773E+00 -6.32974E+00 -6.73892E+00 -7.10554E+00 -7.43092E+00 -7.71730E+00 -7.96743E+00
  -8.18413E+00 -8.37016E+00 -8.52830E+00 -8.66144E+00 -8.77251E+00 -8.86417E+00 -8.93863E+00 -8.99774E+00 -9.04329E+00 -9.07704E+00
  -9.10063E+00 -9.11537E+00 -9.12219E+00 -9.12189E+00 -9.11530E+00 -9.10336E+00 -9.08685E+00 -9.06627E+00 -9.04190E+00 -9.01408E+00
  -8.98328E+00 -8.95001E+00 -8.91465E+00 -8.87731E+00 -8.83802E+00 -8.79692E+00 -8.75436E+00 -8.71063E+00 -8.66584E+00 -8.61992E+00
  -8.57284E+00 -8.52478E+00 -8.47598E+00 -8.42662E+00 -8.37663E+00 -8.32590E+00 -8.27444E+00 -8.22243E+00 -8.17009E+00 -8.11745E+00
  -8.06437E+00 -8.01074E+00 -7.95665E+00 -7.90227E+00 -7.84773E+00 -7.79297E+00 -7.73782E+00 -7.68224E+00 -7.62637E+00 -7.57038E+00
  -7.51429E+00 -7.45797E+00 -7.40127E+00 -7.34423E+00 -7.28701E+00 -7.22973E+00 -7.17232E+00 -7.11461E+00 -7.05652E+00 -6.99816E+00
  -6.93967E+00 -6.88111E+00 -6.82233E+00 -6.76316E+00 -6.70361E+00 -6.64381E+00 -6.58387E+00 -6.52375E+00
 NY background values follow
    -1.047E+02   -1.041E+02   -1.035E+02   -1.029E+02   -1.023E+02   -1.017E+02   -1.011E+02   -1.005E+02   -9.991E+01   -9.932E+01
    -9.872E+01   -9.812E+01   -9.753E+01   -9.693E+01   -9.633E+01   -9.574E+01   -9.515E+01   -9.455E+01   -9.396E+01   -9.337E+01
    -9.278E+01   -9.219E+01   -9.160E+01   -9.102E+01   -9.043E+01   -8.985E+01   -8.927E+01   -8.869E+01   -8.811E+01   -8.753E+01
    -8.696E+01   -8.639E+01   -8.582E+01   -8.525E+01   -8.468E+01   -8.412E+01   -8.356E+01   -8.300E+01   -8.244E+01   -8.189E+01
    -8.134E+01   -8.079E+01   -8.025E+01   -7.970E+01   -7.916E+01   -7.863E+01   -7.810E+01   -7.757E+01   -7.704E+01   -7.652E+01
    -7.600E+01   -7.548E+01   -7.497E+01   -7.446E+01   -7.395E+01   -7.345E+01   -7.295E+01   -7.245E+01   -7.196E+01   -7.147E+01
    -7.099E+01   -7.050E+01   -7.002E+01   -6.955E+01   -6.908E+01   -6.861E+01   -6.814E+01   -6.768E+01   -6.722E+01   -6.677E+01
    -6.632E+01   -6.587E+01   -6.543E+01   -6.499E+01   -6.455E+01   -6.412E+01   -6.369E+01   -6.327E+01   -6.284E+01   -6.243E+01
    -6.201E+01   -6.160E+01   -6.120E+01   -6.079E+01   -6.039E+01   -6.000E+01   -5.961E+01   -5.922E+01   -5.884E+01   -5.846E+01
    -5.808E+01   -5.771E+01   -5.734E+01   -5.698E+01   -5.662E+01   -5.626E+01   -5.591E+01   -5.556E+01   -5.521E+01   -5.487E+01
    -5.454E+01   -5.420E+01   -5.388E+01   -5.355E+01   -5.323E+01   -5.291E+01   -5.260E+01   -5.229E+01   -5.198E+01   -5.168E+01
    -5.138E+01   -5.109E+01   -5.080E+01   -5.052E+01   -5.023E+01   -4.995E+01   -4.968E+01   -4.941E+01   -4.914E+01   -4.888E+01
    -4.862E+01   -4.837E+01   -4.812E+01   -4.787E+01   -4.763E+01   -4.739E+01   -4.716E+01   -4.692E+01   -4.670E+01   -4.647E+01
    -4.626E+01   -4.604E+01   -4.583E+01   -4.562E+01   -4.542E+01   -4.522E+01   -4.502E+01   -4.483E+01   -4.464E+01   -4.446E+01
    -4.428E+01   -4.410E+01   -4.393E+01   -4.376E+01   -4.359E+01   -4.342E+01   -4.326E+01   -4.310E+01   -4.294E+01   -4.279E+01
    -4.263E+01   -4.248E+01   -4.233E+01   -4.218E+01   -4.204E+01   -4.189E+01   -4.175E+01   -4.160E+01   -4.146E+01   -4.132E+01
    -4.118E+01   -4.104E+01   -4.090E+01   -4.076E+01   -4.062E+01   -4.049E+01   -4.035E+01   -4.021E+01   -4.007E+01   -3.993E+01
    -3.979E+01   -3.965E+01   -3.951E+01   -3.936E+01   -3.922E+01   -3.907E+01   -3.893E+01   -3.878E+01   -3.863E+01   -3.848E+01
    -3.832E+01   -3.817E+01   -3.801E+01   -3.785E+01   -3.768E+01   -3.752E+01   -3.735E+01   -3.719E+01   -3.702E+01   -3.684E+01
    -3.667E+01   -3.650E+01   -3.632E+01   -3.614E+01   -3.596E+01   -3.579E+01   -3.560E+01   -3.542E+01   -3.524E+01   -3.506E+01
    -3.487E+01   -3.469E+01   -3.450E+01   -3.432E+01   -3.413E+01   -3.395E+01   -3.376E+01   -3.357E+01   -3.339E+01   -3.320E+01
    -3.301E+01   -3.283E+01   -3.264E+01   -3.245E+01   -3.227E+01   -3.208E+01   -3.190E+01   -3.172E+01   -3.153E+01   -3.135E+01
    -3.117E+01   -3.099E+01   -3.081E+01   -3.064E+01   -3.046E+01   -3.029E+01   -3.011E+01   -2.994E+01   -2.977E+01   -2.960E+01
    -2.943E+01   -2.927E+01   -2.910E+01   -2.894E+01   -2.878E+01   -2.862E+01   -2.846E+01   -2.830E+01   -2.815E+01   -2.799E+01
    -2.784E+01   -2.769E+01   -2.754E+01   -2.739E+01   -2.724E+01   -2.710E+01   -2.695E+01   -2.681E+01   -2.667E+01   -2.653E+01
    -2.639E+01   -2.625E+01   -2.611E+01   -2.597E+01   -2.584E+01   -2.571E+01   -2.558E+01   -2.544E+01   -2.531E+01   -2.519E+01
    -2.506E+01   -2.493E+01   -2.481E+01   -2.469E+01   -2.456E+01   -2.444E+01   -2.432E+01   -2.420E+01   -2.408E+01   -2.397E+01
    -2.385E+01   -2.374E+01   -2.362E+01   -2.351E+01   -2.340E+01   -2.329E+01   -2.318E+01   -2.307E+01   -2.296E+01   -2.286E+01
    -2.275E+01   -2.265E+01   -2.255E+01   -2.244E+01   -2.234E+01   -2.224E+01   -2.214E+01   -2.204E+01   -2.195E+01   -2.185E+01
    -2.175E+01   -2.166E+01   -2.156E+01   -2.147E+01   -2.138E+01   -2.129E+01   -2.120E+01   -2.111E+01   -2.102E+01   -2.093E+01
    -2.084E+01   -2.075E+01   -2.067E+01   -2.058E+01   -2.050E+01   -2.041E+01   -2.033E+01   -2.025E+01   -2.017E+01   -2.009E+01
    -2.001E+01   -1.993E+01   -1.985E+01   -1.977E+01   -1.969E+01   -1.962E+01   -1.954E+01   -1.946E+01   -1.939E+01   -1.931E+01
    -1.924E+01   -1.917E+01   -1.909E+01   -1.902E+01   -1.895E+01   -1.888E+01   -1.881E+01   -1.874E+01   -1.867E+01   -1.860E+01
    -1.853E+01   -1.846E+01   -1.839E+01   -1.832E+01   -1.825E+01   -1.819E+01   -1.812E+01   -1.805E+01   -1.799E+01   -1.792E+01
    -1.785E+01   -1.779E+01   -1.772E+01   -1.766E+01   -1.759E+01   -1.753E+01   -1.746E+01   -1.740E+01   -1.733E+01   -1.727E+01
    -1.720E+01   -1.714E+01   -1.708E+01   -1.701E+01   -1.695E+01   -1.688E+01   -1.682E+01   -1.676E+01   -1.669E+01   -1.663E+01
    -1.656E+01   -1.650E+01   -1.643E+01   -1.637E+01   -1.631E+01   -1.624E+01   -1.618E+01   -1.611E+01   -1.605E+01   -1.598E+01
    -1.592E+01   -1.585E+01   -1.578E+01   -1.572E+01   -1.565E+01   -1.559E+01   -1.552E+01   -1.545E+01   -1.539E+01   -1.532E+01
    -1.525E+01   -1.519E+01   -1.512E+01   -1.505E+01   -1.498E+01   -1.492E+01   -1.485E+01   -1.478E+01   -1.471E+01   -1.464E+01
    -1.457E+01   -1.450E+01   -1.443E+01   -1.436E+01   -1.429E+01   -1.422E+01   -1.415E+01   -1.408E+01   -1.401E+01   -1.394E+01
    -1.387E+01   -1.379E+01   -1.372E+01   -1.365E+01   -1.357E+01   -1.350E+01   -1.343E+01   -1.335E+01   -1.328E+01   -1.320E+01
    -1.313E+01   -1.305E+01   -1.298E+01   -1.290E+01   -1.282E+01   -1.275E+01   -1.267E+01   -1.259E+01   -1.252E+01   -1.244E+01
    -1.236E+01   -1.229E+01   -1.221E+01   -1.213E+01   -1.205E+01   -1.197E+01   -1.190E+01   -1.182E+01   -1.174E+01   -1.166E+01
    -1.159E+01   -1.151E+01   -1.143E+01   -1.135E+01   -1.127E+01   -1.120E+01   -1.112E+01   -1.104E+01   -1.097E+01   -1.089E+01
    -1.081E+01   -1.074E+01   -1.066E+01   -1.058E+01   -1.051E+01   -1.043E+01   -1.036E+01   -1.028E+01   -1.021E+01   -1.013E+01
    -1.006E+01   -9.987E+00   -9.914E+00   -9.841E+00   -9.769E+00   -9.697E+00   -9.626E+00   -9.555E+00   -9.484E+00   -9.414E+00
    -9.344E+00   -9.274E+00   -9.205E+00   -9.135E+00   -9.067E+00   -8.998E+00   -8.930E+00   -8.862E+00   -8.794E+00   -8.727E+00
    -8.659E+00   -8.592E+00   -8.525E+00   -8.459E+00   -8.392E+00   -8.326E+00   -8.260E+00   -8.194E+00   -8.128E+00   -8.062E+00
    -7.997E+00   -7.931E+00   -7.866E+00   -7.801E+00   -7.735E+00   -7.670E+00   -7.605E+00   -7.540E+00   -7.475E+00   -7.410E+00
    -7.345E+00   -7.280E+00   -7.215E+00   -7.150E+00   -7.085E+00   -7.020E+00   -6.955E+00   -6.890E+00
 Cr       Conc. = 8.33E+02
