 LCModel (Version 6.3-1L) Copyright: S.W. Provencher.          Ref.: Magn. Reson. Med. 30:672-679 (1993).                
 Slice#2 Row#3 Col#3  K_02_press_1_raw_act
 36 lines in following concentration table = NCONC+1
    Conc.  %SD /Cr+PCr  Metabolite                                         
 8.81E+03  11%  22.944 Ala                                                 
    0.000 999%   0.000 Asp                                                 
    0.000 999%   0.000 Cr                                                  
  383.793  22%   1.000 PCr                                                 
   22.843 248% 6.0E-02 GABA                                                
   23.272 243% 6.1E-02 Glc                                                 
 4.36E+03  17%  11.358 Gln                                                 
 2.71E+03  36%   7.061 Glu                                                 
   56.958  59%   0.148 GPC                                                 
    0.000 999%   0.000 PCh                                                 
    0.000 999%   0.000 GSH                                                 
  300.963 118%   0.784 Ins                                                 
 4.20E+03  32%  10.956 Lac                                                 
  210.570  54%   0.549 NAA                                                 
    0.000 999%   0.000 NAAG                                                
   16.515 107% 4.3E-02 Scyllo                                              
   53.695 170%   0.140 Tau                                                 
    0.000 999%   0.000 -CrCH2                                              
   56.958  59%   0.148 GPC+PCh                                             
  210.570  54%   0.549 NAA+NAAG                                            
  383.793  22%   1.000 Cr+PCr                                              
 7.07E+03  20%  18.419 Glu+Gln                                             
 1.03E+04  14%  26.875 Lip13a                                              
    0.000 999%   0.000 Lip13b                                              
    0.000 999%   0.000 Lip09                                               
 1.28E+03  18%   3.345 MM09                                                
  975.269  45%   2.541 Lip20                                               
 1.14E+03  36%   2.966 MM20                                                
  424.255  35%   1.105 MM12                                                
 3.20E+03   7%   8.343+MM14                                                
 1.59E+03  19%   4.143 MM17                                                
 1.03E+04  14%  26.875 Lip13a+Lip13b                                       
 1.39E+04  10%  36.323 MM14+Lip13a+Lip13b+MM12                             
 1.28E+03  18%   3.345 MM09+Lip09                                          
 2.11E+03  19%   5.507 MM20+Lip20                                          
   6 lines in following misc. output table
  FWHM = 0.168 ppm    S/N =  10                                            
  Data shift = 0.138 ppm                                                   
  Ph: 123 deg       1.0 deg/ppm                                            
  alphaB,S = 2.3E+00,   2.0E+02                                            
    8 spline knots.   Ns = 9(2)                                            
  (11) 7 infls.   ( 3) 1 extrs.                                            
  498 points on ppm-axis = NY
      4.000000     3.992357     3.984714     3.977070     3.969427     3.961784     3.954141     3.946497     3.938854     3.931211
      3.923568     3.915925     3.908281     3.900638     3.892995     3.885352     3.877708     3.870065     3.862422     3.854779
      3.847136     3.839492     3.831849     3.824206     3.816563     3.808919     3.801276     3.793633     3.785990     3.778347
      3.770703     3.763060     3.755417     3.747774     3.740130     3.732487     3.724844     3.717201     3.709558     3.701914
      3.694271     3.686628     3.678985     3.671341     3.663698     3.656055     3.648412     3.640769     3.633125     3.625482
      3.617839     3.610196     3.602552     3.594909     3.587266     3.579623     3.571980     3.564336     3.556693     3.549050
      3.541407     3.533763     3.526120     3.518477     3.510834     3.503191     3.495547     3.487904     3.480261     3.472618
      3.464974     3.457331     3.449688     3.442045     3.434402     3.426758     3.419115     3.411472     3.403829     3.396185
      3.388542     3.380899     3.373256     3.365613     3.357969     3.350326     3.342683     3.335040     3.327396     3.319753
      3.312110     3.304467     3.296824     3.289180     3.281537     3.273894     3.266251     3.258607     3.250964     3.243321
      3.235678     3.228034     3.220391     3.212748     3.205105     3.197462     3.189818     3.182175     3.174532     3.166889
      3.159245     3.151602     3.143959     3.136316     3.128673     3.121029     3.113386     3.105743     3.098100     3.090456
      3.082813     3.075170     3.067527     3.059884     3.052240     3.044597     3.036954     3.029311     3.021667     3.014024
      3.006381     2.998738     2.991095     2.983451     2.975808     2.968165     2.960522     2.952878     2.945235     2.937592
      2.929949     2.922306     2.914662     2.907019     2.899376     2.891733     2.884089     2.876446     2.868803     2.861160
      2.853517     2.845873     2.838230     2.830587     2.822944     2.815300     2.807657     2.800014     2.792371     2.784728
      2.777084     2.769441     2.761798     2.754155     2.746511     2.738868     2.731225     2.723582     2.715939     2.708295
      2.700652     2.693009     2.685366     2.677722     2.670079     2.662436     2.654793     2.647150     2.639506     2.631863
      2.624220     2.616577     2.608933     2.601290     2.593647     2.586004     2.578361     2.570717     2.563074     2.555431
      2.547788     2.540144     2.532501     2.524858     2.517215     2.509572     2.501928     2.494285     2.486642     2.478999
      2.471355     2.463712     2.456069     2.448426     2.440783     2.433139     2.425496     2.417853     2.410210     2.402566
      2.394923     2.387280     2.379637     2.371994     2.364350     2.356707     2.349064     2.341421     2.333777     2.326134
      2.318491     2.310848     2.303205     2.295561     2.287918     2.280275     2.272632     2.264988     2.257345     2.249702
      2.242059     2.234416     2.226772     2.219129     2.211486     2.203843     2.196199     2.188556     2.180913     2.173270
      2.165627     2.157983     2.150340     2.142697     2.135054     2.127410     2.119767     2.112124     2.104481     2.096838
      2.089194     2.081551     2.073908     2.066265     2.058621     2.050978     2.043335     2.035692     2.028049     2.020405
      2.012762     2.005119     1.997476     1.989833     1.982190     1.974546     1.966903     1.959260     1.951617     1.943974
      1.936331     1.928688     1.921045     1.913402     1.905759     1.898115     1.890472     1.882829     1.875186     1.867543
      1.859900     1.852257     1.844614     1.836971     1.829327     1.821684     1.814041     1.806398     1.798755     1.791112
      1.783469     1.775826     1.768183     1.760540     1.752896     1.745253     1.737610     1.729967     1.722324     1.714681
      1.707038     1.699395     1.691752     1.684108     1.676465     1.668822     1.661179     1.653536     1.645893     1.638250
      1.630607     1.622964     1.615321     1.607677     1.600034     1.592391     1.584748     1.577105     1.569462     1.561819
      1.554176     1.546533     1.538890     1.531246     1.523603     1.515960     1.508317     1.500674     1.493031     1.485388
      1.477745     1.470102     1.462458     1.454815     1.447172     1.439529     1.431886     1.424243     1.416600     1.408957
      1.401314     1.393671     1.386027     1.378384     1.370741     1.363098     1.355455     1.347812     1.340169     1.332526
      1.324883     1.317240     1.309596     1.301953     1.294310     1.286667     1.279024     1.271381     1.263738     1.256095
      1.248452     1.240808     1.233165     1.225522     1.217879     1.210236     1.202593     1.194950     1.187307     1.179664
      1.172021     1.164377     1.156734     1.149091     1.141448     1.133805     1.126162     1.118519     1.110876     1.103233
      1.095590     1.087946     1.080303     1.072660     1.065017     1.057374     1.049731     1.042088     1.034445     1.026802
      1.019158     1.011515     1.003872     0.996229     0.988586     0.980943     0.973300     0.965657     0.958014     0.950371
      0.942727     0.935084     0.927441     0.919798     0.912155     0.904512     0.896869     0.889226     0.881583     0.873940
      0.866296     0.858653     0.851010     0.843367     0.835724     0.828081     0.820438     0.812795     0.805152     0.797508
      0.789865     0.782222     0.774579     0.766936     0.759293     0.751650     0.744007     0.736364     0.728721     0.721077
      0.713434     0.705791     0.698148     0.690505     0.682862     0.675219     0.667576     0.659933     0.652290     0.644646
      0.637003     0.629360     0.621717     0.614074     0.606431     0.598788     0.591145     0.583502     0.575858     0.568215
      0.560572     0.552929     0.545286     0.537643     0.530000     0.522357     0.514714     0.507071     0.499427     0.491784
      0.484141     0.476498     0.468855     0.461212     0.453569     0.445925     0.438282     0.430639     0.422996     0.415353
      0.407710     0.400067     0.392424     0.384780     0.377137     0.369494     0.361851     0.354208     0.346565     0.338922
      0.331278     0.323635     0.315992     0.308349     0.300706     0.293063     0.285420     0.277777     0.270133     0.262490
      0.254847     0.247204     0.239561     0.231918     0.224275     0.216631     0.208988     0.201345
 NY phased data points follow
   6.45891E+01  6.39369E+01  5.97590E+01  6.26934E+01  6.33369E+01  6.21590E+01  6.30477E+01  6.09306E+01  5.73380E+01  6.30350E+01
   5.62553E+01  5.61514E+01  5.37233E+01  5.35645E+01  5.39854E+01  6.04790E+01  5.65710E+01  5.42064E+01  5.53576E+01  5.13952E+01
   5.40816E+01  4.99675E+01  5.23070E+01  5.06410E+01  5.06649E+01  5.50292E+01  4.88091E+01  4.64154E+01  4.88510E+01  4.27513E+01
   4.71839E+01  4.68668E+01  4.89973E+01  4.85699E+01  4.96088E+01  4.44918E+01  4.38013E+01  4.41483E+01  3.99627E+01  4.22324E+01
   4.61312E+01  4.42306E+01  4.62346E+01  4.18268E+01  4.30639E+01  3.99727E+01  4.23748E+01  4.06833E+01  3.88795E+01  3.79097E+01
   3.49417E+01  4.25229E+01  3.91537E+01  3.95807E+01  3.48781E+01  4.00535E+01  3.80932E+01  3.84769E+01  3.20917E+01  3.69248E+01
   3.05984E+01  3.49959E+01  3.49242E+01  3.76365E+01  3.06932E+01  3.41385E+01  3.06555E+01  3.37941E+01  3.25700E+01  3.35227E+01
   3.19994E+01  3.11289E+01  2.91718E+01  3.39880E+01  3.30901E+01  3.51837E+01  3.12109E+01  2.96571E+01  3.25281E+01  2.61286E+01
   2.37211E+01  3.30606E+01  3.01875E+01  2.82207E+01  2.70195E+01  2.27852E+01  2.75175E+01  3.16961E+01  2.54043E+01  2.69397E+01
   2.73486E+01  2.31680E+01  2.54459E+01  2.55571E+01  2.52472E+01  2.66647E+01  2.41800E+01  2.52175E+01  2.33041E+01  2.71333E+01
   2.71498E+01  2.37621E+01  2.58907E+01  2.31108E+01  2.11229E+01  2.17741E+01  2.32513E+01  2.45839E+01  2.02549E+01  2.23066E+01
   2.17600E+01  2.19990E+01  2.42052E+01  2.16652E+01  1.94027E+01  2.16552E+01  2.09890E+01  2.19294E+01  2.11390E+01  2.14786E+01
   2.08083E+01  1.83577E+01  2.32593E+01  1.88896E+01  2.26459E+01  2.51350E+01  1.78487E+01  1.77924E+01  2.17560E+01  1.89761E+01
   1.71909E+01  1.94287E+01  1.73544E+01  1.91924E+01  1.98279E+01  1.85741E+01  2.00711E+01  1.73630E+01  1.64664E+01  2.02192E+01
   1.95890E+01  1.85600E+01  1.68910E+01  1.67212E+01  1.80516E+01  1.52630E+01  1.58209E+01  1.55863E+01  1.43805E+01  1.32412E+01
   1.66471E+01  1.49552E+01  1.76783E+01  1.46992E+01  1.11417E+01  1.45299E+01  1.32666E+01  1.27915E+01  1.80873E+01  1.47062E+01
   9.12524E+00  1.41471E+01  1.07080E+01  9.87082E+00  1.25907E+01  8.76160E+00  1.10418E+01  1.09542E+01  8.40856E+00  1.03945E+01
   6.95689E+00  9.20351E+00  9.43234E+00  7.23997E+00  8.43457E+00  6.49819E+00  6.96997E+00  1.03668E+01  8.92923E+00  5.58319E+00
   5.66862E+00  9.51879E+00  3.46476E+00  1.04248E+01  7.14110E+00  4.78632E+00  8.84683E+00  1.28233E+01  8.82242E+00  9.14641E+00
   1.05089E+01  7.40601E+00  9.23870E+00  5.34888E+00  5.45951E+00  8.86733E+00  7.02620E+00  5.62983E+00  7.84477E+00  9.20024E+00
   7.56261E+00  3.22364E+00  6.13347E+00  6.00090E+00  9.15999E+00  6.30490E+00  7.79763E+00  1.10395E+01  8.62274E+00  8.83003E+00
   1.14290E+01  7.90007E+00  1.20176E+01  1.50026E+01  9.17681E+00  1.02461E+01  1.39078E+01  1.13376E+01  1.44599E+01  1.16929E+01
   1.41136E+01  1.22375E+01  1.41692E+01  1.78410E+01  1.51711E+01  1.60529E+01  1.60443E+01  9.65283E+00  1.66663E+01  1.41883E+01
   1.29326E+01  1.71351E+01  1.72320E+01  1.45159E+01  1.75690E+01  1.65134E+01  1.59799E+01  1.55562E+01  1.40295E+01  1.55333E+01
   1.60424E+01  1.45055E+01  1.52160E+01  1.94142E+01  1.76922E+01  1.81165E+01  2.03328E+01  1.96118E+01  2.01167E+01  1.91530E+01
   1.90808E+01  2.27036E+01  2.03166E+01  2.25991E+01  2.52585E+01  2.08683E+01  2.16378E+01  2.16561E+01  2.55752E+01  2.60979E+01
   2.35503E+01  2.29986E+01  2.40560E+01  2.22508E+01  2.38074E+01  2.31551E+01  2.48139E+01  2.33135E+01  1.98190E+01  2.01619E+01
   2.40342E+01  2.29895E+01  2.42014E+01  2.26799E+01  2.26977E+01  2.61169E+01  2.40448E+01  2.65435E+01  2.24309E+01  2.10897E+01
   2.37984E+01  2.53519E+01  2.54936E+01  2.63710E+01  2.83896E+01  2.49811E+01  2.83610E+01  2.55115E+01  2.42044E+01  2.53944E+01
   3.06601E+01  3.03369E+01  2.36150E+01  3.20924E+01  2.89289E+01  3.03506E+01  3.43146E+01  3.30280E+01  3.44108E+01  3.50762E+01
   3.66140E+01  3.65369E+01  3.64344E+01  3.97436E+01  3.83313E+01  4.04113E+01  4.32601E+01  4.90918E+01  4.63022E+01  4.98555E+01
   4.85138E+01  5.45377E+01  5.17912E+01  5.76476E+01  5.64247E+01  6.14144E+01  6.27937E+01  6.67535E+01  6.59018E+01  6.55884E+01
   6.47724E+01  6.19458E+01  6.15311E+01  6.01072E+01  6.05914E+01  5.89925E+01  5.89847E+01  6.10574E+01  6.32402E+01  6.31149E+01
   6.72047E+01  6.84567E+01  6.45970E+01  6.88013E+01  6.84654E+01  6.92071E+01  6.88754E+01  6.80078E+01  6.53529E+01  6.08633E+01
   5.94234E+01  5.71553E+01  6.03650E+01  6.19288E+01  5.96001E+01  6.38351E+01  6.18394E+01  6.17286E+01  6.55201E+01  6.32694E+01
   6.07914E+01  6.28721E+01  6.20586E+01  6.44822E+01  6.55584E+01  6.84613E+01  5.97051E+01  6.32585E+01  6.18075E+01  5.95957E+01
   5.90815E+01  5.66578E+01  5.20538E+01  5.34141E+01  5.37812E+01  5.36742E+01  4.96488E+01  5.51051E+01  5.17219E+01  5.25898E+01
   5.05781E+01  4.73022E+01  5.06657E+01  4.76496E+01  5.23399E+01  4.31100E+01  4.20906E+01  4.33769E+01  3.71932E+01  4.30323E+01
   4.08137E+01  3.85418E+01  3.79153E+01  3.62034E+01  3.54447E+01  3.72572E+01  3.41142E+01  3.94820E+01  3.95678E+01  3.55947E+01
   3.73078E+01  3.18440E+01  3.47560E+01  3.06158E+01  3.19513E+01  3.22794E+01  3.33622E+01  2.75210E+01  3.05679E+01  3.04210E+01
   2.96368E+01  2.94417E+01  2.81484E+01  3.21526E+01  2.94649E+01  2.64483E+01  3.11187E+01  2.70378E+01  3.01307E+01  2.55925E+01
   2.32997E+01  2.46572E+01  3.05754E+01  2.61469E+01  2.46031E+01  2.41446E+01  2.52257E+01  1.83552E+01  2.79612E+01  1.67449E+01
   2.00389E+01  2.47971E+01  2.52649E+01  2.22697E+01  2.31919E+01  2.27357E+01  2.11300E+01  2.12897E+01  2.20988E+01  2.16421E+01
   1.70658E+01  2.18707E+01  2.12984E+01  2.35233E+01  1.91792E+01  2.00439E+01  2.00238E+01  2.14667E+01  2.25569E+01  1.94825E+01
   2.02286E+01  1.91751E+01  2.05214E+01  1.61279E+01  1.80774E+01  1.67350E+01  2.01921E+01  1.81018E+01  2.07022E+01  1.45215E+01
   1.93352E+01  1.59676E+01  1.82443E+01  1.84056E+01  2.02966E+01  1.86832E+01  1.72536E+01  1.78973E+01  1.96754E+01  1.92921E+01
   1.72100E+01  1.95570E+01  1.77140E+01  1.72099E+01  1.77590E+01  1.63030E+01  2.12261E+01  1.72070E+01  1.62965E+01  1.61745E+01
   1.38792E+01  1.77600E+01  1.71432E+01  1.97194E+01  1.49057E+01  1.62973E+01  1.44417E+01  1.48657E+01  1.78943E+01  1.67004E+01
   1.67928E+01  1.88837E+01  1.75956E+01  1.88783E+01  1.52903E+01  1.73560E+01  1.44027E+01  1.90833E+01  1.79887E+01  1.45395E+01
   2.04883E+01  1.63454E+01  1.55866E+01  1.53164E+01  1.57412E+01  1.57090E+01  1.80171E+01  2.12346E+01
 NY points of the fit to the data follow
   5.91923E+01  6.02110E+01  5.90720E+01  5.96224E+01  5.88547E+01  5.93296E+01  5.87497E+01  5.96212E+01  5.84450E+01  5.88001E+01
   5.73964E+01  5.73542E+01  5.61357E+01  5.65442E+01  5.56144E+01  5.65821E+01  5.53593E+01  5.56081E+01  5.40250E+01  5.34061E+01
   5.20241E+01  5.18007E+01  5.10630E+01  5.10185E+01  5.06662E+01  5.02190E+01  4.99150E+01  4.90361E+01  4.90639E+01  4.83819E+01
   4.89228E+01  4.84561E+01  4.90773E+01  4.78895E+01  4.79471E+01  4.60330E+01  4.59882E+01  4.41816E+01  4.47664E+01  4.33880E+01
   4.45319E+01  4.36625E+01  4.45656E+01  4.32635E+01  4.35166E+01  4.18980E+01  4.22548E+01  4.13442E+01  4.13960E+01  4.05568E+01
   4.05800E+01  3.96317E+01  3.92700E+01  3.80227E+01  3.76500E+01  3.71791E+01  3.70008E+01  3.66203E+01  3.64308E+01  3.58354E+01
   3.55614E+01  3.52015E+01  3.47934E+01  3.43916E+01  3.40153E+01  3.36441E+01  3.32752E+01  3.29098E+01  3.25713E+01  3.22236E+01
   3.19066E+01  3.15464E+01  3.12323E+01  3.08679E+01  3.05692E+01  3.02078E+01  2.99254E+01  2.95561E+01  2.92813E+01  2.88912E+01
   2.86187E+01  2.82372E+01  2.79827E+01  2.76270E+01  2.74499E+01  2.72126E+01  2.69849E+01  2.67821E+01  2.65107E+01  2.63654E+01
   2.60974E+01  2.60768E+01  2.57883E+01  2.58945E+01  2.55086E+01  2.56467E+01  2.51320E+01  2.52589E+01  2.46792E+01  2.48061E+01
   2.41987E+01  2.43316E+01  2.36945E+01  2.37828E+01  2.31211E+01  2.31408E+01  2.25160E+01  2.25471E+01  2.20972E+01  2.24267E+01
   2.20451E+01  2.23487E+01  2.19539E+01  2.22011E+01  2.18570E+01  2.21826E+01  2.19426E+01  2.23771E+01  2.22136E+01  2.25846E+01
   2.23537E+01  2.25055E+01  2.21811E+01  2.21621E+01  2.18930E+01  2.18863E+01  2.15619E+01  2.14080E+01  2.10059E+01  2.06840E+01
   2.02599E+01  1.99184E+01  1.95301E+01  1.92573E+01  1.89006E+01  1.86394E+01  1.82611E+01  1.78797E+01  1.74612E+01  1.69573E+01
   1.65404E+01  1.60209E+01  1.56850E+01  1.53420E+01  1.50684E+01  1.47432E+01  1.44661E+01  1.40476E+01  1.38525E+01  1.37052E+01
   1.35679E+01  1.34256E+01  1.32893E+01  1.31451E+01  1.30052E+01  1.28594E+01  1.27082E+01  1.25537E+01  1.23876E+01  1.22222E+01
   1.20516E+01  1.18803E+01  1.17071E+01  1.15293E+01  1.13542E+01  1.11744E+01  1.10027E+01  1.08224E+01  1.06588E+01  1.04828E+01
   1.03434E+01  1.01763E+01  1.00571E+01  9.90645E+00  9.80391E+00  9.64796E+00  9.47091E+00  9.30325E+00  9.01700E+00  8.80017E+00
   8.51519E+00  8.30578E+00  8.02135E+00  7.99143E+00  7.82866E+00  7.90501E+00  7.72236E+00  7.98494E+00  7.84862E+00  8.13534E+00
   8.10115E+00  8.19822E+00  7.75833E+00  8.11027E+00  7.92877E+00  8.40282E+00  8.28910E+00  8.67721E+00  8.35947E+00  8.27279E+00
   7.77476E+00  7.65893E+00  7.49686E+00  7.46091E+00  7.71649E+00  7.76273E+00  8.59131E+00  8.40889E+00  9.53519E+00  9.19633E+00
   1.05058E+01  1.01316E+01  1.14971E+01  1.09305E+01  1.22408E+01  1.13552E+01  1.25064E+01  1.14818E+01  1.23133E+01  1.17268E+01
   1.29550E+01  1.29846E+01  1.45158E+01  1.49497E+01  1.62013E+01  1.59127E+01  1.62872E+01  1.59822E+01  1.61553E+01  1.62600E+01
   1.67489E+01  1.67504E+01  1.66836E+01  1.65090E+01  1.65822E+01  1.61896E+01  1.63678E+01  1.61765E+01  1.64903E+01  1.61919E+01
   1.66851E+01  1.63968E+01  1.72579E+01  1.69463E+01  1.77077E+01  1.76737E+01  1.86938E+01  1.87459E+01  2.00256E+01  2.00567E+01
   2.14323E+01  2.12390E+01  2.22791E+01  2.18689E+01  2.27104E+01  2.23491E+01  2.33295E+01  2.30376E+01  2.36347E+01  2.33363E+01
   2.38497E+01  2.34694E+01  2.38517E+01  2.36955E+01  2.38458E+01  2.34600E+01  2.36135E+01  2.32343E+01  2.33080E+01  2.30576E+01
   2.30812E+01  2.27864E+01  2.26700E+01  2.24032E+01  2.23337E+01  2.21776E+01  2.22958E+01  2.23550E+01  2.25190E+01  2.26668E+01
   2.27897E+01  2.30047E+01  2.33917E+01  2.37802E+01  2.42540E+01  2.47939E+01  2.53281E+01  2.59312E+01  2.65504E+01  2.72395E+01
   2.79310E+01  2.86771E+01  2.94061E+01  3.01544E+01  3.08925E+01  3.16495E+01  3.23861E+01  3.31301E+01  3.38602E+01  3.46035E+01
   3.53556E+01  3.61384E+01  3.69700E+01  3.78910E+01  3.89378E+01  4.01794E+01  4.17041E+01  4.36933E+01  4.65481E+01  5.03360E+01
   5.17732E+01  5.45423E+01  5.52700E+01  5.78071E+01  5.83546E+01  6.10689E+01  6.01885E+01  6.46874E+01  6.32587E+01  6.59362E+01
   6.30069E+01  6.34233E+01  6.00365E+01  6.05901E+01  5.83549E+01  6.02130E+01  5.99412E+01  6.13452E+01  6.28796E+01  6.35539E+01
   6.52717E+01  6.50388E+01  6.72195E+01  6.71464E+01  6.94741E+01  6.84224E+01  6.92549E+01  6.73418E+01  6.62890E+01  6.30314E+01
   6.15224E+01  5.90038E+01  5.92185E+01  5.98196E+01  6.05809E+01  6.22166E+01  6.22704E+01  6.30399E+01  6.34573E+01  6.49964E+01
   6.34144E+01  6.55147E+01  6.41183E+01  6.68131E+01  6.48954E+01  6.54444E+01  6.11643E+01  6.16468E+01  5.82392E+01  5.83165E+01
   5.56904E+01  5.62944E+01  5.47684E+01  5.63189E+01  5.48899E+01  5.55800E+01  5.39248E+01  5.32166E+01  5.22467E+01  5.16697E+01
   5.02231E+01  4.95068E+01  4.81863E+01  4.72454E+01  4.58825E+01  4.37302E+01  4.22400E+01  4.10820E+01  4.00993E+01  3.92397E+01
   3.84794E+01  3.78051E+01  3.72079E+01  3.66810E+01  3.62183E+01  3.58137E+01  3.54601E+01  3.51503E+01  3.48763E+01  3.46299E+01
   3.44027E+01  3.41861E+01  3.39714E+01  3.37505E+01  3.35157E+01  3.32606E+01  3.29799E+01  3.26693E+01  3.23261E+01  3.19490E+01
   3.15382E+01  3.10955E+01  3.06240E+01  3.01274E+01  2.96106E+01  2.90790E+01  2.85384E+01  2.79946E+01  2.74532E+01  2.69194E+01
   2.63979E+01  2.58927E+01  2.54071E+01  2.49438E+01  2.45046E+01  2.40904E+01  2.37019E+01  2.33389E+01  2.30009E+01  2.26870E+01
   2.23961E+01  2.21268E+01  2.18775E+01  2.16469E+01  2.14333E+01  2.12353E+01  2.10514E+01  2.08803E+01  2.07207E+01  2.05715E+01
   2.04317E+01  2.03003E+01  2.01766E+01  2.00595E+01  1.99487E+01  1.98434E+01  1.97432E+01  1.96476E+01  1.95560E+01  1.94682E+01
   1.93839E+01  1.93027E+01  1.92243E+01  1.91486E+01  1.90753E+01  1.90042E+01  1.89352E+01  1.88682E+01  1.88029E+01  1.87392E+01
   1.86771E+01  1.86164E+01  1.85570E+01  1.84989E+01  1.84420E+01  1.83862E+01  1.83314E+01  1.82776E+01  1.82248E+01  1.81729E+01
   1.81218E+01  1.80714E+01  1.80219E+01  1.79731E+01  1.79250E+01  1.78776E+01  1.78309E+01  1.77848E+01  1.77393E+01  1.76944E+01
   1.76501E+01  1.76064E+01  1.75633E+01  1.75206E+01  1.74786E+01  1.74371E+01  1.73962E+01  1.73558E+01  1.73159E+01  1.72766E+01
   1.72378E+01  1.71996E+01  1.71619E+01  1.71248E+01  1.70883E+01  1.70524E+01  1.70172E+01  1.69826E+01  1.69486E+01  1.69154E+01
   1.68829E+01  1.68513E+01  1.68205E+01  1.67907E+01  1.67619E+01  1.67343E+01  1.67081E+01  1.66836E+01
 NY background values follow
     5.487E+01    5.448E+01    5.409E+01    5.370E+01    5.331E+01    5.293E+01    5.254E+01    5.215E+01    5.177E+01    5.138E+01
     5.100E+01    5.062E+01    5.023E+01    4.985E+01    4.947E+01    4.909E+01    4.871E+01    4.833E+01    4.796E+01    4.758E+01
     4.721E+01    4.683E+01    4.646E+01    4.608E+01    4.571E+01    4.534E+01    4.497E+01    4.460E+01    4.424E+01    4.387E+01
     4.350E+01    4.314E+01    4.277E+01    4.241E+01    4.205E+01    4.169E+01    4.133E+01    4.097E+01    4.062E+01    4.026E+01
     3.991E+01    3.955E+01    3.920E+01    3.885E+01    3.850E+01    3.815E+01    3.780E+01    3.746E+01    3.711E+01    3.677E+01
     3.643E+01    3.609E+01    3.575E+01    3.541E+01    3.507E+01    3.474E+01    3.441E+01    3.407E+01    3.374E+01    3.341E+01
     3.309E+01    3.276E+01    3.244E+01    3.211E+01    3.179E+01    3.147E+01    3.115E+01    3.083E+01    3.052E+01    3.020E+01
     2.989E+01    2.958E+01    2.927E+01    2.897E+01    2.866E+01    2.836E+01    2.805E+01    2.775E+01    2.745E+01    2.716E+01
     2.686E+01    2.657E+01    2.628E+01    2.599E+01    2.570E+01    2.541E+01    2.513E+01    2.484E+01    2.456E+01    2.429E+01
     2.401E+01    2.373E+01    2.346E+01    2.319E+01    2.292E+01    2.265E+01    2.239E+01    2.212E+01    2.186E+01    2.160E+01
     2.135E+01    2.109E+01    2.084E+01    2.059E+01    2.034E+01    2.009E+01    1.985E+01    1.960E+01    1.936E+01    1.913E+01
     1.889E+01    1.866E+01    1.842E+01    1.819E+01    1.797E+01    1.774E+01    1.752E+01    1.730E+01    1.708E+01    1.686E+01
     1.665E+01    1.643E+01    1.622E+01    1.602E+01    1.581E+01    1.561E+01    1.541E+01    1.521E+01    1.501E+01    1.482E+01
     1.463E+01    1.444E+01    1.425E+01    1.406E+01    1.388E+01    1.370E+01    1.352E+01    1.335E+01    1.317E+01    1.300E+01
     1.283E+01    1.267E+01    1.250E+01    1.234E+01    1.218E+01    1.202E+01    1.187E+01    1.172E+01    1.157E+01    1.142E+01
     1.128E+01    1.113E+01    1.099E+01    1.086E+01    1.072E+01    1.059E+01    1.046E+01    1.033E+01    1.021E+01    1.009E+01
     9.965E+00    9.848E+00    9.733E+00    9.621E+00    9.511E+00    9.404E+00    9.299E+00    9.197E+00    9.098E+00    9.001E+00
     8.907E+00    8.815E+00    8.726E+00    8.640E+00    8.556E+00    8.475E+00    8.396E+00    8.320E+00    8.247E+00    8.176E+00
     8.109E+00    8.043E+00    7.981E+00    7.921E+00    7.864E+00    7.809E+00    7.758E+00    7.709E+00    7.662E+00    7.619E+00
     7.578E+00    7.540E+00    7.505E+00    7.473E+00    7.443E+00    7.416E+00    7.392E+00    7.371E+00    7.352E+00    7.337E+00
     7.324E+00    7.314E+00    7.307E+00    7.302E+00    7.300E+00    7.301E+00    7.304E+00    7.310E+00    7.318E+00    7.329E+00
     7.343E+00    7.359E+00    7.377E+00    7.397E+00    7.420E+00    7.445E+00    7.473E+00    7.502E+00    7.534E+00    7.568E+00
     7.604E+00    7.642E+00    7.682E+00    7.724E+00    7.768E+00    7.814E+00    7.861E+00    7.911E+00    7.962E+00    8.016E+00
     8.071E+00    8.127E+00    8.185E+00    8.245E+00    8.307E+00    8.370E+00    8.434E+00    8.500E+00    8.568E+00    8.637E+00
     8.707E+00    8.778E+00    8.851E+00    8.925E+00    9.001E+00    9.077E+00    9.155E+00    9.233E+00    9.313E+00    9.394E+00
     9.476E+00    9.559E+00    9.643E+00    9.727E+00    9.813E+00    9.899E+00    9.986E+00    1.007E+01    1.016E+01    1.025E+01
     1.034E+01    1.043E+01    1.052E+01    1.062E+01    1.071E+01    1.080E+01    1.089E+01    1.099E+01    1.108E+01    1.117E+01
     1.127E+01    1.136E+01    1.146E+01    1.155E+01    1.165E+01    1.174E+01    1.184E+01    1.193E+01    1.203E+01    1.212E+01
     1.222E+01    1.231E+01    1.241E+01    1.250E+01    1.260E+01    1.269E+01    1.279E+01    1.288E+01    1.297E+01    1.307E+01
     1.316E+01    1.325E+01    1.334E+01    1.343E+01    1.352E+01    1.361E+01    1.370E+01    1.379E+01    1.388E+01    1.396E+01
     1.405E+01    1.413E+01    1.422E+01    1.430E+01    1.438E+01    1.446E+01    1.455E+01    1.463E+01    1.471E+01    1.478E+01
     1.486E+01    1.494E+01    1.502E+01    1.509E+01    1.517E+01    1.524E+01    1.531E+01    1.539E+01    1.546E+01    1.553E+01
     1.560E+01    1.567E+01    1.574E+01    1.580E+01    1.587E+01    1.594E+01    1.600E+01    1.606E+01    1.613E+01    1.619E+01
     1.625E+01    1.631E+01    1.637E+01    1.643E+01    1.649E+01    1.655E+01    1.661E+01    1.666E+01    1.672E+01    1.677E+01
     1.683E+01    1.688E+01    1.693E+01    1.698E+01    1.703E+01    1.708E+01    1.713E+01    1.718E+01    1.723E+01    1.727E+01
     1.732E+01    1.736E+01    1.741E+01    1.745E+01    1.749E+01    1.753E+01    1.757E+01    1.761E+01    1.765E+01    1.769E+01
     1.773E+01    1.776E+01    1.780E+01    1.783E+01    1.787E+01    1.790E+01    1.793E+01    1.796E+01    1.799E+01    1.802E+01
     1.805E+01    1.808E+01    1.810E+01    1.813E+01    1.816E+01    1.818E+01    1.820E+01    1.823E+01    1.825E+01    1.827E+01
     1.829E+01    1.831E+01    1.833E+01    1.834E+01    1.836E+01    1.838E+01    1.839E+01    1.841E+01    1.842E+01    1.843E+01
     1.844E+01    1.845E+01    1.846E+01    1.847E+01    1.848E+01    1.849E+01    1.849E+01    1.850E+01    1.850E+01    1.851E+01
     1.851E+01    1.851E+01    1.851E+01    1.851E+01    1.851E+01    1.851E+01    1.851E+01    1.850E+01    1.850E+01    1.850E+01
     1.849E+01    1.848E+01    1.848E+01    1.847E+01    1.846E+01    1.845E+01    1.844E+01    1.843E+01    1.842E+01    1.841E+01
     1.840E+01    1.839E+01    1.837E+01    1.836E+01    1.834E+01    1.833E+01    1.831E+01    1.830E+01    1.828E+01    1.826E+01
     1.825E+01    1.823E+01    1.821E+01    1.819E+01    1.817E+01    1.815E+01    1.813E+01    1.811E+01    1.809E+01    1.806E+01
     1.804E+01    1.802E+01    1.800E+01    1.797E+01    1.795E+01    1.792E+01    1.790E+01    1.787E+01    1.785E+01    1.782E+01
     1.780E+01    1.777E+01    1.774E+01    1.772E+01    1.769E+01    1.766E+01    1.764E+01    1.761E+01    1.758E+01    1.755E+01
     1.752E+01    1.750E+01    1.747E+01    1.744E+01    1.741E+01    1.738E+01    1.735E+01    1.732E+01    1.729E+01    1.726E+01
     1.724E+01    1.721E+01    1.718E+01    1.715E+01    1.712E+01    1.709E+01    1.706E+01    1.703E+01    1.700E+01    1.697E+01
     1.694E+01    1.691E+01    1.688E+01    1.685E+01    1.682E+01    1.679E+01    1.677E+01    1.674E+01    1.671E+01    1.668E+01
     1.665E+01    1.662E+01    1.659E+01    1.657E+01    1.654E+01    1.651E+01    1.649E+01    1.646E+01
 Ala      Conc. = 8.81E+03
