 LCModel (Version 6.3-1L) Copyright: S.W. Provencher.          Ref.: Magn. Reson. Med. 30:672-679 (1993).                
 Slice#2 Row#2 Col#14  K_02_press_1_raw_act
 36 lines in following concentration table = NCONC+1
    Conc.  %SD /Cr+PCr  Metabolite                                         
    0.000 999%   0.000 Ala                                                 
 2.01E-02 999%   0.000 Asp                                                 
    0.000 999%   0.000 Cr                                                  
    0.000 999%   0.000 PCr                                                 
    0.000 999%   0.000 GABA                                                
 4.90E-03 999%   0.000 Glc                                                 
    0.000 999%   0.000 Gln                                                 
    0.000 999%   0.000 Glu                                                 
    0.000 999%   0.000 GPC                                                 
    0.000 999%   0.000 PCh                                                 
   67.885  61%   0.000 GSH                                                 
  226.331  49%   0.000 Ins                                                 
 2.61E+03  15%   0.000 Lac                                                 
    0.000 999%   0.000 NAA                                                 
    0.000 999%   0.000 NAAG                                                
 1.17E-02 999%   0.000 Scyllo                                              
    0.000 999%   0.000 Tau                                                 
    0.000 999%   0.000 -CrCH2                                              
    0.000 999%   0.000 GPC+PCh                                             
    0.000 999%   0.000 NAA+NAAG                                            
    0.000 999%   0.000 Cr+PCr                                              
    0.000 999%   0.000 Glu+Gln                                             
    0.000 999%   0.000 Lip13a                                              
 3.95E+03   8%   0.000 Lip13b                                              
 1.06E+03   8%   0.000 Lip09                                               
  904.926   6%   0.000 MM09                                                
  592.788   8%   0.000 Lip20                                               
 1.32E+03   7%   0.000 MM20                                                
  271.412   7%   0.000 MM12                                                
  729.086   7%   0.000 MM14                                                
  365.130   8%   0.000 MM17                                                
 3.95E+03   8%   0.000 Lip13a+Lip13b                                       
 4.95E+03   7%   0.000 MM14+Lip13a+Lip13b+MM12                             
 1.96E+03   6%   0.000 MM09+Lip09                                          
 1.92E+03   6%   0.000 MM20+Lip20                                          
   6 lines in following misc. output table
  FWHM = 0.168 ppm    S/N =  10                                            
  Data shift = 0.153 ppm                                                   
  Ph: -75 deg      58.7 deg/ppm                                            
  alphaB,S = 8.5E-01,   3.8E+02                                            
    7 spline knots.   Ns = 9(2)                                            
  (13) 2 infls.   ( 7) 1 extrs.                                            
  498 points on ppm-axis = NY
      4.000000     3.992357     3.984714     3.977070     3.969427     3.961784     3.954141     3.946497     3.938854     3.931211
      3.923568     3.915925     3.908281     3.900638     3.892995     3.885352     3.877708     3.870065     3.862422     3.854779
      3.847136     3.839492     3.831849     3.824206     3.816563     3.808919     3.801276     3.793633     3.785990     3.778347
      3.770703     3.763060     3.755417     3.747774     3.740130     3.732487     3.724844     3.717201     3.709558     3.701914
      3.694271     3.686628     3.678985     3.671341     3.663698     3.656055     3.648412     3.640769     3.633125     3.625482
      3.617839     3.610196     3.602552     3.594909     3.587266     3.579623     3.571980     3.564336     3.556693     3.549050
      3.541407     3.533763     3.526120     3.518477     3.510834     3.503191     3.495547     3.487904     3.480261     3.472618
      3.464974     3.457331     3.449688     3.442045     3.434402     3.426758     3.419115     3.411472     3.403829     3.396185
      3.388542     3.380899     3.373256     3.365613     3.357969     3.350326     3.342683     3.335040     3.327396     3.319753
      3.312110     3.304467     3.296824     3.289180     3.281537     3.273894     3.266251     3.258607     3.250964     3.243321
      3.235678     3.228034     3.220391     3.212748     3.205105     3.197462     3.189818     3.182175     3.174532     3.166889
      3.159245     3.151602     3.143959     3.136316     3.128673     3.121029     3.113386     3.105743     3.098100     3.090456
      3.082813     3.075170     3.067527     3.059884     3.052240     3.044597     3.036954     3.029311     3.021667     3.014024
      3.006381     2.998738     2.991095     2.983451     2.975808     2.968165     2.960522     2.952878     2.945235     2.937592
      2.929949     2.922306     2.914662     2.907019     2.899376     2.891733     2.884089     2.876446     2.868803     2.861160
      2.853517     2.845873     2.838230     2.830587     2.822944     2.815300     2.807657     2.800014     2.792371     2.784728
      2.777084     2.769441     2.761798     2.754155     2.746511     2.738868     2.731225     2.723582     2.715939     2.708295
      2.700652     2.693009     2.685366     2.677722     2.670079     2.662436     2.654793     2.647150     2.639506     2.631863
      2.624220     2.616577     2.608933     2.601290     2.593647     2.586004     2.578361     2.570717     2.563074     2.555431
      2.547788     2.540144     2.532501     2.524858     2.517215     2.509572     2.501928     2.494285     2.486642     2.478999
      2.471355     2.463712     2.456069     2.448426     2.440783     2.433139     2.425496     2.417853     2.410210     2.402566
      2.394923     2.387280     2.379637     2.371994     2.364350     2.356707     2.349064     2.341421     2.333777     2.326134
      2.318491     2.310848     2.303205     2.295561     2.287918     2.280275     2.272632     2.264988     2.257345     2.249702
      2.242059     2.234416     2.226772     2.219129     2.211486     2.203843     2.196199     2.188556     2.180913     2.173270
      2.165627     2.157983     2.150340     2.142697     2.135054     2.127410     2.119767     2.112124     2.104481     2.096838
      2.089194     2.081551     2.073908     2.066265     2.058621     2.050978     2.043335     2.035692     2.028049     2.020405
      2.012762     2.005119     1.997476     1.989833     1.982190     1.974546     1.966903     1.959260     1.951617     1.943974
      1.936331     1.928688     1.921045     1.913402     1.905759     1.898115     1.890472     1.882829     1.875186     1.867543
      1.859900     1.852257     1.844614     1.836971     1.829327     1.821684     1.814041     1.806398     1.798755     1.791112
      1.783469     1.775826     1.768183     1.760540     1.752896     1.745253     1.737610     1.729967     1.722324     1.714681
      1.707038     1.699395     1.691752     1.684108     1.676465     1.668822     1.661179     1.653536     1.645893     1.638250
      1.630607     1.622964     1.615321     1.607677     1.600034     1.592391     1.584748     1.577105     1.569462     1.561819
      1.554176     1.546533     1.538890     1.531246     1.523603     1.515960     1.508317     1.500674     1.493031     1.485388
      1.477745     1.470102     1.462458     1.454815     1.447172     1.439529     1.431886     1.424243     1.416600     1.408957
      1.401314     1.393671     1.386027     1.378384     1.370741     1.363098     1.355455     1.347812     1.340169     1.332526
      1.324883     1.317240     1.309596     1.301953     1.294310     1.286667     1.279024     1.271381     1.263738     1.256095
      1.248452     1.240808     1.233165     1.225522     1.217879     1.210236     1.202593     1.194950     1.187307     1.179664
      1.172021     1.164377     1.156734     1.149091     1.141448     1.133805     1.126162     1.118519     1.110876     1.103233
      1.095590     1.087946     1.080303     1.072660     1.065017     1.057374     1.049731     1.042088     1.034445     1.026802
      1.019158     1.011515     1.003872     0.996229     0.988586     0.980943     0.973300     0.965657     0.958014     0.950371
      0.942727     0.935084     0.927441     0.919798     0.912155     0.904512     0.896869     0.889226     0.881583     0.873940
      0.866296     0.858653     0.851010     0.843367     0.835724     0.828081     0.820438     0.812795     0.805152     0.797508
      0.789865     0.782222     0.774579     0.766936     0.759293     0.751650     0.744007     0.736364     0.728721     0.721077
      0.713434     0.705791     0.698148     0.690505     0.682862     0.675219     0.667576     0.659933     0.652290     0.644646
      0.637003     0.629360     0.621717     0.614074     0.606431     0.598788     0.591145     0.583502     0.575858     0.568215
      0.560572     0.552929     0.545286     0.537643     0.530000     0.522357     0.514714     0.507071     0.499427     0.491784
      0.484141     0.476498     0.468855     0.461212     0.453569     0.445925     0.438282     0.430639     0.422996     0.415353
      0.407710     0.400067     0.392424     0.384780     0.377137     0.369494     0.361851     0.354208     0.346565     0.338922
      0.331278     0.323635     0.315992     0.308349     0.300706     0.293063     0.285420     0.277777     0.270133     0.262490
      0.254847     0.247204     0.239561     0.231918     0.224275     0.216631     0.208988     0.201345
 NY phased data points follow
  -7.06825E-01 -4.12337E-01 -6.04466E-01 -9.10812E-01 -2.30446E-02 -1.43112E+00 -8.74982E-01 -6.28679E-03 -1.43004E+00 -3.64557E-01
  -6.55891E-01 -8.97563E-01 -2.00064E+00 -1.30228E+00 -1.42408E+00 -6.42475E-01 -2.19953E+00 -5.06261E-01 -1.71354E+00 -3.43303E-01
  -7.83273E-02 -2.17394E-01 -3.50212E-01 -2.36907E-01 -8.95294E-02 -3.22037E-01 -2.11444E+00 -5.19513E-01 -4.97060E-01 -1.97987E+00
  -1.08979E+00 -1.25747E+00 -1.95285E-01 -2.97088E-01 -1.09889E+00 -1.14476E+00 -2.68334E-01 -1.10735E+00 -2.21680E+00 -1.82322E+00
  -1.21538E+00 -1.07669E+00 -3.56582E-01 -1.20473E+00 -1.41053E+00 -1.86653E+00 -1.07863E+00 -1.31660E+00 -1.63380E+00 -1.25008E+00
  -1.70101E+00 -1.23643E+00 -1.10796E+00 -8.56893E-01 -2.01427E+00 -1.10583E+00 -1.29736E+00 -9.84957E-01 -1.17590E+00 -2.12915E+00
  -1.65623E+00 -8.27102E-01 -3.44710E-01 -1.56493E+00 -1.65869E+00 -1.18191E+00 -1.86060E+00 -1.64170E+00 -1.05288E+00 -1.18169E+00
  -4.89492E-01 -8.28838E-01 -1.54296E+00 -1.87135E+00 -1.54745E+00 -1.58097E+00 -8.91540E-01 -1.69989E+00 -1.43970E+00 -1.08319E+00
  -9.24103E-01 -1.51850E-01 -1.20794E+00 -8.02335E-01 -9.55065E-01  5.26393E-01 -1.21489E+00 -7.99737E-01  1.69054E-01 -1.13618E+00
  -5.52811E-01 -1.69660E+00 -3.14604E-01 -1.10668E+00 -1.33005E+00 -1.74860E+00 -2.47753E+00 -2.02167E+00 -1.13343E+00 -1.87086E+00
  -1.73379E+00 -1.01426E+00 -1.77712E+00 -2.43360E+00 -1.87318E+00 -2.16651E+00 -1.58024E+00 -1.40168E+00 -3.13230E+00 -1.21261E+00
  -8.80918E-01 -9.11128E-01 -1.43575E+00 -1.30116E+00 -2.33820E+00 -2.85088E+00 -9.95505E-01 -2.07827E+00 -2.53595E+00 -1.62539E+00
  -1.63855E+00 -1.64071E+00 -2.36077E+00 -1.77240E+00 -2.47522E+00 -2.87475E+00 -3.12609E+00 -1.44098E+00 -2.07515E+00 -1.89734E+00
  -1.41525E+00 -1.64094E+00 -1.78809E+00 -2.26483E+00 -9.12787E-01 -1.80287E+00 -1.10451E+00 -2.73590E+00 -2.03977E+00 -2.60471E+00
  -8.41797E-01 -2.04229E+00 -2.54405E+00 -2.52705E+00 -2.17923E+00 -1.97946E+00 -2.11810E+00 -2.69006E+00 -1.75371E+00 -2.28483E+00
  -2.22404E+00 -2.21835E+00 -1.16102E+00 -1.77715E+00 -1.65752E+00 -2.29135E+00 -6.23706E-01 -1.82584E+00 -2.73991E+00 -2.49409E+00
  -1.58054E+00 -2.65556E+00 -2.12528E+00 -2.52809E+00 -2.45553E+00 -2.23694E+00 -2.49827E+00 -1.85174E+00 -2.40285E+00 -2.62158E+00
  -1.45568E+00 -2.25506E+00 -1.48306E+00 -2.30315E+00 -1.96471E+00 -2.86758E+00 -2.36864E+00 -2.07861E+00 -1.65553E+00 -2.55685E+00
  -2.34998E+00 -1.54124E+00 -2.14206E+00 -1.70003E+00 -2.52791E+00 -2.42130E+00 -1.68054E+00 -2.58345E+00 -2.02110E+00 -2.64984E+00
  -2.13652E+00 -1.93827E+00 -2.05527E+00 -2.20828E+00 -2.35420E+00 -2.75590E+00 -2.66241E+00 -2.77865E+00 -2.20181E+00 -2.01351E+00
  -2.77186E+00 -2.70644E+00 -1.60517E+00 -3.12641E+00 -2.56753E+00 -2.36252E+00 -2.56446E+00 -1.65327E+00 -2.29664E+00 -2.89427E+00
  -1.24005E+00 -2.39382E+00 -2.43076E+00 -1.88690E+00 -1.57895E+00 -2.56634E+00 -2.62198E+00 -3.27070E+00 -9.87553E-01 -2.31992E+00
  -2.49054E+00 -2.73243E+00 -3.43009E+00 -2.56890E+00 -3.05939E+00 -3.19975E+00 -2.24932E+00 -3.03579E+00 -2.75366E+00 -2.83874E+00
  -2.22332E+00 -2.99378E+00 -3.53080E+00 -3.27598E+00 -2.80378E+00 -2.37609E+00 -2.97062E+00 -3.43339E+00 -1.74516E+00 -2.64223E+00
  -2.72207E+00 -3.54722E+00 -3.09705E+00 -3.79081E+00 -3.18210E+00 -3.86507E+00 -4.93566E+00 -4.82996E+00 -5.13330E+00 -4.76120E+00
  -4.88443E+00 -4.84055E+00 -4.81711E+00 -5.92507E+00 -5.04010E+00 -6.04032E+00 -5.49787E+00 -5.43493E+00 -4.82198E+00 -5.74604E+00
  -5.14906E+00 -5.91653E+00 -5.48710E+00 -5.47003E+00 -5.58322E+00 -5.41375E+00 -5.98504E+00 -5.34180E+00 -6.01711E+00 -5.68882E+00
  -5.45569E+00 -7.30858E+00 -5.76344E+00 -5.65452E+00 -6.43143E+00 -5.92858E+00 -5.71467E+00 -6.33679E+00 -6.26242E+00 -6.55835E+00
  -7.12331E+00 -6.14021E+00 -5.85940E+00 -6.71783E+00 -4.46927E+00 -6.02055E+00 -6.90988E+00 -7.02147E+00 -6.64410E+00 -7.12301E+00
  -5.86109E+00 -8.59533E+00 -7.96025E+00 -7.25872E+00 -7.50008E+00 -7.59557E+00 -7.50133E+00 -7.51175E+00 -8.29767E+00 -7.96429E+00
  -7.82451E+00 -7.60257E+00 -7.66825E+00 -7.51294E+00 -6.68859E+00 -6.96135E+00 -6.36640E+00 -6.07202E+00 -6.47329E+00 -6.06560E+00
  -5.93065E+00 -5.17901E+00 -4.36878E+00 -3.58732E+00 -2.85221E+00 -2.82047E+00 -1.70502E+00 -1.87900E+00 -4.27825E-01  4.72284E-02
   1.70852E+00  3.09943E+00  3.99432E+00  3.38511E+00  5.61874E+00  7.35123E+00  7.44174E+00  9.38636E+00  9.39953E+00  9.57784E+00
   1.09869E+01  1.15516E+01  1.02214E+01  1.13975E+01  1.18434E+01  1.21165E+01  1.24864E+01  1.10974E+01  1.12721E+01  1.07735E+01
   1.08744E+01  1.04199E+01  9.80156E+00  9.77959E+00  9.30426E+00  9.38978E+00  8.32639E+00  8.75876E+00  7.79999E+00  8.25295E+00
   6.63444E+00  7.20343E+00  7.25281E+00  7.36240E+00  7.74733E+00  5.90645E+00  6.50950E+00  6.48064E+00  6.86053E+00  6.13425E+00
   4.59538E+00  6.27395E+00  5.60980E+00  4.94194E+00  5.77398E+00  3.89427E+00  3.80439E+00  3.79041E+00  5.52243E+00  4.95252E+00
   4.76478E+00  3.20752E+00  4.25000E+00  4.02892E+00  3.53011E+00  4.10013E+00  3.83671E+00  4.53625E+00  2.68079E+00  2.86555E+00
   2.66720E+00  3.29098E+00  3.03593E+00  3.55597E+00  4.28094E+00  3.14124E+00  3.86247E+00  3.15763E+00  3.27147E+00  3.02464E+00
   1.74548E+00  3.87790E+00  2.53905E+00  3.55517E+00  1.69559E+00  3.13818E+00  2.03945E+00  2.64924E+00  1.03045E+00  2.16528E+00
   3.50273E+00  2.12815E+00  2.63164E+00  2.04617E+00  1.54552E+00  2.50319E+00  2.87275E+00  2.23365E+00  1.26748E+00  2.38813E+00
   1.24341E+00  2.27030E+00  1.94668E+00  2.90035E+00  1.84987E+00  2.38193E+00  1.40692E+00  1.25457E+00  1.25291E+00  1.61887E+00
   2.00731E+00  1.67231E+00  1.22191E+00  1.59290E+00  2.21502E+00  1.48910E+00  1.72022E+00  1.89842E+00  2.08650E+00  1.66858E+00
   3.50879E+00  2.49892E+00  5.35307E-01  1.68976E+00  1.50627E+00  1.20541E+00  1.39946E+00  2.13433E+00  1.81053E+00  1.15628E+00
   1.07436E+00  6.67772E-01  1.44356E+00  9.05120E-01  2.00256E+00  1.74911E+00  1.96814E+00  1.83468E+00  1.56755E+00  7.88368E-01
   2.51276E+00 -4.66986E-02  1.59353E+00  1.39483E+00  6.53747E-01  1.12957E+00  5.62187E-01  9.36954E-01  1.13547E+00  1.56170E+00
   6.39189E-01  6.61915E-01  5.77501E-01  1.45668E-01  1.38228E+00  9.51721E-01  1.48828E+00  1.16856E-01  1.36628E+00  1.05045E+00
   6.27612E-01  8.85250E-01  1.56130E+00 -1.36958E-01  4.18008E-01  1.48324E-02  7.46904E-01  2.65039E-02  1.59106E+00  9.27116E-01
   6.74610E-01  4.22027E-01  6.49999E-01  4.10406E-01  1.51124E-01  9.41642E-01  1.46738E+00  2.49571E-01  4.20991E-01  9.82888E-02
   2.55575E-01  4.55198E-01  3.55994E-02 -1.87577E-01 -4.69709E-01  9.28598E-01  5.84756E-01 -2.08808E-01
 NY points of the fit to the data follow
  -8.51121E-01 -4.86017E-01 -9.17183E-01 -5.85355E-01 -8.80440E-01 -5.68846E-01 -8.46754E-01 -6.86578E-01 -9.39703E-01 -9.15696E-01
  -1.14175E+00 -1.19164E+00 -1.32312E+00 -1.28221E+00 -1.30057E+00 -1.24289E+00 -1.19656E+00 -1.15773E+00 -1.07399E+00 -1.07953E+00
  -1.01814E+00 -1.03914E+00 -9.74958E-01 -1.00599E+00 -9.41240E-01 -9.81178E-01 -9.18920E-01 -9.68589E-01 -9.13377E-01 -9.56941E-01
  -8.96792E-01 -9.35086E-01 -8.83751E-01 -9.23972E-01 -8.85904E-01 -9.24836E-01 -8.95052E-01 -9.35737E-01 -9.22315E-01 -9.62887E-01
  -9.60609E-01 -9.94718E-01 -9.93481E-01 -1.02095E+00 -1.02174E+00 -1.05183E+00 -1.06458E+00 -1.10058E+00 -1.12129E+00 -1.15674E+00
  -1.17084E+00 -1.19879E+00 -1.18654E+00 -1.21572E+00 -1.19379E+00 -1.23084E+00 -1.20526E+00 -1.24920E+00 -1.21639E+00 -1.26129E+00
  -1.21949E+00 -1.26959E+00 -1.22908E+00 -1.28351E+00 -1.24420E+00 -1.29959E+00 -1.25986E+00 -1.31071E+00 -1.26701E+00 -1.30760E+00
  -1.25779E+00 -1.30161E+00 -1.26460E+00 -1.31739E+00 -1.29068E+00 -1.34938E+00 -1.32995E+00 -1.39083E+00 -1.37393E+00 -1.43090E+00
  -1.41909E+00 -1.46845E+00 -1.45548E+00 -1.49807E+00 -1.48617E+00 -1.52579E+00 -1.51942E+00 -1.55407E+00 -1.55067E+00 -1.57662E+00
  -1.57301E+00 -1.58918E+00 -1.58361E+00 -1.59132E+00 -1.58080E+00 -1.58051E+00 -1.56700E+00 -1.56005E+00 -1.54374E+00 -1.53091E+00
  -1.51165E+00 -1.49370E+00 -1.47180E+00 -1.44903E+00 -1.42516E+00 -1.39854E+00 -1.37255E+00 -1.34309E+00 -1.31806E+00 -1.29173E+00
  -1.27068E+00 -1.24723E+00 -1.22662E+00 -1.20245E+00 -1.17965E+00 -1.15001E+00 -1.12201E+00 -1.09441E+00 -1.06813E+00 -1.04645E+00
  -1.02842E+00 -1.01290E+00 -9.99117E-01 -9.89458E-01 -9.76342E-01 -9.75907E-01 -9.63364E-01 -9.72830E-01 -9.58539E-01 -9.78682E-01
  -9.62334E-01 -9.93720E-01 -9.76882E-01 -1.01927E+00 -1.00245E+00 -1.05371E+00 -1.03726E+00 -1.09624E+00 -1.08115E+00 -1.14595E+00
  -1.13453E+00 -1.20520E+00 -1.20055E+00 -1.27369E+00 -1.27523E+00 -1.34824E+00 -1.35600E+00 -1.42815E+00 -1.44390E+00 -1.51487E+00
  -1.53874E+00 -1.60644E+00 -1.63642E+00 -1.69871E+00 -1.73239E+00 -1.78815E+00 -1.82580E+00 -1.88345E+00 -1.93015E+00 -1.98855E+00
  -2.04207E+00 -2.09778E+00 -2.15217E+00 -2.20489E+00 -2.25776E+00 -2.31094E+00 -2.36390E+00 -2.42003E+00 -2.47344E+00 -2.53188E+00
  -2.58510E+00 -2.64391E+00 -2.69380E+00 -2.75054E+00 -2.79566E+00 -2.85100E+00 -2.89345E+00 -2.94830E+00 -2.98890E+00 -3.04537E+00
  -3.08738E+00 -3.13996E+00 -3.18133E+00 -3.22826E+00 -3.26947E+00 -3.31043E+00 -3.35220E+00 -3.38585E+00 -3.42804E+00 -3.45451E+00
  -3.49705E+00 -3.51636E+00 -3.55866E+00 -3.57034E+00 -3.61107E+00 -3.61511E+00 -3.65301E+00 -3.65109E+00 -3.68552E+00 -3.67950E+00
  -3.71002E+00 -3.70043E+00 -3.72576E+00 -3.71388E+00 -3.73370E+00 -3.71991E+00 -3.73346E+00 -3.72084E+00 -3.72907E+00 -3.71641E+00
  -3.71803E+00 -3.70285E+00 -3.69549E+00 -3.67958E+00 -3.66717E+00 -3.65071E+00 -3.63514E+00 -3.61822E+00 -3.59962E+00 -3.57964E+00
  -3.55766E+00 -3.53390E+00 -3.50858E+00 -3.48368E+00 -3.45637E+00 -3.43147E+00 -3.40296E+00 -3.37751E+00 -3.34489E+00 -3.31898E+00
  -3.28229E+00 -3.25683E+00 -3.21728E+00 -3.19415E+00 -3.15423E+00 -3.13614E+00 -3.09909E+00 -3.08779E+00 -3.05550E+00 -3.05041E+00
  -3.02450E+00 -3.02751E+00 -3.01104E+00 -3.02366E+00 -3.01962E+00 -3.04451E+00 -3.05585E+00 -3.09278E+00 -3.11993E+00 -3.16954E+00
  -3.21359E+00 -3.27722E+00 -3.33889E+00 -3.41802E+00 -3.49799E+00 -3.58754E+00 -3.68051E+00 -3.77693E+00 -3.87899E+00 -3.98026E+00
  -4.08970E+00 -4.20093E+00 -4.31957E+00 -4.43826E+00 -4.56261E+00 -4.68501E+00 -4.81122E+00 -4.93210E+00 -5.05422E+00 -5.17224E+00
  -5.28990E+00 -5.40411E+00 -5.51639E+00 -5.62576E+00 -5.73231E+00 -5.83557E+00 -5.93502E+00 -6.03040E+00 -6.12147E+00 -6.20805E+00
  -6.28996E+00 -6.36704E+00 -6.43919E+00 -6.50629E+00 -6.56826E+00 -6.62504E+00 -6.67653E+00 -6.72270E+00 -6.76343E+00 -6.79872E+00
  -6.82841E+00 -6.85248E+00 -6.87062E+00 -6.88275E+00 -6.88844E+00 -6.88745E+00 -6.87913E+00 -6.86288E+00 -6.83767E+00 -6.80245E+00
  -6.75563E+00 -6.69551E+00 -6.61969E+00 -6.52555E+00 -6.40973E+00 -6.26864E+00 -6.09799E+00 -5.89328E+00 -5.64951E+00 -5.36173E+00
  -5.02496E+00 -4.63478E+00 -4.18738E+00 -3.68009E+00 -3.11159E+00 -2.48237E+00 -1.79493E+00 -1.05401E+00 -2.66459E-01  5.58851E-01
   1.41146E+00  2.27982E+00  3.15220E+00  4.01779E+00  4.86843E+00  5.70100E+00  6.52191E+00  7.35821E+00  8.29639E+00  9.45395E+00
   1.01579E+01  1.10156E+01  1.13826E+01  1.18194E+01  1.18414E+01  1.17855E+01  1.13926E+01  1.13762E+01  1.09344E+01  1.09088E+01
   1.04221E+01  1.03385E+01  9.81139E+00  9.77454E+00  9.25763E+00  9.17057E+00  8.66943E+00  8.53385E+00  8.10482E+00  8.00341E+00
   7.66463E+00  7.62006E+00  7.40536E+00  7.40018E+00  7.20241E+00  7.02833E+00  6.86163E+00  6.65828E+00  6.51997E+00  6.26265E+00
   6.09629E+00  5.81206E+00  5.67006E+00  5.26770E+00  5.12007E+00  4.72634E+00  4.68803E+00  4.53458E+00  4.68730E+00  4.82281E+00
   4.79223E+00  4.55838E+00  4.37277E+00  3.87202E+00  3.56873E+00  2.97347E+00  2.67255E+00  2.55332E+00  2.53218E+00  2.57350E+00
   2.65647E+00  2.76619E+00  2.89068E+00  3.01970E+00  3.14422E+00  3.25634E+00  3.34932E+00  3.41769E+00  3.45743E+00  3.46604E+00
   3.44254E+00  3.38745E+00  3.30270E+00  3.19151E+00  3.05818E+00  2.90782E+00  2.74603E+00  2.57863E+00  2.41135E+00  2.24964E+00
   2.09840E+00  1.96180E+00  1.84316E+00  1.74485E+00  1.66832E+00  1.61409E+00  1.58186E+00  1.57051E+00  1.57826E+00  1.60279E+00
   1.64135E+00  1.69095E+00  1.74840E+00  1.81048E+00  1.87402E+00  1.93600E+00  1.99367E+00  2.04458E+00  2.08664E+00  2.11815E+00
   2.13784E+00  2.14485E+00  2.13880E+00  2.11969E+00  2.08788E+00  2.04409E+00  1.98929E+00  1.92473E+00  1.85180E+00  1.77204E+00
   1.68703E+00  1.59835E+00  1.50754E+00  1.41607E+00  1.32533E+00  1.23653E+00  1.15074E+00  1.06886E+00  9.91634E-01  9.19646E-01
   8.53332E-01  7.92971E-01  7.38711E-01  6.90586E-01  6.48546E-01  6.12460E-01  5.82128E-01  5.57291E-01  5.37648E-01  5.22880E-01
   5.12655E-01  5.06635E-01  5.04471E-01  5.05812E-01  5.10317E-01  5.17661E-01  5.27539E-01  5.39654E-01  5.53716E-01  5.69451E-01
   5.86604E-01  6.04937E-01  6.24235E-01  6.44284E-01  6.64882E-01  6.85837E-01  7.06978E-01  7.28143E-01  7.49187E-01  7.69956E-01
   7.90315E-01  8.10125E-01  8.29275E-01  8.47650E-01  8.65145E-01  8.81649E-01  8.97062E-01  9.11288E-01  9.24244E-01  9.35845E-01
   9.46011E-01  9.54654E-01  9.61699E-01  9.67074E-01  9.70715E-01  9.72554E-01  9.72524E-01  9.70556E-01  9.66589E-01  9.60568E-01
   9.52442E-01  9.42150E-01  9.29640E-01  9.14856E-01  8.97753E-01  8.78290E-01  8.56427E-01  8.32128E-01
 NY background values follow
    -1.232E+00   -1.276E+00   -1.318E+00   -1.359E+00   -1.399E+00   -1.437E+00   -1.474E+00   -1.510E+00   -1.545E+00   -1.579E+00
    -1.612E+00   -1.643E+00   -1.674E+00   -1.703E+00   -1.731E+00   -1.758E+00   -1.785E+00   -1.810E+00   -1.834E+00   -1.857E+00
    -1.879E+00   -1.901E+00   -1.921E+00   -1.941E+00   -1.959E+00   -1.977E+00   -1.994E+00   -2.010E+00   -2.025E+00   -2.039E+00
    -2.053E+00   -2.066E+00   -2.078E+00   -2.089E+00   -2.099E+00   -2.109E+00   -2.119E+00   -2.127E+00   -2.135E+00   -2.142E+00
    -2.149E+00   -2.155E+00   -2.160E+00   -2.165E+00   -2.170E+00   -2.174E+00   -2.177E+00   -2.180E+00   -2.182E+00   -2.184E+00
    -2.185E+00   -2.186E+00   -2.187E+00   -2.187E+00   -2.187E+00   -2.187E+00   -2.186E+00   -2.185E+00   -2.183E+00   -2.181E+00
    -2.179E+00   -2.177E+00   -2.174E+00   -2.172E+00   -2.169E+00   -2.166E+00   -2.162E+00   -2.159E+00   -2.155E+00   -2.152E+00
    -2.148E+00   -2.144E+00   -2.140E+00   -2.136E+00   -2.132E+00   -2.128E+00   -2.124E+00   -2.120E+00   -2.116E+00   -2.113E+00
    -2.109E+00   -2.105E+00   -2.102E+00   -2.098E+00   -2.095E+00   -2.092E+00   -2.089E+00   -2.086E+00   -2.083E+00   -2.081E+00
    -2.079E+00   -2.077E+00   -2.076E+00   -2.075E+00   -2.074E+00   -2.073E+00   -2.073E+00   -2.073E+00   -2.074E+00   -2.075E+00
    -2.076E+00   -2.078E+00   -2.080E+00   -2.083E+00   -2.086E+00   -2.090E+00   -2.094E+00   -2.099E+00   -2.104E+00   -2.110E+00
    -2.117E+00   -2.124E+00   -2.132E+00   -2.140E+00   -2.150E+00   -2.159E+00   -2.170E+00   -2.181E+00   -2.193E+00   -2.206E+00
    -2.219E+00   -2.234E+00   -2.249E+00   -2.264E+00   -2.281E+00   -2.299E+00   -2.317E+00   -2.336E+00   -2.357E+00   -2.378E+00
    -2.399E+00   -2.422E+00   -2.445E+00   -2.469E+00   -2.494E+00   -2.520E+00   -2.546E+00   -2.573E+00   -2.601E+00   -2.630E+00
    -2.659E+00   -2.689E+00   -2.720E+00   -2.752E+00   -2.784E+00   -2.817E+00   -2.850E+00   -2.884E+00   -2.919E+00   -2.954E+00
    -2.990E+00   -3.027E+00   -3.064E+00   -3.102E+00   -3.140E+00   -3.179E+00   -3.219E+00   -3.259E+00   -3.300E+00   -3.341E+00
    -3.383E+00   -3.425E+00   -3.468E+00   -3.511E+00   -3.555E+00   -3.599E+00   -3.643E+00   -3.688E+00   -3.734E+00   -3.780E+00
    -3.827E+00   -3.873E+00   -3.921E+00   -3.968E+00   -4.016E+00   -4.065E+00   -4.114E+00   -4.163E+00   -4.212E+00   -4.262E+00
    -4.313E+00   -4.363E+00   -4.414E+00   -4.465E+00   -4.517E+00   -4.568E+00   -4.620E+00   -4.673E+00   -4.725E+00   -4.778E+00
    -4.831E+00   -4.884E+00   -4.938E+00   -4.991E+00   -5.045E+00   -5.099E+00   -5.154E+00   -5.208E+00   -5.263E+00   -5.318E+00
    -5.372E+00   -5.427E+00   -5.483E+00   -5.538E+00   -5.593E+00   -5.649E+00   -5.704E+00   -5.760E+00   -5.816E+00   -5.871E+00
    -5.927E+00   -5.983E+00   -6.039E+00   -6.095E+00   -6.151E+00   -6.207E+00   -6.262E+00   -6.318E+00   -6.374E+00   -6.430E+00
    -6.486E+00   -6.541E+00   -6.597E+00   -6.652E+00   -6.708E+00   -6.763E+00   -6.818E+00   -6.874E+00   -6.929E+00   -6.983E+00
    -7.038E+00   -7.093E+00   -7.147E+00   -7.201E+00   -7.255E+00   -7.309E+00   -7.363E+00   -7.416E+00   -7.470E+00   -7.523E+00
    -7.575E+00   -7.628E+00   -7.680E+00   -7.732E+00   -7.784E+00   -7.835E+00   -7.886E+00   -7.937E+00   -7.987E+00   -8.038E+00
    -8.087E+00   -8.137E+00   -8.186E+00   -8.235E+00   -8.283E+00   -8.331E+00   -8.379E+00   -8.426E+00   -8.473E+00   -8.519E+00
    -8.565E+00   -8.610E+00   -8.655E+00   -8.700E+00   -8.744E+00   -8.787E+00   -8.831E+00   -8.873E+00   -8.915E+00   -8.957E+00
    -8.998E+00   -9.038E+00   -9.078E+00   -9.117E+00   -9.156E+00   -9.194E+00   -9.232E+00   -9.269E+00   -9.305E+00   -9.341E+00
    -9.376E+00   -9.411E+00   -9.445E+00   -9.478E+00   -9.511E+00   -9.542E+00   -9.574E+00   -9.604E+00   -9.634E+00   -9.663E+00
    -9.691E+00   -9.719E+00   -9.746E+00   -9.772E+00   -9.797E+00   -9.821E+00   -9.845E+00   -9.868E+00   -9.890E+00   -9.912E+00
    -9.932E+00   -9.952E+00   -9.970E+00   -9.988E+00   -1.001E+01   -1.002E+01   -1.004E+01   -1.005E+01   -1.007E+01   -1.008E+01
    -1.009E+01   -1.010E+01   -1.011E+01   -1.012E+01   -1.013E+01   -1.013E+01   -1.014E+01   -1.014E+01   -1.015E+01   -1.015E+01
    -1.015E+01   -1.015E+01   -1.015E+01   -1.015E+01   -1.015E+01   -1.015E+01   -1.014E+01   -1.014E+01   -1.013E+01   -1.012E+01
    -1.011E+01   -1.010E+01   -1.009E+01   -1.008E+01   -1.007E+01   -1.005E+01   -1.004E+01   -1.002E+01   -1.000E+01   -9.983E+00
    -9.962E+00   -9.940E+00   -9.917E+00   -9.893E+00   -9.867E+00   -9.841E+00   -9.812E+00   -9.783E+00   -9.752E+00   -9.720E+00
    -9.687E+00   -9.653E+00   -9.617E+00   -9.579E+00   -9.541E+00   -9.501E+00   -9.459E+00   -9.417E+00   -9.372E+00   -9.327E+00
    -9.280E+00   -9.232E+00   -9.182E+00   -9.130E+00   -9.078E+00   -9.024E+00   -8.968E+00   -8.911E+00   -8.852E+00   -8.792E+00
    -8.730E+00   -8.667E+00   -8.603E+00   -8.536E+00   -8.469E+00   -8.399E+00   -8.329E+00   -8.256E+00   -8.183E+00   -8.108E+00
    -8.032E+00   -7.954E+00   -7.875E+00   -7.795E+00   -7.714E+00   -7.632E+00   -7.548E+00   -7.464E+00   -7.378E+00   -7.292E+00
    -7.204E+00   -7.116E+00   -7.026E+00   -6.936E+00   -6.845E+00   -6.753E+00   -6.661E+00   -6.567E+00   -6.473E+00   -6.379E+00
    -6.283E+00   -6.187E+00   -6.091E+00   -5.994E+00   -5.897E+00   -5.799E+00   -5.701E+00   -5.602E+00   -5.503E+00   -5.404E+00
    -5.305E+00   -5.205E+00   -5.105E+00   -5.005E+00   -4.905E+00   -4.805E+00   -4.705E+00   -4.604E+00   -4.504E+00   -4.404E+00
    -4.304E+00   -4.204E+00   -4.104E+00   -4.005E+00   -3.905E+00   -3.806E+00   -3.708E+00   -3.609E+00   -3.511E+00   -3.414E+00
    -3.317E+00   -3.220E+00   -3.124E+00   -3.028E+00   -2.933E+00   -2.839E+00   -2.745E+00   -2.652E+00   -2.560E+00   -2.469E+00
    -2.378E+00   -2.288E+00   -2.200E+00   -2.112E+00   -2.025E+00   -1.939E+00   -1.854E+00   -1.770E+00   -1.687E+00   -1.605E+00
    -1.524E+00   -1.445E+00   -1.367E+00   -1.290E+00   -1.215E+00   -1.140E+00   -1.068E+00   -9.962E-01   -9.262E-01   -8.578E-01
    -7.908E-01   -7.255E-01   -6.617E-01   -5.995E-01   -5.390E-01   -4.802E-01   -4.232E-01   -3.679E-01   -3.144E-01   -2.628E-01
    -2.130E-01   -1.651E-01   -1.192E-01   -7.534E-02   -3.344E-02    6.394E-03    4.414E-02    7.976E-02    1.132E-01    1.445E-01
     1.735E-01    2.003E-01    2.247E-01    2.468E-01    2.665E-01    2.839E-01    2.987E-01    3.111E-01    3.210E-01    3.283E-01
     3.330E-01    3.352E-01    3.346E-01    3.313E-01    3.254E-01    3.166E-01    3.050E-01    2.906E-01
 Asp      Conc. = 2.01E-02
