 LCModel (Version 6.3-1L) Copyright: S.W. Provencher.          Ref.: Magn. Reson. Med. 30:672-679 (1993).                
 Slice#1 Row#7 Col#14  K_02_press_1_raw_act
 36 lines in following concentration table = NCONC+1
    Conc.  %SD /Cr+PCr  Metabolite                                         
    0.000 999%   0.000 Ala                                                 
   21.828  33%   0.249 Asp                                                 
    0.000 999%   0.000 Cr                                                  
   87.518  48%   1.000 PCr                                                 
   13.025  34%   0.149 GABA                                                
   13.082  34%   0.149 Glc                                                 
  153.040  83%   1.749 Gln                                                 
  123.308 116%   1.409 Glu                                                 
   27.059  47%   0.309 GPC                                                 
    0.000 999%   0.000 PCh                                                 
   11.976 338%   0.137 GSH                                                 
    0.000 999%   0.000 Ins                                                 
  122.846  64%   1.404 Lac                                                 
  266.440  29%   3.044 NAA                                                 
    0.000 999%   0.000 NAAG                                                
    4.365  33% 5.0E-02 Scyllo                                              
   21.755  34%   0.249 Tau                                                 
    8.753  48%   0.100 -CrCH2                                              
   27.059  47%   0.309 GPC+PCh                                             
  266.440  29%   3.044 NAA+NAAG                                            
   87.518  48%   1.000 Cr+PCr                                              
  276.348  69%   3.158 Glu+Gln                                             
 1.51E+04  20% 172.752 Lip13a                                              
    0.000 999%   0.000 Lip13b                                              
 5.09E+03  19%  58.129 Lip09                                               
 6.13E+03  15%  69.986 MM09                                                
  857.328  58%   9.796 Lip20                                               
  299.913 146%   3.427 MM20                                                
 3.48E+03  20%  39.755 MM12                                                
 5.30E+03  29%  60.596 MM14                                                
 1.35E+03  30%  15.431 MM17                                                
 1.51E+04  20% 172.752 Lip13a+Lip13b                                       
 2.39E+04  10% 273.103 MM14+Lip13a+Lip13b+MM12                             
 1.12E+04   9% 128.115 MM09+Lip09                                          
 1.16E+03  32%  13.223 MM20+Lip20                                          
   6 lines in following misc. output table
  FWHM = 0.229 ppm    S/N =  19                                            
  Data shift = 0.130 ppm                                                   
  Ph: -80 deg     -13.1 deg/ppm                                            
  alphaB,S = 3.3E+00,   1.2E+01                                            
    7 spline knots.   Ns = 9(2)                                            
  (12)10 infls.   (12)10 extrs.                                            
  498 points on ppm-axis = NY
      4.000000     3.992357     3.984714     3.977070     3.969427     3.961784     3.954141     3.946497     3.938854     3.931211
      3.923568     3.915925     3.908281     3.900638     3.892995     3.885352     3.877708     3.870065     3.862422     3.854779
      3.847136     3.839492     3.831849     3.824206     3.816563     3.808919     3.801276     3.793633     3.785990     3.778347
      3.770703     3.763060     3.755417     3.747774     3.740130     3.732487     3.724844     3.717201     3.709558     3.701914
      3.694271     3.686628     3.678985     3.671341     3.663698     3.656055     3.648412     3.640769     3.633125     3.625482
      3.617839     3.610196     3.602552     3.594909     3.587266     3.579623     3.571980     3.564336     3.556693     3.549050
      3.541407     3.533763     3.526120     3.518477     3.510834     3.503191     3.495547     3.487904     3.480261     3.472618
      3.464974     3.457331     3.449688     3.442045     3.434402     3.426758     3.419115     3.411472     3.403829     3.396185
      3.388542     3.380899     3.373256     3.365613     3.357969     3.350326     3.342683     3.335040     3.327396     3.319753
      3.312110     3.304467     3.296824     3.289180     3.281537     3.273894     3.266251     3.258607     3.250964     3.243321
      3.235678     3.228034     3.220391     3.212748     3.205105     3.197462     3.189818     3.182175     3.174532     3.166889
      3.159245     3.151602     3.143959     3.136316     3.128673     3.121029     3.113386     3.105743     3.098100     3.090456
      3.082813     3.075170     3.067527     3.059884     3.052240     3.044597     3.036954     3.029311     3.021667     3.014024
      3.006381     2.998738     2.991095     2.983451     2.975808     2.968165     2.960522     2.952878     2.945235     2.937592
      2.929949     2.922306     2.914662     2.907019     2.899376     2.891733     2.884089     2.876446     2.868803     2.861160
      2.853517     2.845873     2.838230     2.830587     2.822944     2.815300     2.807657     2.800014     2.792371     2.784728
      2.777084     2.769441     2.761798     2.754155     2.746511     2.738868     2.731225     2.723582     2.715939     2.708295
      2.700652     2.693009     2.685366     2.677722     2.670079     2.662436     2.654793     2.647150     2.639506     2.631863
      2.624220     2.616577     2.608933     2.601290     2.593647     2.586004     2.578361     2.570717     2.563074     2.555431
      2.547788     2.540144     2.532501     2.524858     2.517215     2.509572     2.501928     2.494285     2.486642     2.478999
      2.471355     2.463712     2.456069     2.448426     2.440783     2.433139     2.425496     2.417853     2.410210     2.402566
      2.394923     2.387280     2.379637     2.371994     2.364350     2.356707     2.349064     2.341421     2.333777     2.326134
      2.318491     2.310848     2.303205     2.295561     2.287918     2.280275     2.272632     2.264988     2.257345     2.249702
      2.242059     2.234416     2.226772     2.219129     2.211486     2.203843     2.196199     2.188556     2.180913     2.173270
      2.165627     2.157983     2.150340     2.142697     2.135054     2.127410     2.119767     2.112124     2.104481     2.096838
      2.089194     2.081551     2.073908     2.066265     2.058621     2.050978     2.043335     2.035692     2.028049     2.020405
      2.012762     2.005119     1.997476     1.989833     1.982190     1.974546     1.966903     1.959260     1.951617     1.943974
      1.936331     1.928688     1.921045     1.913402     1.905759     1.898115     1.890472     1.882829     1.875186     1.867543
      1.859900     1.852257     1.844614     1.836971     1.829327     1.821684     1.814041     1.806398     1.798755     1.791112
      1.783469     1.775826     1.768183     1.760540     1.752896     1.745253     1.737610     1.729967     1.722324     1.714681
      1.707038     1.699395     1.691752     1.684108     1.676465     1.668822     1.661179     1.653536     1.645893     1.638250
      1.630607     1.622964     1.615321     1.607677     1.600034     1.592391     1.584748     1.577105     1.569462     1.561819
      1.554176     1.546533     1.538890     1.531246     1.523603     1.515960     1.508317     1.500674     1.493031     1.485388
      1.477745     1.470102     1.462458     1.454815     1.447172     1.439529     1.431886     1.424243     1.416600     1.408957
      1.401314     1.393671     1.386027     1.378384     1.370741     1.363098     1.355455     1.347812     1.340169     1.332526
      1.324883     1.317240     1.309596     1.301953     1.294310     1.286667     1.279024     1.271381     1.263738     1.256095
      1.248452     1.240808     1.233165     1.225522     1.217879     1.210236     1.202593     1.194950     1.187307     1.179664
      1.172021     1.164377     1.156734     1.149091     1.141448     1.133805     1.126162     1.118519     1.110876     1.103233
      1.095590     1.087946     1.080303     1.072660     1.065017     1.057374     1.049731     1.042088     1.034445     1.026802
      1.019158     1.011515     1.003872     0.996229     0.988586     0.980943     0.973300     0.965657     0.958014     0.950371
      0.942727     0.935084     0.927441     0.919798     0.912155     0.904512     0.896869     0.889226     0.881583     0.873940
      0.866296     0.858653     0.851010     0.843367     0.835724     0.828081     0.820438     0.812795     0.805152     0.797508
      0.789865     0.782222     0.774579     0.766936     0.759293     0.751650     0.744007     0.736364     0.728721     0.721077
      0.713434     0.705791     0.698148     0.690505     0.682862     0.675219     0.667576     0.659933     0.652290     0.644646
      0.637003     0.629360     0.621717     0.614074     0.606431     0.598788     0.591145     0.583502     0.575858     0.568215
      0.560572     0.552929     0.545286     0.537643     0.530000     0.522357     0.514714     0.507071     0.499427     0.491784
      0.484141     0.476498     0.468855     0.461212     0.453569     0.445925     0.438282     0.430639     0.422996     0.415353
      0.407710     0.400067     0.392424     0.384780     0.377137     0.369494     0.361851     0.354208     0.346565     0.338922
      0.331278     0.323635     0.315992     0.308349     0.300706     0.293063     0.285420     0.277777     0.270133     0.262490
      0.254847     0.247204     0.239561     0.231918     0.224275     0.216631     0.208988     0.201345
 NY phased data points follow
   9.39277E+00  8.22966E+00  1.20856E+01  9.02418E+00  9.68095E+00  7.95061E+00  8.87918E+00  7.34194E+00  8.71690E+00  6.49178E+00
   9.06250E+00  6.15126E+00  9.48946E+00  7.53944E+00  8.70309E+00  1.05727E+01  5.57796E+00  5.92465E+00  9.74044E+00  9.05367E+00
   7.66396E+00  7.41067E+00  9.31937E+00  1.01171E+01  9.48938E+00  9.39179E+00  7.30129E+00  6.97556E+00  8.63985E+00  7.68581E+00
   8.55208E+00  8.08231E+00  7.85153E+00  1.08825E+01  7.16345E+00  9.04985E+00  7.02031E+00  7.37672E+00  1.03402E+01  9.11533E+00
   6.97510E+00  5.94386E+00  7.94350E+00  9.12869E+00  9.81958E+00  7.85960E+00  6.65578E+00  6.82093E+00  8.73636E+00  7.93795E+00
   8.41812E+00  8.70331E+00  1.07308E+01  7.24011E+00  7.01072E+00  9.69589E+00  7.58242E+00  7.53207E+00  9.85344E+00  7.35645E+00
   4.71891E+00  8.25188E+00  6.15947E+00  5.78803E+00  5.26190E+00  4.70936E+00  7.35380E+00  8.02944E+00  8.01619E+00  8.91614E+00
   7.35437E+00  6.87553E+00  9.36571E+00  8.24396E+00  6.86093E+00  5.61524E+00  5.75186E+00  1.07066E+01  7.73063E+00  1.02995E+01
   6.56604E+00  1.02297E+01  7.00435E+00  9.22348E+00  8.35900E+00  7.36260E+00  7.40607E+00  7.83489E+00  7.42106E+00  5.90460E+00
   7.75413E+00  9.21790E+00  1.00348E+01  1.05616E+01  8.34631E+00  7.28116E+00  9.51807E+00  1.13165E+01  8.03742E+00  1.29885E+01
   7.30532E+00  9.57834E+00  7.59262E+00  7.93888E+00  9.55924E+00  9.76789E+00  1.13632E+01  9.88795E+00  8.50152E+00  8.11005E+00
   5.67038E+00  8.23499E+00  7.60550E+00  1.02641E+01  8.53485E+00  1.16021E+01  1.14111E+01  1.15243E+01  9.50035E+00  1.17904E+01
   1.14928E+01  1.00462E+01  1.15103E+01  1.08454E+01  1.06709E+01  1.12896E+01  9.49721E+00  9.20902E+00  1.16292E+01  1.03216E+01
   1.13862E+01  1.23924E+01  1.01521E+01  9.94148E+00  9.13222E+00  1.03907E+01  1.03111E+01  9.38175E+00  1.03429E+01  1.11400E+01
   1.35842E+01  1.15535E+01  1.03050E+01  1.13240E+01  9.90439E+00  1.22269E+01  9.20888E+00  1.23880E+01  1.06348E+01  1.01141E+01
   1.20597E+01  1.09184E+01  1.18446E+01  1.18543E+01  1.22394E+01  8.78460E+00  1.14904E+01  9.39177E+00  1.03922E+01  7.93643E+00
   1.05626E+01  1.07614E+01  1.25403E+01  1.23075E+01  1.07808E+01  1.05088E+01  8.93192E+00  1.15165E+01  8.09478E+00  7.49792E+00
   1.28372E+01  1.28967E+01  1.08553E+01  1.34359E+01  1.22884E+01  1.12953E+01  1.22174E+01  1.11773E+01  7.82860E+00  8.72857E+00
   1.06234E+01  1.14223E+01  1.50701E+01  9.72697E+00  1.23882E+01  9.53280E+00  1.13388E+01  1.03367E+01  1.31953E+01  1.22417E+01
   1.15832E+01  1.30880E+01  1.21529E+01  1.14935E+01  1.15043E+01  1.15301E+01  1.04958E+01  1.13778E+01  1.10117E+01  1.01173E+01
   1.00578E+01  1.01317E+01  1.06914E+01  1.07931E+01  1.17370E+01  1.25573E+01  1.40196E+01  1.39660E+01  1.34714E+01  1.48104E+01
   1.08587E+01  1.28458E+01  1.39379E+01  1.28209E+01  1.48841E+01  1.37163E+01  1.15109E+01  1.28276E+01  1.45647E+01  1.43293E+01
   1.51804E+01  1.30554E+01  1.10798E+01  1.16697E+01  1.78771E+01  1.33159E+01  1.54009E+01  1.46749E+01  1.30824E+01  1.69535E+01
   1.53513E+01  1.56277E+01  1.34343E+01  1.42804E+01  1.45036E+01  1.49897E+01  1.89506E+01  1.43493E+01  1.44162E+01  1.49567E+01
   1.63991E+01  1.53671E+01  1.21601E+01  1.03577E+01  1.09441E+01  8.51128E+00  8.49041E+00  1.40579E+01  1.48777E+01  1.64438E+01
   1.87583E+01  1.94981E+01  1.83345E+01  1.56174E+01  1.58786E+01  1.79693E+01  1.69736E+01  1.71119E+01  1.65554E+01  1.84364E+01
   1.69033E+01  1.61188E+01  1.58720E+01  1.52906E+01  1.77756E+01  1.76331E+01  1.87443E+01  1.88590E+01  1.92596E+01  1.85008E+01
   1.76944E+01  1.91778E+01  1.75371E+01  1.80584E+01  1.54124E+01  1.98295E+01  1.73855E+01  1.85678E+01  1.97481E+01  1.74190E+01
   1.98654E+01  2.06312E+01  1.68245E+01  1.62717E+01  1.63821E+01  1.97900E+01  1.88372E+01  1.79301E+01  1.81222E+01  1.75167E+01
   1.66934E+01  1.89976E+01  1.72717E+01  1.50534E+01  1.65571E+01  1.85014E+01  1.87106E+01  1.82592E+01  1.31952E+01  1.73536E+01
   1.87087E+01  1.81549E+01  1.59698E+01  1.75026E+01  1.72455E+01  1.77054E+01  2.02546E+01  1.76368E+01  1.96352E+01  1.88857E+01
   1.99405E+01  1.65665E+01  1.86408E+01  1.92380E+01  2.05154E+01  2.10198E+01  2.26467E+01  2.34735E+01  2.42711E+01  2.44158E+01
   2.56465E+01  2.82079E+01  2.90141E+01  2.93456E+01  3.12173E+01  3.09976E+01  3.16864E+01  3.37171E+01  3.48967E+01  3.67407E+01
   3.48901E+01  4.00620E+01  4.02195E+01  4.39959E+01  4.35639E+01  4.51754E+01  4.91501E+01  4.95759E+01  5.01727E+01  5.11124E+01
   5.10896E+01  5.33519E+01  5.33549E+01  5.21791E+01  5.33026E+01  5.59887E+01  5.79218E+01  5.87486E+01  5.76523E+01  5.87824E+01
   5.88727E+01  5.70999E+01  5.74043E+01  5.94493E+01  6.00879E+01  5.87205E+01  6.08131E+01  6.22854E+01  6.30115E+01  6.27266E+01
   6.11637E+01  6.46022E+01  6.63175E+01  6.49226E+01  6.23588E+01  6.68694E+01  6.47289E+01  6.48564E+01  6.40892E+01  6.34405E+01
   6.62453E+01  6.58237E+01  6.58356E+01  6.83585E+01  6.77567E+01  6.31595E+01  6.46972E+01  6.66178E+01  6.48800E+01  6.25192E+01
   6.50517E+01  6.49535E+01  6.42087E+01  6.27318E+01  6.00271E+01  6.12105E+01  5.75840E+01  5.91755E+01  5.47558E+01  5.70658E+01
   5.46367E+01  5.30167E+01  5.31670E+01  5.19834E+01  5.04653E+01  4.99228E+01  4.63183E+01  4.61092E+01  4.62338E+01  4.47488E+01
   4.41306E+01  4.33206E+01  4.17129E+01  3.52235E+01  3.55705E+01  3.62421E+01  3.47978E+01  3.42949E+01  3.05452E+01  2.82056E+01
   3.00629E+01  2.71287E+01  2.58661E+01  2.31637E+01  2.39073E+01  2.33110E+01  2.04079E+01  1.85621E+01  1.81073E+01  1.79620E+01
   1.42235E+01  1.27938E+01  1.16176E+01  1.10912E+01  8.66405E+00  6.35811E+00  1.01498E+01  8.22390E+00  6.85294E+00  3.25337E+00
   5.91389E-01 -5.57455E-01  5.95929E-01  7.06606E-01 -3.10519E+00 -4.18878E+00 -3.44794E+00 -3.91100E+00 -4.94973E+00 -1.12105E+01
  -5.93487E+00 -7.01901E+00 -7.75438E+00 -8.40829E+00 -8.52475E+00 -9.95506E+00 -1.00375E+01 -1.29201E+01 -1.31438E+01 -1.45108E+01
  -1.10798E+01 -1.48125E+01 -1.44853E+01 -1.60820E+01 -1.36817E+01 -1.55575E+01 -1.50036E+01 -1.93284E+01 -1.76090E+01 -1.76205E+01
  -1.93670E+01 -1.80312E+01 -1.69775E+01 -1.87728E+01 -1.86651E+01 -1.66403E+01 -2.07252E+01 -2.18524E+01 -2.53516E+01 -2.08204E+01
  -1.89393E+01 -2.03112E+01 -2.13661E+01 -2.17153E+01 -2.05384E+01 -2.14049E+01 -2.21139E+01 -2.21810E+01 -2.30996E+01 -2.14993E+01
  -2.04577E+01 -2.18247E+01 -2.24836E+01 -2.21624E+01 -2.52736E+01 -2.08336E+01 -2.12557E+01 -1.92671E+01 -2.25892E+01 -1.99215E+01
  -2.12355E+01 -2.15250E+01 -1.96582E+01 -1.99154E+01 -2.10426E+01 -2.01896E+01 -1.93643E+01 -1.81782E+01
 NY points of the fit to the data follow
   8.42084E+00  8.42029E+00  8.29532E+00  8.28068E+00  8.20707E+00  8.31568E+00  8.25684E+00  8.36398E+00  8.30369E+00  8.40683E+00
   8.56290E+00  8.63789E+00  8.64411E+00  8.68275E+00  8.32690E+00  8.39857E+00  7.93755E+00  8.18929E+00  8.20034E+00  8.65436E+00
   8.82860E+00  9.06158E+00  9.08904E+00  9.07557E+00  8.76817E+00  8.70770E+00  8.39555E+00  8.38040E+00  8.09276E+00  8.05290E+00
   8.08199E+00  8.08908E+00  8.00910E+00  8.02323E+00  7.97179E+00  8.00515E+00  8.03904E+00  8.08234E+00  8.13750E+00  8.13225E+00
   8.14534E+00  8.09623E+00  8.06031E+00  8.00883E+00  8.00333E+00  7.99566E+00  8.09106E+00  8.08596E+00  8.17953E+00  8.11739E+00
   8.08074E+00  7.93514E+00  7.83608E+00  7.79473E+00  7.80269E+00  7.83837E+00  7.90262E+00  7.92682E+00  7.91866E+00  7.87957E+00
   7.84379E+00  7.85781E+00  7.86302E+00  7.88833E+00  7.90847E+00  7.91781E+00  7.89984E+00  7.86721E+00  7.79575E+00  7.75867E+00
   7.71938E+00  7.73038E+00  7.78456E+00  7.82946E+00  7.89831E+00  7.94618E+00  7.99630E+00  8.04426E+00  8.04177E+00  8.06791E+00
   8.04779E+00  8.02768E+00  7.99509E+00  7.90266E+00  7.56449E+00  7.00521E+00  6.99486E+00  6.54163E+00  7.14590E+00  7.33285E+00
   8.02372E+00  8.63953E+00  8.90195E+00  9.43810E+00  9.11617E+00  9.16960E+00  8.96844E+00  9.09458E+00  8.96516E+00  9.12372E+00
   9.04183E+00  9.24456E+00  9.06601E+00  9.16093E+00  9.07430E+00  9.26525E+00  9.17372E+00  9.36683E+00  8.73308E+00  8.65664E+00
   8.21222E+00  8.19103E+00  8.61494E+00  9.10966E+00  9.73416E+00  1.03898E+01  1.06690E+01  1.12740E+01  1.07878E+01  1.10769E+01
   1.06664E+01  1.08198E+01  1.03100E+01  1.01322E+01  1.00726E+01  1.01606E+01  1.00170E+01  1.01055E+01  1.01225E+01  1.03231E+01
   1.04624E+01  1.07274E+01  1.08138E+01  1.10471E+01  1.09551E+01  1.11293E+01  1.11087E+01  1.12989E+01  1.11765E+01  1.13316E+01
   1.13365E+01  1.15350E+01  1.14980E+01  1.17192E+01  1.15464E+01  1.15948E+01  1.10999E+01  1.08806E+01  1.08890E+01  1.08304E+01
   1.08987E+01  1.09324E+01  1.10218E+01  1.11409E+01  1.12084E+01  1.12996E+01  1.13306E+01  1.13602E+01  1.14313E+01  1.14637E+01
   1.14436E+01  1.14644E+01  1.13703E+01  1.14067E+01  1.13284E+01  1.13021E+01  1.12871E+01  1.12239E+01  1.12910E+01  1.12745E+01
   1.12611E+01  1.11837E+01  1.11277E+01  1.10239E+01  1.09879E+01  1.09104E+01  1.09436E+01  1.09432E+01  1.10447E+01  1.10695E+01
   1.11796E+01  1.11761E+01  1.12072E+01  1.10822E+01  1.09812E+01  1.08454E+01  1.07016E+01  1.07023E+01  1.07103E+01  1.08831E+01
   1.11184E+01  1.15215E+01  1.19754E+01  1.21266E+01  1.23926E+01  1.22367E+01  1.20716E+01  1.17647E+01  1.12735E+01  1.12698E+01
   1.09971E+01  1.13916E+01  1.15589E+01  1.19456E+01  1.22656E+01  1.26201E+01  1.27651E+01  1.28468E+01  1.26486E+01  1.25659E+01
   1.24112E+01  1.23603E+01  1.23038E+01  1.24678E+01  1.25617E+01  1.28005E+01  1.28302E+01  1.30834E+01  1.32420E+01  1.33386E+01
   1.33958E+01  1.33188E+01  1.32561E+01  1.31182E+01  1.30291E+01  1.31659E+01  1.32528E+01  1.37032E+01  1.38757E+01  1.42818E+01
   1.44322E+01  1.44821E+01  1.43798E+01  1.43128E+01  1.42313E+01  1.41487E+01  1.40194E+01  1.40212E+01  1.40671E+01  1.41614E+01
   1.42312E+01  1.41563E+01  1.28599E+01  1.16060E+01  1.12021E+01  1.01577E+01  1.19974E+01  1.25749E+01  1.50261E+01  1.66105E+01
   1.77315E+01  1.90499E+01  1.80207E+01  1.81876E+01  1.76036E+01  1.79246E+01  1.75312E+01  1.78026E+01  1.74543E+01  1.77413E+01
   1.70059E+01  1.70937E+01  1.68969E+01  1.73912E+01  1.74341E+01  1.82042E+01  1.80279E+01  1.87745E+01  1.80330E+01  1.85278E+01
   1.80296E+01  1.86272E+01  1.78906E+01  1.83728E+01  1.80439E+01  1.87784E+01  1.83538E+01  1.90115E+01  1.82376E+01  1.84480E+01
   1.69556E+01  1.64807E+01  1.65493E+01  1.67303E+01  1.69114E+01  1.71269E+01  1.73245E+01  1.75133E+01  1.76852E+01  1.78406E+01
   1.79701E+01  1.80673E+01  1.81352E+01  1.81620E+01  1.81569E+01  1.81250E+01  1.80716E+01  1.79994E+01  1.79201E+01  1.78351E+01
   1.77535E+01  1.76816E+01  1.76225E+01  1.75869E+01  1.75790E+01  1.76061E+01  1.76732E+01  1.77893E+01  1.79573E+01  1.81836E+01
   1.84702E+01  1.88246E+01  1.92467E+01  1.97417E+01  2.03109E+01  2.09564E+01  2.16791E+01  2.24800E+01  2.33585E+01  2.43140E+01
   2.53440E+01  2.64458E+01  2.76145E+01  2.88446E+01  3.01281E+01  3.14556E+01  3.28132E+01  3.41806E+01  3.55127E+01  3.67151E+01
   3.81089E+01  3.98220E+01  4.13883E+01  4.35419E+01  4.51366E+01  4.70432E+01  4.84851E+01  4.93718E+01  5.01292E+01  5.03741E+01
   5.08215E+01  5.15465E+01  5.22501E+01  5.32222E+01  5.42431E+01  5.51385E+01  5.62033E+01  5.65992E+01  5.73162E+01  5.77555E+01
   5.84275E+01  5.88530E+01  5.94990E+01  5.98384E+01  6.04919E+01  6.06452E+01  6.12279E+01  6.15207E+01  6.21546E+01  6.24740E+01
   6.32093E+01  6.36234E+01  6.43686E+01  6.45587E+01  6.51024E+01  6.51350E+01  6.55363E+01  6.53491E+01  6.56065E+01  6.57838E+01
   6.59900E+01  6.59669E+01  6.60264E+01  6.58139E+01  6.57012E+01  6.51613E+01  6.46713E+01  6.42416E+01  6.38295E+01  6.34227E+01
   6.30124E+01  6.25905E+01  6.21452E+01  6.16641E+01  6.11319E+01  6.05339E+01  5.98556E+01  5.90852E+01  5.82131E+01  5.72348E+01
   5.61491E+01  5.49606E+01  5.36773E+01  5.23124E+01  5.08808E+01  4.94010E+01  4.78911E+01  4.63701E+01  4.48546E+01  4.33600E+01
   4.18976E+01  4.04760E+01  3.90992E+01  3.77682E+01  3.64797E+01  3.52281E+01  3.40047E+01  3.28000E+01  3.16026E+01  3.04022E+01
   2.91879E+01  2.79514E+01  2.66849E+01  2.53838E+01  2.40447E+01  2.26677E+01  2.12543E+01  1.98087E+01  1.83361E+01  1.68441E+01
   1.53403E+01  1.38339E+01  1.23331E+01  1.08473E+01  9.38417E+00  7.95179E+00  6.55628E+00  5.20377E+00  3.89828E+00  2.64373E+00
   1.44196E+00  2.94863E-01 -7.97608E-01 -1.83524E+00 -2.81952E+00 -3.75145E+00 -4.63344E+00 -5.46723E+00 -6.25574E+00 -7.00103E+00
  -7.70620E+00 -8.37335E+00 -9.00553E+00 -9.60468E+00 -1.01737E+01 -1.07142E+01 -1.12288E+01 -1.17190E+01 -1.21871E+01 -1.26341E+01
  -1.30622E+01 -1.34722E+01 -1.38659E+01 -1.42440E+01 -1.46081E+01 -1.49585E+01 -1.52968E+01 -1.56232E+01 -1.59390E+01 -1.62444E+01
  -1.65404E+01 -1.68271E+01 -1.71056E+01 -1.73759E+01 -1.76388E+01 -1.78943E+01 -1.81432E+01 -1.83854E+01 -1.86217E+01 -1.88518E+01
  -1.90766E+01 -1.92958E+01 -1.95101E+01 -1.97192E+01 -1.99238E+01 -2.01236E+01 -2.03193E+01 -2.05105E+01 -2.06979E+01 -2.08810E+01
  -2.10606E+01 -2.12361E+01 -2.14084E+01 -2.15768E+01 -2.17421E+01 -2.19038E+01 -2.20625E+01 -2.22178E+01 -2.23702E+01 -2.25193E+01
  -2.26657E+01 -2.28089E+01 -2.29496E+01 -2.30872E+01 -2.32222E+01 -2.33543E+01 -2.34841E+01 -2.36109E+01
 NY background values follow
     7.590E+00    7.578E+00    7.566E+00    7.555E+00    7.543E+00    7.532E+00    7.521E+00    7.510E+00    7.499E+00    7.489E+00
     7.478E+00    7.468E+00    7.458E+00    7.448E+00    7.439E+00    7.429E+00    7.420E+00    7.411E+00    7.402E+00    7.394E+00
     7.385E+00    7.377E+00    7.369E+00    7.362E+00    7.354E+00    7.347E+00    7.340E+00    7.333E+00    7.326E+00    7.320E+00
     7.314E+00    7.308E+00    7.302E+00    7.296E+00    7.291E+00    7.286E+00    7.282E+00    7.277E+00    7.273E+00    7.269E+00
     7.265E+00    7.262E+00    7.258E+00    7.255E+00    7.253E+00    7.250E+00    7.248E+00    7.246E+00    7.245E+00    7.243E+00
     7.242E+00    7.242E+00    7.241E+00    7.241E+00    7.241E+00    7.242E+00    7.242E+00    7.243E+00    7.244E+00    7.246E+00
     7.248E+00    7.250E+00    7.253E+00    7.255E+00    7.259E+00    7.262E+00    7.266E+00    7.270E+00    7.274E+00    7.279E+00
     7.284E+00    7.289E+00    7.295E+00    7.301E+00    7.308E+00    7.314E+00    7.321E+00    7.329E+00    7.337E+00    7.345E+00
     7.353E+00    7.362E+00    7.371E+00    7.381E+00    7.391E+00    7.401E+00    7.412E+00    7.423E+00    7.434E+00    7.446E+00
     7.458E+00    7.470E+00    7.483E+00    7.496E+00    7.510E+00    7.524E+00    7.538E+00    7.553E+00    7.568E+00    7.584E+00
     7.600E+00    7.616E+00    7.633E+00    7.650E+00    7.668E+00    7.686E+00    7.705E+00    7.723E+00    7.743E+00    7.762E+00
     7.783E+00    7.803E+00    7.824E+00    7.845E+00    7.867E+00    7.890E+00    7.912E+00    7.935E+00    7.959E+00    7.983E+00
     8.008E+00    8.033E+00    8.058E+00    8.084E+00    8.110E+00    8.137E+00    8.164E+00    8.192E+00    8.220E+00    8.248E+00
     8.277E+00    8.306E+00    8.336E+00    8.365E+00    8.396E+00    8.426E+00    8.457E+00    8.488E+00    8.519E+00    8.550E+00
     8.582E+00    8.613E+00    8.645E+00    8.677E+00    8.709E+00    8.741E+00    8.773E+00    8.806E+00    8.838E+00    8.870E+00
     8.903E+00    8.935E+00    8.968E+00    9.000E+00    9.032E+00    9.064E+00    9.096E+00    9.128E+00    9.160E+00    9.191E+00
     9.223E+00    9.254E+00    9.285E+00    9.315E+00    9.346E+00    9.376E+00    9.406E+00    9.435E+00    9.465E+00    9.494E+00
     9.522E+00    9.550E+00    9.578E+00    9.605E+00    9.632E+00    9.658E+00    9.684E+00    9.710E+00    9.735E+00    9.759E+00
     9.783E+00    9.806E+00    9.829E+00    9.851E+00    9.872E+00    9.893E+00    9.913E+00    9.932E+00    9.951E+00    9.969E+00
     9.986E+00    1.000E+01    1.002E+01    1.003E+01    1.005E+01    1.006E+01    1.007E+01    1.009E+01    1.010E+01    1.011E+01
     1.011E+01    1.012E+01    1.013E+01    1.014E+01    1.014E+01    1.014E+01    1.015E+01    1.015E+01    1.015E+01    1.015E+01
     1.015E+01    1.015E+01    1.014E+01    1.014E+01    1.013E+01    1.012E+01    1.012E+01    1.011E+01    1.009E+01    1.008E+01
     1.007E+01    1.005E+01    1.004E+01    1.002E+01    1.000E+01    9.981E+00    9.960E+00    9.937E+00    9.912E+00    9.886E+00
     9.859E+00    9.830E+00    9.799E+00    9.767E+00    9.734E+00    9.698E+00    9.662E+00    9.623E+00    9.583E+00    9.542E+00
     9.498E+00    9.454E+00    9.407E+00    9.358E+00    9.308E+00    9.256E+00    9.203E+00    9.147E+00    9.090E+00    9.031E+00
     8.970E+00    8.907E+00    8.843E+00    8.777E+00    8.708E+00    8.639E+00    8.567E+00    8.494E+00    8.419E+00    8.342E+00
     8.263E+00    8.183E+00    8.101E+00    8.018E+00    7.933E+00    7.846E+00    7.758E+00    7.668E+00    7.577E+00    7.484E+00
     7.389E+00    7.293E+00    7.196E+00    7.097E+00    6.996E+00    6.894E+00    6.791E+00    6.686E+00    6.580E+00    6.472E+00
     6.363E+00    6.252E+00    6.140E+00    6.027E+00    5.913E+00    5.797E+00    5.680E+00    5.561E+00    5.442E+00    5.321E+00
     5.198E+00    5.075E+00    4.950E+00    4.824E+00    4.697E+00    4.569E+00    4.440E+00    4.309E+00    4.177E+00    4.044E+00
     3.911E+00    3.776E+00    3.640E+00    3.502E+00    3.364E+00    3.225E+00    3.085E+00    2.944E+00    2.801E+00    2.658E+00
     2.514E+00    2.369E+00    2.223E+00    2.076E+00    1.929E+00    1.780E+00    1.630E+00    1.480E+00    1.329E+00    1.177E+00
     1.024E+00    8.702E-01    7.158E-01    5.606E-01    4.047E-01    2.480E-01    9.062E-02   -6.747E-02   -2.263E-01   -3.857E-01
    -5.458E-01   -7.066E-01   -8.680E-01   -1.030E+00   -1.193E+00   -1.356E+00   -1.520E+00   -1.684E+00   -1.849E+00   -2.014E+00
    -2.180E+00   -2.347E+00   -2.514E+00   -2.681E+00   -2.849E+00   -3.017E+00   -3.186E+00   -3.355E+00   -3.525E+00   -3.694E+00
    -3.865E+00   -4.035E+00   -4.206E+00   -4.378E+00   -4.549E+00   -4.721E+00   -4.893E+00   -5.066E+00   -5.239E+00   -5.412E+00
    -5.585E+00   -5.758E+00   -5.932E+00   -6.105E+00   -6.279E+00   -6.453E+00   -6.628E+00   -6.802E+00   -6.976E+00   -7.151E+00
    -7.325E+00   -7.500E+00   -7.675E+00   -7.850E+00   -8.024E+00   -8.199E+00   -8.374E+00   -8.549E+00   -8.723E+00   -8.898E+00
    -9.072E+00   -9.247E+00   -9.422E+00   -9.596E+00   -9.770E+00   -9.944E+00   -1.012E+01   -1.029E+01   -1.047E+01   -1.064E+01
    -1.081E+01   -1.099E+01   -1.116E+01   -1.133E+01   -1.150E+01   -1.168E+01   -1.185E+01   -1.202E+01   -1.219E+01   -1.236E+01
    -1.254E+01   -1.271E+01   -1.288E+01   -1.305E+01   -1.322E+01   -1.339E+01   -1.355E+01   -1.372E+01   -1.389E+01   -1.406E+01
    -1.423E+01   -1.439E+01   -1.456E+01   -1.473E+01   -1.489E+01   -1.506E+01   -1.522E+01   -1.539E+01   -1.555E+01   -1.571E+01
    -1.588E+01   -1.604E+01   -1.620E+01   -1.636E+01   -1.652E+01   -1.668E+01   -1.684E+01   -1.700E+01   -1.716E+01   -1.731E+01
    -1.747E+01   -1.763E+01   -1.778E+01   -1.794E+01   -1.809E+01   -1.824E+01   -1.840E+01   -1.855E+01   -1.870E+01   -1.885E+01
    -1.900E+01   -1.915E+01   -1.930E+01   -1.944E+01   -1.959E+01   -1.974E+01   -1.988E+01   -2.002E+01   -2.017E+01   -2.031E+01
    -2.045E+01   -2.059E+01   -2.073E+01   -2.087E+01   -2.101E+01   -2.114E+01   -2.128E+01   -2.141E+01   -2.155E+01   -2.168E+01
    -2.181E+01   -2.194E+01   -2.207E+01   -2.220E+01   -2.233E+01   -2.245E+01   -2.258E+01   -2.270E+01   -2.283E+01   -2.295E+01
    -2.307E+01   -2.319E+01   -2.331E+01   -2.342E+01   -2.354E+01   -2.366E+01   -2.377E+01   -2.388E+01   -2.399E+01   -2.410E+01
    -2.421E+01   -2.432E+01   -2.443E+01   -2.453E+01   -2.464E+01   -2.474E+01   -2.484E+01   -2.494E+01   -2.504E+01   -2.514E+01
    -2.523E+01   -2.533E+01   -2.542E+01   -2.551E+01   -2.560E+01   -2.569E+01   -2.578E+01   -2.586E+01
 Asp      Conc. = 2.18E+01
