 LCModel (Version 6.3-1L) Copyright: S.W. Provencher.          Ref.: Magn. Reson. Med. 30:672-679 (1993).                
 Slice#2 Row#3 Col#10  K_02_press_1_raw_act
 36 lines in following concentration table = NCONC+1
    Conc.  %SD /Cr+PCr  Metabolite                                         
  722.153  27%   0.356 Ala                                                 
    0.000 999%   0.000 Asp                                                 
    0.000 999%   0.000 Cr                                                  
 2.03E+03   4%   1.000 PCr                                                 
  151.183 136% 7.4E-02 GABA                                                
    0.000 999%   0.000 Glc                                                 
  720.832  49%   0.355 Gln                                                 
 1.71E+03  24%   0.841 Glu                                                 
  667.610   4%   0.329 GPC                                                 
    0.000 999%   0.000 PCh                                                 
  575.705  16%   0.283 GSH                                                 
 1.47E+03  24%   0.724 Ins                                                 
  106.754 204% 5.3E-02 Lac                                                 
 2.75E+03   6%   1.355 NAA                                                 
   26.046 721% 1.3E-02 NAAG                                                
  201.885  19% 9.9E-02 Scyllo                                              
    0.000 999%   0.000 Tau                                                 
    0.000 999%   0.000 -CrCH2                                              
  667.610   4%   0.329 GPC+PCh                                             
 2.78E+03   4%   1.368 NAA+NAAG                                            
 2.03E+03   4%   1.000 Cr+PCr                                              
 2.43E+03  26%   1.196 Glu+Gln                                             
    0.000 999%   0.000 Lip13a                                              
  518.733  76%   0.255 Lip13b                                              
   44.702 325% 2.2E-02 Lip09                                               
 1.63E+03  18%   0.805 MM09                                                
   75.650 119% 3.7E-02 Lip20                                               
 4.20E+03  12%   2.067 MM20                                                
  413.511  53%   0.204 MM12                                                
 5.97E+03  12%   2.941+MM14                                                
 2.99E+03  16%   1.472+MM17                                                
  518.733  76%   0.255 Lip13a+Lip13b                                       
 6.90E+03  10%   3.400 MM14+Lip13a+Lip13b+MM12                             
 1.68E+03  16%   0.827 MM09+Lip09                                          
 4.27E+03  12%   2.104 MM20+Lip20                                          
   6 lines in following misc. output table
  FWHM = 0.054 ppm    S/N =  13                                            
  Data shift = 0.046 ppm                                                   
  Ph: -32 deg     -18.6 deg/ppm                                            
  alphaB,S = 3.8E-01,   9.0E+01                                            
   14 spline knots.   Ns = 9(1)                                            
  (17) 5 infls.   (17) 1 extrs.                                            
  498 points on ppm-axis = NY
      4.000000     3.992357     3.984714     3.977070     3.969427     3.961784     3.954141     3.946497     3.938854     3.931211
      3.923568     3.915925     3.908281     3.900638     3.892995     3.885352     3.877708     3.870065     3.862422     3.854779
      3.847136     3.839492     3.831849     3.824206     3.816563     3.808919     3.801276     3.793633     3.785990     3.778347
      3.770703     3.763060     3.755417     3.747774     3.740130     3.732487     3.724844     3.717201     3.709558     3.701914
      3.694271     3.686628     3.678985     3.671341     3.663698     3.656055     3.648412     3.640769     3.633125     3.625482
      3.617839     3.610196     3.602552     3.594909     3.587266     3.579623     3.571980     3.564336     3.556693     3.549050
      3.541407     3.533763     3.526120     3.518477     3.510834     3.503191     3.495547     3.487904     3.480261     3.472618
      3.464974     3.457331     3.449688     3.442045     3.434402     3.426758     3.419115     3.411472     3.403829     3.396185
      3.388542     3.380899     3.373256     3.365613     3.357969     3.350326     3.342683     3.335040     3.327396     3.319753
      3.312110     3.304467     3.296824     3.289180     3.281537     3.273894     3.266251     3.258607     3.250964     3.243321
      3.235678     3.228034     3.220391     3.212748     3.205105     3.197462     3.189818     3.182175     3.174532     3.166889
      3.159245     3.151602     3.143959     3.136316     3.128673     3.121029     3.113386     3.105743     3.098100     3.090456
      3.082813     3.075170     3.067527     3.059884     3.052240     3.044597     3.036954     3.029311     3.021667     3.014024
      3.006381     2.998738     2.991095     2.983451     2.975808     2.968165     2.960522     2.952878     2.945235     2.937592
      2.929949     2.922306     2.914662     2.907019     2.899376     2.891733     2.884089     2.876446     2.868803     2.861160
      2.853517     2.845873     2.838230     2.830587     2.822944     2.815300     2.807657     2.800014     2.792371     2.784728
      2.777084     2.769441     2.761798     2.754155     2.746511     2.738868     2.731225     2.723582     2.715939     2.708295
      2.700652     2.693009     2.685366     2.677722     2.670079     2.662436     2.654793     2.647150     2.639506     2.631863
      2.624220     2.616577     2.608933     2.601290     2.593647     2.586004     2.578361     2.570717     2.563074     2.555431
      2.547788     2.540144     2.532501     2.524858     2.517215     2.509572     2.501928     2.494285     2.486642     2.478999
      2.471355     2.463712     2.456069     2.448426     2.440783     2.433139     2.425496     2.417853     2.410210     2.402566
      2.394923     2.387280     2.379637     2.371994     2.364350     2.356707     2.349064     2.341421     2.333777     2.326134
      2.318491     2.310848     2.303205     2.295561     2.287918     2.280275     2.272632     2.264988     2.257345     2.249702
      2.242059     2.234416     2.226772     2.219129     2.211486     2.203843     2.196199     2.188556     2.180913     2.173270
      2.165627     2.157983     2.150340     2.142697     2.135054     2.127410     2.119767     2.112124     2.104481     2.096838
      2.089194     2.081551     2.073908     2.066265     2.058621     2.050978     2.043335     2.035692     2.028049     2.020405
      2.012762     2.005119     1.997476     1.989833     1.982190     1.974546     1.966903     1.959260     1.951617     1.943974
      1.936331     1.928688     1.921045     1.913402     1.905759     1.898115     1.890472     1.882829     1.875186     1.867543
      1.859900     1.852257     1.844614     1.836971     1.829327     1.821684     1.814041     1.806398     1.798755     1.791112
      1.783469     1.775826     1.768183     1.760540     1.752896     1.745253     1.737610     1.729967     1.722324     1.714681
      1.707038     1.699395     1.691752     1.684108     1.676465     1.668822     1.661179     1.653536     1.645893     1.638250
      1.630607     1.622964     1.615321     1.607677     1.600034     1.592391     1.584748     1.577105     1.569462     1.561819
      1.554176     1.546533     1.538890     1.531246     1.523603     1.515960     1.508317     1.500674     1.493031     1.485388
      1.477745     1.470102     1.462458     1.454815     1.447172     1.439529     1.431886     1.424243     1.416600     1.408957
      1.401314     1.393671     1.386027     1.378384     1.370741     1.363098     1.355455     1.347812     1.340169     1.332526
      1.324883     1.317240     1.309596     1.301953     1.294310     1.286667     1.279024     1.271381     1.263738     1.256095
      1.248452     1.240808     1.233165     1.225522     1.217879     1.210236     1.202593     1.194950     1.187307     1.179664
      1.172021     1.164377     1.156734     1.149091     1.141448     1.133805     1.126162     1.118519     1.110876     1.103233
      1.095590     1.087946     1.080303     1.072660     1.065017     1.057374     1.049731     1.042088     1.034445     1.026802
      1.019158     1.011515     1.003872     0.996229     0.988586     0.980943     0.973300     0.965657     0.958014     0.950371
      0.942727     0.935084     0.927441     0.919798     0.912155     0.904512     0.896869     0.889226     0.881583     0.873940
      0.866296     0.858653     0.851010     0.843367     0.835724     0.828081     0.820438     0.812795     0.805152     0.797508
      0.789865     0.782222     0.774579     0.766936     0.759293     0.751650     0.744007     0.736364     0.728721     0.721077
      0.713434     0.705791     0.698148     0.690505     0.682862     0.675219     0.667576     0.659933     0.652290     0.644646
      0.637003     0.629360     0.621717     0.614074     0.606431     0.598788     0.591145     0.583502     0.575858     0.568215
      0.560572     0.552929     0.545286     0.537643     0.530000     0.522357     0.514714     0.507071     0.499427     0.491784
      0.484141     0.476498     0.468855     0.461212     0.453569     0.445925     0.438282     0.430639     0.422996     0.415353
      0.407710     0.400067     0.392424     0.384780     0.377137     0.369494     0.361851     0.354208     0.346565     0.338922
      0.331278     0.323635     0.315992     0.308349     0.300706     0.293063     0.285420     0.277777     0.270133     0.262490
      0.254847     0.247204     0.239561     0.231918     0.224275     0.216631     0.208988     0.201345
 NY phased data points follow
   3.53699E+01  3.46302E+01  3.81347E+01  3.87126E+01  4.15281E+01  4.84294E+01  5.59877E+01  5.36204E+01  5.94486E+01  6.13391E+01
   5.55080E+01  5.11063E+01  4.75506E+01  4.23609E+01  3.63521E+01  3.32353E+01  2.68760E+01  2.55054E+01  2.68251E+01  2.57225E+01
   2.64834E+01  2.35489E+01  2.70876E+01  2.82912E+01  2.56087E+01  2.70514E+01  2.79134E+01  2.64959E+01  3.07378E+01  2.94281E+01
   2.75643E+01  3.13930E+01  2.45900E+01  2.13913E+01  2.74156E+01  2.76347E+01  2.75480E+01  3.02732E+01  2.37373E+01  2.86972E+01
   1.80861E+01  2.70889E+01  2.49898E+01  3.00372E+01  3.23293E+01  3.06526E+01  3.20392E+01  3.00044E+01  2.80818E+01  2.90689E+01
   2.22620E+01  2.21156E+01  1.39942E+01  2.23037E+01  2.23116E+01  2.38584E+01  1.95125E+01  1.16520E+01  1.71375E+01  1.53643E+01
   1.99038E+01  1.52110E+01  1.01487E+01  6.22315E+00  1.09834E+01  7.80452E+00  8.31795E+00  8.20173E+00  6.98056E+00  8.97579E+00
   1.04036E+01  1.27588E+01  1.37990E+01  1.32366E+01  1.42562E+01  1.35922E+01  1.19184E+01  1.00106E+01  1.14732E+01  1.44649E+01
   1.10325E+01  1.25111E+01  1.33494E+01  1.16157E+01  1.76323E+01  1.46597E+01  1.77809E+01  1.94394E+01  1.56575E+01  1.76708E+01
   1.74364E+01  1.74986E+01  1.90267E+01  2.74897E+01  2.48170E+01  2.35631E+01  3.05390E+01  3.49104E+01  3.81941E+01  4.43346E+01
   4.62985E+01  5.55268E+01  5.79443E+01  5.36362E+01  4.61393E+01  3.89029E+01  3.30737E+01  2.83584E+01  2.43516E+01  2.40894E+01
   1.67250E+01  2.24255E+01  2.02898E+01  1.81407E+01  1.95440E+01  1.92458E+01  1.70345E+01  1.76940E+01  2.18586E+01  2.61082E+01
   2.76638E+01  3.26172E+01  3.95990E+01  4.55704E+01  5.41456E+01  6.13218E+01  6.76604E+01  6.53197E+01  5.33042E+01  4.07078E+01
   3.88966E+01  3.13375E+01  2.90701E+01  2.18286E+01  1.89328E+01  1.53783E+01  1.34185E+01  1.38660E+01  1.89412E+01  1.29081E+01
   1.00644E+01  1.24180E+01  1.32578E+01  1.39673E+01  1.10702E+01  1.03184E+01  1.18992E+01  1.16938E+01  1.04869E+01  1.07657E+01
   8.60470E+00  5.44584E+00  7.76138E+00  8.25704E+00  1.07924E+01  8.02973E+00  5.76750E+00  5.46640E+00  7.28542E+00  8.34810E+00
   4.48739E+00  4.71514E+00  8.95742E-01  6.07890E-01  2.91982E+00  6.89401E+00  2.03746E+00  1.75761E+00 -5.09753E-01 -1.69514E+00
  -6.78857E-01 -1.05873E+00 -5.11530E+00 -5.51248E+00 -3.69897E+00 -4.46506E+00 -3.04080E+00 -2.06860E+00 -4.52569E+00 -1.57566E+00
  -3.43409E+00  2.05121E+00 -5.94665E+00 -2.06853E-01 -5.73488E+00 -1.92661E+00  1.72122E+00  5.42833E+00  4.06866E+00  9.68603E+00
   9.45131E+00  6.28328E+00  6.34209E+00  7.15456E+00  1.49988E+01  6.93027E+00  7.43325E+00  7.33847E+00  8.34388E+00  2.71598E+00
   6.38595E+00  8.46212E+00  1.07480E+01  7.49698E+00  1.07111E+01  8.66502E+00  1.00891E+01  6.03221E+00  6.84658E+00  8.81698E+00
   7.58488E+00  9.13664E+00  1.37953E+01  1.81137E+01  1.99810E+01  1.59098E+01  1.83789E+01  1.69575E+01  1.79265E+01  1.00733E+01
   1.19452E+01  9.59458E+00  1.06244E+01  1.25205E+01  1.51771E+01  1.75433E+01  1.54311E+01  1.98984E+01  1.75409E+01  1.62678E+01
   1.81831E+01  1.83076E+01  1.75899E+01  1.96162E+01  2.12537E+01  2.19314E+01  2.01418E+01  2.20120E+01  1.93400E+01  2.02913E+01
   2.28185E+01  2.18131E+01  2.04452E+01  2.64466E+01  2.88728E+01  3.00361E+01  2.84968E+01  3.19833E+01  3.29717E+01  3.47835E+01
   4.03801E+01  4.38018E+01  5.32774E+01  5.46757E+01  5.65488E+01  6.52078E+01  7.68965E+01  8.54388E+01  9.95195E+01  1.02895E+02
   1.02763E+02  9.71300E+01  8.28678E+01  7.40443E+01  5.98777E+01  5.54535E+01  4.76220E+01  4.14532E+01  4.05631E+01  3.33723E+01
   3.59556E+01  2.96267E+01  2.67495E+01  2.90091E+01  2.67516E+01  2.87138E+01  2.53673E+01  2.97376E+01  2.90266E+01  2.46920E+01
   2.97418E+01  2.65359E+01  2.76933E+01  2.97790E+01  2.74512E+01  2.52757E+01  2.96528E+01  3.03192E+01  2.73326E+01  2.97061E+01
   2.87548E+01  3.08653E+01  3.17403E+01  3.29118E+01  2.83808E+01  2.77999E+01  3.33627E+01  3.33832E+01  3.38538E+01  3.37738E+01
   3.15397E+01  3.23113E+01  3.73280E+01  3.41672E+01  3.23766E+01  3.46340E+01  3.40041E+01  4.05131E+01  3.39554E+01  3.77152E+01
   4.03120E+01  4.22544E+01  3.95500E+01  3.91614E+01  4.04667E+01  4.67260E+01  4.37820E+01  4.46470E+01  4.57480E+01  4.64846E+01
   4.90394E+01  4.37824E+01  4.69265E+01  4.63196E+01  4.78761E+01  4.81067E+01  4.78295E+01  4.96117E+01  4.87010E+01  4.83466E+01
   5.04262E+01  4.82364E+01  5.01965E+01  5.35284E+01  4.92518E+01  5.56056E+01  5.25558E+01  5.45607E+01  5.58626E+01  5.38807E+01
   4.94187E+01  5.25708E+01  4.41895E+01  4.65654E+01  4.67218E+01  4.36151E+01  4.16022E+01  4.27289E+01  3.63374E+01  3.48667E+01
   3.63863E+01  3.54125E+01  3.29715E+01  3.06409E+01  2.93525E+01  3.07279E+01  2.93476E+01  2.78078E+01  2.91745E+01  2.41070E+01
   2.60281E+01  2.23884E+01  2.36860E+01  2.43170E+01  2.21160E+01  2.00340E+01  2.07935E+01  1.70963E+01  2.10277E+01  2.07346E+01
   1.72533E+01  1.84757E+01  1.66685E+01  1.32752E+01  1.49997E+01  1.52677E+01  1.78207E+01  1.62685E+01  1.48667E+01  1.74044E+01
   1.81813E+01  1.52250E+01  1.52232E+01  1.71232E+01  1.45648E+01  1.21793E+01  1.19309E+01  1.53822E+01  1.74476E+01  1.43061E+01
   1.01390E+01  1.86712E+01  1.65076E+01  1.57794E+01  1.91199E+01  2.12679E+01  2.15879E+01  1.88692E+01  2.48686E+01  2.40271E+01
   2.28645E+01  1.92851E+01  2.00402E+01  2.68130E+01  2.32245E+01  1.91729E+01  2.39643E+01  2.05740E+01  1.97094E+01  1.68789E+01
   1.88870E+01  1.87133E+01  1.95406E+01  2.38613E+01  2.23987E+01  1.76966E+01  2.08544E+01  1.81574E+01  1.36380E+01  1.86124E+01
   1.45503E+01  1.65795E+01  1.21459E+01  1.55574E+01  1.08312E+01  9.58996E+00  9.34454E+00  1.28629E+01  1.37918E+01  1.37514E+01
   9.33373E+00  7.82870E+00  9.38390E+00  8.15210E+00  8.89031E+00  9.00114E+00  1.10282E+01  8.14680E+00  7.44160E+00  1.49814E+01
   1.16569E+01  1.09886E+01  4.98294E+00  1.13027E+01  7.99676E+00  1.09270E+01  1.22736E+01  9.24190E+00  9.84197E+00  7.15954E+00
   8.06364E+00  9.03715E+00  1.29393E+01  8.46389E+00  6.60484E+00  1.05969E+01  6.30262E+00  5.72180E+00  1.26241E+01  8.40279E+00
   9.37599E+00  1.01629E+01  1.01662E+01  3.19615E+00  9.48627E+00  9.21351E+00  1.05387E+01  9.29656E+00  6.95777E+00  8.19950E+00
   6.31935E+00  3.33818E+00  8.23971E+00  1.27220E+01  8.18489E+00  7.68949E+00  9.02418E+00  3.78374E+00  1.18282E+01  8.45300E+00
   8.55888E+00  9.75647E+00  5.56560E+00  5.74366E+00  8.08889E+00  6.58764E+00  9.59985E+00  8.23678E+00  7.65512E+00  7.21799E+00
   6.76080E+00  6.54889E+00  8.51309E+00  6.22148E+00  6.99999E+00  8.15404E+00  5.93570E+00  8.37567E+00
 NY points of the fit to the data follow
   3.20891E+01  3.45401E+01  3.59323E+01  3.83891E+01  4.26143E+01  4.78699E+01  5.32706E+01  5.78607E+01  6.02189E+01  5.90312E+01
   5.45864E+01  4.88965E+01  4.38648E+01  4.00330E+01  3.69062E+01  3.41304E+01  3.20928E+01  3.04057E+01  2.80270E+01  2.55667E+01
   2.49512E+01  2.55540E+01  2.57346E+01  2.55620E+01  2.56712E+01  2.63039E+01  2.71698E+01  2.80646E+01  2.92103E+01  3.04225E+01
   3.10069E+01  3.06444E+01  2.98275E+01  2.90335E+01  2.80149E+01  2.64077E+01  2.46954E+01  2.36117E+01  2.34207E+01  2.33366E+01
   2.31039E+01  2.33449E+01  2.39744E+01  2.48046E+01  2.56391E+01  2.64559E+01  2.70244E+01  2.68178E+01  2.56133E+01  2.38384E+01
   2.21858E+01  2.08454E+01  1.98058E+01  1.90348E+01  1.85293E+01  1.82264E+01  1.80017E+01  1.77759E+01  1.76590E+01  1.75586E+01
   1.72805E+01  1.66717E+01  1.59603E+01  1.53681E+01  1.49165E+01  1.46364E+01  1.45601E+01  1.46828E+01  1.48425E+01  1.48937E+01
   1.48657E+01  1.47420E+01  1.45259E+01  1.42143E+01  1.38536E+01  1.35287E+01  1.32649E+01  1.30625E+01  1.34649E+01  1.41842E+01
   1.43676E+01  1.42938E+01  1.45221E+01  1.51931E+01  1.61146E+01  1.70455E+01  1.77366E+01  1.79516E+01  1.73425E+01  1.60513E+01
   1.47352E+01  1.40218E+01  1.47873E+01  1.90318E+01  2.40045E+01  2.65128E+01  2.84118E+01  3.18106E+01  3.73866E+01  4.44778E+01
   5.14832E+01  5.67692E+01  5.83834E+01  5.50288E+01  4.78329E+01  3.97906E+01  3.31017E+01  2.81157E+01  2.40833E+01  2.07627E+01
   1.84477E+01  1.63966E+01  1.34415E+01  1.12281E+01  1.05556E+01  1.05247E+01  1.15587E+01  1.61671E+01  2.24358E+01  2.59880E+01
   2.84797E+01  3.27898E+01  3.95365E+01  4.76851E+01  5.58383E+01  6.21939E+01  6.45727E+01  6.16037E+01  5.42356E+01  4.56116E+01
   3.84366E+01  3.30028E+01  2.84372E+01  2.42354E+01  2.08261E+01  1.79677E+01  1.44706E+01  1.18209E+01  1.12851E+01  1.14346E+01
   1.16283E+01  1.16276E+01  1.13370E+01  1.08029E+01  1.02803E+01  9.86445E+00  9.47726E+00  9.14911E+00  8.83287E+00  8.45272E+00
   8.06978E+00  7.59289E+00  7.00935E+00  6.57118E+00  6.34336E+00  6.25517E+00  6.19548E+00  5.86210E+00  5.32423E+00  4.82718E+00
   4.49963E+00  4.37075E+00  4.41739E+00  4.51101E+00  4.45178E+00  4.08049E+00  3.40178E+00  2.58210E+00  1.98305E+00  1.70994E+00
   1.50883E+00  1.18590E+00  6.25023E-01  1.57479E-01 -9.99638E-02 -2.36398E-01 -2.18121E-01 -1.22942E-01 -1.00192E-01  1.39109E-02
   2.57843E-01  5.95922E-01  1.05255E+00  1.58410E+00  2.09298E+00  2.71679E+00  3.69108E+00  4.90132E+00  6.09392E+00  7.03394E+00
   7.71434E+00  8.05995E+00  8.01323E+00  7.75066E+00  7.59268E+00  7.72296E+00  8.10691E+00  8.72571E+00  9.46356E+00  1.02581E+01
   1.10137E+01  1.14007E+01  1.16764E+01  1.17627E+01  1.12328E+01  1.02844E+01  9.29854E+00  8.66731E+00  8.43859E+00  8.12807E+00
   8.23130E+00  9.15227E+00  1.06952E+01  1.22093E+01  1.33156E+01  1.42161E+01  1.48190E+01  1.44157E+01  1.29555E+01  1.12600E+01
   1.00623E+01  9.38414E+00  9.36702E+00  1.03342E+01  1.22417E+01  1.44295E+01  1.59685E+01  1.68090E+01  1.76935E+01  1.84428E+01
   1.89038E+01  1.93828E+01  2.02422E+01  2.13381E+01  2.21137E+01  2.26163E+01  2.32734E+01  2.38843E+01  2.40459E+01  2.38713E+01
   2.37543E+01  2.39466E+01  2.43953E+01  2.51030E+01  2.62814E+01  2.78538E+01  2.93357E+01  3.04221E+01  3.13784E+01  3.25359E+01
   3.52958E+01  4.35011E+01  5.22534E+01  5.69939E+01  6.09285E+01  6.73758E+01  7.65219E+01  8.66725E+01  9.60064E+01  1.02472E+02
   1.03312E+02  9.68135E+01  8.50291E+01  7.25528E+01  6.24600E+01  5.48874E+01  4.85491E+01  4.32599E+01  3.96378E+01  3.63668E+01
   3.15662E+01  2.82814E+01  2.72866E+01  2.69027E+01  2.66721E+01  2.64772E+01  2.63055E+01  2.60837E+01  2.58412E+01  2.56301E+01
   2.54734E+01  2.53854E+01  2.53928E+01  2.54830E+01  2.56319E+01  2.58394E+01  2.61059E+01  2.64273E+01  2.68051E+01  2.72338E+01
   2.77121E+01  2.82453E+01  2.88186E+01  2.94259E+01  3.00669E+01  3.07325E+01  3.14119E+01  3.20994E+01  3.27861E+01  3.34594E+01
   3.41082E+01  3.47253E+01  3.53016E+01  3.58294E+01  3.63066E+01  3.67307E+01  3.71037E+01  3.74321E+01  3.77256E+01  3.79971E+01
   3.82619E+01  3.85386E+01  3.88490E+01  3.92174E+01  3.96719E+01  4.02489E+01  4.10024E+01  4.20472E+01  4.35471E+01  4.48396E+01
   4.54889E+01  4.62215E+01  4.73457E+01  4.85527E+01  4.94012E+01  4.96017E+01  4.95411E+01  4.95126E+01  4.87992E+01  4.76759E+01
   4.70953E+01  4.75132E+01  4.87260E+01  5.03785E+01  5.22683E+01  5.41116E+01  5.52048E+01  5.50314E+01  5.41310E+01  5.29391E+01
   5.13929E+01  4.96810E+01  4.78688E+01  4.60862E+01  4.43940E+01  4.24832E+01  4.04224E+01  3.86189E+01  3.69399E+01  3.54058E+01
   3.41362E+01  3.31562E+01  3.23881E+01  3.17338E+01  3.11206E+01  3.04688E+01  2.96595E+01  2.86363E+01  2.75132E+01  2.63928E+01
   2.52825E+01  2.42050E+01  2.31873E+01  2.22715E+01  2.14623E+01  2.07072E+01  2.00352E+01  1.94762E+01  1.90036E+01  1.85980E+01
   1.82458E+01  1.79364E+01  1.76618E+01  1.74166E+01  1.71972E+01  1.70015E+01  1.68287E+01  1.66790E+01  1.65530E+01  1.64520E+01
   1.63775E+01  1.63314E+01  1.63157E+01  1.63324E+01  1.63836E+01  1.64714E+01  1.65977E+01  1.67642E+01  1.69720E+01  1.72217E+01
   1.75130E+01  1.78446E+01  1.82142E+01  1.86178E+01  1.90502E+01  1.95043E+01  1.99715E+01  2.04419E+01  2.09042E+01  2.13460E+01
   2.17544E+01  2.21163E+01  2.24192E+01  2.26516E+01  2.28035E+01  2.28671E+01  2.28369E+01  2.27105E+01  2.24882E+01  2.21734E+01
   2.17720E+01  2.12927E+01  2.07460E+01  2.01438E+01  1.94993E+01  1.88256E+01  1.81359E+01  1.74422E+01  1.67559E+01  1.60867E+01
   1.54426E+01  1.48300E+01  1.42534E+01  1.37159E+01  1.32190E+01  1.27630E+01  1.23472E+01  1.19699E+01  1.16289E+01  1.13217E+01
   1.10455E+01  1.07975E+01  1.05747E+01  1.03745E+01  1.01943E+01  1.00317E+01  9.88469E+00  9.75126E+00  9.62975E+00  9.51866E+00
   9.41669E+00  9.32276E+00  9.23589E+00  9.15525E+00  9.08006E+00  9.00970E+00  8.94362E+00  8.88138E+00  8.82256E+00  8.76678E+00
   8.71369E+00  8.66301E+00  8.61451E+00  8.56800E+00  8.52328E+00  8.48020E+00  8.43859E+00  8.39835E+00  8.35938E+00  8.32160E+00
   8.28490E+00  8.24919E+00  8.21439E+00  8.18046E+00  8.14736E+00  8.11502E+00  8.08339E+00  8.05239E+00  8.02199E+00  7.99219E+00
   7.96295E+00  7.93423E+00  7.90599E+00  7.87820E+00  7.85083E+00  7.82390E+00  7.79737E+00  7.77121E+00  7.74539E+00  7.71989E+00
   7.69472E+00  7.66988E+00  7.64534E+00  7.62110E+00  7.59711E+00  7.57339E+00  7.54996E+00  7.52680E+00  7.50392E+00  7.48129E+00
   7.45892E+00  7.43683E+00  7.41504E+00  7.39356E+00  7.37240E+00  7.35158E+00  7.33112E+00  7.31108E+00
 NY background values follow
     2.164E+01    2.148E+01    2.131E+01    2.115E+01    2.098E+01    2.081E+01    2.065E+01    2.048E+01    2.031E+01    2.015E+01
     1.998E+01    1.981E+01    1.965E+01    1.948E+01    1.931E+01    1.915E+01    1.898E+01    1.882E+01    1.865E+01    1.848E+01
     1.832E+01    1.815E+01    1.799E+01    1.783E+01    1.766E+01    1.750E+01    1.734E+01    1.718E+01    1.701E+01    1.685E+01
     1.669E+01    1.653E+01    1.638E+01    1.622E+01    1.606E+01    1.591E+01    1.575E+01    1.560E+01    1.544E+01    1.529E+01
     1.514E+01    1.499E+01    1.484E+01    1.469E+01    1.454E+01    1.440E+01    1.425E+01    1.411E+01    1.397E+01    1.383E+01
     1.369E+01    1.355E+01    1.341E+01    1.327E+01    1.314E+01    1.301E+01    1.287E+01    1.274E+01    1.261E+01    1.248E+01
     1.235E+01    1.223E+01    1.210E+01    1.198E+01    1.186E+01    1.173E+01    1.161E+01    1.149E+01    1.137E+01    1.126E+01
     1.114E+01    1.103E+01    1.091E+01    1.080E+01    1.069E+01    1.058E+01    1.047E+01    1.036E+01    1.026E+01    1.015E+01
     1.005E+01    9.945E+00    9.843E+00    9.742E+00    9.643E+00    9.544E+00    9.447E+00    9.351E+00    9.256E+00    9.163E+00
     9.070E+00    8.979E+00    8.889E+00    8.800E+00    8.712E+00    8.625E+00    8.539E+00    8.454E+00    8.370E+00    8.288E+00
     8.206E+00    8.125E+00    8.045E+00    7.966E+00    7.888E+00    7.811E+00    7.734E+00    7.659E+00    7.584E+00    7.510E+00
     7.436E+00    7.364E+00    7.292E+00    7.221E+00    7.150E+00    7.080E+00    7.011E+00    6.942E+00    6.874E+00    6.807E+00
     6.740E+00    6.674E+00    6.608E+00    6.542E+00    6.477E+00    6.412E+00    6.348E+00    6.284E+00    6.221E+00    6.158E+00
     6.095E+00    6.033E+00    5.970E+00    5.908E+00    5.847E+00    5.785E+00    5.724E+00    5.663E+00    5.602E+00    5.541E+00
     5.481E+00    5.422E+00    5.363E+00    5.306E+00    5.249E+00    5.192E+00    5.138E+00    5.084E+00    5.031E+00    4.980E+00
     4.930E+00    4.882E+00    4.835E+00    4.790E+00    4.747E+00    4.706E+00    4.667E+00    4.629E+00    4.594E+00    4.562E+00
     4.531E+00    4.503E+00    4.478E+00    4.455E+00    4.435E+00    4.418E+00    4.404E+00    4.393E+00    4.385E+00    4.380E+00
     4.379E+00    4.380E+00    4.386E+00    4.395E+00    4.407E+00    4.424E+00    4.444E+00    4.468E+00    4.496E+00    4.529E+00
     4.565E+00    4.606E+00    4.652E+00    4.701E+00    4.755E+00    4.813E+00    4.875E+00    4.941E+00    5.011E+00    5.084E+00
     5.162E+00    5.243E+00    5.327E+00    5.415E+00    5.507E+00    5.601E+00    5.699E+00    5.800E+00    5.904E+00    6.011E+00
     6.121E+00    6.234E+00    6.349E+00    6.468E+00    6.588E+00    6.711E+00    6.837E+00    6.964E+00    7.094E+00    7.227E+00
     7.361E+00    7.497E+00    7.635E+00    7.775E+00    7.916E+00    8.060E+00    8.204E+00    8.351E+00    8.498E+00    8.647E+00
     8.797E+00    8.948E+00    9.101E+00    9.254E+00    9.408E+00    9.563E+00    9.719E+00    9.875E+00    1.003E+01    1.019E+01
     1.035E+01    1.051E+01    1.066E+01    1.082E+01    1.098E+01    1.114E+01    1.130E+01    1.146E+01    1.162E+01    1.177E+01
     1.193E+01    1.209E+01    1.225E+01    1.240E+01    1.256E+01    1.271E+01    1.287E+01    1.302E+01    1.317E+01    1.333E+01
     1.348E+01    1.363E+01    1.377E+01    1.392E+01    1.407E+01    1.421E+01    1.435E+01    1.449E+01    1.463E+01    1.477E+01
     1.491E+01    1.504E+01    1.517E+01    1.530E+01    1.543E+01    1.555E+01    1.568E+01    1.580E+01    1.592E+01    1.603E+01
     1.615E+01    1.626E+01    1.636E+01    1.647E+01    1.657E+01    1.667E+01    1.677E+01    1.686E+01    1.696E+01    1.704E+01
     1.713E+01    1.721E+01    1.729E+01    1.737E+01    1.745E+01    1.752E+01    1.759E+01    1.765E+01    1.771E+01    1.777E+01
     1.783E+01    1.789E+01    1.794E+01    1.798E+01    1.803E+01    1.807E+01    1.811E+01    1.815E+01    1.818E+01    1.821E+01
     1.824E+01    1.826E+01    1.828E+01    1.830E+01    1.831E+01    1.833E+01    1.833E+01    1.834E+01    1.834E+01    1.834E+01
     1.834E+01    1.833E+01    1.832E+01    1.830E+01    1.829E+01    1.827E+01    1.824E+01    1.822E+01    1.819E+01    1.815E+01
     1.812E+01    1.808E+01    1.804E+01    1.799E+01    1.794E+01    1.789E+01    1.784E+01    1.778E+01    1.773E+01    1.766E+01
     1.760E+01    1.754E+01    1.747E+01    1.740E+01    1.733E+01    1.725E+01    1.717E+01    1.710E+01    1.702E+01    1.694E+01
     1.685E+01    1.677E+01    1.668E+01    1.659E+01    1.650E+01    1.641E+01    1.632E+01    1.623E+01    1.613E+01    1.604E+01
     1.594E+01    1.584E+01    1.574E+01    1.564E+01    1.554E+01    1.544E+01    1.534E+01    1.524E+01    1.514E+01    1.503E+01
     1.493E+01    1.483E+01    1.472E+01    1.462E+01    1.451E+01    1.441E+01    1.431E+01    1.420E+01    1.410E+01    1.399E+01
     1.389E+01    1.379E+01    1.368E+01    1.358E+01    1.348E+01    1.337E+01    1.327E+01    1.317E+01    1.307E+01    1.297E+01
     1.287E+01    1.277E+01    1.267E+01    1.257E+01    1.248E+01    1.238E+01    1.228E+01    1.219E+01    1.210E+01    1.200E+01
     1.191E+01    1.182E+01    1.173E+01    1.164E+01    1.156E+01    1.147E+01    1.139E+01    1.130E+01    1.122E+01    1.114E+01
     1.106E+01    1.098E+01    1.091E+01    1.083E+01    1.076E+01    1.069E+01    1.062E+01    1.055E+01    1.048E+01    1.042E+01
     1.035E+01    1.029E+01    1.023E+01    1.018E+01    1.012E+01    1.006E+01    1.001E+01    9.959E+00    9.908E+00    9.859E+00
     9.811E+00    9.764E+00    9.718E+00    9.674E+00    9.631E+00    9.589E+00    9.548E+00    9.509E+00    9.470E+00    9.432E+00
     9.396E+00    9.360E+00    9.325E+00    9.291E+00    9.258E+00    9.226E+00    9.194E+00    9.164E+00    9.133E+00    9.104E+00
     9.075E+00    9.047E+00    9.019E+00    8.992E+00    8.965E+00    8.939E+00    8.913E+00    8.888E+00    8.863E+00    8.838E+00
     8.813E+00    8.789E+00    8.765E+00    8.741E+00    8.717E+00    8.694E+00    8.670E+00    8.647E+00    8.624E+00    8.601E+00
     8.578E+00    8.555E+00    8.533E+00    8.510E+00    8.488E+00    8.466E+00    8.443E+00    8.421E+00    8.399E+00    8.377E+00
     8.356E+00    8.334E+00    8.312E+00    8.291E+00    8.269E+00    8.247E+00    8.226E+00    8.205E+00    8.183E+00    8.162E+00
     8.140E+00    8.119E+00    8.098E+00    8.077E+00    8.055E+00    8.034E+00    8.013E+00    7.991E+00    7.970E+00    7.949E+00
     7.927E+00    7.906E+00    7.884E+00    7.863E+00    7.841E+00    7.819E+00    7.798E+00    7.776E+00
 Ala      Conc. = 7.22E+02
