 LCModel (Version 6.3-1L) Copyright: S.W. Provencher.          Ref.: Magn. Reson. Med. 30:672-679 (1993).                
 Slice#3 Row#7 Col#3  K_02_press_1_raw_act
 36 lines in following concentration table = NCONC+1
    Conc.  %SD /Cr+PCr  Metabolite                                         
    0.000 999%   0.000 Ala                                                 
    0.000 999%   0.000 Asp                                                 
  847.453  23%   0.461 Cr                                                  
  992.589  20%   0.539 PCr                                                 
   86.230 189% 4.7E-02 GABA                                                
    0.000 999%   0.000 Glc                                                 
 1.14E+03  26%   0.622 Gln                                                 
 2.36E+03  15%   1.281 Glu                                                 
  428.588   4%   0.233 GPC                                                 
    0.000 999%   0.000 PCh                                                 
  590.457  13%   0.321 GSH                                                 
  614.938  38%   0.334 Ins                                                 
    0.000 999%   0.000 Lac                                                 
 2.27E+03   6%   1.232 NAA                                                 
  475.526  30%   0.258 NAAG                                                
    0.000 999%   0.000 Scyllo                                              
    0.000 999%   0.000 Tau                                                 
    0.000 999%   0.000 -CrCH2                                              
  428.588   4%   0.233 GPC+PCh                                             
 2.74E+03   2%   1.491 NAA+NAAG                                            
 1.84E+03   3%   1.000 Cr+PCr                                              
 3.50E+03  15%   1.903 Glu+Gln                                             
    0.000 999%   0.000 Lip13a                                              
    0.000 999%   0.000 Lip13b                                              
    0.000 999%   0.000 Lip09                                               
  343.402  33%   0.187 MM09                                                
    2.260 575% 1.2E-03 Lip20                                               
  761.931  27%   0.414 MM20                                                
  101.346  51% 5.5E-02 MM12                                                
   25.691 542% 1.4E-02 MM14                                                
    2.719 999% 1.5E-03 MM17                                                
    0.000 999%   0.000 Lip13a+Lip13b                                       
  127.038 132% 6.9E-02 MM14+Lip13a+Lip13b+MM12                             
  343.402  33%   0.187 MM09+Lip09                                          
  764.191  27%   0.415 MM20+Lip20                                          
   6 lines in following misc. output table
  FWHM = 0.069 ppm    S/N =  12                                            
  Data shift =-0.015 ppm                                                   
  Ph:  -1 deg      -5.3 deg/ppm                                            
  alphaB,S = 8.6E-01,   1.3E+01                                            
   14 spline knots.   Ns =10(1)                                            
  (19)15 infls.   (21) 9 extrs.                                            
  498 points on ppm-axis = NY
      4.000000     3.992357     3.984714     3.977070     3.969427     3.961784     3.954141     3.946497     3.938854     3.931211
      3.923568     3.915925     3.908281     3.900638     3.892995     3.885352     3.877708     3.870065     3.862422     3.854779
      3.847136     3.839492     3.831849     3.824206     3.816563     3.808919     3.801276     3.793633     3.785990     3.778347
      3.770703     3.763060     3.755417     3.747774     3.740130     3.732487     3.724844     3.717201     3.709558     3.701914
      3.694271     3.686628     3.678985     3.671341     3.663698     3.656055     3.648412     3.640769     3.633125     3.625482
      3.617839     3.610196     3.602552     3.594909     3.587266     3.579623     3.571980     3.564336     3.556693     3.549050
      3.541407     3.533763     3.526120     3.518477     3.510834     3.503191     3.495547     3.487904     3.480261     3.472618
      3.464974     3.457331     3.449688     3.442045     3.434402     3.426758     3.419115     3.411472     3.403829     3.396185
      3.388542     3.380899     3.373256     3.365613     3.357969     3.350326     3.342683     3.335040     3.327396     3.319753
      3.312110     3.304467     3.296824     3.289180     3.281537     3.273894     3.266251     3.258607     3.250964     3.243321
      3.235678     3.228034     3.220391     3.212748     3.205105     3.197462     3.189818     3.182175     3.174532     3.166889
      3.159245     3.151602     3.143959     3.136316     3.128673     3.121029     3.113386     3.105743     3.098100     3.090456
      3.082813     3.075170     3.067527     3.059884     3.052240     3.044597     3.036954     3.029311     3.021667     3.014024
      3.006381     2.998738     2.991095     2.983451     2.975808     2.968165     2.960522     2.952878     2.945235     2.937592
      2.929949     2.922306     2.914662     2.907019     2.899376     2.891733     2.884089     2.876446     2.868803     2.861160
      2.853517     2.845873     2.838230     2.830587     2.822944     2.815300     2.807657     2.800014     2.792371     2.784728
      2.777084     2.769441     2.761798     2.754155     2.746511     2.738868     2.731225     2.723582     2.715939     2.708295
      2.700652     2.693009     2.685366     2.677722     2.670079     2.662436     2.654793     2.647150     2.639506     2.631863
      2.624220     2.616577     2.608933     2.601290     2.593647     2.586004     2.578361     2.570717     2.563074     2.555431
      2.547788     2.540144     2.532501     2.524858     2.517215     2.509572     2.501928     2.494285     2.486642     2.478999
      2.471355     2.463712     2.456069     2.448426     2.440783     2.433139     2.425496     2.417853     2.410210     2.402566
      2.394923     2.387280     2.379637     2.371994     2.364350     2.356707     2.349064     2.341421     2.333777     2.326134
      2.318491     2.310848     2.303205     2.295561     2.287918     2.280275     2.272632     2.264988     2.257345     2.249702
      2.242059     2.234416     2.226772     2.219129     2.211486     2.203843     2.196199     2.188556     2.180913     2.173270
      2.165627     2.157983     2.150340     2.142697     2.135054     2.127410     2.119767     2.112124     2.104481     2.096838
      2.089194     2.081551     2.073908     2.066265     2.058621     2.050978     2.043335     2.035692     2.028049     2.020405
      2.012762     2.005119     1.997476     1.989833     1.982190     1.974546     1.966903     1.959260     1.951617     1.943974
      1.936331     1.928688     1.921045     1.913402     1.905759     1.898115     1.890472     1.882829     1.875186     1.867543
      1.859900     1.852257     1.844614     1.836971     1.829327     1.821684     1.814041     1.806398     1.798755     1.791112
      1.783469     1.775826     1.768183     1.760540     1.752896     1.745253     1.737610     1.729967     1.722324     1.714681
      1.707038     1.699395     1.691752     1.684108     1.676465     1.668822     1.661179     1.653536     1.645893     1.638250
      1.630607     1.622964     1.615321     1.607677     1.600034     1.592391     1.584748     1.577105     1.569462     1.561819
      1.554176     1.546533     1.538890     1.531246     1.523603     1.515960     1.508317     1.500674     1.493031     1.485388
      1.477745     1.470102     1.462458     1.454815     1.447172     1.439529     1.431886     1.424243     1.416600     1.408957
      1.401314     1.393671     1.386027     1.378384     1.370741     1.363098     1.355455     1.347812     1.340169     1.332526
      1.324883     1.317240     1.309596     1.301953     1.294310     1.286667     1.279024     1.271381     1.263738     1.256095
      1.248452     1.240808     1.233165     1.225522     1.217879     1.210236     1.202593     1.194950     1.187307     1.179664
      1.172021     1.164377     1.156734     1.149091     1.141448     1.133805     1.126162     1.118519     1.110876     1.103233
      1.095590     1.087946     1.080303     1.072660     1.065017     1.057374     1.049731     1.042088     1.034445     1.026802
      1.019158     1.011515     1.003872     0.996229     0.988586     0.980943     0.973300     0.965657     0.958014     0.950371
      0.942727     0.935084     0.927441     0.919798     0.912155     0.904512     0.896869     0.889226     0.881583     0.873940
      0.866296     0.858653     0.851010     0.843367     0.835724     0.828081     0.820438     0.812795     0.805152     0.797508
      0.789865     0.782222     0.774579     0.766936     0.759293     0.751650     0.744007     0.736364     0.728721     0.721077
      0.713434     0.705791     0.698148     0.690505     0.682862     0.675219     0.667576     0.659933     0.652290     0.644646
      0.637003     0.629360     0.621717     0.614074     0.606431     0.598788     0.591145     0.583502     0.575858     0.568215
      0.560572     0.552929     0.545286     0.537643     0.530000     0.522357     0.514714     0.507071     0.499427     0.491784
      0.484141     0.476498     0.468855     0.461212     0.453569     0.445925     0.438282     0.430639     0.422996     0.415353
      0.407710     0.400067     0.392424     0.384780     0.377137     0.369494     0.361851     0.354208     0.346565     0.338922
      0.331278     0.323635     0.315992     0.308349     0.300706     0.293063     0.285420     0.277777     0.270133     0.262490
      0.254847     0.247204     0.239561     0.231918     0.224275     0.216631     0.208988     0.201345
 NY phased data points follow
   3.33496E+01  3.47011E+01  3.54549E+01  3.73516E+01  3.71273E+01  4.48938E+01  4.49323E+01  4.76704E+01  5.10124E+01  5.27286E+01
   5.51748E+01  5.54938E+01  5.47241E+01  5.31593E+01  4.93396E+01  4.14662E+01  4.28059E+01  4.07887E+01  3.29990E+01  3.73509E+01
   3.27240E+01  3.39009E+01  3.17878E+01  3.32519E+01  3.36712E+01  3.12386E+01  3.09606E+01  3.12145E+01  3.31052E+01  3.31349E+01
   3.42801E+01  3.26737E+01  3.37925E+01  2.99604E+01  3.34939E+01  3.11334E+01  2.96132E+01  3.23886E+01  2.97854E+01  2.58868E+01
   2.57044E+01  2.93930E+01  2.48928E+01  2.82561E+01  2.75785E+01  2.92799E+01  2.68858E+01  2.92551E+01  2.95823E+01  2.81627E+01
   2.99079E+01  2.66718E+01  2.36663E+01  2.12689E+01  2.19003E+01  2.48666E+01  2.17589E+01  2.15253E+01  2.13764E+01  2.12658E+01
   1.96721E+01  1.91362E+01  2.14738E+01  1.56474E+01  1.62026E+01  1.34373E+01  1.39529E+01  1.37481E+01  1.29038E+01  1.25897E+01
   1.39879E+01  1.16899E+01  1.32193E+01  1.68518E+01  1.43160E+01  1.17323E+01  1.31020E+01  1.43482E+01  1.21708E+01  1.25003E+01
   1.03213E+01  1.08752E+01  1.51188E+01  1.30189E+01  1.08087E+01  1.10807E+01  1.23413E+01  1.07504E+01  1.29557E+01  1.10758E+01
   1.80566E+01  1.51619E+01  1.74363E+01  1.70649E+01  1.89099E+01  2.05957E+01  2.55789E+01  2.23908E+01  2.70377E+01  2.49192E+01
   2.68690E+01  3.46854E+01  3.35460E+01  3.89774E+01  4.37764E+01  4.20722E+01  4.02814E+01  3.13611E+01  2.65318E+01  2.05172E+01
   2.45429E+01  1.69536E+01  2.10672E+01  1.83079E+01  1.67004E+01  1.97721E+01  2.23105E+01  2.17095E+01  2.09948E+01  2.39402E+01
   2.74247E+01  3.29843E+01  3.38927E+01  3.80169E+01  4.23687E+01  4.50909E+01  4.55495E+01  4.73697E+01  5.20669E+01  5.18581E+01
   4.92228E+01  3.74244E+01  3.34284E+01  2.50301E+01  1.98446E+01  1.94319E+01  1.83577E+01  1.93492E+01  1.91260E+01  1.88667E+01
   1.59442E+01  1.64432E+01  1.27312E+01  1.53909E+01  1.55369E+01  1.33735E+01  1.16866E+01  1.30829E+01  1.18098E+01  1.23685E+01
   1.38546E+01  1.16172E+01  1.14169E+01  1.28186E+01  1.12072E+01  1.13365E+01  1.04877E+01  1.26606E+01  8.80985E+00  1.05246E+01
   8.18047E+00  9.79114E+00  7.08309E+00  6.52057E+00  6.11300E+00  6.64787E+00  5.53359E+00  8.16774E+00  6.08545E+00  5.08192E+00
   3.16007E+00  5.21515E+00  2.22353E+00 -1.35888E+00  2.46332E+00  1.19419E+00 -1.75707E-02  1.68664E+00  2.31455E+00  3.63882E+00
   2.73904E+00  9.13442E-01  3.90642E+00  2.60755E+00  6.66406E+00  5.12410E+00  6.61107E+00  7.59603E+00  6.89634E+00  7.45684E+00
   9.98684E+00  1.36731E+01  1.40894E+01  1.39710E+01  1.30425E+01  1.07718E+01  1.01070E+01  9.71435E+00  9.63078E+00  9.41143E+00
   7.98673E+00  1.09827E+01  1.08645E+01  1.10679E+01  1.17540E+01  9.45805E+00  1.03044E+01  9.39277E+00  5.61908E+00  7.00588E+00
   6.37939E+00  5.73985E+00  9.08467E+00  9.96095E+00  9.02837E+00  1.39897E+01  1.50013E+01  1.19610E+01  1.12812E+01  1.26900E+01
   5.49406E+00  9.26769E+00  5.71942E+00  6.90904E+00  3.46775E+00  7.19546E+00  8.12352E+00  1.16054E+01  1.17076E+01  1.50764E+01
   1.39428E+01  1.10916E+01  1.58992E+01  1.24927E+01  1.42537E+01  1.16042E+01  8.96253E+00  9.14612E+00  1.14937E+01  1.04676E+01
   1.05607E+01  9.04674E+00  9.64204E+00  8.91317E+00  1.04133E+01  1.55618E+01  1.74164E+01  1.64086E+01  1.97866E+01  2.58758E+01
   2.35697E+01  2.80841E+01  3.52870E+01  3.38021E+01  4.08470E+01  4.35048E+01  5.56316E+01  5.18465E+01  5.82195E+01  6.16949E+01
   7.13956E+01  6.89726E+01  6.54242E+01  5.76263E+01  5.07962E+01  3.65401E+01  2.80069E+01  2.26192E+01  1.82143E+01  1.81830E+01
   1.94158E+01  1.47651E+01  1.21116E+01  1.32258E+01  1.46432E+01  1.30467E+01  1.38042E+01  1.25877E+01  1.09170E+01  1.11855E+01
   1.06240E+01  1.02044E+01  9.84370E+00  1.04239E+01  9.35351E+00  6.82659E+00  7.15607E+00  1.06559E+01  8.68613E+00  5.92546E+00
   4.77048E+00  9.60279E+00  7.37316E+00  8.17333E+00  5.41218E+00  7.38456E+00  6.60096E+00  2.97077E+00  5.76127E+00  5.57119E+00
   5.66633E+00  8.47883E+00  6.87762E+00  9.99006E+00  3.35561E+00  6.98674E+00  4.48985E+00  6.06809E+00  7.98214E+00  5.17662E+00
   9.11632E+00  6.96321E+00  4.79079E+00  5.51310E+00  8.63584E+00  5.79182E+00  6.75825E+00  2.98072E+00  5.73460E+00  3.00492E+00
   9.25333E+00  4.07576E+00  3.94212E+00  4.77904E+00  4.69665E+00  3.81998E+00  5.19052E+00  3.80255E+00  6.06366E+00  3.08644E+00
   5.54706E+00  8.41960E+00  3.79741E+00  6.32768E+00  7.27515E+00  3.49600E+00  6.47602E+00  4.30164E+00  4.34909E+00  3.96026E+00
   6.84263E+00  3.93400E+00  8.34497E+00  6.84962E+00  4.18807E+00  6.48838E+00  9.33366E+00  6.05217E+00  8.05893E+00  8.22804E+00
   9.00347E+00  6.36159E+00  7.27636E+00  4.05641E+00  5.36670E+00  1.97248E+00  1.63434E+00  5.47854E+00  3.86056E+00  4.69780E+00
   6.13868E+00  6.49285E+00  4.37463E+00  3.49321E+00  6.47694E+00  2.89535E+00  2.14168E+00  5.71717E+00  7.59317E+00  3.88089E+00
   6.29746E+00  5.53009E+00  7.05141E+00  8.80032E+00  8.60358E+00  8.11552E+00  6.60089E+00  8.24212E+00  3.62156E+00  6.47910E+00
   5.46443E+00  5.81407E+00  4.50514E+00  7.82137E+00  5.43757E+00  5.92085E+00  3.93607E+00  4.07565E+00  7.55256E+00  5.42411E+00
   6.70728E+00  4.58033E+00  5.53809E+00  4.01970E+00  4.48595E+00  6.90185E+00  5.70583E+00  7.42487E+00  9.50052E+00  6.96832E+00
   6.64268E+00  6.35762E+00  4.89850E+00  5.75237E+00  4.91160E+00  4.38356E+00  4.52955E+00  6.00704E+00  6.48454E+00  6.38505E+00
   6.13643E+00  7.61200E+00  5.71138E+00  6.25340E+00  7.46170E+00  7.23446E+00  5.50395E+00  7.41722E+00  4.26440E+00  5.74740E+00
   4.53860E+00  5.05050E+00  4.45922E+00  5.29974E+00  1.30392E+00  2.18200E+00  5.12652E+00  5.50234E+00  8.69079E+00  5.50774E+00
   7.71786E+00  6.99919E+00  3.49203E+00  6.90813E+00  5.46209E+00  4.43272E+00  4.68685E+00  4.37377E+00  7.61349E+00  3.63397E+00
   4.41540E+00  5.57805E+00  3.33985E+00  4.23573E+00  3.27737E+00  4.28976E+00  4.25087E+00  6.31047E+00  5.02687E+00  5.06529E+00
   3.14254E+00  2.47714E+00  1.25131E+00  5.38211E+00  2.60076E+00  1.72359E+00  5.79167E+00  5.86474E+00  3.67426E+00  8.18961E-01
   3.69436E+00  4.84081E+00  3.94222E+00  6.88161E-01  3.19469E-02  5.79549E+00  3.46943E+00  2.55769E+00  2.07064E+00  1.72763E+00
   5.49310E+00  1.55194E+00  5.80937E+00  1.12001E+00  1.87797E+00  3.75041E+00  4.24870E+00  5.17553E+00  4.13487E+00  3.96253E+00
   1.58698E+00  3.20484E+00  3.90050E+00  6.96852E+00  8.06917E-01 -3.77772E-01  5.07268E+00  2.03115E+00  3.07807E+00  5.37276E+00
   3.58279E-02  3.92865E-01  4.35180E+00  1.53001E+00  5.39757E+00  2.91678E+00  5.51481E+00  3.68358E+00
 NY points of the fit to the data follow
   3.16831E+01  3.36203E+01  3.60813E+01  3.70144E+01  3.93290E+01  4.12257E+01  4.28859E+01  4.57202E+01  4.89952E+01  5.15005E+01
   5.26731E+01  5.28578E+01  5.25783E+01  5.01186E+01  4.61819E+01  4.29955E+01  4.03454E+01  3.67647E+01  3.47852E+01  3.49444E+01
   3.29231E+01  3.20385E+01  3.32737E+01  3.20369E+01  3.14322E+01  3.20987E+01  3.18914E+01  3.20607E+01  3.21605E+01  3.30803E+01
   3.42511E+01  3.45302E+01  3.46796E+01  3.44583E+01  3.32500E+01  3.09156E+01  2.94274E+01  2.79526E+01  2.58010E+01  2.56117E+01
   2.55973E+01  2.52660E+01  2.61873E+01  2.67628E+01  2.68018E+01  2.64012E+01  2.59140E+01  2.59332E+01  2.57151E+01  2.53437E+01
   2.50639E+01  2.43418E+01  2.31904E+01  2.22839E+01  2.17414E+01  2.12544E+01  2.10161E+01  2.09603E+01  2.05538E+01  2.01669E+01
   1.99695E+01  1.98263E+01  1.95679E+01  1.92025E+01  1.87730E+01  1.83578E+01  1.80548E+01  1.78524E+01  1.77725E+01  1.78088E+01
   1.77458E+01  1.76705E+01  1.75287E+01  1.73165E+01  1.71028E+01  1.68614E+01  1.65814E+01  1.62421E+01  1.59339E+01  1.56783E+01
   1.54093E+01  1.51831E+01  1.49351E+01  1.46441E+01  1.43825E+01  1.41286E+01  1.39067E+01  1.35820E+01  1.33155E+01  1.31571E+01
   1.31447E+01  1.33925E+01  1.46527E+01  1.89326E+01  2.06532E+01  2.13773E+01  2.36326E+01  2.45218E+01  2.64287E+01  2.92020E+01
   3.07683E+01  3.27444E+01  3.55837E+01  3.97814E+01  4.23706E+01  4.16935E+01  3.85527E+01  3.39816E+01  2.79608E+01  2.17974E+01
   1.97119E+01  1.86339E+01  1.76775E+01  1.87987E+01  1.74959E+01  1.54110E+01  1.79759E+01  2.09599E+01  2.39094E+01  2.54985E+01
   2.79336E+01  3.04666E+01  3.39068E+01  3.74027E+01  4.05894E+01  4.37845E+01  4.88474E+01  5.29154E+01  5.52019E+01  5.31653E+01
   4.83385E+01  4.11680E+01  3.32029E+01  2.69766E+01  2.32941E+01  2.13402E+01  2.04338E+01  1.90521E+01  1.65643E+01  1.38598E+01
   1.31262E+01  1.34284E+01  1.35916E+01  1.36713E+01  1.29993E+01  1.23546E+01  1.19546E+01  1.15358E+01  1.14454E+01  1.14085E+01
   1.10256E+01  1.06740E+01  1.03542E+01  9.95713E+00  9.78336E+00  9.69875E+00  9.35404E+00  9.23951E+00  9.12713E+00  8.91130E+00
   8.61796E+00  8.16613E+00  7.77848E+00  7.57885E+00  7.44783E+00  7.32461E+00  7.08327E+00  6.91502E+00  6.42468E+00  5.91241E+00
   5.22785E+00  4.65210E+00  4.72250E+00  4.70459E+00  4.58238E+00  4.27658E+00  3.65624E+00  3.34115E+00  3.79004E+00  4.20266E+00
   4.66273E+00  5.14087E+00  5.51650E+00  5.55909E+00  5.89645E+00  6.26766E+00  6.59503E+00  7.12244E+00  7.87435E+00  8.60608E+00
   9.35685E+00  1.01126E+01  1.07686E+01  1.09509E+01  1.05821E+01  1.02945E+01  9.90392E+00  9.61433E+00  9.83752E+00  1.03179E+01
   1.00737E+01  1.10907E+01  1.15470E+01  1.15568E+01  1.17815E+01  1.16139E+01  1.15930E+01  1.08077E+01  9.14700E+00  8.15948E+00
   6.59432E+00  6.16193E+00  6.25898E+00  6.89636E+00  8.60220E+00  1.10122E+01  1.28308E+01  1.31378E+01  1.22010E+01  1.04139E+01
   7.78734E+00  5.62330E+00  3.48786E+00  2.79418E+00  3.73890E+00  5.68551E+00  8.16918E+00  1.04992E+01  1.16475E+01  1.25919E+01
   1.23596E+01  1.16742E+01  1.08681E+01  1.01905E+01  1.10538E+01  1.18027E+01  1.17864E+01  1.21122E+01  1.19255E+01  1.14222E+01
   1.09171E+01  1.03087E+01  9.64104E+00  9.00054E+00  9.29605E+00  1.03180E+01  1.26117E+01  1.37022E+01  1.57101E+01  1.95172E+01
   2.75584E+01  2.98648E+01  3.32707E+01  3.73247E+01  4.10124E+01  4.68303E+01  5.35291E+01  5.64636E+01  5.96969E+01  6.26760E+01
   6.80065E+01  6.82023E+01  6.44417E+01  5.76874E+01  4.92386E+01  3.77998E+01  2.80336E+01  2.38770E+01  2.04315E+01  1.88702E+01
   2.03414E+01  1.62766E+01  1.15708E+01  1.02464E+01  9.98440E+00  9.84542E+00  9.63351E+00  9.56492E+00  9.38715E+00  9.08324E+00
   8.77315E+00  8.53734E+00  8.37877E+00  8.28780E+00  8.25554E+00  8.17521E+00  8.07635E+00  7.97220E+00  7.86171E+00  7.74700E+00
   7.65243E+00  7.54268E+00  7.49186E+00  7.46611E+00  7.41892E+00  7.35492E+00  7.30488E+00  7.22831E+00  7.14072E+00  7.06413E+00
   7.00000E+00  6.94518E+00  6.91514E+00  6.87903E+00  6.84627E+00  6.81424E+00  6.77436E+00  6.73630E+00  6.69427E+00  6.64757E+00
   6.61420E+00  6.58061E+00  6.54409E+00  6.50940E+00  6.47438E+00  6.43863E+00  6.40425E+00  6.37105E+00  6.33902E+00  6.30850E+00
   6.27926E+00  6.25101E+00  6.22392E+00  6.19767E+00  6.17211E+00  6.14757E+00  6.12387E+00  6.10084E+00  6.07838E+00  6.05645E+00
   6.03495E+00  6.01376E+00  5.99289E+00  5.97227E+00  5.95187E+00  5.93173E+00  5.91183E+00  5.89215E+00  5.87278E+00  5.85382E+00
   5.83537E+00  5.81755E+00  5.80046E+00  5.78425E+00  5.76902E+00  5.75493E+00  5.74211E+00  5.73060E+00  5.72050E+00  5.71184E+00
   5.70461E+00  5.69877E+00  5.69421E+00  5.69075E+00  5.68819E+00  5.68629E+00  5.68476E+00  5.68332E+00  5.68163E+00  5.67933E+00
   5.67611E+00  5.67167E+00  5.66577E+00  5.65819E+00  5.64879E+00  5.63751E+00  5.62435E+00  5.60944E+00  5.59298E+00  5.57523E+00
   5.55655E+00  5.53733E+00  5.51810E+00  5.49938E+00  5.48176E+00  5.46583E+00  5.45222E+00  5.44157E+00  5.43456E+00  5.43186E+00
   5.43409E+00  5.44191E+00  5.45594E+00  5.47676E+00  5.50496E+00  5.54099E+00  5.58526E+00  5.63800E+00  5.69932E+00  5.76913E+00
   5.84709E+00  5.93257E+00  6.02463E+00  6.12199E+00  6.22305E+00  6.32589E+00  6.42827E+00  6.52769E+00  6.62150E+00  6.70695E+00
   6.78135E+00  6.84216E+00  6.88708E+00  6.91422E+00  6.92213E+00  6.90997E+00  6.87748E+00  6.82503E+00  6.75357E+00  6.66461E+00
   6.56014E+00  6.44250E+00  6.31432E+00  6.17831E+00  6.03722E+00  5.89368E+00  5.75013E+00  5.60876E+00  5.47141E+00  5.33957E+00
   5.21438E+00  5.09662E+00  4.98678E+00  4.88505E+00  4.79139E+00  4.70555E+00  4.62713E+00  4.55567E+00  4.49062E+00  4.43141E+00
   4.37744E+00  4.32815E+00  4.28300E+00  4.24150E+00  4.20322E+00  4.16775E+00  4.13471E+00  4.10377E+00  4.07468E+00  4.04719E+00
   4.02110E+00  3.99623E+00  3.97242E+00  3.94954E+00  3.92747E+00  3.90613E+00  3.88542E+00  3.86528E+00  3.84562E+00  3.82638E+00
   3.80754E+00  3.78905E+00  3.77087E+00  3.75296E+00  3.73529E+00  3.71785E+00  3.70062E+00  3.68359E+00  3.66674E+00  3.65003E+00
   3.63346E+00  3.61703E+00  3.60073E+00  3.58455E+00  3.56849E+00  3.55253E+00  3.53667E+00  3.52091E+00  3.50526E+00  3.48968E+00
   3.47419E+00  3.45878E+00  3.44346E+00  3.42822E+00  3.41309E+00  3.39803E+00  3.38306E+00  3.36818E+00  3.35339E+00  3.33869E+00
   3.32409E+00  3.30958E+00  3.29517E+00  3.28086E+00  3.26668E+00  3.25261E+00  3.23867E+00  3.22485E+00  3.21118E+00  3.19766E+00
   3.18431E+00  3.17115E+00  3.15817E+00  3.14541E+00  3.13288E+00  3.12062E+00  3.10867E+00  3.09705E+00
 NY background values follow
     2.568E+01    2.553E+01    2.539E+01    2.524E+01    2.510E+01    2.496E+01    2.481E+01    2.467E+01    2.453E+01    2.438E+01
     2.424E+01    2.409E+01    2.395E+01    2.381E+01    2.366E+01    2.352E+01    2.337E+01    2.323E+01    2.309E+01    2.294E+01
     2.280E+01    2.266E+01    2.251E+01    2.237E+01    2.223E+01    2.209E+01    2.194E+01    2.180E+01    2.166E+01    2.152E+01
     2.138E+01    2.124E+01    2.110E+01    2.096E+01    2.082E+01    2.068E+01    2.054E+01    2.040E+01    2.026E+01    2.012E+01
     1.999E+01    1.985E+01    1.971E+01    1.957E+01    1.944E+01    1.930E+01    1.917E+01    1.903E+01    1.890E+01    1.877E+01
     1.864E+01    1.850E+01    1.837E+01    1.824E+01    1.811E+01    1.798E+01    1.785E+01    1.772E+01    1.760E+01    1.747E+01
     1.734E+01    1.722E+01    1.709E+01    1.697E+01    1.685E+01    1.672E+01    1.660E+01    1.648E+01    1.636E+01    1.624E+01
     1.612E+01    1.601E+01    1.589E+01    1.578E+01    1.566E+01    1.555E+01    1.544E+01    1.532E+01    1.521E+01    1.510E+01
     1.499E+01    1.489E+01    1.478E+01    1.468E+01    1.457E+01    1.447E+01    1.437E+01    1.427E+01    1.417E+01    1.407E+01
     1.397E+01    1.387E+01    1.378E+01    1.368E+01    1.359E+01    1.350E+01    1.341E+01    1.332E+01    1.323E+01    1.315E+01
     1.306E+01    1.297E+01    1.289E+01    1.281E+01    1.273E+01    1.265E+01    1.257E+01    1.249E+01    1.241E+01    1.233E+01
     1.226E+01    1.218E+01    1.211E+01    1.204E+01    1.197E+01    1.190E+01    1.183E+01    1.176E+01    1.169E+01    1.162E+01
     1.155E+01    1.149E+01    1.142E+01    1.136E+01    1.130E+01    1.124E+01    1.117E+01    1.111E+01    1.105E+01    1.099E+01
     1.094E+01    1.088E+01    1.082E+01    1.077E+01    1.071E+01    1.066E+01    1.060E+01    1.055E+01    1.049E+01    1.044E+01
     1.039E+01    1.034E+01    1.029E+01    1.024E+01    1.019E+01    1.014E+01    1.010E+01    1.005E+01    1.000E+01    9.956E+00
     9.911E+00    9.866E+00    9.822E+00    9.779E+00    9.736E+00    9.694E+00    9.653E+00    9.612E+00    9.571E+00    9.532E+00
     9.492E+00    9.454E+00    9.416E+00    9.378E+00    9.341E+00    9.305E+00    9.269E+00    9.234E+00    9.199E+00    9.165E+00
     9.131E+00    9.098E+00    9.065E+00    9.033E+00    9.002E+00    8.971E+00    8.940E+00    8.910E+00    8.881E+00    8.852E+00
     8.824E+00    8.796E+00    8.768E+00    8.741E+00    8.715E+00    8.689E+00    8.663E+00    8.638E+00    8.613E+00    8.589E+00
     8.565E+00    8.541E+00    8.518E+00    8.495E+00    8.473E+00    8.450E+00    8.428E+00    8.407E+00    8.385E+00    8.364E+00
     8.344E+00    8.323E+00    8.303E+00    8.282E+00    8.263E+00    8.243E+00    8.223E+00    8.204E+00    8.184E+00    8.165E+00
     8.146E+00    8.127E+00    8.109E+00    8.090E+00    8.071E+00    8.053E+00    8.034E+00    8.016E+00    7.997E+00    7.979E+00
     7.960E+00    7.941E+00    7.923E+00    7.904E+00    7.886E+00    7.867E+00    7.848E+00    7.829E+00    7.810E+00    7.791E+00
     7.771E+00    7.752E+00    7.733E+00    7.713E+00    7.693E+00    7.673E+00    7.653E+00    7.633E+00    7.613E+00    7.593E+00
     7.573E+00    7.552E+00    7.531E+00    7.511E+00    7.490E+00    7.469E+00    7.448E+00    7.426E+00    7.405E+00    7.383E+00
     7.362E+00    7.340E+00    7.318E+00    7.296E+00    7.274E+00    7.251E+00    7.229E+00    7.206E+00    7.183E+00    7.161E+00
     7.137E+00    7.114E+00    7.091E+00    7.067E+00    7.044E+00    7.020E+00    6.996E+00    6.972E+00    6.948E+00    6.923E+00
     6.899E+00    6.874E+00    6.849E+00    6.824E+00    6.799E+00    6.774E+00    6.748E+00    6.723E+00    6.697E+00    6.671E+00
     6.645E+00    6.619E+00    6.593E+00    6.567E+00    6.541E+00    6.515E+00    6.489E+00    6.462E+00    6.436E+00    6.410E+00
     6.383E+00    6.357E+00    6.331E+00    6.304E+00    6.278E+00    6.252E+00    6.226E+00    6.200E+00    6.173E+00    6.147E+00
     6.121E+00    6.095E+00    6.070E+00    6.044E+00    6.018E+00    5.993E+00    5.968E+00    5.942E+00    5.917E+00    5.892E+00
     5.867E+00    5.843E+00    5.818E+00    5.794E+00    5.770E+00    5.746E+00    5.723E+00    5.699E+00    5.676E+00    5.653E+00
     5.630E+00    5.607E+00    5.585E+00    5.563E+00    5.541E+00    5.519E+00    5.498E+00    5.476E+00    5.455E+00    5.434E+00
     5.413E+00    5.393E+00    5.372E+00    5.352E+00    5.332E+00    5.312E+00    5.293E+00    5.273E+00    5.254E+00    5.235E+00
     5.216E+00    5.197E+00    5.178E+00    5.160E+00    5.142E+00    5.124E+00    5.106E+00    5.088E+00    5.071E+00    5.053E+00
     5.036E+00    5.019E+00    5.002E+00    4.985E+00    4.969E+00    4.952E+00    4.936E+00    4.920E+00    4.904E+00    4.888E+00
     4.872E+00    4.857E+00    4.841E+00    4.826E+00    4.811E+00    4.796E+00    4.781E+00    4.766E+00    4.752E+00    4.737E+00
     4.723E+00    4.708E+00    4.694E+00    4.680E+00    4.666E+00    4.652E+00    4.639E+00    4.625E+00    4.612E+00    4.598E+00
     4.585E+00    4.571E+00    4.558E+00    4.545E+00    4.532E+00    4.519E+00    4.506E+00    4.494E+00    4.481E+00    4.468E+00
     4.456E+00    4.443E+00    4.431E+00    4.419E+00    4.406E+00    4.394E+00    4.382E+00    4.370E+00    4.358E+00    4.345E+00
     4.333E+00    4.321E+00    4.309E+00    4.298E+00    4.286E+00    4.274E+00    4.262E+00    4.250E+00    4.238E+00    4.227E+00
     4.215E+00    4.203E+00    4.191E+00    4.179E+00    4.168E+00    4.156E+00    4.144E+00    4.133E+00    4.121E+00    4.109E+00
     4.098E+00    4.086E+00    4.074E+00    4.062E+00    4.051E+00    4.039E+00    4.027E+00    4.015E+00    4.004E+00    3.992E+00
     3.980E+00    3.968E+00    3.956E+00    3.945E+00    3.933E+00    3.921E+00    3.909E+00    3.897E+00    3.885E+00    3.873E+00
     3.861E+00    3.849E+00    3.836E+00    3.824E+00    3.812E+00    3.800E+00    3.788E+00    3.775E+00    3.763E+00    3.750E+00
     3.738E+00    3.725E+00    3.713E+00    3.700E+00    3.687E+00    3.675E+00    3.662E+00    3.649E+00    3.636E+00    3.623E+00
     3.610E+00    3.597E+00    3.584E+00    3.571E+00    3.558E+00    3.545E+00    3.531E+00    3.518E+00    3.505E+00    3.492E+00
     3.478E+00    3.465E+00    3.452E+00    3.438E+00    3.425E+00    3.412E+00    3.398E+00    3.385E+00    3.372E+00    3.358E+00
     3.345E+00    3.331E+00    3.318E+00    3.305E+00    3.291E+00    3.278E+00    3.265E+00    3.251E+00    3.238E+00    3.225E+00
     3.211E+00    3.198E+00    3.185E+00    3.172E+00    3.158E+00    3.145E+00    3.132E+00    3.119E+00
 Cr       Conc. = 8.47E+02
