 LCModel (Version 6.3-1L) Copyright: S.W. Provencher.          Ref.: Magn. Reson. Med. 30:672-679 (1993).                
 Slice#1 Row#10 Col#3  K_02_press_1_raw_act
 36 lines in following concentration table = NCONC+1
    Conc.  %SD /Cr+PCr  Metabolite                                         
  179.399  55%   0.149 Ala                                                 
    0.000 999%   0.000 Asp                                                 
    2.970 999% 2.5E-03 Cr                                                  
 1.20E+03  15%   0.998 PCr                                                 
  105.762 132% 8.8E-02 GABA                                                
  173.893  76%   0.144 Glc                                                 
  458.442  47%   0.380 Gln                                                 
 1.61E+03  16%   1.334 Glu                                                 
  439.179   4%   0.364 GPC                                                 
    0.000 999%   0.000 PCh                                                 
  393.958  17%   0.327 GSH                                                 
 1.29E+03  18%   1.074 Ins                                                 
    0.000 999%   0.000 Lac                                                 
 2.07E+03   4%   1.718 NAA                                                 
  363.809  25%   0.302 NAAG                                                
  164.335  14%   0.136 Scyllo                                              
  552.324  34%   0.458 Tau                                                 
  583.052  17%   0.484 -CrCH2                                              
  439.179   4%   0.364 GPC+PCh                                             
 2.43E+03   3%   2.020 NAA+NAAG                                            
 1.21E+03   4%   1.000 Cr+PCr                                              
 2.07E+03  18%   1.715 Glu+Gln                                             
 1.09E+03  35%   0.901 Lip13a                                              
   53.972 221% 4.5E-02 Lip13b                                              
  140.720 120%   0.117 Lip09                                               
  450.985  34%   0.374 MM09                                                
  268.772  49%   0.223 Lip20                                               
 1.00E+03  26%   0.830 MM20                                                
  163.522  56%   0.136 MM12                                                
    0.000 999%   0.000 MM14                                                
  240.132  61%   0.199 MM17                                                
 1.14E+03  27%   0.946 Lip13a+Lip13b                                       
 1.30E+03  22%   1.082 MM14+Lip13a+Lip13b+MM12                             
  591.705  23%   0.491 MM09+Lip09                                          
 1.27E+03  21%   1.053 MM20+Lip20                                          
   6 lines in following misc. output table
  FWHM = 0.061 ppm    S/N =  13                                            
  Data shift =-0.015 ppm                                                   
  Ph: -40 deg     -21.5 deg/ppm                                            
  alphaB,S = 7.9E-01,   2.0E+02                                            
   14 spline knots.   Ns = 8(1)                                            
  (11) 4 infls.   ( 1) 1 extrs.                                            
  498 points on ppm-axis = NY
      4.000000     3.992357     3.984714     3.977070     3.969427     3.961784     3.954141     3.946497     3.938854     3.931211
      3.923568     3.915925     3.908281     3.900638     3.892995     3.885352     3.877708     3.870065     3.862422     3.854779
      3.847136     3.839492     3.831849     3.824206     3.816563     3.808919     3.801276     3.793633     3.785990     3.778347
      3.770703     3.763060     3.755417     3.747774     3.740130     3.732487     3.724844     3.717201     3.709558     3.701914
      3.694271     3.686628     3.678985     3.671341     3.663698     3.656055     3.648412     3.640769     3.633125     3.625482
      3.617839     3.610196     3.602552     3.594909     3.587266     3.579623     3.571980     3.564336     3.556693     3.549050
      3.541407     3.533763     3.526120     3.518477     3.510834     3.503191     3.495547     3.487904     3.480261     3.472618
      3.464974     3.457331     3.449688     3.442045     3.434402     3.426758     3.419115     3.411472     3.403829     3.396185
      3.388542     3.380899     3.373256     3.365613     3.357969     3.350326     3.342683     3.335040     3.327396     3.319753
      3.312110     3.304467     3.296824     3.289180     3.281537     3.273894     3.266251     3.258607     3.250964     3.243321
      3.235678     3.228034     3.220391     3.212748     3.205105     3.197462     3.189818     3.182175     3.174532     3.166889
      3.159245     3.151602     3.143959     3.136316     3.128673     3.121029     3.113386     3.105743     3.098100     3.090456
      3.082813     3.075170     3.067527     3.059884     3.052240     3.044597     3.036954     3.029311     3.021667     3.014024
      3.006381     2.998738     2.991095     2.983451     2.975808     2.968165     2.960522     2.952878     2.945235     2.937592
      2.929949     2.922306     2.914662     2.907019     2.899376     2.891733     2.884089     2.876446     2.868803     2.861160
      2.853517     2.845873     2.838230     2.830587     2.822944     2.815300     2.807657     2.800014     2.792371     2.784728
      2.777084     2.769441     2.761798     2.754155     2.746511     2.738868     2.731225     2.723582     2.715939     2.708295
      2.700652     2.693009     2.685366     2.677722     2.670079     2.662436     2.654793     2.647150     2.639506     2.631863
      2.624220     2.616577     2.608933     2.601290     2.593647     2.586004     2.578361     2.570717     2.563074     2.555431
      2.547788     2.540144     2.532501     2.524858     2.517215     2.509572     2.501928     2.494285     2.486642     2.478999
      2.471355     2.463712     2.456069     2.448426     2.440783     2.433139     2.425496     2.417853     2.410210     2.402566
      2.394923     2.387280     2.379637     2.371994     2.364350     2.356707     2.349064     2.341421     2.333777     2.326134
      2.318491     2.310848     2.303205     2.295561     2.287918     2.280275     2.272632     2.264988     2.257345     2.249702
      2.242059     2.234416     2.226772     2.219129     2.211486     2.203843     2.196199     2.188556     2.180913     2.173270
      2.165627     2.157983     2.150340     2.142697     2.135054     2.127410     2.119767     2.112124     2.104481     2.096838
      2.089194     2.081551     2.073908     2.066265     2.058621     2.050978     2.043335     2.035692     2.028049     2.020405
      2.012762     2.005119     1.997476     1.989833     1.982190     1.974546     1.966903     1.959260     1.951617     1.943974
      1.936331     1.928688     1.921045     1.913402     1.905759     1.898115     1.890472     1.882829     1.875186     1.867543
      1.859900     1.852257     1.844614     1.836971     1.829327     1.821684     1.814041     1.806398     1.798755     1.791112
      1.783469     1.775826     1.768183     1.760540     1.752896     1.745253     1.737610     1.729967     1.722324     1.714681
      1.707038     1.699395     1.691752     1.684108     1.676465     1.668822     1.661179     1.653536     1.645893     1.638250
      1.630607     1.622964     1.615321     1.607677     1.600034     1.592391     1.584748     1.577105     1.569462     1.561819
      1.554176     1.546533     1.538890     1.531246     1.523603     1.515960     1.508317     1.500674     1.493031     1.485388
      1.477745     1.470102     1.462458     1.454815     1.447172     1.439529     1.431886     1.424243     1.416600     1.408957
      1.401314     1.393671     1.386027     1.378384     1.370741     1.363098     1.355455     1.347812     1.340169     1.332526
      1.324883     1.317240     1.309596     1.301953     1.294310     1.286667     1.279024     1.271381     1.263738     1.256095
      1.248452     1.240808     1.233165     1.225522     1.217879     1.210236     1.202593     1.194950     1.187307     1.179664
      1.172021     1.164377     1.156734     1.149091     1.141448     1.133805     1.126162     1.118519     1.110876     1.103233
      1.095590     1.087946     1.080303     1.072660     1.065017     1.057374     1.049731     1.042088     1.034445     1.026802
      1.019158     1.011515     1.003872     0.996229     0.988586     0.980943     0.973300     0.965657     0.958014     0.950371
      0.942727     0.935084     0.927441     0.919798     0.912155     0.904512     0.896869     0.889226     0.881583     0.873940
      0.866296     0.858653     0.851010     0.843367     0.835724     0.828081     0.820438     0.812795     0.805152     0.797508
      0.789865     0.782222     0.774579     0.766936     0.759293     0.751650     0.744007     0.736364     0.728721     0.721077
      0.713434     0.705791     0.698148     0.690505     0.682862     0.675219     0.667576     0.659933     0.652290     0.644646
      0.637003     0.629360     0.621717     0.614074     0.606431     0.598788     0.591145     0.583502     0.575858     0.568215
      0.560572     0.552929     0.545286     0.537643     0.530000     0.522357     0.514714     0.507071     0.499427     0.491784
      0.484141     0.476498     0.468855     0.461212     0.453569     0.445925     0.438282     0.430639     0.422996     0.415353
      0.407710     0.400067     0.392424     0.384780     0.377137     0.369494     0.361851     0.354208     0.346565     0.338922
      0.331278     0.323635     0.315992     0.308349     0.300706     0.293063     0.285420     0.277777     0.270133     0.262490
      0.254847     0.247204     0.239561     0.231918     0.224275     0.216631     0.208988     0.201345
 NY phased data points follow
  -4.60008E+01 -4.91850E+01 -4.27720E+01 -4.18433E+01 -4.31451E+01 -3.89448E+01 -3.69831E+01 -3.22155E+01 -3.37725E+01 -2.94752E+01
  -2.76504E+01 -2.48796E+01 -2.76347E+01 -3.20667E+01 -3.42517E+01 -3.91514E+01 -3.75961E+01 -3.99518E+01 -4.14888E+01 -4.31972E+01
  -3.88086E+01 -3.96042E+01 -3.97560E+01 -3.50943E+01 -3.47890E+01 -3.21455E+01 -3.48508E+01 -2.98999E+01 -2.59857E+01 -2.99499E+01
  -2.83978E+01 -2.72942E+01 -2.76942E+01 -3.02593E+01 -2.75520E+01 -3.02095E+01 -2.90680E+01 -3.11923E+01 -2.91718E+01 -3.08883E+01
  -2.89914E+01 -2.84360E+01 -2.33770E+01 -2.43126E+01 -2.76576E+01 -2.13044E+01 -2.29089E+01 -2.08354E+01 -2.21083E+01 -2.45993E+01
  -2.24705E+01 -2.76892E+01 -2.25492E+01 -2.60664E+01 -2.65789E+01 -2.59880E+01 -2.54795E+01 -2.27861E+01 -2.48167E+01 -2.59998E+01
  -2.74969E+01 -2.66398E+01 -2.58320E+01 -2.55731E+01 -2.70671E+01 -2.60053E+01 -2.73562E+01 -2.70864E+01 -2.39284E+01 -2.44736E+01
  -2.07569E+01 -2.45497E+01 -2.13115E+01 -2.09703E+01 -2.08350E+01 -1.71297E+01 -1.99772E+01 -1.84199E+01 -2.04083E+01 -1.88852E+01
  -1.98045E+01 -2.21094E+01 -1.52174E+01 -1.63626E+01 -1.91162E+01 -1.38408E+01 -1.68213E+01 -1.62725E+01 -1.47563E+01 -1.42703E+01
  -1.50209E+01 -1.32364E+01 -1.17805E+01 -1.04254E+01 -1.03178E+01 -9.68712E+00 -5.89080E+00 -2.14176E+00 -1.14589E+00  6.17688E+00
   1.07995E+01  1.56577E+01  1.69219E+01  1.72597E+01  1.20981E+01  7.37029E+00 -3.54855E-01 -3.53461E+00 -6.85890E+00 -9.56797E+00
  -1.66009E+01 -1.48178E+01 -1.54356E+01 -1.29025E+01 -1.41983E+01 -1.59458E+01 -1.37993E+01 -1.28144E+01 -9.90878E+00 -1.18103E+01
  -5.70928E+00 -6.54388E+00  3.96328E-01  5.65617E+00  8.38575E+00  1.70705E+01  1.87880E+01  1.95814E+01  1.81109E+01  1.49347E+01
   1.09729E+01  7.16205E+00 -8.97924E-02 -8.70476E+00 -7.19471E+00 -1.04132E+01 -1.15021E+01 -1.33731E+01 -1.30656E+01 -1.43867E+01
  -1.20523E+01 -1.55470E+01 -1.33011E+01 -1.16231E+01 -1.15798E+01 -1.01570E+01 -1.15603E+01 -8.29071E+00 -9.52437E+00 -8.83626E+00
  -7.11483E+00 -9.35588E+00 -7.33820E+00 -6.97475E+00 -1.08341E+01 -9.44000E+00 -7.76252E+00 -6.04738E+00 -7.96656E+00 -7.94718E+00
  -8.22518E+00 -1.03261E+01 -1.08569E+01 -1.16117E+01 -1.24460E+01 -9.38026E+00 -1.32331E+01 -1.26816E+01 -1.19539E+01 -1.69508E+01
  -1.32503E+01 -1.63540E+01 -1.99082E+01 -2.00911E+01 -2.02801E+01 -1.92244E+01 -2.02460E+01 -1.89713E+01 -1.82465E+01 -1.83365E+01
  -1.00269E+01 -1.47002E+01 -1.27891E+01 -1.01669E+01 -1.18058E+01 -7.15293E+00 -1.47414E+01 -1.11682E+01 -8.35021E+00 -1.03965E+01
  -7.66382E+00 -1.08507E+01 -6.47760E+00 -6.78654E+00 -8.37001E+00 -8.98816E+00 -1.13494E+01 -4.69326E+00 -9.26538E+00 -8.17998E+00
  -1.03254E+01 -5.09048E+00 -6.58261E+00 -3.35481E+00 -1.72277E+00  1.09350E+00 -6.43113E-01 -3.73613E+00 -4.67376E+00 -8.85389E+00
  -3.41815E+00 -4.63689E+00 -4.60042E+00  5.59811E-01  3.30688E+00  2.43839E+00  1.56326E+00  4.95962E+00  6.77984E-01 -1.39055E+00
  -8.45009E+00 -4.93340E+00 -6.49367E+00 -9.74463E+00 -8.04024E+00 -2.89916E+00  7.96644E-01 -4.29196E-01  3.46746E-01  2.63536E+00
   3.45477E-02 -1.78479E-01  2.87028E+00  1.34649E+00  2.53838E-01  1.38345E+00  3.60175E+00  9.90937E-01  2.33840E+00  8.83754E-01
   3.78754E+00  2.08916E-01 -1.68176E+00 -3.21787E+00  1.72172E+00  2.84426E+00  3.04935E+00  4.61247E+00  9.88268E+00  9.09135E+00
   1.62394E+01  1.51740E+01  1.35317E+01  2.54890E+01  3.06423E+01  3.60519E+01  4.25677E+01  5.61190E+01  5.99520E+01  6.28213E+01
   6.57808E+01  6.51721E+01  6.38618E+01  5.97565E+01  4.01765E+01  2.78476E+01  1.60610E+01  1.00124E+01  3.48675E+00  6.23426E+00
   2.44690E+00  1.93541E+00  1.56497E+00  5.24094E+00  2.64967E+00  3.77782E+00  7.87739E+00  4.68913E+00  6.57690E+00  4.59613E+00
   5.59691E+00  7.77453E+00  5.94646E+00 -3.15835E-01  5.10686E+00  5.25430E+00  4.93173E+00  4.14281E+00  2.38253E+00  2.09475E+00
   6.48984E+00  5.34670E+00  3.92084E+00  2.66374E-01  1.04488E+00  3.67987E+00  2.78656E+00  3.61723E+00  4.78744E+00  4.12577E+00
   3.25962E+00  5.40391E+00  4.60014E+00  8.18132E+00  3.63329E+00  6.79597E+00  5.03678E+00  6.71755E+00  7.84970E+00  3.90182E+00
   7.81238E+00  6.77338E+00  9.41369E+00  5.93860E+00  7.93731E+00  4.98074E+00  3.09020E+00  1.72678E+00  3.36092E+00  5.85815E+00
   7.16788E+00  8.53578E+00  6.53017E+00  4.54544E+00  8.45992E+00  6.54136E+00  7.90165E+00  6.16179E+00  1.13187E+00  2.97072E+00
   7.05102E+00  3.93178E+00  5.47958E+00  3.36455E+00  6.21062E+00  9.11910E+00  6.10026E+00  9.98367E+00  9.27365E+00  6.65971E+00
   1.27288E+01  7.57014E+00  7.62409E+00  7.01977E+00  9.71733E+00  1.12030E+01  9.28225E+00  5.50294E+00  1.23536E+01  1.38488E+01
   1.11250E+01  7.18496E+00  1.12948E+01  1.53477E+01  1.19916E+01  1.09596E+01  1.55327E+01  1.45678E+01  1.42143E+01  7.02740E+00
   1.30138E+01  1.01458E+01  1.06551E+01  1.11685E+01  9.73613E+00  1.24020E+01  1.12662E+01  1.21251E+01  8.61751E+00  1.09474E+01
   1.24887E+01  1.24321E+01  1.14643E+01  1.10711E+01  1.16555E+01  1.01911E+01  1.17455E+01  1.26944E+01  8.49170E+00  1.06576E+01
   9.34287E+00  1.07990E+01  8.29265E+00  1.06274E+01  7.76819E+00  8.45613E+00  1.19741E+01  5.81104E+00  1.35551E+01  1.10303E+01
   7.09892E+00  9.12129E+00  1.17867E+01  1.39945E+01  8.75999E+00  1.06069E+01  1.31880E+01  1.17349E+01  1.00472E+01  1.11786E+01
   1.14427E+01  1.25231E+01  1.14805E+01  1.05256E+01  1.29075E+01  8.83936E+00  9.67835E+00  8.45501E+00  9.48696E+00  1.09461E+01
   8.66641E+00  9.52659E+00  1.43392E+01  7.88440E+00  1.22449E+01  9.20915E+00  1.03993E+01  9.32166E+00  1.19326E+01  9.96643E+00
   7.48384E+00  8.46221E+00  1.03948E+01  9.29214E+00  8.95616E+00  8.87037E+00  7.47239E+00  7.68669E+00  8.47579E+00  7.67580E+00
   8.48826E+00  5.24175E+00  9.87929E+00  8.46578E+00  9.02254E+00  6.13571E+00  7.18504E+00  5.05466E+00  8.08112E+00  6.90576E+00
   8.79879E+00  9.02367E+00  9.07350E+00  6.21789E+00  1.09003E+01  8.38113E+00  7.33632E+00  6.08970E+00  7.01934E+00  9.91738E+00
   8.09500E+00  7.43143E+00  5.88764E+00  7.44742E+00  6.58567E+00  1.12519E+01  7.20512E+00  9.93294E+00  6.42243E+00  8.42149E+00
   5.89053E+00  1.22441E+01  8.93746E+00  6.32832E+00  7.71467E+00  8.55625E+00  7.75539E+00  8.20259E+00  7.67567E+00  8.89330E+00
   6.54521E+00  5.86760E+00  7.77034E+00  5.57123E+00  6.32711E+00  7.76782E+00  6.66334E+00  1.07505E+01  6.42507E+00  4.95089E+00
   9.39368E+00  5.85531E+00  7.45516E+00  5.90499E+00  5.14633E+00  7.17334E+00  7.58638E+00  7.55240E+00  5.85035E+00  4.07548E+00
   6.64828E+00  7.69344E+00  4.55998E+00  2.82768E+00  8.62413E+00  6.49307E+00  8.26922E+00  9.41785E+00
 NY points of the fit to the data follow
  -4.46272E+01 -4.41938E+01 -4.28449E+01 -4.12061E+01 -3.94828E+01 -3.75823E+01 -3.54672E+01 -3.33207E+01 -3.13774E+01 -2.98407E+01
  -2.89221E+01 -2.88940E+01 -2.99192E+01 -3.17689E+01 -3.38754E+01 -3.57144E+01 -3.70146E+01 -3.77280E+01 -3.79813E+01 -3.79206E+01
  -3.77727E+01 -3.75130E+01 -3.68461E+01 -3.59733E+01 -3.50550E+01 -3.40096E+01 -3.27362E+01 -3.12742E+01 -2.98039E+01 -2.83840E+01
  -2.70841E+01 -2.61615E+01 -2.58342E+01 -2.61224E+01 -2.69041E+01 -2.80619E+01 -2.94312E+01 -3.07101E+01 -3.15353E+01 -3.16310E+01
  -3.10230E+01 -2.99055E+01 -2.84495E+01 -2.68128E+01 -2.52150E+01 -2.38796E+01 -2.29479E+01 -2.25082E+01 -2.26446E+01 -2.34244E+01
  -2.47124E+01 -2.61326E+01 -2.73170E+01 -2.80140E+01 -2.81739E+01 -2.78864E+01 -2.73002E+01 -2.65892E+01 -2.58808E+01 -2.52489E+01
  -2.47922E+01 -2.45307E+01 -2.44890E+01 -2.45886E+01 -2.46786E+01 -2.46447E+01 -2.44383E+01 -2.39854E+01 -2.32669E+01 -2.24808E+01
  -2.17955E+01 -2.12451E+01 -2.08210E+01 -2.05120E+01 -2.02893E+01 -2.01545E+01 -2.01378E+01 -2.02600E+01 -2.04800E+01 -2.04726E+01
  -2.01509E+01 -1.96600E+01 -1.89655E+01 -1.80016E+01 -1.68397E+01 -1.57076E+01 -1.48461E+01 -1.43572E+01 -1.42590E+01 -1.46334E+01
  -1.54234E+01 -1.63246E+01 -1.70188E+01 -1.68579E+01 -1.46991E+01 -1.11739E+01 -7.29856E+00 -3.08435E+00  1.66602E+00  6.67165E+00
   1.13103E+01  1.48961E+01  1.68262E+01  1.65078E+01  1.35315E+01  8.18387E+00  1.66851E+00 -4.53849E+00 -9.42478E+00 -1.26910E+01
  -1.45624E+01 -1.54684E+01 -1.58400E+01 -1.59957E+01 -1.60529E+01 -1.60354E+01 -1.59299E+01 -1.56476E+01 -1.46962E+01 -1.19854E+01
  -8.18790E+00 -4.24445E+00 -9.89690E-02  4.52718E+00  9.44616E+00  1.40987E+01  1.78477E+01  2.00236E+01  1.99616E+01  1.71873E+01
   1.19270E+01  5.39786E+00 -9.09038E-01 -5.96255E+00 -9.44165E+00 -1.15638E+01 -1.26907E+01 -1.31398E+01 -1.31508E+01 -1.28429E+01
  -1.23149E+01 -1.17088E+01 -1.11849E+01 -1.08578E+01 -1.07611E+01 -1.08513E+01 -1.10485E+01 -1.12702E+01 -1.14442E+01 -1.15469E+01
  -1.15875E+01 -1.15814E+01 -1.15623E+01 -1.16024E+01 -1.16906E+01 -1.17547E+01 -1.17620E+01 -1.16965E+01 -1.16369E+01 -1.16642E+01
  -1.17592E+01 -1.18769E+01 -1.19819E+01 -1.20241E+01 -1.19794E+01 -1.18994E+01 -1.18905E+01 -1.20570E+01 -1.24339E+01 -1.29228E+01
  -1.33125E+01 -1.35415E+01 -1.36638E+01 -1.37787E+01 -1.39035E+01 -1.39675E+01 -1.39353E+01 -1.38255E+01 -1.36398E+01 -1.34167E+01
  -1.31610E+01 -1.28398E+01 -1.24587E+01 -1.19833E+01 -1.13461E+01 -1.05515E+01 -9.65917E+00 -8.70318E+00 -7.71848E+00 -6.74913E+00
  -5.92070E+00 -5.32183E+00 -5.01700E+00 -5.02277E+00 -5.26930E+00 -5.58362E+00 -5.71340E+00 -5.53866E+00 -5.06527E+00 -4.37041E+00
  -3.59339E+00 -2.86985E+00 -2.43269E+00 -2.33510E+00 -2.58054E+00 -3.25014E+00 -4.25927E+00 -5.34837E+00 -6.15251E+00 -6.46749E+00
  -6.37281E+00 -5.79215E+00 -4.66048E+00 -3.15345E+00 -1.72799E+00 -8.22700E-01 -5.30338E-01 -8.28166E-01 -1.86424E+00 -3.60128E+00
  -5.60256E+00 -7.26017E+00 -8.13048E+00 -8.06818E+00 -7.07875E+00 -5.27127E+00 -3.01686E+00 -8.81585E-01  6.91866E-01  1.64465E+00
   2.08391E+00  2.15582E+00  2.08344E+00  2.07581E+00  2.21630E+00  2.39696E+00  2.53239E+00  2.60606E+00  2.57055E+00  2.34007E+00
   1.95755E+00  1.58346E+00  1.37328E+00  1.42018E+00  1.78512E+00  2.51303E+00  3.55409E+00  4.87004E+00  6.54844E+00  8.28124E+00
   9.90160E+00  1.18286E+01  1.58649E+01  2.29822E+01  3.08811E+01  3.84708E+01  4.60274E+01  5.35177E+01  6.00500E+01  6.46995E+01
   6.69575E+01  6.63036E+01  6.19281E+01  5.34615E+01  4.20041E+01  2.99576E+01  1.95761E+01  1.20018E+01  7.25558E+00  4.72918E+00
   3.65283E+00  3.31143E+00  3.23773E+00  3.27816E+00  3.37472E+00  3.48505E+00  3.56170E+00  3.56908E+00  3.50481E+00  3.39405E+00
   3.27273E+00  3.17238E+00  3.11293E+00  3.10302E+00  3.14302E+00  3.21906E+00  3.31200E+00  3.40933E+00  3.50729E+00  3.60633E+00
   3.70842E+00  3.81460E+00  3.92913E+00  4.05186E+00  4.17724E+00  4.29899E+00  4.41488E+00  4.52559E+00  4.63380E+00  4.74185E+00
   4.85171E+00  4.96372E+00  5.07626E+00  5.18486E+00  5.28499E+00  5.37295E+00  5.44719E+00  5.50774E+00  5.55650E+00  5.59587E+00
   5.62890E+00  5.65809E+00  5.68631E+00  5.71630E+00  5.75158E+00  5.79618E+00  5.85627E+00  5.94169E+00  6.07428E+00  6.28669E+00
   6.50768E+00  6.65170E+00  6.73625E+00  6.78169E+00  6.76211E+00  6.62828E+00  6.34933E+00  5.99434E+00  5.65243E+00  5.31298E+00
   5.01772E+00  4.89284E+00  5.04770E+00  5.49289E+00  6.15789E+00  6.94373E+00  7.74699E+00  8.45559E+00  8.96923E+00  9.25448E+00
   9.36190E+00  9.38083E+00  9.39417E+00  9.45272E+00  9.57586E+00  9.76178E+00  9.99566E+00  1.02603E+01  1.05451E+01  1.08417E+01
   1.11412E+01  1.14331E+01  1.17058E+01  1.19468E+01  1.21445E+01  1.22892E+01  1.23750E+01  1.24000E+01  1.23671E+01  1.22828E+01
   1.21564E+01  1.19984E+01  1.18189E+01  1.16265E+01  1.14284E+01  1.12291E+01  1.10318E+01  1.08384E+01  1.06502E+01  1.04682E+01
   1.02936E+01  1.01275E+01  9.97162E+00  9.82727E+00  9.69620E+00  9.57976E+00  9.47942E+00  9.39621E+00  9.33123E+00  9.28515E+00
   9.25873E+00  9.25229E+00  9.26625E+00  9.30057E+00  9.35534E+00  9.43013E+00  9.52453E+00  9.63753E+00  9.76804E+00  9.91426E+00
   1.00742E+01  1.02452E+01  1.04242E+01  1.06076E+01  1.07915E+01  1.09714E+01  1.11430E+01  1.13014E+01  1.14425E+01  1.15618E+01
   1.16557E+01  1.17211E+01  1.17558E+01  1.17583E+01  1.17282E+01  1.16662E+01  1.15737E+01  1.14530E+01  1.13075E+01  1.11406E+01
   1.09566E+01  1.07596E+01  1.05541E+01  1.03442E+01  1.01338E+01  9.92622E+00  9.72463E+00  9.53130E+00  9.34826E+00  9.17673E+00
   9.01768E+00  8.87138E+00  8.73798E+00  8.61705E+00  8.50821E+00  8.41062E+00  8.32359E+00  8.24609E+00  8.17734E+00  8.11631E+00
   8.06227E+00  8.01429E+00  7.97173E+00  7.93379E+00  7.89997E+00  7.86961E+00  7.84236E+00  7.81767E+00  7.79530E+00  7.77480E+00
   7.75601E+00  7.73858E+00  7.72244E+00  7.70727E+00  7.69304E+00  7.67949E+00  7.66664E+00  7.65426E+00  7.64239E+00  7.63082E+00
   7.61961E+00  7.60858E+00  7.59780E+00  7.58712E+00  7.57663E+00  7.56616E+00  7.55581E+00  7.54545E+00  7.53518E+00  7.52487E+00
   7.51462E+00  7.50429E+00  7.49400E+00  7.48362E+00  7.47328E+00  7.46284E+00  7.45243E+00  7.44191E+00  7.43142E+00  7.42083E+00
   7.41027E+00  7.39962E+00  7.38901E+00  7.37830E+00  7.36764E+00  7.35691E+00  7.34624E+00  7.33551E+00  7.32484E+00  7.31412E+00
   7.30349E+00  7.29284E+00  7.28229E+00  7.27173E+00  7.26130E+00  7.25088E+00  7.24062E+00  7.23042E+00  7.22039E+00  7.21045E+00
   7.20071E+00  7.19110E+00  7.18176E+00  7.17260E+00  7.16374E+00  7.15512E+00  7.14687E+00  7.13895E+00
 NY background values follow
    -4.806E+01   -4.776E+01   -4.746E+01   -4.716E+01   -4.685E+01   -4.655E+01   -4.625E+01   -4.595E+01   -4.564E+01   -4.534E+01
    -4.504E+01   -4.474E+01   -4.443E+01   -4.413E+01   -4.383E+01   -4.353E+01   -4.323E+01   -4.293E+01   -4.262E+01   -4.232E+01
    -4.202E+01   -4.172E+01   -4.142E+01   -4.112E+01   -4.082E+01   -4.052E+01   -4.023E+01   -3.993E+01   -3.963E+01   -3.933E+01
    -3.904E+01   -3.874E+01   -3.844E+01   -3.815E+01   -3.785E+01   -3.756E+01   -3.727E+01   -3.698E+01   -3.668E+01   -3.639E+01
    -3.610E+01   -3.581E+01   -3.552E+01   -3.524E+01   -3.495E+01   -3.466E+01   -3.438E+01   -3.409E+01   -3.381E+01   -3.353E+01
    -3.325E+01   -3.297E+01   -3.269E+01   -3.241E+01   -3.213E+01   -3.185E+01   -3.158E+01   -3.130E+01   -3.103E+01   -3.076E+01
    -3.049E+01   -3.022E+01   -2.995E+01   -2.968E+01   -2.942E+01   -2.915E+01   -2.889E+01   -2.863E+01   -2.837E+01   -2.811E+01
    -2.785E+01   -2.759E+01   -2.734E+01   -2.709E+01   -2.683E+01   -2.658E+01   -2.633E+01   -2.609E+01   -2.584E+01   -2.559E+01
    -2.535E+01   -2.511E+01   -2.487E+01   -2.463E+01   -2.440E+01   -2.416E+01   -2.393E+01   -2.370E+01   -2.347E+01   -2.324E+01
    -2.301E+01   -2.279E+01   -2.257E+01   -2.235E+01   -2.213E+01   -2.191E+01   -2.170E+01   -2.148E+01   -2.127E+01   -2.106E+01
    -2.085E+01   -2.065E+01   -2.044E+01   -2.024E+01   -2.004E+01   -1.984E+01   -1.964E+01   -1.945E+01   -1.925E+01   -1.906E+01
    -1.887E+01   -1.868E+01   -1.850E+01   -1.831E+01   -1.813E+01   -1.795E+01   -1.777E+01   -1.759E+01   -1.741E+01   -1.724E+01
    -1.707E+01   -1.690E+01   -1.673E+01   -1.656E+01   -1.639E+01   -1.623E+01   -1.607E+01   -1.591E+01   -1.575E+01   -1.559E+01
    -1.544E+01   -1.528E+01   -1.513E+01   -1.498E+01   -1.483E+01   -1.468E+01   -1.454E+01   -1.440E+01   -1.425E+01   -1.411E+01
    -1.398E+01   -1.384E+01   -1.370E+01   -1.357E+01   -1.344E+01   -1.330E+01   -1.317E+01   -1.305E+01   -1.292E+01   -1.279E+01
    -1.267E+01   -1.254E+01   -1.242E+01   -1.230E+01   -1.217E+01   -1.205E+01   -1.193E+01   -1.181E+01   -1.170E+01   -1.158E+01
    -1.146E+01   -1.135E+01   -1.123E+01   -1.112E+01   -1.100E+01   -1.089E+01   -1.077E+01   -1.066E+01   -1.055E+01   -1.043E+01
    -1.032E+01   -1.021E+01   -1.010E+01   -9.986E+00   -9.875E+00   -9.763E+00   -9.651E+00   -9.539E+00   -9.427E+00   -9.315E+00
    -9.203E+00   -9.090E+00   -8.977E+00   -8.864E+00   -8.751E+00   -8.638E+00   -8.524E+00   -8.410E+00   -8.296E+00   -8.181E+00
    -8.067E+00   -7.952E+00   -7.838E+00   -7.723E+00   -7.608E+00   -7.493E+00   -7.378E+00   -7.263E+00   -7.148E+00   -7.032E+00
    -6.917E+00   -6.802E+00   -6.687E+00   -6.571E+00   -6.456E+00   -6.341E+00   -6.226E+00   -6.111E+00   -5.996E+00   -5.881E+00
    -5.767E+00   -5.652E+00   -5.537E+00   -5.423E+00   -5.309E+00   -5.195E+00   -5.081E+00   -4.968E+00   -4.855E+00   -4.742E+00
    -4.629E+00   -4.516E+00   -4.404E+00   -4.292E+00   -4.180E+00   -4.069E+00   -3.958E+00   -3.847E+00   -3.737E+00   -3.627E+00
    -3.517E+00   -3.408E+00   -3.299E+00   -3.191E+00   -3.083E+00   -2.975E+00   -2.868E+00   -2.761E+00   -2.654E+00   -2.548E+00
    -2.442E+00   -2.337E+00   -2.233E+00   -2.128E+00   -2.024E+00   -1.921E+00   -1.818E+00   -1.716E+00   -1.614E+00   -1.512E+00
    -1.411E+00   -1.311E+00   -1.211E+00   -1.111E+00   -1.012E+00   -9.140E-01   -8.161E-01   -7.187E-01   -6.219E-01   -5.257E-01
    -4.300E-01   -3.349E-01   -2.403E-01   -1.464E-01   -5.297E-02    3.983E-02    1.320E-01    2.236E-01    3.146E-01    4.050E-01
     4.947E-01    5.838E-01    6.723E-01    7.601E-01    8.474E-01    9.339E-01    1.020E+00    1.105E+00    1.190E+00    1.274E+00
     1.358E+00    1.440E+00    1.523E+00    1.604E+00    1.686E+00    1.766E+00    1.846E+00    1.925E+00    2.004E+00    2.082E+00
     2.160E+00    2.237E+00    2.313E+00    2.389E+00    2.464E+00    2.539E+00    2.613E+00    2.687E+00    2.760E+00    2.833E+00
     2.905E+00    2.976E+00    3.047E+00    3.117E+00    3.187E+00    3.256E+00    3.325E+00    3.394E+00    3.461E+00    3.529E+00
     3.595E+00    3.662E+00    3.727E+00    3.793E+00    3.857E+00    3.922E+00    3.985E+00    4.049E+00    4.111E+00    4.174E+00
     4.236E+00    4.297E+00    4.358E+00    4.418E+00    4.478E+00    4.537E+00    4.596E+00    4.654E+00    4.712E+00    4.769E+00
     4.826E+00    4.882E+00    4.938E+00    4.993E+00    5.048E+00    5.102E+00    5.155E+00    5.208E+00    5.261E+00    5.313E+00
     5.364E+00    5.415E+00    5.465E+00    5.515E+00    5.564E+00    5.612E+00    5.660E+00    5.708E+00    5.755E+00    5.801E+00
     5.847E+00    5.892E+00    5.936E+00    5.980E+00    6.024E+00    6.066E+00    6.109E+00    6.150E+00    6.191E+00    6.232E+00
     6.271E+00    6.311E+00    6.349E+00    6.387E+00    6.424E+00    6.461E+00    6.497E+00    6.533E+00    6.568E+00    6.602E+00
     6.636E+00    6.669E+00    6.702E+00    6.734E+00    6.765E+00    6.796E+00    6.826E+00    6.856E+00    6.885E+00    6.914E+00
     6.942E+00    6.969E+00    6.996E+00    7.023E+00    7.049E+00    7.074E+00    7.099E+00    7.123E+00    7.147E+00    7.170E+00
     7.193E+00    7.215E+00    7.237E+00    7.258E+00    7.279E+00    7.299E+00    7.319E+00    7.338E+00    7.356E+00    7.375E+00
     7.392E+00    7.410E+00    7.426E+00    7.443E+00    7.458E+00    7.474E+00    7.488E+00    7.503E+00    7.517E+00    7.530E+00
     7.543E+00    7.556E+00    7.568E+00    7.580E+00    7.591E+00    7.602E+00    7.612E+00    7.622E+00    7.631E+00    7.640E+00
     7.649E+00    7.657E+00    7.665E+00    7.672E+00    7.679E+00    7.686E+00    7.692E+00    7.697E+00    7.703E+00    7.707E+00
     7.712E+00    7.716E+00    7.720E+00    7.723E+00    7.726E+00    7.728E+00    7.730E+00    7.732E+00    7.733E+00    7.734E+00
     7.735E+00    7.735E+00    7.735E+00    7.734E+00    7.733E+00    7.732E+00    7.730E+00    7.728E+00    7.726E+00    7.723E+00
     7.720E+00    7.717E+00    7.713E+00    7.709E+00    7.704E+00    7.700E+00    7.694E+00    7.689E+00    7.683E+00    7.677E+00
     7.671E+00    7.665E+00    7.658E+00    7.651E+00    7.643E+00    7.636E+00    7.628E+00    7.620E+00    7.612E+00    7.604E+00
     7.595E+00    7.586E+00    7.577E+00    7.568E+00    7.559E+00    7.550E+00    7.540E+00    7.530E+00    7.521E+00    7.511E+00
     7.501E+00    7.491E+00    7.480E+00    7.470E+00    7.460E+00    7.449E+00    7.439E+00    7.429E+00    7.418E+00    7.408E+00
     7.397E+00    7.387E+00    7.376E+00    7.366E+00    7.355E+00    7.345E+00    7.334E+00    7.324E+00
 Ala      Conc. = 1.79E+02
