 LCModel (Version 6.3-1L) Copyright: S.W. Provencher.          Ref.: Magn. Reson. Med. 30:672-679 (1993).                
 Slice#3 Row#8 Col#5  K_02_press_1_raw_act
 36 lines in following concentration table = NCONC+1
    Conc.  %SD /Cr+PCr  Metabolite                                         
  110.539  96% 5.2E-02 Ala                                                 
    0.000 999%   0.000 Asp                                                 
  723.003  29%   0.339 Cr                                                  
 1.41E+03  16%   0.661 PCr                                                 
    0.000 999%   0.000 GABA                                                
    0.000 999%   0.000 Glc                                                 
  507.648  43%   0.238 Gln                                                 
 1.83E+03  14%   0.856 Glu                                                 
  798.294   3%   0.374 GPC                                                 
    0.000 999%   0.000 PCh                                                 
  673.374  12%   0.316 GSH                                                 
 1.30E+03  21%   0.609 Ins                                                 
  120.657  95% 5.7E-02 Lac                                                 
 2.61E+03   5%   1.224 NAA                                                 
  798.602  15%   0.374 NAAG                                                
   49.963  61% 2.3E-02 Scyllo                                              
    0.000 999%   0.000 Tau                                                 
   70.503 181% 3.3E-02 -CrCH2                                              
  798.294   3%   0.374 GPC+PCh                                             
 3.41E+03   3%   1.598 NAA+NAAG                                            
 2.13E+03   3%   1.000 Cr+PCr                                              
 2.33E+03  15%   1.094 Glu+Gln                                             
 1.04E+03  39%   0.489 Lip13a                                              
    0.000 999%   0.000 Lip13b                                              
  255.912  72%   0.120 Lip09                                               
 1.13E+03  20%   0.530 MM09                                                
  156.189  78% 7.3E-02 Lip20                                               
 2.44E+03  16%   1.142 MM20                                                
  351.604  48%   0.165 MM12                                                
    0.000 999%   0.000 MM14                                                
    0.000 999%   0.000 MM17                                                
 1.04E+03  39%   0.489 Lip13a+Lip13b                                       
 1.39E+03  28%   0.653 MM14+Lip13a+Lip13b+MM12                             
 1.39E+03  16%   0.650 MM09+Lip09                                          
 2.59E+03  15%   1.215 MM20+Lip20                                          
   6 lines in following misc. output table
  FWHM = 0.046 ppm    S/N =  14                                            
  Data shift = 0.023 ppm                                                   
  Ph: -20 deg     -10.0 deg/ppm                                            
  alphaB,S = 1.2E+00,   5.3E+01                                            
   14 spline knots.   Ns = 6(1)                                            
  ( 8) 3 infls.   ( 7) 1 extrs.                                            
  498 points on ppm-axis = NY
      4.000000     3.992357     3.984714     3.977070     3.969427     3.961784     3.954141     3.946497     3.938854     3.931211
      3.923568     3.915925     3.908281     3.900638     3.892995     3.885352     3.877708     3.870065     3.862422     3.854779
      3.847136     3.839492     3.831849     3.824206     3.816563     3.808919     3.801276     3.793633     3.785990     3.778347
      3.770703     3.763060     3.755417     3.747774     3.740130     3.732487     3.724844     3.717201     3.709558     3.701914
      3.694271     3.686628     3.678985     3.671341     3.663698     3.656055     3.648412     3.640769     3.633125     3.625482
      3.617839     3.610196     3.602552     3.594909     3.587266     3.579623     3.571980     3.564336     3.556693     3.549050
      3.541407     3.533763     3.526120     3.518477     3.510834     3.503191     3.495547     3.487904     3.480261     3.472618
      3.464974     3.457331     3.449688     3.442045     3.434402     3.426758     3.419115     3.411472     3.403829     3.396185
      3.388542     3.380899     3.373256     3.365613     3.357969     3.350326     3.342683     3.335040     3.327396     3.319753
      3.312110     3.304467     3.296824     3.289180     3.281537     3.273894     3.266251     3.258607     3.250964     3.243321
      3.235678     3.228034     3.220391     3.212748     3.205105     3.197462     3.189818     3.182175     3.174532     3.166889
      3.159245     3.151602     3.143959     3.136316     3.128673     3.121029     3.113386     3.105743     3.098100     3.090456
      3.082813     3.075170     3.067527     3.059884     3.052240     3.044597     3.036954     3.029311     3.021667     3.014024
      3.006381     2.998738     2.991095     2.983451     2.975808     2.968165     2.960522     2.952878     2.945235     2.937592
      2.929949     2.922306     2.914662     2.907019     2.899376     2.891733     2.884089     2.876446     2.868803     2.861160
      2.853517     2.845873     2.838230     2.830587     2.822944     2.815300     2.807657     2.800014     2.792371     2.784728
      2.777084     2.769441     2.761798     2.754155     2.746511     2.738868     2.731225     2.723582     2.715939     2.708295
      2.700652     2.693009     2.685366     2.677722     2.670079     2.662436     2.654793     2.647150     2.639506     2.631863
      2.624220     2.616577     2.608933     2.601290     2.593647     2.586004     2.578361     2.570717     2.563074     2.555431
      2.547788     2.540144     2.532501     2.524858     2.517215     2.509572     2.501928     2.494285     2.486642     2.478999
      2.471355     2.463712     2.456069     2.448426     2.440783     2.433139     2.425496     2.417853     2.410210     2.402566
      2.394923     2.387280     2.379637     2.371994     2.364350     2.356707     2.349064     2.341421     2.333777     2.326134
      2.318491     2.310848     2.303205     2.295561     2.287918     2.280275     2.272632     2.264988     2.257345     2.249702
      2.242059     2.234416     2.226772     2.219129     2.211486     2.203843     2.196199     2.188556     2.180913     2.173270
      2.165627     2.157983     2.150340     2.142697     2.135054     2.127410     2.119767     2.112124     2.104481     2.096838
      2.089194     2.081551     2.073908     2.066265     2.058621     2.050978     2.043335     2.035692     2.028049     2.020405
      2.012762     2.005119     1.997476     1.989833     1.982190     1.974546     1.966903     1.959260     1.951617     1.943974
      1.936331     1.928688     1.921045     1.913402     1.905759     1.898115     1.890472     1.882829     1.875186     1.867543
      1.859900     1.852257     1.844614     1.836971     1.829327     1.821684     1.814041     1.806398     1.798755     1.791112
      1.783469     1.775826     1.768183     1.760540     1.752896     1.745253     1.737610     1.729967     1.722324     1.714681
      1.707038     1.699395     1.691752     1.684108     1.676465     1.668822     1.661179     1.653536     1.645893     1.638250
      1.630607     1.622964     1.615321     1.607677     1.600034     1.592391     1.584748     1.577105     1.569462     1.561819
      1.554176     1.546533     1.538890     1.531246     1.523603     1.515960     1.508317     1.500674     1.493031     1.485388
      1.477745     1.470102     1.462458     1.454815     1.447172     1.439529     1.431886     1.424243     1.416600     1.408957
      1.401314     1.393671     1.386027     1.378384     1.370741     1.363098     1.355455     1.347812     1.340169     1.332526
      1.324883     1.317240     1.309596     1.301953     1.294310     1.286667     1.279024     1.271381     1.263738     1.256095
      1.248452     1.240808     1.233165     1.225522     1.217879     1.210236     1.202593     1.194950     1.187307     1.179664
      1.172021     1.164377     1.156734     1.149091     1.141448     1.133805     1.126162     1.118519     1.110876     1.103233
      1.095590     1.087946     1.080303     1.072660     1.065017     1.057374     1.049731     1.042088     1.034445     1.026802
      1.019158     1.011515     1.003872     0.996229     0.988586     0.980943     0.973300     0.965657     0.958014     0.950371
      0.942727     0.935084     0.927441     0.919798     0.912155     0.904512     0.896869     0.889226     0.881583     0.873940
      0.866296     0.858653     0.851010     0.843367     0.835724     0.828081     0.820438     0.812795     0.805152     0.797508
      0.789865     0.782222     0.774579     0.766936     0.759293     0.751650     0.744007     0.736364     0.728721     0.721077
      0.713434     0.705791     0.698148     0.690505     0.682862     0.675219     0.667576     0.659933     0.652290     0.644646
      0.637003     0.629360     0.621717     0.614074     0.606431     0.598788     0.591145     0.583502     0.575858     0.568215
      0.560572     0.552929     0.545286     0.537643     0.530000     0.522357     0.514714     0.507071     0.499427     0.491784
      0.484141     0.476498     0.468855     0.461212     0.453569     0.445925     0.438282     0.430639     0.422996     0.415353
      0.407710     0.400067     0.392424     0.384780     0.377137     0.369494     0.361851     0.354208     0.346565     0.338922
      0.331278     0.323635     0.315992     0.308349     0.300706     0.293063     0.285420     0.277777     0.270133     0.262490
      0.254847     0.247204     0.239561     0.231918     0.224275     0.216631     0.208988     0.201345
 NY phased data points follow
  -1.99783E+01 -1.82423E+01 -2.05059E+01 -1.47094E+01 -5.16436E+00 -9.11193E-01  8.11085E+00  1.50653E+01  2.62233E+01  3.73955E+01
   3.98136E+01  3.94254E+01  2.16014E+01  1.60935E+01  6.15624E+00  3.80279E+00 -7.80737E+00 -1.21224E+01 -1.12404E+01 -1.26215E+01
  -1.01435E+01 -1.37749E+01 -8.41780E+00 -6.67045E+00 -7.43173E+00 -3.80970E+00 -3.18110E+00 -5.45233E+00 -2.19388E+00  9.94490E+00
   3.74031E+00  6.13579E+00  2.74267E+00  1.18762E+00 -9.71743E+00 -4.18219E+00 -1.52566E+00 -2.94307E+00  2.07539E+00 -1.50336E+00
  -3.59333E+00  7.29629E-01 -4.64813E+00 -2.87147E+00 -7.02352E-01  7.72586E+00  9.94779E+00  8.83403E+00  7.28138E+00  5.31923E+00
   2.35218E+00 -5.03417E+00 -8.34296E+00 -8.09879E+00 -3.56116E+00 -1.03271E+00 -1.89189E+00 -2.09364E+00 -4.48303E+00 -1.71828E+00
  -3.02147E+00 -8.47710E+00 -8.70506E+00 -1.14223E+01 -1.04054E+01 -7.98012E+00 -1.62411E+01 -1.01333E+01 -1.11029E+01 -1.19179E+01
  -1.24577E+01 -8.75543E+00 -6.21064E+00 -4.58900E+00 -7.27135E+00 -6.12484E+00 -4.92032E+00 -4.80419E+00 -3.32950E+00 -5.06741E+00
  -3.13786E+00 -8.10241E+00 -1.62551E+00 -4.84189E+00 -3.66376E+00 -4.70968E+00 -5.42773E+00 -3.88401E+00 -4.35566E+00 -3.24129E+00
  -6.52392E-01  2.50706E+00 -1.22047E+00  3.97273E+00  4.52336E+00  7.66906E+00  7.82786E+00  9.85736E+00  1.88222E+01  3.09570E+01
   4.49112E+01  6.18969E+01  7.78749E+01  7.80184E+01  6.79432E+01  5.40216E+01  4.40029E+01  2.78245E+01  1.92403E+01  9.57097E+00
   5.93467E+00  3.45419E+00  3.76828E+00  2.58502E+00  2.54249E+00  3.49282E+00 -3.40336E-01  5.33969E+00  6.03607E+00  5.80657E+00
   7.19304E+00  9.89110E+00  1.55273E+01  2.32963E+01  4.30874E+01  6.10125E+01  7.45043E+01  7.65425E+01  6.97574E+01  6.14142E+01
   4.96859E+01  3.38761E+01  2.86794E+01  2.15934E+01  6.92361E+00  7.38974E+00  3.36349E+00  4.27095E+00  3.11502E+00  3.23142E+00
  -2.74331E-01 -1.56566E+00  4.00129E+00  6.91018E+00  2.08975E+00  8.40606E+00  3.67285E+00  2.72112E+00 -3.13920E+00  6.40576E+00
   3.44893E+00  2.04411E+00  5.14871E+00  1.27114E+00 -4.11171E+00 -1.33018E+00 -1.02541E+00 -3.43537E+00  7.94046E-01  3.62192E+00
  -2.29218E+00 -5.37831E+00 -5.25434E+00  1.71143E+00 -3.31818E+00  4.56237E+00  3.53438E+00 -3.06920E+00 -3.60796E+00 -6.47600E+00
   1.00578E-01 -4.46130E+00 -8.92227E+00 -1.13328E+01 -1.17815E+01 -1.59633E+01 -8.13136E+00 -9.06842E+00 -7.60899E+00 -5.79627E+00
  -1.65516E+01 -1.22406E+01 -8.21136E+00 -1.45847E+01 -6.17760E+00 -8.49055E+00 -6.47670E+00 -3.28452E+00  2.07407E+00  9.59147E+00
   1.31372E+01  1.53588E+01  1.19172E+01  1.26534E+01  9.41293E+00  1.00730E+01  6.93891E+00  1.42200E+00  3.17747E+00  4.34975E+00
   4.10476E+00  8.83965E+00  9.02754E+00  6.77317E+00  4.88222E+00  5.49608E+00 -4.64644E-01  7.23560E+00 -1.73297E+00 -8.54971E-01
  -5.82972E-01  1.46850E+00  7.01034E+00  1.34529E+01  1.23485E+01  2.04122E+01  2.35215E+01  1.72284E+01  1.77790E+01  9.50412E+00
   1.01630E+00  2.72037E+00 -4.62991E+00  2.67818E+00  3.75006E+00  6.18963E+00  1.11595E+01  1.91409E+01  1.62455E+01  1.60154E+01
   1.51788E+01  1.66653E+01  1.68009E+01  8.02778E+00  1.70917E+01  1.26809E+01  1.53061E+01  1.24171E+01  1.20200E+01  1.26118E+01
   6.73830E+00  8.48785E+00  5.80420E-01  4.74726E+00  1.08553E+01  1.10173E+01  1.39124E+01  1.89357E+01  2.12789E+01  1.98544E+01
   2.35991E+01  2.30480E+01  3.11267E+01  4.48561E+01  6.13957E+01  6.40558E+01  6.31136E+01  8.15379E+01  9.89208E+01  1.30834E+02
   1.29257E+02  1.14822E+02  8.72598E+01  6.99708E+01  4.86166E+01  2.71195E+01  1.89517E+01  2.19739E+01  1.53516E+01  1.40877E+01
   1.31026E+01  1.50549E+01  1.97017E+01  1.47643E+01  1.77256E+01  1.34755E+01  1.19063E+01  1.24863E+01  9.99843E+00  1.22361E+01
   6.93140E+00  1.51915E+01  1.07193E+01  1.08482E+01  1.16002E+01  4.30644E+00  6.80151E+00  6.64377E+00  8.45813E+00  1.26219E+01
   9.84727E+00  1.31734E+01  1.15216E+01  1.35587E+01  7.32698E+00  1.57170E+01  1.03897E+01  9.70652E+00  6.28972E+00  5.56899E+00
   7.38435E+00  5.52091E+00  1.42982E+01  9.88382E+00  4.20168E+00  6.06377E+00  1.05337E+01  6.23322E+00  8.33870E+00  1.27456E+01
   9.38688E+00  3.58240E+00  7.92674E+00  4.57761E+00  7.53208E+00  1.04171E+01  4.29131E+00  4.63648E+00  7.51582E+00  4.65283E+00
   6.02485E+00  3.98864E+00  2.83697E+00  8.87941E+00  7.10059E+00  8.52118E+00  1.18412E+00  6.91273E+00  6.04251E+00  5.50503E+00
   6.02462E+00  7.46985E+00  1.95994E+00  5.81987E+00  8.68476E+00  1.22348E+01  6.62589E+00  1.15190E+01  1.19982E+01  1.47719E+01
   1.23103E+01  6.22141E+00  1.60841E+01  1.60434E+01  1.88689E+01  1.67602E+01  1.51049E+01  2.01475E+01  1.88507E+01  1.45645E+01
   1.38493E+01  1.47276E+01  1.41508E+01  1.34161E+01  1.18855E+01  1.84695E+01  1.24193E+01  1.53560E+01  1.34796E+01  1.58008E+01
   1.77948E+01  1.58033E+01  1.96817E+01  1.09913E+01  1.28237E+01  1.29032E+01  8.31177E+00  1.89321E+01  1.49645E+01  1.58636E+01
   1.71245E+01  1.85267E+01  1.95282E+01  1.69086E+01  1.48675E+01  1.39523E+01  1.62863E+01  2.04710E+01  1.57252E+01  1.35835E+01
   1.37580E+01  1.64859E+01  9.78513E+00  1.44419E+01  8.49368E+00  1.27812E+01  1.27146E+01  1.07096E+01  2.22227E+01  5.82804E+00
   1.29197E+01  1.71035E+01  1.58134E+01  2.07263E+01  2.00860E+01  1.86467E+01  2.15583E+01  2.31311E+01  2.05112E+01  1.76821E+01
   2.40177E+01  2.28568E+01  2.05466E+01  1.93210E+01  2.44189E+01  2.12120E+01  1.97407E+01  2.33297E+01  2.53032E+01  1.90604E+01
   2.50801E+01  2.21570E+01  2.05642E+01  2.32814E+01  2.23854E+01  1.96413E+01  1.95703E+01  1.68767E+01  1.65254E+01  1.32713E+01
   1.52420E+01  1.57788E+01  1.76265E+01  1.99360E+01  1.44171E+01  1.38236E+01  1.00161E+01  1.91077E+01  1.59837E+01  1.91165E+01
   2.02093E+01  1.52644E+01  1.91136E+01  2.28864E+01  1.84069E+01  1.59823E+01  1.55735E+01  1.34449E+01  1.46524E+01  8.77945E+00
   1.45069E+01  1.33796E+01  1.27201E+01  1.96075E+01  1.70645E+01  1.88268E+01  1.76079E+01  1.58970E+01  1.28854E+01  1.70171E+01
   1.12593E+01  1.57907E+01  1.79715E+01  1.69317E+01  1.81273E+01  1.65853E+01  1.63989E+01  1.61335E+01  1.46418E+01  1.85440E+01
   2.01268E+01  1.56515E+01  2.00657E+01  1.50147E+01  1.79224E+01  1.07911E+01  1.60734E+01  1.24636E+01  1.26138E+01  1.06129E+01
   1.28799E+01  1.33725E+01  1.74444E+01  1.87519E+01  1.57642E+01  1.73454E+01  1.88797E+01  1.04997E+01  1.73823E+01  1.35464E+01
   1.54647E+01  1.45581E+01  1.50233E+01  1.46911E+01  1.37826E+01  1.44289E+01  1.78805E+01  1.38386E+01  1.46413E+01  7.98494E+00
   1.75122E+01  1.22003E+01  1.17294E+01  1.47180E+01  1.50727E+01  1.56843E+01  1.49522E+01  1.93869E+01
 NY points of the fit to the data follow
  -1.53578E+01 -1.49698E+01 -1.39957E+01 -1.18353E+01 -7.08534E+00 -1.41696E+00  5.17988E+00  1.53577E+01  2.81180E+01  3.79489E+01
   3.97189E+01  3.39475E+01  2.49012E+01  1.58389E+01  7.73025E+00  1.25332E+00 -3.17639E+00 -6.33559E+00 -8.25533E+00 -8.98620E+00
  -9.33762E+00 -9.62853E+00 -1.01910E+01 -1.04506E+01 -9.50680E+00 -8.60559E+00 -7.22512E+00 -3.86058E+00  1.30882E+00  5.95507E+00
   7.85049E+00  7.53010E+00  6.11631E+00  3.70156E+00  3.57080E-01 -2.98265E+00 -5.56257E+00 -7.39662E+00 -8.32283E+00 -8.38620E+00
  -7.45032E+00 -5.73805E+00 -4.03335E+00 -2.41299E+00 -2.16842E-01  2.57748E+00  4.75728E+00  4.99200E+00  3.41479E+00  1.06553E+00
  -1.38632E+00 -3.64407E+00 -5.37174E+00 -6.27195E+00 -6.54576E+00 -6.39331E+00 -5.80999E+00 -4.90834E+00 -3.88608E+00 -3.20606E+00
  -3.20902E+00 -3.83471E+00 -4.84021E+00 -5.85516E+00 -6.57721E+00 -6.76808E+00 -6.45751E+00 -5.90815E+00 -5.22934E+00 -4.47383E+00
  -3.73072E+00 -3.25121E+00 -3.16187E+00 -3.33966E+00 -3.59716E+00 -3.81619E+00 -3.98790E+00 -4.06825E+00 -4.06406E+00 -3.99397E+00
  -3.78099E+00 -3.55702E+00 -3.42843E+00 -3.17784E+00 -2.85231E+00 -2.84592E+00 -3.39681E+00 -4.19559E+00 -4.69724E+00 -4.70029E+00
  -4.24641E+00 -3.53052E+00 -2.64673E+00 -1.69587E+00 -7.37781E-01  4.13343E-01  3.01486E+00  9.51070E+00  1.70159E+01  2.69348E+01
   4.37354E+01  6.45774E+01  7.94990E+01  8.06206E+01  7.00306E+01  5.49813E+01  4.00366E+01  2.63626E+01  1.54746E+01  8.21355E+00
   3.27322E+00  7.72770E-01  6.83024E-02 -9.84530E-02 -8.91908E-02  3.16522E-02  2.28304E-01  4.81278E-01  8.64700E-01  1.67317E+00
   3.99823E+00  9.22529E+00  1.68986E+01  2.60926E+01  4.01170E+01  5.86925E+01  7.46775E+01  8.00748E+01  7.36228E+01  6.06775E+01
   4.68605E+01  3.43021E+01  2.33843E+01  1.46095E+01  7.73134E+00  2.80190E+00  4.78631E-01 -1.14364E-01  4.60730E-01  1.80960E+00
   3.26877E+00  4.25974E+00  4.65040E+00  4.53271E+00  4.08953E+00  3.55071E+00  3.01934E+00  2.56028E+00  2.13529E+00  1.72802E+00
   1.37301E+00  1.00010E+00  6.59070E-01  4.76471E-01  5.25825E-01  6.50094E-01  8.83233E-01  9.13284E-01  4.26448E-01 -3.86517E-01
  -1.22648E+00 -1.39941E+00 -8.24436E-01 -1.53514E-01 -1.93699E-02 -4.91506E-01 -1.31986E+00 -2.12515E+00 -2.66501E+00 -3.02419E+00
  -3.24178E+00 -3.39072E+00 -3.67818E+00 -4.36412E+00 -5.15598E+00 -5.55721E+00 -5.07586E+00 -4.15640E+00 -3.72116E+00 -3.97418E+00
  -4.26608E+00 -4.14593E+00 -3.51058E+00 -2.86865E+00 -2.54480E+00 -2.02744E+00 -6.20429E-01  1.64906E+00  4.36094E+00  6.83860E+00
   8.42981E+00  8.81790E+00  7.87894E+00  6.50991E+00  5.13725E+00  3.76266E+00  2.71080E+00  2.66823E+00  3.89158E+00  5.62313E+00
   7.44648E+00  9.21583E+00  1.06645E+01  1.13547E+01  1.07009E+01  9.07321E+00  6.53441E+00  3.43389E+00  9.08237E-01 -3.62462E-01
  -1.67372E-01  1.16501E+00  3.44078E+00  7.26313E+00  1.18938E+01  1.53478E+01  1.58143E+01  1.34215E+01  9.61777E+00  5.34367E+00
   7.39151E-01 -3.12142E+00 -4.29724E+00 -2.31508E+00  1.53377E+00  5.61641E+00  8.97750E+00  1.15084E+01  1.27839E+01  1.26228E+01
   1.18157E+01  1.14171E+01  1.17346E+01  1.25076E+01  1.36487E+01  1.49575E+01  1.58876E+01  1.57081E+01  1.43631E+01  1.24204E+01
   1.03994E+01  8.77209E+00  8.36738E+00  9.59208E+00  1.18251E+01  1.41122E+01  1.59448E+01  1.72589E+01  1.82363E+01  1.99347E+01
   2.23394E+01  2.50509E+01  3.04662E+01  3.96341E+01  5.40278E+01  6.59847E+01  7.21152E+01  8.44495E+01  1.05906E+02  1.24711E+02
   1.26653E+02  1.11927E+02  9.07281E+01  7.03768E+01  5.21177E+01  3.67395E+01  2.64292E+01  1.92154E+01  1.47154E+01  1.32664E+01
   1.25688E+01  1.21629E+01  1.19936E+01  1.19504E+01  1.17799E+01  1.14267E+01  1.10366E+01  1.07024E+01  1.03592E+01  1.00341E+01
   9.80146E+00  9.67273E+00  9.58484E+00  9.47952E+00  9.32773E+00  9.15877E+00  8.97396E+00  8.76637E+00  8.58824E+00  8.48621E+00
   8.46501E+00  8.49230E+00  8.50687E+00  8.49341E+00  8.46242E+00  8.39324E+00  8.28442E+00  8.17046E+00  8.08476E+00  8.04241E+00
   8.03590E+00  8.04948E+00  8.07595E+00  8.10803E+00  8.13565E+00  8.15864E+00  8.17801E+00  8.19239E+00  8.20784E+00  8.22723E+00
   8.25094E+00  8.27780E+00  8.30754E+00  8.34158E+00  8.38208E+00  8.43056E+00  8.48777E+00  8.55552E+00  8.63802E+00  8.74396E+00
   8.89348E+00  9.11762E+00  9.32186E+00  9.49982E+00  9.75184E+00  9.94137E+00  9.82990E+00  9.34273E+00  8.68388E+00  8.18822E+00
   7.96070E+00  7.85757E+00  8.00332E+00  8.56597E+00  9.45209E+00  1.03768E+01  1.10904E+01  1.15500E+01  1.18677E+01  1.21116E+01
   1.23302E+01  1.26360E+01  1.29881E+01  1.33015E+01  1.37506E+01  1.42235E+01  1.44315E+01  1.42007E+01  1.36879E+01  1.32948E+01
   1.31521E+01  1.31377E+01  1.33853E+01  1.40618E+01  1.50238E+01  1.59223E+01  1.65329E+01  1.68242E+01  1.69074E+01  1.68415E+01
   1.66668E+01  1.64619E+01  1.62396E+01  1.60085E+01  1.58048E+01  1.56115E+01  1.54193E+01  1.52267E+01  1.50352E+01  1.48481E+01
   1.46685E+01  1.44997E+01  1.43439E+01  1.42037E+01  1.40819E+01  1.39812E+01  1.39041E+01  1.38521E+01  1.38268E+01  1.38298E+01
   1.38633E+01  1.39296E+01  1.40303E+01  1.41668E+01  1.43405E+01  1.45532E+01  1.48066E+01  1.51019E+01  1.54392E+01  1.58179E+01
   1.62364E+01  1.66928E+01  1.71835E+01  1.77037E+01  1.82461E+01  1.88023E+01  1.93629E+01  1.99174E+01  2.04545E+01  2.09618E+01
   2.14269E+01  2.18379E+01  2.21846E+01  2.24583E+01  2.26521E+01  2.27613E+01  2.27833E+01  2.27192E+01  2.25727E+01  2.23499E+01
   2.20587E+01  2.17085E+01  2.13099E+01  2.08747E+01  2.04148E+01  1.99417E+01  1.94655E+01  1.89953E+01  1.85391E+01  1.81037E+01
   1.76944E+01  1.73146E+01  1.69662E+01  1.66501E+01  1.63662E+01  1.61141E+01  1.58924E+01  1.56990E+01  1.55314E+01  1.53873E+01
   1.52644E+01  1.51608E+01  1.50742E+01  1.50025E+01  1.49434E+01  1.48955E+01  1.48574E+01  1.48281E+01  1.48063E+01  1.47907E+01
   1.47803E+01  1.47746E+01  1.47732E+01  1.47757E+01  1.47811E+01  1.47889E+01  1.47988E+01  1.48108E+01  1.48246E+01  1.48400E+01
   1.48565E+01  1.48738E+01  1.48918E+01  1.49108E+01  1.49305E+01  1.49509E+01  1.49714E+01  1.49922E+01  1.50132E+01  1.50347E+01
   1.50566E+01  1.50786E+01  1.51005E+01  1.51224E+01  1.51444E+01  1.51669E+01  1.51893E+01  1.52117E+01  1.52338E+01  1.52560E+01
   1.52783E+01  1.53009E+01  1.53233E+01  1.53456E+01  1.53677E+01  1.53899E+01  1.54123E+01  1.54349E+01  1.54573E+01  1.54795E+01
   1.55016E+01  1.55241E+01  1.55467E+01  1.55693E+01  1.55918E+01  1.56143E+01  1.56368E+01  1.56597E+01  1.56828E+01  1.57059E+01
   1.57289E+01  1.57520E+01  1.57754E+01  1.57992E+01  1.58232E+01  1.58472E+01  1.58713E+01  1.58957E+01
 NY background values follow
    -2.038E+01   -2.019E+01   -2.001E+01   -1.982E+01   -1.964E+01   -1.946E+01   -1.927E+01   -1.909E+01   -1.891E+01   -1.873E+01
    -1.854E+01   -1.836E+01   -1.818E+01   -1.800E+01   -1.781E+01   -1.763E+01   -1.745E+01   -1.727E+01   -1.709E+01   -1.691E+01
    -1.673E+01   -1.655E+01   -1.637E+01   -1.619E+01   -1.601E+01   -1.583E+01   -1.565E+01   -1.547E+01   -1.529E+01   -1.512E+01
    -1.494E+01   -1.476E+01   -1.458E+01   -1.441E+01   -1.423E+01   -1.406E+01   -1.388E+01   -1.371E+01   -1.354E+01   -1.336E+01
    -1.319E+01   -1.302E+01   -1.285E+01   -1.267E+01   -1.250E+01   -1.233E+01   -1.216E+01   -1.199E+01   -1.183E+01   -1.166E+01
    -1.149E+01   -1.132E+01   -1.116E+01   -1.099E+01   -1.083E+01   -1.066E+01   -1.050E+01   -1.034E+01   -1.018E+01   -1.002E+01
    -9.856E+00   -9.697E+00   -9.538E+00   -9.381E+00   -9.224E+00   -9.068E+00   -8.913E+00   -8.759E+00   -8.605E+00   -8.453E+00
    -8.301E+00   -8.151E+00   -8.001E+00   -7.853E+00   -7.705E+00   -7.559E+00   -7.413E+00   -7.269E+00   -7.125E+00   -6.983E+00
    -6.842E+00   -6.702E+00   -6.563E+00   -6.425E+00   -6.288E+00   -6.153E+00   -6.018E+00   -5.885E+00   -5.753E+00   -5.622E+00
    -5.493E+00   -5.365E+00   -5.238E+00   -5.112E+00   -4.988E+00   -4.865E+00   -4.743E+00   -4.622E+00   -4.503E+00   -4.385E+00
    -4.269E+00   -4.153E+00   -4.039E+00   -3.926E+00   -3.815E+00   -3.704E+00   -3.595E+00   -3.488E+00   -3.381E+00   -3.276E+00
    -3.172E+00   -3.069E+00   -2.968E+00   -2.868E+00   -2.769E+00   -2.672E+00   -2.576E+00   -2.481E+00   -2.387E+00   -2.295E+00
    -2.204E+00   -2.115E+00   -2.026E+00   -1.939E+00   -1.853E+00   -1.769E+00   -1.686E+00   -1.604E+00   -1.523E+00   -1.444E+00
    -1.366E+00   -1.289E+00   -1.214E+00   -1.140E+00   -1.067E+00   -9.955E-01   -9.254E-01   -8.565E-01   -7.889E-01   -7.224E-01
    -6.572E-01   -5.930E-01   -5.299E-01   -4.679E-01   -4.068E-01   -3.466E-01   -2.874E-01   -2.290E-01   -1.714E-01   -1.146E-01
    -5.848E-02   -3.055E-03    5.174E-02    1.059E-01    1.596E-01    2.128E-01    2.655E-01    3.178E-01    3.697E-01    4.213E-01
     4.726E-01    5.236E-01    5.745E-01    6.252E-01    6.758E-01    7.264E-01    7.769E-01    8.274E-01    8.780E-01    9.288E-01
     9.796E-01    1.031E+00    1.082E+00    1.134E+00    1.186E+00    1.238E+00    1.291E+00    1.344E+00    1.397E+00    1.452E+00
     1.506E+00    1.562E+00    1.618E+00    1.675E+00    1.732E+00    1.790E+00    1.848E+00    1.907E+00    1.966E+00    2.026E+00
     2.086E+00    2.147E+00    2.207E+00    2.268E+00    2.330E+00    2.391E+00    2.453E+00    2.515E+00    2.577E+00    2.639E+00
     2.701E+00    2.763E+00    2.825E+00    2.887E+00    2.949E+00    3.011E+00    3.073E+00    3.134E+00    3.195E+00    3.256E+00
     3.317E+00    3.378E+00    3.438E+00    3.497E+00    3.556E+00    3.615E+00    3.673E+00    3.731E+00    3.788E+00    3.845E+00
     3.901E+00    3.956E+00    4.011E+00    4.064E+00    4.117E+00    4.170E+00    4.221E+00    4.272E+00    4.321E+00    4.370E+00
     4.418E+00    4.466E+00    4.512E+00    4.558E+00    4.602E+00    4.647E+00    4.690E+00    4.732E+00    4.774E+00    4.815E+00
     4.855E+00    4.895E+00    4.934E+00    4.972E+00    5.010E+00    5.046E+00    5.083E+00    5.118E+00    5.153E+00    5.187E+00
     5.221E+00    5.254E+00    5.286E+00    5.318E+00    5.349E+00    5.380E+00    5.410E+00    5.440E+00    5.469E+00    5.497E+00
     5.525E+00    5.553E+00    5.580E+00    5.606E+00    5.632E+00    5.658E+00    5.683E+00    5.708E+00    5.732E+00    5.756E+00
     5.779E+00    5.802E+00    5.825E+00    5.847E+00    5.869E+00    5.891E+00    5.912E+00    5.933E+00    5.954E+00    5.974E+00
     5.995E+00    6.015E+00    6.035E+00    6.055E+00    6.075E+00    6.095E+00    6.115E+00    6.135E+00    6.154E+00    6.174E+00
     6.194E+00    6.214E+00    6.234E+00    6.255E+00    6.275E+00    6.296E+00    6.317E+00    6.338E+00    6.359E+00    6.381E+00
     6.402E+00    6.425E+00    6.447E+00    6.470E+00    6.494E+00    6.518E+00    6.542E+00    6.567E+00    6.592E+00    6.618E+00
     6.645E+00    6.672E+00    6.699E+00    6.728E+00    6.757E+00    6.786E+00    6.817E+00    6.848E+00    6.880E+00    6.913E+00
     6.946E+00    6.980E+00    7.015E+00    7.050E+00    7.086E+00    7.123E+00    7.161E+00    7.199E+00    7.238E+00    7.278E+00
     7.318E+00    7.359E+00    7.400E+00    7.442E+00    7.485E+00    7.528E+00    7.572E+00    7.617E+00    7.662E+00    7.708E+00
     7.754E+00    7.801E+00    7.848E+00    7.896E+00    7.944E+00    7.993E+00    8.043E+00    8.093E+00    8.144E+00    8.195E+00
     8.246E+00    8.298E+00    8.351E+00    8.404E+00    8.457E+00    8.511E+00    8.565E+00    8.620E+00    8.675E+00    8.731E+00
     8.787E+00    8.843E+00    8.900E+00    8.957E+00    9.015E+00    9.073E+00    9.131E+00    9.190E+00    9.249E+00    9.308E+00
     9.368E+00    9.428E+00    9.488E+00    9.548E+00    9.609E+00    9.670E+00    9.731E+00    9.792E+00    9.853E+00    9.915E+00
     9.977E+00    1.004E+01    1.010E+01    1.016E+01    1.023E+01    1.029E+01    1.035E+01    1.041E+01    1.048E+01    1.054E+01
     1.060E+01    1.067E+01    1.073E+01    1.079E+01    1.085E+01    1.092E+01    1.098E+01    1.104E+01    1.111E+01    1.117E+01
     1.123E+01    1.129E+01    1.136E+01    1.142E+01    1.148E+01    1.154E+01    1.160E+01    1.167E+01    1.173E+01    1.179E+01
     1.185E+01    1.191E+01    1.197E+01    1.203E+01    1.209E+01    1.215E+01    1.221E+01    1.227E+01    1.233E+01    1.239E+01
     1.245E+01    1.250E+01    1.256E+01    1.262E+01    1.268E+01    1.273E+01    1.279E+01    1.285E+01    1.290E+01    1.296E+01
     1.301E+01    1.306E+01    1.312E+01    1.317E+01    1.322E+01    1.328E+01    1.333E+01    1.338E+01    1.343E+01    1.348E+01
     1.353E+01    1.358E+01    1.363E+01    1.367E+01    1.372E+01    1.377E+01    1.381E+01    1.386E+01    1.390E+01    1.395E+01
     1.399E+01    1.403E+01    1.407E+01    1.411E+01    1.416E+01    1.420E+01    1.423E+01    1.427E+01    1.431E+01    1.435E+01
     1.438E+01    1.442E+01    1.446E+01    1.449E+01    1.453E+01    1.456E+01    1.459E+01    1.463E+01    1.466E+01    1.469E+01
     1.472E+01    1.476E+01    1.479E+01    1.482E+01    1.485E+01    1.488E+01    1.491E+01    1.494E+01    1.497E+01    1.500E+01
     1.503E+01    1.506E+01    1.509E+01    1.511E+01    1.514E+01    1.517E+01    1.520E+01    1.523E+01    1.526E+01    1.528E+01
     1.531E+01    1.534E+01    1.537E+01    1.540E+01    1.543E+01    1.546E+01    1.548E+01    1.551E+01
 Ala      Conc. = 1.11E+02
