 LCModel (Version 6.3-1L) Copyright: S.W. Provencher.          Ref.: Magn. Reson. Med. 30:672-679 (1993).                
 Slice#3 Row#9 Col#7  K_02_press_1_raw_act
 36 lines in following concentration table = NCONC+1
    Conc.  %SD /Cr+PCr  Metabolite                                         
    0.000 999%   0.000 Ala                                                 
    0.000 999%   0.000 Asp                                                 
 1.11E+03  22%   0.526 Cr                                                  
  999.527  25%   0.474 PCr                                                 
    0.000 999%   0.000 GABA                                                
    0.000 999%   0.000 Glc                                                 
 1.09E+03  24%   0.520 Gln                                                 
 1.96E+03  15%   0.930 Glu                                                 
  529.434   4%   0.251 GPC                                                 
    0.000 999%   0.000 PCh                                                 
  747.411  11%   0.355 GSH                                                 
 1.26E+03  20%   0.597 Ins                                                 
   40.787 315% 1.9E-02 Lac                                                 
 2.38E+03   5%   1.128 NAA                                                 
  212.828  61%   0.101 NAAG                                                
    0.000 999%   0.000 Scyllo                                              
    0.000 999%   0.000 Tau                                                 
    0.000 999%   0.000 -CrCH2                                              
  529.434   4%   0.251 GPC+PCh                                             
 2.59E+03   3%   1.229 NAA+NAAG                                            
 2.11E+03   3%   1.000 Cr+PCr                                              
 3.05E+03  14%   1.449 Glu+Gln                                             
    0.000 999%   0.000 Lip13a                                              
    0.440 999% 2.1E-04 Lip13b                                              
    0.000 999%   0.000 Lip09                                               
 1.20E+03  16%   0.571 MM09                                                
    0.155 999% 7.4E-05 Lip20                                               
 2.83E+03  12%   1.345 MM20                                                
  328.721  32%   0.156 MM12                                                
  453.133  56%   0.215 MM14                                                
  631.729  29%   0.300 MM17                                                
    0.440 999% 2.1E-04 Lip13a+Lip13b                                       
  782.294  38%   0.371 MM14+Lip13a+Lip13b+MM12                             
 1.20E+03  16%   0.571 MM09+Lip09                                          
 2.83E+03  12%   1.346 MM20+Lip20                                          
   6 lines in following misc. output table
  FWHM = 0.054 ppm    S/N =  12                                            
  Data shift = 0.023 ppm                                                   
  Ph:  -5 deg      -8.1 deg/ppm                                            
  alphaB,S = 1.6E+00,   1.0E+02                                            
   14 spline knots.   Ns = 7(1)                                            
  (11) 4 infls.   (11) 1 extrs.                                            
  498 points on ppm-axis = NY
      4.000000     3.992357     3.984714     3.977070     3.969427     3.961784     3.954141     3.946497     3.938854     3.931211
      3.923568     3.915925     3.908281     3.900638     3.892995     3.885352     3.877708     3.870065     3.862422     3.854779
      3.847136     3.839492     3.831849     3.824206     3.816563     3.808919     3.801276     3.793633     3.785990     3.778347
      3.770703     3.763060     3.755417     3.747774     3.740130     3.732487     3.724844     3.717201     3.709558     3.701914
      3.694271     3.686628     3.678985     3.671341     3.663698     3.656055     3.648412     3.640769     3.633125     3.625482
      3.617839     3.610196     3.602552     3.594909     3.587266     3.579623     3.571980     3.564336     3.556693     3.549050
      3.541407     3.533763     3.526120     3.518477     3.510834     3.503191     3.495547     3.487904     3.480261     3.472618
      3.464974     3.457331     3.449688     3.442045     3.434402     3.426758     3.419115     3.411472     3.403829     3.396185
      3.388542     3.380899     3.373256     3.365613     3.357969     3.350326     3.342683     3.335040     3.327396     3.319753
      3.312110     3.304467     3.296824     3.289180     3.281537     3.273894     3.266251     3.258607     3.250964     3.243321
      3.235678     3.228034     3.220391     3.212748     3.205105     3.197462     3.189818     3.182175     3.174532     3.166889
      3.159245     3.151602     3.143959     3.136316     3.128673     3.121029     3.113386     3.105743     3.098100     3.090456
      3.082813     3.075170     3.067527     3.059884     3.052240     3.044597     3.036954     3.029311     3.021667     3.014024
      3.006381     2.998738     2.991095     2.983451     2.975808     2.968165     2.960522     2.952878     2.945235     2.937592
      2.929949     2.922306     2.914662     2.907019     2.899376     2.891733     2.884089     2.876446     2.868803     2.861160
      2.853517     2.845873     2.838230     2.830587     2.822944     2.815300     2.807657     2.800014     2.792371     2.784728
      2.777084     2.769441     2.761798     2.754155     2.746511     2.738868     2.731225     2.723582     2.715939     2.708295
      2.700652     2.693009     2.685366     2.677722     2.670079     2.662436     2.654793     2.647150     2.639506     2.631863
      2.624220     2.616577     2.608933     2.601290     2.593647     2.586004     2.578361     2.570717     2.563074     2.555431
      2.547788     2.540144     2.532501     2.524858     2.517215     2.509572     2.501928     2.494285     2.486642     2.478999
      2.471355     2.463712     2.456069     2.448426     2.440783     2.433139     2.425496     2.417853     2.410210     2.402566
      2.394923     2.387280     2.379637     2.371994     2.364350     2.356707     2.349064     2.341421     2.333777     2.326134
      2.318491     2.310848     2.303205     2.295561     2.287918     2.280275     2.272632     2.264988     2.257345     2.249702
      2.242059     2.234416     2.226772     2.219129     2.211486     2.203843     2.196199     2.188556     2.180913     2.173270
      2.165627     2.157983     2.150340     2.142697     2.135054     2.127410     2.119767     2.112124     2.104481     2.096838
      2.089194     2.081551     2.073908     2.066265     2.058621     2.050978     2.043335     2.035692     2.028049     2.020405
      2.012762     2.005119     1.997476     1.989833     1.982190     1.974546     1.966903     1.959260     1.951617     1.943974
      1.936331     1.928688     1.921045     1.913402     1.905759     1.898115     1.890472     1.882829     1.875186     1.867543
      1.859900     1.852257     1.844614     1.836971     1.829327     1.821684     1.814041     1.806398     1.798755     1.791112
      1.783469     1.775826     1.768183     1.760540     1.752896     1.745253     1.737610     1.729967     1.722324     1.714681
      1.707038     1.699395     1.691752     1.684108     1.676465     1.668822     1.661179     1.653536     1.645893     1.638250
      1.630607     1.622964     1.615321     1.607677     1.600034     1.592391     1.584748     1.577105     1.569462     1.561819
      1.554176     1.546533     1.538890     1.531246     1.523603     1.515960     1.508317     1.500674     1.493031     1.485388
      1.477745     1.470102     1.462458     1.454815     1.447172     1.439529     1.431886     1.424243     1.416600     1.408957
      1.401314     1.393671     1.386027     1.378384     1.370741     1.363098     1.355455     1.347812     1.340169     1.332526
      1.324883     1.317240     1.309596     1.301953     1.294310     1.286667     1.279024     1.271381     1.263738     1.256095
      1.248452     1.240808     1.233165     1.225522     1.217879     1.210236     1.202593     1.194950     1.187307     1.179664
      1.172021     1.164377     1.156734     1.149091     1.141448     1.133805     1.126162     1.118519     1.110876     1.103233
      1.095590     1.087946     1.080303     1.072660     1.065017     1.057374     1.049731     1.042088     1.034445     1.026802
      1.019158     1.011515     1.003872     0.996229     0.988586     0.980943     0.973300     0.965657     0.958014     0.950371
      0.942727     0.935084     0.927441     0.919798     0.912155     0.904512     0.896869     0.889226     0.881583     0.873940
      0.866296     0.858653     0.851010     0.843367     0.835724     0.828081     0.820438     0.812795     0.805152     0.797508
      0.789865     0.782222     0.774579     0.766936     0.759293     0.751650     0.744007     0.736364     0.728721     0.721077
      0.713434     0.705791     0.698148     0.690505     0.682862     0.675219     0.667576     0.659933     0.652290     0.644646
      0.637003     0.629360     0.621717     0.614074     0.606431     0.598788     0.591145     0.583502     0.575858     0.568215
      0.560572     0.552929     0.545286     0.537643     0.530000     0.522357     0.514714     0.507071     0.499427     0.491784
      0.484141     0.476498     0.468855     0.461212     0.453569     0.445925     0.438282     0.430639     0.422996     0.415353
      0.407710     0.400067     0.392424     0.384780     0.377137     0.369494     0.361851     0.354208     0.346565     0.338922
      0.331278     0.323635     0.315992     0.308349     0.300706     0.293063     0.285420     0.277777     0.270133     0.262490
      0.254847     0.247204     0.239561     0.231918     0.224275     0.216631     0.208988     0.201345
 NY phased data points follow
   3.06489E+01  3.02099E+01  3.18919E+01  3.21480E+01  4.06560E+01  4.39207E+01  5.04830E+01  5.82058E+01  6.87177E+01  7.65998E+01
   8.16948E+01  8.11114E+01  7.43297E+01  7.39247E+01  6.79823E+01  5.73560E+01  5.23386E+01  4.46338E+01  4.03144E+01  3.55364E+01
   3.08703E+01  2.96449E+01  3.56973E+01  3.93733E+01  3.16106E+01  3.30784E+01  3.95424E+01  4.08148E+01  4.63137E+01  4.62270E+01
   4.62266E+01  4.59343E+01  5.00215E+01  4.63396E+01  4.52019E+01  3.70844E+01  3.69814E+01  3.60915E+01  3.44779E+01  3.42118E+01
   3.49793E+01  3.26185E+01  3.29498E+01  3.43127E+01  3.37769E+01  4.13189E+01  3.88013E+01  4.49200E+01  4.19734E+01  4.04424E+01
   3.59678E+01  3.32976E+01  3.00937E+01  2.81533E+01  2.85267E+01  3.16192E+01  2.60958E+01  2.70779E+01  2.96932E+01  3.01478E+01
   2.73940E+01  2.51135E+01  2.52475E+01  2.02664E+01  2.01886E+01  2.06474E+01  2.08292E+01  2.12352E+01  1.56927E+01  2.23599E+01
   1.32518E+01  2.50361E+01  1.75922E+01  2.37229E+01  2.40057E+01  2.02697E+01  1.98993E+01  2.10994E+01  1.99448E+01  2.05471E+01
   2.10810E+01  2.61450E+01  1.63603E+01  1.70691E+01  1.24384E+01  1.92006E+01  1.42608E+01  1.61321E+01  1.54667E+01  1.84584E+01
   1.90224E+01  1.85802E+01  1.63642E+01  1.86175E+01  2.24736E+01  1.99272E+01  2.05538E+01  2.20248E+01  2.43162E+01  3.41708E+01
   4.32004E+01  5.68236E+01  6.11283E+01  6.65150E+01  6.15962E+01  5.99370E+01  5.37617E+01  4.20779E+01  3.72484E+01  3.49125E+01
   2.87485E+01  3.21134E+01  2.31783E+01  2.68154E+01  1.91538E+01  2.11373E+01  2.50209E+01  1.96542E+01  2.81246E+01  2.60672E+01
   1.99910E+01  2.12282E+01  3.29220E+01  3.86894E+01  4.74363E+01  7.16234E+01  7.82844E+01  8.46375E+01  8.00686E+01  7.40967E+01
   7.18112E+01  5.27488E+01  4.60518E+01  3.96767E+01  3.23210E+01  2.79767E+01  2.73221E+01  2.56296E+01  2.07664E+01  2.34042E+01
   1.73063E+01  2.09686E+01  2.25782E+01  1.62172E+01  1.96065E+01  1.67282E+01  1.75134E+01  1.50667E+01  1.27058E+01  1.63927E+01
   1.51764E+01  1.74977E+01  1.31758E+01  1.43270E+01  1.38274E+01  1.25121E+01  1.41954E+01  1.77345E+01  1.65195E+01  1.27590E+01
   9.40406E+00  1.17222E+01  1.10613E+01  9.98879E+00  1.45975E+01  1.54328E+01  1.63691E+01  1.67560E+01  1.31896E+01  8.10799E+00
   1.34114E+01  1.05639E+01  8.91144E+00 -1.70148E-01  3.11449E+00 -2.63067E+00  4.93555E+00  1.43072E+00  4.66248E+00  3.92311E+00
   2.07130E+00  1.83944E+00 -3.43116E+00  1.94898E+00  2.60554E+00 -2.47535E+00 -5.22883E+00  2.40698E+00  4.75165E+00  1.31632E+01
   1.26602E+01  1.12117E+01  1.63463E+01  1.69580E+01  1.99661E+01  1.98740E+01  1.50534E+01  1.22400E+01  1.05751E+01  9.58903E+00
   1.28532E+01  1.70646E+01  1.87286E+01  1.63875E+01  1.36753E+01  1.37802E+01  1.45883E+01  6.38793E+00  9.95433E+00  1.12859E+00
   3.95385E+00  4.53375E+00  1.08526E+01  1.59693E+01  2.47521E+01  2.52365E+01  2.61012E+01  2.51160E+01  1.38106E+01  1.65501E+01
   5.35030E+00  9.24855E+00  1.02751E+01  1.48015E+01  1.04136E+01  1.64154E+01  2.03699E+01  2.07647E+01  2.12212E+01  2.04207E+01
   1.61224E+01  1.78419E+01  1.83495E+01  2.07872E+01  1.93899E+01  1.83712E+01  1.74703E+01  1.76281E+01  1.77502E+01  1.30551E+01
   1.19367E+01  1.63137E+01  1.18670E+01  2.01172E+01  1.99848E+01  2.03356E+01  1.87605E+01  1.97941E+01  2.15056E+01  2.38436E+01
   2.79502E+01  2.98425E+01  3.13284E+01  3.15823E+01  4.17547E+01  3.20048E+01  4.45794E+01  6.13437E+01  8.78672E+01  9.90382E+01
   1.00529E+02  9.48130E+01  8.78384E+01  7.58118E+01  6.16852E+01  4.83131E+01  3.34084E+01  3.25047E+01  2.35714E+01  1.93185E+01
   2.39511E+01  1.95926E+01  2.05422E+01  2.13568E+01  2.08163E+01  1.75853E+01  1.65844E+01  1.39640E+01  1.69448E+01  1.47220E+01
   1.39793E+01  1.79706E+01  1.11301E+01  1.45410E+01  1.26926E+01  1.33228E+01  1.02466E+01  1.18014E+01  1.19860E+01  7.48221E+00
   1.21277E+01  1.29944E+01  1.36278E+01  1.23341E+01  7.86800E+00  9.74929E+00  1.13107E+01  1.34408E+01  6.96705E+00  1.06230E+01
   1.35788E+01  6.31642E+00  1.62501E+01  1.40503E+01  1.39814E+01  1.51234E+01  1.00260E+01  1.29641E+01  1.04968E+01  1.57366E+01
   1.55448E+01  1.77143E+01  1.32660E+01  1.79023E+01  1.57234E+01  1.17505E+01  1.80654E+01  1.40070E+01  8.78706E+00  1.44306E+01
   1.03633E+01  1.00797E+01  1.07770E+01  1.22421E+01  1.00484E+01  6.85894E+00  1.18584E+01  9.66684E+00  8.14230E+00  1.14123E+01
   1.34496E+01  9.45766E+00  1.14992E+01  9.90826E+00  1.27424E+01  1.45764E+01  1.05270E+01  7.14472E+00  9.77961E+00  1.19450E+01
   5.72476E+00  9.58700E+00  5.98705E+00  1.39041E+01  1.06914E+01  9.71257E+00  1.29002E+01  1.08867E+01  1.10339E+01  8.23462E+00
   1.19020E+01  1.00594E+01  8.05278E+00  7.37721E+00  9.71529E+00  1.24165E+01  7.88315E+00  1.12862E+01  1.11128E+01  9.84450E+00
   9.14228E+00  1.26963E+01  8.17783E+00  1.21090E+01  9.79410E+00  9.04958E+00  1.26282E+01  1.19186E+01  1.00704E+01  1.01590E+01
   7.25068E+00  7.20710E+00  6.08487E+00  1.50459E+01  8.24073E+00  6.36542E+00  7.78250E+00  6.78701E+00  8.96806E+00  9.48851E+00
   7.97381E+00  8.14768E+00  1.14354E+01  1.21992E+01  8.21721E+00  6.27588E+00  6.61856E+00  4.19275E+00  1.09453E+01  1.11862E+01
   1.31049E+01  8.70513E+00  7.66507E+00  8.68159E+00  9.18988E+00  1.91152E+01  8.44948E+00  8.10813E+00  1.15976E+01  1.38762E+01
   2.00438E+01  1.36804E+01  1.41919E+01  1.55448E+01  1.70503E+01  1.84898E+01  1.36933E+01  2.12856E+01  1.24519E+01  1.61964E+01
   1.36008E+01  1.51606E+01  1.00264E+01  1.45616E+01  1.98726E+01  1.44246E+01  1.07283E+01  1.12019E+01  1.29085E+01  1.03217E+01
   6.49029E+00  1.37458E+01  1.39859E+01  1.46979E+01  1.38554E+01  1.12105E+01  7.82654E+00  5.69577E+00  1.29201E+01  8.45075E+00
   9.89036E+00  1.38477E+01  6.71900E+00  7.57620E+00  1.32162E+01  1.21607E+01  1.28867E+01  9.71173E+00  1.17377E+01  1.10669E+01
   1.10847E+01  1.34771E+01  1.02395E+01  1.12058E+01  1.61262E+01  1.16120E+01  1.34514E+01  1.38163E+01  1.25025E+01  1.09633E+01
   7.45946E+00  1.38834E+01  5.56117E+00  7.97053E+00  1.13397E+01  1.06855E+01  1.08430E+01  1.25514E+01  6.69827E+00  8.92428E+00
   1.13198E+01  9.66957E+00  1.03239E+01  1.14454E+01  9.32424E+00  7.14908E+00  9.57892E+00  6.29206E+00  1.03372E+01  5.75568E+00
   6.59172E+00  7.03261E+00  9.64657E+00  7.73559E+00  6.85242E+00  6.71495E+00  1.32553E+01  6.75922E+00  1.15534E+01  7.43498E+00
   8.13819E+00  6.25627E+00  9.14214E+00  1.15598E+01  9.74712E+00  1.29955E+01  8.25742E+00  1.50537E+01  8.96434E+00  1.21870E+01
   1.04440E+01  1.07516E+01  8.41716E+00  6.78714E+00  9.03157E+00  1.16778E+01  1.03270E+01  8.39199E+00
 NY points of the fit to the data follow
   3.43102E+01  3.37911E+01  3.38954E+01  3.49360E+01  3.71155E+01  4.09306E+01  4.71759E+01  5.61593E+01  6.61324E+01  7.40290E+01
   7.77108E+01  7.71182E+01  7.34097E+01  6.77291E+01  6.10661E+01  5.45760E+01  4.91606E+01  4.47631E+01  4.09428E+01  3.79633E+01
   3.61241E+01  3.50889E+01  3.43151E+01  3.37730E+01  3.31933E+01  3.32119E+01  3.49623E+01  3.86725E+01  4.32339E+01  4.71832E+01
   4.96922E+01  5.04205E+01  4.91710E+01  4.60509E+01  4.18905E+01  3.79196E+01  3.48821E+01  3.25827E+01  3.08537E+01  3.01986E+01
   3.03770E+01  3.10013E+01  3.19378E+01  3.33782E+01  3.53827E+01  3.73587E+01  3.85233E+01  3.84260E+01  3.72995E+01  3.56886E+01
   3.37425E+01  3.16296E+01  2.98410E+01  2.86545E+01  2.78389E+01  2.72701E+01  2.71797E+01  2.76179E+01  2.81717E+01  2.84230E+01
   2.82490E+01  2.76827E+01  2.68558E+01  2.59308E+01  2.51235E+01  2.46225E+01  2.44010E+01  2.43643E+01  2.45101E+01  2.47928E+01
   2.50570E+01  2.51835E+01  2.51121E+01  2.48904E+01  2.45690E+01  2.41680E+01  2.37452E+01  2.33573E+01  2.30283E+01  2.27025E+01
   2.23254E+01  2.19371E+01  2.14671E+01  2.08151E+01  1.99327E+01  1.89183E+01  1.79842E+01  1.73224E+01  1.70093E+01  1.70548E+01
   1.74074E+01  1.79598E+01  1.85812E+01  1.91309E+01  1.95262E+01  1.98825E+01  2.09342E+01  2.31139E+01  2.65785E+01  3.32775E+01
   4.38072E+01  5.53653E+01  6.36862E+01  6.66081E+01  6.48514E+01  6.00923E+01  5.32977E+01  4.53832E+01  3.80265E+01  3.23945E+01
   2.79872E+01  2.37478E+01  2.05729E+01  1.94548E+01  1.90658E+01  1.88707E+01  1.87437E+01  1.86714E+01  1.87269E+01  1.91936E+01
   2.10030E+01  2.45751E+01  3.01857E+01  3.99843E+01  5.45279E+01  7.01869E+01  8.15749E+01  8.59025E+01  8.40193E+01  7.81215E+01
   6.95413E+01  5.92597E+01  4.90425E+01  4.02970E+01  3.27454E+01  2.56518E+01  2.04217E+01  1.83691E+01  1.81115E+01  1.86130E+01
   1.92644E+01  1.96676E+01  1.97857E+01  1.97236E+01  1.94409E+01  1.89735E+01  1.84257E+01  1.78126E+01  1.71631E+01  1.65184E+01
   1.58959E+01  1.53789E+01  1.49618E+01  1.46633E+01  1.44556E+01  1.43113E+01  1.41363E+01  1.37832E+01  1.32566E+01  1.26733E+01
   1.22700E+01  1.22207E+01  1.24038E+01  1.25261E+01  1.24149E+01  1.20939E+01  1.16312E+01  1.10862E+01  1.05469E+01  1.00884E+01
   9.65576E+00  9.18922E+00  8.55185E+00  7.78895E+00  7.22070E+00  7.04094E+00  7.13484E+00  7.22870E+00  7.14672E+00  6.99580E+00
   6.90800E+00  6.86271E+00  6.76536E+00  6.62415E+00  6.68255E+00  7.18800E+00  8.23102E+00  9.81782E+00  1.17231E+01  1.35226E+01
   1.47231E+01  1.50100E+01  1.45053E+01  1.34350E+01  1.20657E+01  1.08014E+01  1.00477E+01  1.01554E+01  1.11866E+01  1.28689E+01
   1.48999E+01  1.70319E+01  1.87324E+01  1.93082E+01  1.86548E+01  1.67764E+01  1.37758E+01  1.02630E+01  7.36768E+00  5.98353E+00
   6.18338E+00  7.98385E+00  1.12847E+01  1.53657E+01  1.88175E+01  2.04381E+01  2.00643E+01  1.82300E+01  1.51140E+01  1.08772E+01
   7.05997E+00  5.16499E+00  5.32278E+00  6.83131E+00  9.04161E+00  1.18378E+01  1.45766E+01  1.64552E+01  1.71748E+01  1.71551E+01
   1.71044E+01  1.70836E+01  1.69404E+01  1.70395E+01  1.77711E+01  1.88481E+01  1.96645E+01  1.99164E+01  1.95925E+01  1.87870E+01
   1.75732E+01  1.63575E+01  1.57311E+01  1.59248E+01  1.66635E+01  1.74943E+01  1.83716E+01  1.92604E+01  2.00472E+01  2.08847E+01
   2.20225E+01  2.36509E+01  2.58600E+01  2.95017E+01  3.46297E+01  4.06105E+01  5.06077E+01  6.63876E+01  8.39017E+01  9.62404E+01
   9.99254E+01  9.62699E+01  8.79733E+01  7.63453E+01  6.27772E+01  5.02476E+01  4.06798E+01  3.31303E+01  2.57256E+01  1.98830E+01
   1.76560E+01  1.67579E+01  1.62377E+01  1.59002E+01  1.55969E+01  1.52573E+01  1.48939E+01  1.44842E+01  1.40474E+01  1.36409E+01
   1.32924E+01  1.29781E+01  1.26926E+01  1.24529E+01  1.22578E+01  1.20902E+01  1.19345E+01  1.17966E+01  1.16941E+01  1.16300E+01
   1.15967E+01  1.15943E+01  1.16214E+01  1.16753E+01  1.17488E+01  1.18373E+01  1.19404E+01  1.20591E+01  1.21955E+01  1.23475E+01
   1.25092E+01  1.26767E+01  1.28436E+01  1.30016E+01  1.31425E+01  1.32605E+01  1.33518E+01  1.34129E+01  1.34397E+01  1.34319E+01
   1.33899E+01  1.33149E+01  1.32102E+01  1.30797E+01  1.29278E+01  1.27595E+01  1.25802E+01  1.23956E+01  1.22111E+01  1.20317E+01
   1.18613E+01  1.17034E+01  1.15606E+01  1.14345E+01  1.13259E+01  1.12346E+01  1.11597E+01  1.10998E+01  1.10529E+01  1.10169E+01
   1.09894E+01  1.09679E+01  1.09500E+01  1.09337E+01  1.09171E+01  1.08992E+01  1.08790E+01  1.08564E+01  1.08326E+01  1.08109E+01
   1.07986E+01  1.07915E+01  1.07897E+01  1.08035E+01  1.08065E+01  1.07462E+01  1.05939E+01  1.03715E+01  1.01350E+01  9.91326E+00
   9.72246E+00  9.61062E+00  9.62045E+00  9.73123E+00  9.87211E+00  9.99272E+00  1.00976E+01  1.01831E+01  1.02229E+01  1.02197E+01
   1.01948E+01  1.01681E+01  1.01375E+01  1.00892E+01  1.00411E+01  1.00058E+01  9.97488E+00  9.94426E+00  9.91259E+00  9.87954E+00
   9.84539E+00  9.81085E+00  9.77703E+00  9.74529E+00  9.71713E+00  9.69415E+00  9.67798E+00  9.67039E+00  9.67322E+00  9.68836E+00
   9.71766E+00  9.76293E+00  9.82598E+00  9.90868E+00  1.00129E+01  1.01405E+01  1.02929E+01  1.04718E+01  1.06782E+01  1.09130E+01
   1.11766E+01  1.14689E+01  1.17888E+01  1.21343E+01  1.25027E+01  1.28901E+01  1.32915E+01  1.37008E+01  1.41110E+01  1.45141E+01
   1.49018E+01  1.52651E+01  1.55954E+01  1.58841E+01  1.61236E+01  1.63074E+01  1.64304E+01  1.64892E+01  1.64823E+01  1.64100E+01
   1.62748E+01  1.60807E+01  1.58334E+01  1.55401E+01  1.52084E+01  1.48470E+01  1.44643E+01  1.40688E+01  1.36687E+01  1.32710E+01
   1.28821E+01  1.25072E+01  1.21505E+01  1.18152E+01  1.15034E+01  1.12161E+01  1.09538E+01  1.07161E+01  1.05022E+01  1.03110E+01
   1.01410E+01  9.99050E+00  9.85787E+00  9.74135E+00  9.63936E+00  9.55034E+00  9.47286E+00  9.40554E+00  9.34718E+00  9.29674E+00
   9.25333E+00  9.21612E+00  9.18435E+00  9.15737E+00  9.13461E+00  9.11563E+00  9.10003E+00  9.08743E+00  9.07749E+00  9.06989E+00
   9.06441E+00  9.06087E+00  9.05909E+00  9.05888E+00  9.06007E+00  9.06253E+00  9.06617E+00  9.07092E+00  9.07669E+00  9.08336E+00
   9.09085E+00  9.09909E+00  9.10807E+00  9.11775E+00  9.12806E+00  9.13894E+00  9.15032E+00  9.16219E+00  9.17456E+00  9.18739E+00
   9.20063E+00  9.21424E+00  9.22819E+00  9.24250E+00  9.25717E+00  9.27217E+00  9.28745E+00  9.30298E+00  9.31877E+00  9.33482E+00
   9.35114E+00  9.36770E+00  9.38446E+00  9.40140E+00  9.41854E+00  9.43591E+00  9.45350E+00  9.47126E+00  9.48918E+00  9.50725E+00
   9.52550E+00  9.54396E+00  9.56260E+00  9.58138E+00  9.60030E+00  9.61939E+00  9.63867E+00  9.65815E+00
 NY background values follow
     3.088E+01    3.075E+01    3.061E+01    3.047E+01    3.033E+01    3.019E+01    3.005E+01    2.991E+01    2.978E+01    2.964E+01
     2.950E+01    2.936E+01    2.922E+01    2.908E+01    2.894E+01    2.880E+01    2.866E+01    2.853E+01    2.839E+01    2.825E+01
     2.811E+01    2.797E+01    2.783E+01    2.769E+01    2.756E+01    2.742E+01    2.728E+01    2.714E+01    2.700E+01    2.687E+01
     2.673E+01    2.659E+01    2.645E+01    2.632E+01    2.618E+01    2.604E+01    2.591E+01    2.577E+01    2.563E+01    2.550E+01
     2.536E+01    2.523E+01    2.509E+01    2.496E+01    2.482E+01    2.469E+01    2.455E+01    2.442E+01    2.429E+01    2.415E+01
     2.402E+01    2.389E+01    2.376E+01    2.363E+01    2.349E+01    2.336E+01    2.323E+01    2.310E+01    2.297E+01    2.284E+01
     2.271E+01    2.259E+01    2.246E+01    2.233E+01    2.220E+01    2.208E+01    2.195E+01    2.182E+01    2.170E+01    2.157E+01
     2.145E+01    2.133E+01    2.120E+01    2.108E+01    2.096E+01    2.084E+01    2.072E+01    2.059E+01    2.047E+01    2.036E+01
     2.024E+01    2.012E+01    2.000E+01    1.989E+01    1.977E+01    1.965E+01    1.954E+01    1.943E+01    1.931E+01    1.920E+01
     1.909E+01    1.898E+01    1.887E+01    1.876E+01    1.865E+01    1.854E+01    1.843E+01    1.832E+01    1.822E+01    1.811E+01
     1.801E+01    1.790E+01    1.780E+01    1.770E+01    1.760E+01    1.749E+01    1.739E+01    1.729E+01    1.719E+01    1.710E+01
     1.700E+01    1.690E+01    1.680E+01    1.671E+01    1.661E+01    1.652E+01    1.642E+01    1.633E+01    1.624E+01    1.615E+01
     1.605E+01    1.596E+01    1.587E+01    1.578E+01    1.570E+01    1.561E+01    1.552E+01    1.543E+01    1.535E+01    1.526E+01
     1.518E+01    1.509E+01    1.501E+01    1.493E+01    1.484E+01    1.476E+01    1.468E+01    1.460E+01    1.452E+01    1.444E+01
     1.436E+01    1.428E+01    1.420E+01    1.413E+01    1.405E+01    1.398E+01    1.390E+01    1.383E+01    1.375E+01    1.368E+01
     1.361E+01    1.354E+01    1.346E+01    1.339E+01    1.332E+01    1.326E+01    1.319E+01    1.312E+01    1.305E+01    1.299E+01
     1.292E+01    1.286E+01    1.279E+01    1.273E+01    1.267E+01    1.260E+01    1.254E+01    1.248E+01    1.242E+01    1.236E+01
     1.230E+01    1.225E+01    1.219E+01    1.213E+01    1.208E+01    1.203E+01    1.197E+01    1.192E+01    1.187E+01    1.182E+01
     1.176E+01    1.171E+01    1.167E+01    1.162E+01    1.157E+01    1.152E+01    1.148E+01    1.143E+01    1.139E+01    1.134E+01
     1.130E+01    1.126E+01    1.122E+01    1.118E+01    1.114E+01    1.110E+01    1.106E+01    1.102E+01    1.098E+01    1.094E+01
     1.090E+01    1.087E+01    1.083E+01    1.079E+01    1.076E+01    1.072E+01    1.069E+01    1.066E+01    1.062E+01    1.059E+01
     1.056E+01    1.052E+01    1.049E+01    1.046E+01    1.043E+01    1.040E+01    1.037E+01    1.033E+01    1.030E+01    1.027E+01
     1.024E+01    1.021E+01    1.018E+01    1.015E+01    1.013E+01    1.010E+01    1.007E+01    1.004E+01    1.001E+01    9.981E+00
     9.952E+00    9.923E+00    9.895E+00    9.867E+00    9.838E+00    9.810E+00    9.782E+00    9.754E+00    9.726E+00    9.698E+00
     9.671E+00    9.643E+00    9.615E+00    9.588E+00    9.561E+00    9.533E+00    9.506E+00    9.479E+00    9.452E+00    9.425E+00
     9.398E+00    9.371E+00    9.344E+00    9.317E+00    9.290E+00    9.264E+00    9.237E+00    9.211E+00    9.184E+00    9.158E+00
     9.131E+00    9.105E+00    9.078E+00    9.052E+00    9.026E+00    9.000E+00    8.974E+00    8.947E+00    8.921E+00    8.895E+00
     8.869E+00    8.843E+00    8.817E+00    8.791E+00    8.765E+00    8.740E+00    8.714E+00    8.688E+00    8.662E+00    8.636E+00
     8.611E+00    8.585E+00    8.560E+00    8.534E+00    8.509E+00    8.484E+00    8.459E+00    8.434E+00    8.409E+00    8.384E+00
     8.359E+00    8.334E+00    8.310E+00    8.285E+00    8.261E+00    8.237E+00    8.213E+00    8.189E+00    8.165E+00    8.142E+00
     8.118E+00    8.095E+00    8.072E+00    8.049E+00    8.026E+00    8.003E+00    7.981E+00    7.958E+00    7.936E+00    7.914E+00
     7.892E+00    7.871E+00    7.850E+00    7.828E+00    7.808E+00    7.787E+00    7.766E+00    7.746E+00    7.726E+00    7.706E+00
     7.687E+00    7.667E+00    7.648E+00    7.630E+00    7.611E+00    7.593E+00    7.575E+00    7.557E+00    7.540E+00    7.522E+00
     7.505E+00    7.489E+00    7.473E+00    7.457E+00    7.441E+00    7.426E+00    7.411E+00    7.396E+00    7.382E+00    7.367E+00
     7.354E+00    7.340E+00    7.327E+00    7.315E+00    7.302E+00    7.291E+00    7.279E+00    7.268E+00    7.257E+00    7.247E+00
     7.237E+00    7.227E+00    7.218E+00    7.209E+00    7.201E+00    7.193E+00    7.185E+00    7.178E+00    7.171E+00    7.165E+00
     7.159E+00    7.154E+00    7.149E+00    7.144E+00    7.140E+00    7.137E+00    7.134E+00    7.131E+00    7.129E+00    7.127E+00
     7.126E+00    7.125E+00    7.124E+00    7.124E+00    7.125E+00    7.126E+00    7.127E+00    7.129E+00    7.131E+00    7.134E+00
     7.137E+00    7.140E+00    7.144E+00    7.149E+00    7.154E+00    7.159E+00    7.164E+00    7.171E+00    7.177E+00    7.184E+00
     7.191E+00    7.199E+00    7.208E+00    7.216E+00    7.225E+00    7.235E+00    7.245E+00    7.255E+00    7.266E+00    7.277E+00
     7.289E+00    7.301E+00    7.313E+00    7.326E+00    7.339E+00    7.353E+00    7.367E+00    7.381E+00    7.396E+00    7.412E+00
     7.427E+00    7.443E+00    7.460E+00    7.476E+00    7.494E+00    7.511E+00    7.529E+00    7.547E+00    7.565E+00    7.584E+00
     7.603E+00    7.622E+00    7.642E+00    7.662E+00    7.682E+00    7.702E+00    7.723E+00    7.743E+00    7.765E+00    7.786E+00
     7.807E+00    7.829E+00    7.851E+00    7.872E+00    7.895E+00    7.917E+00    7.939E+00    7.962E+00    7.984E+00    8.007E+00
     8.030E+00    8.053E+00    8.076E+00    8.099E+00    8.122E+00    8.146E+00    8.169E+00    8.192E+00    8.216E+00    8.239E+00
     8.262E+00    8.286E+00    8.309E+00    8.333E+00    8.356E+00    8.379E+00    8.403E+00    8.426E+00    8.449E+00    8.473E+00
     8.496E+00    8.519E+00    8.542E+00    8.566E+00    8.589E+00    8.612E+00    8.635E+00    8.659E+00    8.682E+00    8.705E+00
     8.728E+00    8.752E+00    8.775E+00    8.798E+00    8.821E+00    8.844E+00    8.868E+00    8.891E+00    8.914E+00    8.937E+00
     8.961E+00    8.984E+00    9.007E+00    9.031E+00    9.054E+00    9.077E+00    9.100E+00    9.124E+00    9.147E+00    9.170E+00
     9.194E+00    9.217E+00    9.241E+00    9.264E+00    9.287E+00    9.311E+00    9.334E+00    9.358E+00
 Cr       Conc. = 1.11E+03
