 LCModel (Version 6.3-1L) Copyright: S.W. Provencher.          Ref.: Magn. Reson. Med. 30:672-679 (1993).                
 Slice#2 Row#8 Col#11  K_02_press_1_raw_act
 36 lines in following concentration table = NCONC+1
    Conc.  %SD /Cr+PCr  Metabolite                                         
  146.826  78% 9.2E-02 Ala                                                 
    0.000 999%   0.000 Asp                                                 
    0.000 999%   0.000 Cr                                                  
 1.59E+03   5%   1.000 PCr                                                 
    0.000 999%   0.000 GABA                                                
   35.360 528% 2.2E-02 Glc                                                 
  517.031  44%   0.325 Gln                                                 
 1.73E+03  15%   1.088 Glu                                                 
  547.519   5%   0.344 GPC                                                 
    0.000 999%   0.000 PCh                                                 
  307.571  27%   0.193 GSH                                                 
  876.931  32%   0.551 Ins                                                 
    0.000 999%   0.000 Lac                                                 
 3.24E+03   5%   2.034 NAA                                                 
  659.060  24%   0.414 NAAG                                                
   80.963  40% 5.1E-02 Scyllo                                              
    0.000 999%   0.000 Tau                                                 
 1.01E+03  12%   0.636 -CrCH2                                              
  547.519   5%   0.344 GPC+PCh                                             
 3.90E+03   3%   2.448 NAA+NAAG                                            
 1.59E+03   5%   1.000 Cr+PCr                                              
 2.25E+03  16%   1.412 Glu+Gln                                             
 4.23E+03  28%   2.656 Lip13a                                              
    0.000 999%   0.000 Lip13b                                              
  836.414  52%   0.526 Lip09                                               
 1.70E+03  28%   1.071 MM09                                                
  914.846  30%   0.575 Lip20                                               
 4.26E+03  15%   2.679 MM20                                                
  547.824  58%   0.344 MM12                                                
 3.11E+03  22%   1.951 MM14                                                
  875.154  44%   0.550 MM17                                                
 4.23E+03  28%   2.656 Lip13a+Lip13b                                       
 7.88E+03  12%   4.951 MM14+Lip13a+Lip13b+MM12                             
 2.54E+03  14%   1.596 MM09+Lip09                                          
 5.18E+03  12%   3.254 MM20+Lip20                                          
   6 lines in following misc. output table
  FWHM = 0.038 ppm    S/N =  17                                            
  Data shift = 0.000 ppm                                                   
  Ph: -38 deg     -12.9 deg/ppm                                            
  alphaB,S = 4.1E-01,   9.0E+01                                            
   14 spline knots.   Ns = 6(1)                                            
  ( 7) 3 infls.   ( 3) 1 extrs.                                            
  498 points on ppm-axis = NY
      4.000000     3.992357     3.984714     3.977070     3.969427     3.961784     3.954141     3.946497     3.938854     3.931211
      3.923568     3.915925     3.908281     3.900638     3.892995     3.885352     3.877708     3.870065     3.862422     3.854779
      3.847136     3.839492     3.831849     3.824206     3.816563     3.808919     3.801276     3.793633     3.785990     3.778347
      3.770703     3.763060     3.755417     3.747774     3.740130     3.732487     3.724844     3.717201     3.709558     3.701914
      3.694271     3.686628     3.678985     3.671341     3.663698     3.656055     3.648412     3.640769     3.633125     3.625482
      3.617839     3.610196     3.602552     3.594909     3.587266     3.579623     3.571980     3.564336     3.556693     3.549050
      3.541407     3.533763     3.526120     3.518477     3.510834     3.503191     3.495547     3.487904     3.480261     3.472618
      3.464974     3.457331     3.449688     3.442045     3.434402     3.426758     3.419115     3.411472     3.403829     3.396185
      3.388542     3.380899     3.373256     3.365613     3.357969     3.350326     3.342683     3.335040     3.327396     3.319753
      3.312110     3.304467     3.296824     3.289180     3.281537     3.273894     3.266251     3.258607     3.250964     3.243321
      3.235678     3.228034     3.220391     3.212748     3.205105     3.197462     3.189818     3.182175     3.174532     3.166889
      3.159245     3.151602     3.143959     3.136316     3.128673     3.121029     3.113386     3.105743     3.098100     3.090456
      3.082813     3.075170     3.067527     3.059884     3.052240     3.044597     3.036954     3.029311     3.021667     3.014024
      3.006381     2.998738     2.991095     2.983451     2.975808     2.968165     2.960522     2.952878     2.945235     2.937592
      2.929949     2.922306     2.914662     2.907019     2.899376     2.891733     2.884089     2.876446     2.868803     2.861160
      2.853517     2.845873     2.838230     2.830587     2.822944     2.815300     2.807657     2.800014     2.792371     2.784728
      2.777084     2.769441     2.761798     2.754155     2.746511     2.738868     2.731225     2.723582     2.715939     2.708295
      2.700652     2.693009     2.685366     2.677722     2.670079     2.662436     2.654793     2.647150     2.639506     2.631863
      2.624220     2.616577     2.608933     2.601290     2.593647     2.586004     2.578361     2.570717     2.563074     2.555431
      2.547788     2.540144     2.532501     2.524858     2.517215     2.509572     2.501928     2.494285     2.486642     2.478999
      2.471355     2.463712     2.456069     2.448426     2.440783     2.433139     2.425496     2.417853     2.410210     2.402566
      2.394923     2.387280     2.379637     2.371994     2.364350     2.356707     2.349064     2.341421     2.333777     2.326134
      2.318491     2.310848     2.303205     2.295561     2.287918     2.280275     2.272632     2.264988     2.257345     2.249702
      2.242059     2.234416     2.226772     2.219129     2.211486     2.203843     2.196199     2.188556     2.180913     2.173270
      2.165627     2.157983     2.150340     2.142697     2.135054     2.127410     2.119767     2.112124     2.104481     2.096838
      2.089194     2.081551     2.073908     2.066265     2.058621     2.050978     2.043335     2.035692     2.028049     2.020405
      2.012762     2.005119     1.997476     1.989833     1.982190     1.974546     1.966903     1.959260     1.951617     1.943974
      1.936331     1.928688     1.921045     1.913402     1.905759     1.898115     1.890472     1.882829     1.875186     1.867543
      1.859900     1.852257     1.844614     1.836971     1.829327     1.821684     1.814041     1.806398     1.798755     1.791112
      1.783469     1.775826     1.768183     1.760540     1.752896     1.745253     1.737610     1.729967     1.722324     1.714681
      1.707038     1.699395     1.691752     1.684108     1.676465     1.668822     1.661179     1.653536     1.645893     1.638250
      1.630607     1.622964     1.615321     1.607677     1.600034     1.592391     1.584748     1.577105     1.569462     1.561819
      1.554176     1.546533     1.538890     1.531246     1.523603     1.515960     1.508317     1.500674     1.493031     1.485388
      1.477745     1.470102     1.462458     1.454815     1.447172     1.439529     1.431886     1.424243     1.416600     1.408957
      1.401314     1.393671     1.386027     1.378384     1.370741     1.363098     1.355455     1.347812     1.340169     1.332526
      1.324883     1.317240     1.309596     1.301953     1.294310     1.286667     1.279024     1.271381     1.263738     1.256095
      1.248452     1.240808     1.233165     1.225522     1.217879     1.210236     1.202593     1.194950     1.187307     1.179664
      1.172021     1.164377     1.156734     1.149091     1.141448     1.133805     1.126162     1.118519     1.110876     1.103233
      1.095590     1.087946     1.080303     1.072660     1.065017     1.057374     1.049731     1.042088     1.034445     1.026802
      1.019158     1.011515     1.003872     0.996229     0.988586     0.980943     0.973300     0.965657     0.958014     0.950371
      0.942727     0.935084     0.927441     0.919798     0.912155     0.904512     0.896869     0.889226     0.881583     0.873940
      0.866296     0.858653     0.851010     0.843367     0.835724     0.828081     0.820438     0.812795     0.805152     0.797508
      0.789865     0.782222     0.774579     0.766936     0.759293     0.751650     0.744007     0.736364     0.728721     0.721077
      0.713434     0.705791     0.698148     0.690505     0.682862     0.675219     0.667576     0.659933     0.652290     0.644646
      0.637003     0.629360     0.621717     0.614074     0.606431     0.598788     0.591145     0.583502     0.575858     0.568215
      0.560572     0.552929     0.545286     0.537643     0.530000     0.522357     0.514714     0.507071     0.499427     0.491784
      0.484141     0.476498     0.468855     0.461212     0.453569     0.445925     0.438282     0.430639     0.422996     0.415353
      0.407710     0.400067     0.392424     0.384780     0.377137     0.369494     0.361851     0.354208     0.346565     0.338922
      0.331278     0.323635     0.315992     0.308349     0.300706     0.293063     0.285420     0.277777     0.270133     0.262490
      0.254847     0.247204     0.239561     0.231918     0.224275     0.216631     0.208988     0.201345
 NY phased data points follow
   2.09896E+01  1.81758E+01  1.86958E+01  1.63956E+01  1.87868E+01  2.02344E+01  2.42886E+01  2.45187E+01  2.82031E+01  3.48289E+01
   2.97492E+01  3.42471E+01  2.82571E+01  2.83655E+01  2.12657E+01  1.90284E+01  1.66454E+01  1.74981E+01  1.82906E+01  1.54290E+01
   1.38595E+01  1.83351E+01  1.96855E+01  1.80584E+01  2.16159E+01  2.29791E+01  2.73103E+01  1.70855E+01  1.99297E+01  2.09152E+01
   1.96218E+01  1.66236E+01  2.25472E+01  2.09496E+01  1.67327E+01  1.87441E+01  1.51893E+01  2.12195E+01  1.84981E+01  1.75806E+01
   1.76608E+01  1.64726E+01  1.86921E+01  2.17471E+01  1.99383E+01  2.59909E+01  2.64507E+01  2.61495E+01  2.82897E+01  2.51971E+01
   2.30072E+01  2.19219E+01  2.12582E+01  1.80661E+01  2.12759E+01  1.78476E+01  1.81193E+01  1.84179E+01  1.45668E+01  2.29487E+01
   1.41151E+01  1.56042E+01  8.81453E+00  9.51170E+00  8.74754E+00  1.13456E+01  1.02792E+01  9.39784E+00  8.13611E+00  7.72325E+00
   1.21519E+01  1.13940E+01  1.05276E+01  1.14099E+01  1.13428E+01  1.23896E+01  1.23454E+01  9.72148E+00  1.07088E+01  1.35099E+01
   1.14044E+01  1.25814E+01  1.16008E+01  1.49487E+01  1.36675E+01  1.34970E+01  1.24923E+01  1.22066E+01  9.14132E+00  1.85182E+01
   1.54531E+01  1.27835E+01  1.56681E+01  1.63862E+01  1.25848E+01  2.03332E+01  2.03601E+01  2.25275E+01  1.95548E+01  2.31960E+01
   3.49978E+01  4.98154E+01  6.62033E+01  7.42964E+01  6.64957E+01  5.78453E+01  3.73435E+01  3.25824E+01  2.20953E+01  1.64181E+01
   1.99958E+01  1.74758E+01  1.33955E+01  1.41842E+01  8.08767E+00  1.25363E+01  1.45748E+01  1.37740E+01  1.35243E+01  2.07419E+01
   1.71147E+01  2.11939E+01  2.05833E+01  2.15359E+01  3.12345E+01  4.67274E+01  6.62219E+01  7.51103E+01  7.28714E+01  6.20305E+01
   4.47723E+01  3.56368E+01  2.63648E+01  2.31364E+01  1.69967E+01  1.30144E+01  1.38701E+01  1.44865E+01  1.28791E+01  1.42356E+01
   1.30643E+01  1.17390E+01  1.37478E+01  1.32929E+01  1.49152E+01  1.29650E+01  1.28581E+01  1.23675E+01  1.04438E+01  1.06982E+01
   9.53941E+00  9.31631E+00  1.02521E+01  1.17884E+01  1.16082E+01  1.23580E+01  9.46296E+00  9.05282E+00  1.24302E+01  1.16694E+01
   1.18981E+01  9.02044E+00  3.92554E+00  1.70656E+00  4.35876E+00  7.10255E+00  2.91326E+00 -5.66956E-01 -6.65747E+00 -9.15907E+00
  -1.19952E+01 -1.25480E+01 -1.01091E+01 -1.12582E+01 -1.10136E+01 -1.29896E+01 -2.50137E+01 -1.52958E+01 -8.31049E+00 -8.25329E+00
  -4.28781E+00 -4.90681E+00 -1.04327E+01 -1.03753E+01 -4.24574E+00 -1.04608E+01 -6.57804E+00 -7.69027E+00 -7.80591E+00 -3.27128E+00
  -2.64722E+00  4.69930E+00  4.00940E+00  8.39560E-01  1.87937E+00  2.34087E+00  1.91505E-01 -7.48797E+00 -1.08021E+01 -8.81041E+00
  -5.96385E+00 -5.82908E+00  1.11171E-01  7.19329E+00  9.94423E+00  1.19909E+01  5.63310E+00  4.09043E+00  2.91647E+00  2.72061E+00
   2.26769E+00  7.00719E+00  1.25959E+01  1.64381E+01  1.94447E+01  2.32845E+01  2.57249E+01  2.50857E+01  2.04711E+01  1.58650E+01
   8.66817E+00  2.33746E+00  2.47694E+00  2.62311E+00  7.37857E+00  1.41904E+01  1.29236E+01  1.70893E+01  2.08381E+01  2.05029E+01
   2.07873E+01  1.87893E+01  1.74021E+01  1.46935E+01  1.48699E+01  1.85975E+01  1.38543E+01  1.45663E+01  1.34037E+01  1.84229E+01
   1.59062E+01  7.34602E+00  1.01136E+01  9.04041E+00  9.40670E+00  1.47500E+01  1.85094E+01  2.43366E+01  2.35515E+01  2.30830E+01
   2.96441E+01  2.77352E+01  2.55325E+01  3.45201E+01  5.43837E+01  7.43858E+01  8.40689E+01  9.22749E+01  1.06861E+02  1.33551E+02
   1.60589E+02  1.64108E+02  1.31109E+02  9.13071E+01  6.29528E+01  4.61067E+01  2.79260E+01  2.26924E+01  1.75232E+01  1.48061E+01
   1.30162E+01  9.07561E+00  1.63187E+01  1.38063E+01  1.04527E+01  1.22469E+01  6.50799E+00  1.09550E+01  1.11049E+01  1.25874E+01
   9.60768E+00  1.24837E+01  7.73997E+00  1.24795E+01  5.66195E+00  5.80210E+00  5.93933E+00  7.67717E+00  9.11884E+00  1.00212E+01
   1.01869E+01  9.82413E+00  1.06796E+01  1.06688E+01  1.26233E+01  1.17130E+01  6.52000E+00  1.20448E+01  5.34683E+00  7.50968E+00
   9.63405E+00  5.35426E+00  5.23019E+00  1.00459E+01  9.70138E+00  7.85521E+00  1.08064E+01  1.24648E+01  1.85135E+01  1.35994E+01
   1.60488E+01  1.80529E+01  1.83794E+01  1.82161E+01  1.38787E+01  1.57849E+01  1.88411E+01  1.55599E+01  1.69600E+01  1.61808E+01
   1.81339E+01  1.75504E+01  1.83654E+01  2.08780E+01  1.89489E+01  1.92418E+01  1.68916E+01  1.98416E+01  2.44401E+01  2.37528E+01
   2.26512E+01  2.40472E+01  2.58212E+01  2.98530E+01  2.54084E+01  3.27722E+01  3.52302E+01  3.28355E+01  3.25522E+01  3.67319E+01
   3.17475E+01  3.48559E+01  3.38152E+01  3.83479E+01  3.55889E+01  3.34066E+01  3.68867E+01  3.55930E+01  2.65123E+01  2.88132E+01
   2.95100E+01  3.19007E+01  3.30838E+01  3.11241E+01  3.39977E+01  2.44370E+01  2.54077E+01  2.42273E+01  2.21523E+01  2.70337E+01
   1.84897E+01  2.33457E+01  2.36232E+01  2.00376E+01  2.54499E+01  1.92474E+01  2.09118E+01  2.18332E+01  2.18306E+01  2.25777E+01
   2.43882E+01  2.12950E+01  2.28940E+01  1.81966E+01  2.29381E+01  2.01365E+01  1.93005E+01  1.87152E+01  1.96648E+01  1.73384E+01
   1.64202E+01  1.60079E+01  1.43618E+01  1.43060E+01  1.32429E+01  1.62459E+01  1.64673E+01  1.69493E+01  1.48467E+01  1.73720E+01
   1.94292E+01  1.72802E+01  2.01068E+01  1.61438E+01  1.97388E+01  2.63634E+01  2.05186E+01  1.94910E+01  2.31968E+01  2.14473E+01
   2.13764E+01  1.84454E+01  2.13408E+01  2.36687E+01  2.22056E+01  2.45066E+01  2.27459E+01  2.24276E+01  2.30898E+01  2.12212E+01
   2.56174E+01  2.64690E+01  2.42787E+01  2.21117E+01  2.08974E+01  2.22328E+01  1.80736E+01  1.60167E+01  1.47350E+01  1.56235E+01
   1.46347E+01  1.40873E+01  1.31494E+01  1.26516E+01  1.02141E+01  1.10035E+01  1.23129E+01  8.82684E+00  1.12907E+01  1.43729E+01
   1.56480E+01  1.17856E+01  1.42619E+01  1.24802E+01  1.23887E+01  1.15822E+01  8.49020E+00  7.84958E+00  1.14287E+01  1.13133E+01
   1.08060E+01  1.15728E+01  1.01204E+01  9.97949E+00  6.08613E+00  6.94668E+00  9.30191E+00  1.06987E+01  6.71542E+00  5.93664E+00
   6.69478E+00  1.34623E+01  8.15478E+00  8.87231E+00  8.30030E+00  9.46588E+00  7.61876E+00  7.82733E+00  9.53252E+00  1.15965E+01
   7.25605E+00  1.00511E+01  1.06423E+01  6.47414E+00  7.85970E+00  9.09821E+00  7.51765E+00  7.52898E+00  5.69674E+00  7.53058E+00
   7.29345E+00  7.39942E+00  6.22580E+00  8.45289E+00  2.84909E+00  6.65238E+00  8.01212E+00  6.62612E+00  6.11354E+00  9.65487E+00
   1.05668E+01  8.93519E+00  7.86329E+00  8.11776E+00  9.40998E+00  9.43215E+00  6.15497E+00  6.57533E+00  8.32698E+00  5.49801E+00
   5.82638E+00  9.60410E+00  5.40282E+00  5.39735E+00  1.00850E+01  6.21101E+00  4.34455E+00  7.27035E+00
 NY points of the fit to the data follow
   1.67765E+01  1.65456E+01  1.66925E+01  1.76043E+01  1.91987E+01  2.07719E+01  2.27501E+01  2.57809E+01  2.95807E+01  3.27839E+01
   3.37703E+01  3.20872E+01  2.88196E+01  2.56000E+01  2.32882E+01  2.17871E+01  2.07382E+01  1.99942E+01  1.94604E+01  1.90495E+01
   1.87724E+01  1.85956E+01  1.82534E+01  1.79837E+01  1.81479E+01  1.81626E+01  1.78977E+01  1.79099E+01  1.88443E+01  2.08382E+01
   2.31672E+01  2.50537E+01  2.60542E+01  2.60524E+01  2.50231E+01  2.29504E+01  2.02365E+01  1.77781E+01  1.61570E+01  1.54827E+01
   1.58430E+01  1.70135E+01  1.83855E+01  1.94742E+01  2.03955E+01  2.15987E+01  2.31295E+01  2.43163E+01  2.43661E+01  2.30906E+01
   2.10248E+01  1.88940E+01  1.71178E+01  1.59223E+01  1.53076E+01  1.51108E+01  1.51636E+01  1.53709E+01  1.57559E+01  1.62244E+01
   1.64968E+01  1.63117E+01  1.56111E+01  1.46287E+01  1.36806E+01  1.30441E+01  1.28423E+01  1.29659E+01  1.32474E+01  1.35829E+01
   1.39272E+01  1.42108E+01  1.43235E+01  1.41937E+01  1.38643E+01  1.34785E+01  1.31422E+01  1.28804E+01  1.26649E+01  1.25048E+01
   1.25230E+01  1.27503E+01  1.28738E+01  1.30026E+01  1.34794E+01  1.43024E+01  1.49781E+01  1.48967E+01  1.39113E+01  1.25096E+01
   1.14012E+01  1.08546E+01  1.06900E+01  1.07056E+01  1.08648E+01  1.13424E+01  1.33714E+01  1.79748E+01  2.22826E+01  2.71125E+01
   3.61886E+01  5.04515E+01  6.52400E+01  7.27959E+01  6.87385E+01  5.59936E+01  4.15528E+01  3.02250E+01  2.24646E+01  1.70704E+01
   1.36353E+01  1.22112E+01  1.16436E+01  1.13244E+01  1.11061E+01  1.09522E+01  1.08492E+01  1.07908E+01  1.08049E+01  1.10445E+01
   1.24340E+01  1.69257E+01  2.20731E+01  2.69152E+01  3.47470E+01  4.77973E+01  6.31173E+01  7.33944E+01  7.26075E+01  6.15671E+01
   4.69140E+01  3.46866E+01  2.62574E+01  2.02604E+01  1.56706E+01  1.27988E+01  1.11256E+01  1.01748E+01  9.92447E+00  1.02214E+01
   1.07629E+01  1.12283E+01  1.13826E+01  1.11674E+01  1.07066E+01  1.01817E+01  9.70290E+00  9.30292E+00  8.92701E+00  8.56738E+00
   8.24989E+00  7.93235E+00  7.58937E+00  7.25353E+00  6.91725E+00  6.51799E+00  6.33157E+00  6.34632E+00  6.15346E+00  5.46586E+00
   4.13270E+00  2.83747E+00  2.51204E+00  3.24247E+00  4.15734E+00  4.29918E+00  3.37558E+00  1.84028E+00  3.60988E-01 -7.78201E-01
  -1.62673E+00 -2.13353E+00 -2.32689E+00 -2.74320E+00 -3.74134E+00 -5.00606E+00 -5.53408E+00 -4.84946E+00 -3.63586E+00 -3.03363E+00
  -3.44426E+00 -4.28065E+00 -4.38048E+00 -3.58488E+00 -2.75803E+00 -2.34674E+00 -1.86897E+00 -6.57365E-01  1.49874E+00  4.05126E+00
   6.14959E+00  7.26462E+00  7.19029E+00  6.41228E+00  5.50227E+00  4.71349E+00  4.13107E+00  3.82073E+00  3.95341E+00  4.52972E+00
   5.58784E+00  7.00599E+00  8.51012E+00  9.75093E+00  1.00539E+01  9.21512E+00  7.12734E+00  3.95005E+00  7.06637E-01 -1.63576E+00
  -2.37634E+00 -1.65413E+00  1.39191E-01  3.23985E+00  7.67039E+00  1.22874E+01  1.49538E+01  1.43187E+01  1.10477E+01  6.76809E+00
   2.36324E+00 -1.53625E+00 -3.79384E+00 -3.23748E+00  3.01085E-01  5.29533E+00  9.82222E+00  1.29979E+01  1.47783E+01  1.53643E+01
   1.49819E+01  1.42504E+01  1.38311E+01  1.40430E+01  1.47658E+01  1.57304E+01  1.66560E+01  1.72570E+01  1.75021E+01  1.72988E+01
   1.65944E+01  1.56238E+01  1.50227E+01  1.53915E+01  1.68323E+01  1.88877E+01  2.08539E+01  2.23344E+01  2.33293E+01  2.44371E+01
   2.65598E+01  2.88029E+01  3.16022E+01  3.75715E+01  5.21658E+01  7.01583E+01  8.22578E+01  9.30925E+01  1.11573E+02  1.37653E+02
   1.58215E+02  1.57424E+02  1.32591E+02  9.69949E+01  6.62458E+01  4.53480E+01  3.13875E+01  2.15816E+01  1.63943E+01  1.45961E+01
   1.35426E+01  1.27807E+01  1.23162E+01  1.20888E+01  1.18980E+01  1.15682E+01  1.10495E+01  1.04494E+01  9.89016E+00  9.41961E+00
   9.03980E+00  8.76582E+00  8.61656E+00  8.55734E+00  8.50088E+00  8.39849E+00  8.27675E+00  8.16284E+00  8.06991E+00  8.02153E+00
   8.05781E+00  8.20243E+00  8.42753E+00  8.67519E+00  8.91798E+00  9.15065E+00  9.37444E+00  9.59556E+00  9.82658E+00  1.00924E+01
   1.04143E+01  1.07851E+01  1.11782E+01  1.15699E+01  1.19477E+01  1.23068E+01  1.26424E+01  1.29511E+01  1.32356E+01  1.35009E+01
   1.37510E+01  1.39911E+01  1.42258E+01  1.44618E+01  1.47087E+01  1.49799E+01  1.52886E+01  1.56487E+01  1.60738E+01  1.65826E+01
   1.72066E+01  1.79869E+01  1.88147E+01  1.96374E+01  2.05863E+01  2.16569E+01  2.26195E+01  2.31936E+01  2.33182E+01  2.33574E+01
   2.37351E+01  2.44729E+01  2.54811E+01  2.67853E+01  2.84566E+01  3.03770E+01  3.21336E+01  3.33344E+01  3.39293E+01  3.41299E+01
   3.41534E+01  3.40804E+01  3.39129E+01  3.36841E+01  3.34302E+01  3.31321E+01  3.27823E+01  3.23855E+01  3.19494E+01  3.14833E+01
   3.09947E+01  3.04899E+01  2.99733E+01  2.94492E+01  2.89201E+01  2.83879E+01  2.78518E+01  2.73109E+01  2.67632E+01  2.62084E+01
   2.56458E+01  2.50753E+01  2.44959E+01  2.39082E+01  2.33133E+01  2.27148E+01  2.21155E+01  2.15195E+01  2.09298E+01  2.03512E+01
   1.97883E+01  1.92472E+01  1.87324E+01  1.82487E+01  1.77996E+01  1.73899E+01  1.70233E+01  1.67045E+01  1.64360E+01  1.62207E+01
   1.60601E+01  1.59571E+01  1.59137E+01  1.59320E+01  1.60123E+01  1.61553E+01  1.63603E+01  1.66276E+01  1.69559E+01  1.73432E+01
   1.77850E+01  1.82763E+01  1.88105E+01  1.93806E+01  1.99770E+01  2.05888E+01  2.12026E+01  2.18050E+01  2.23816E+01  2.29183E+01
   2.34002E+01  2.38131E+01  2.41434E+01  2.43804E+01  2.45155E+01  2.45433E+01  2.44601E+01  2.42659E+01  2.39631E+01  2.35584E+01
   2.30607E+01  2.24813E+01  2.18323E+01  2.11273E+01  2.03803E+01  1.96064E+01  1.88193E+01  1.80322E+01  1.72557E+01  1.64997E+01
   1.57722E+01  1.50805E+01  1.44289E+01  1.38209E+01  1.32570E+01  1.27381E+01  1.22634E+01  1.18322E+01  1.14419E+01  1.10902E+01
   1.07734E+01  1.04892E+01  1.02347E+01  1.00076E+01  9.80465E+00  9.62326E+00  9.46052E+00  9.31495E+00  9.18459E+00  9.06817E+00
   8.96340E+00  8.86897E+00  8.78330E+00  8.70609E+00  8.63626E+00  8.57328E+00  8.51560E+00  8.46280E+00  8.41411E+00  8.36983E+00
   8.32920E+00  8.29200E+00  8.25710E+00  8.22460E+00  8.19414E+00  8.16623E+00  8.14020E+00  8.11592E+00  8.09257E+00  8.07056E+00
   8.04974E+00  8.03057E+00  8.01231E+00  7.99495E+00  7.97789E+00  7.96178E+00  7.94646E+00  7.93228E+00  7.91844E+00  7.90504E+00
   7.89173E+00  7.87923E+00  7.86732E+00  7.85620E+00  7.84510E+00  7.83427E+00  7.82352E+00  7.81358E+00  7.80408E+00  7.79512E+00
   7.78599E+00  7.77713E+00  7.76847E+00  7.76064E+00  7.75314E+00  7.74603E+00  7.73872E+00  7.73183E+00  7.72529E+00  7.71964E+00
   7.71422E+00  7.70913E+00  7.70397E+00  7.69948E+00  7.69555E+00  7.69257E+00  7.68982E+00  7.68752E+00
 NY background values follow
     1.579E+01    1.573E+01    1.568E+01    1.563E+01    1.558E+01    1.553E+01    1.548E+01    1.542E+01    1.537E+01    1.532E+01
     1.527E+01    1.522E+01    1.517E+01    1.511E+01    1.506E+01    1.501E+01    1.496E+01    1.491E+01    1.486E+01    1.481E+01
     1.475E+01    1.470E+01    1.465E+01    1.460E+01    1.455E+01    1.450E+01    1.445E+01    1.440E+01    1.434E+01    1.429E+01
     1.424E+01    1.419E+01    1.414E+01    1.409E+01    1.403E+01    1.398E+01    1.393E+01    1.388E+01    1.383E+01    1.377E+01
     1.372E+01    1.367E+01    1.362E+01    1.356E+01    1.351E+01    1.346E+01    1.341E+01    1.335E+01    1.330E+01    1.325E+01
     1.319E+01    1.314E+01    1.309E+01    1.303E+01    1.298E+01    1.292E+01    1.287E+01    1.281E+01    1.276E+01    1.270E+01
     1.264E+01    1.259E+01    1.253E+01    1.247E+01    1.241E+01    1.236E+01    1.230E+01    1.224E+01    1.218E+01    1.212E+01
     1.206E+01    1.199E+01    1.193E+01    1.187E+01    1.181E+01    1.174E+01    1.168E+01    1.161E+01    1.155E+01    1.148E+01
     1.141E+01    1.134E+01    1.128E+01    1.121E+01    1.114E+01    1.106E+01    1.099E+01    1.092E+01    1.085E+01    1.077E+01
     1.070E+01    1.062E+01    1.054E+01    1.046E+01    1.039E+01    1.031E+01    1.022E+01    1.014E+01    1.006E+01    9.977E+00
     9.892E+00    9.806E+00    9.720E+00    9.632E+00    9.544E+00    9.454E+00    9.364E+00    9.273E+00    9.180E+00    9.087E+00
     8.993E+00    8.898E+00    8.802E+00    8.704E+00    8.606E+00    8.507E+00    8.407E+00    8.306E+00    8.204E+00    8.101E+00
     7.997E+00    7.892E+00    7.786E+00    7.679E+00    7.570E+00    7.461E+00    7.351E+00    7.240E+00    7.128E+00    7.015E+00
     6.900E+00    6.785E+00    6.669E+00    6.552E+00    6.433E+00    6.314E+00    6.193E+00    6.072E+00    5.949E+00    5.826E+00
     5.703E+00    5.578E+00    5.453E+00    5.328E+00    5.203E+00    5.077E+00    4.951E+00    4.826E+00    4.700E+00    4.575E+00
     4.450E+00    4.326E+00    4.202E+00    4.079E+00    3.957E+00    3.835E+00    3.715E+00    3.596E+00    3.478E+00    3.361E+00
     3.246E+00    3.133E+00    3.021E+00    2.911E+00    2.802E+00    2.696E+00    2.592E+00    2.490E+00    2.390E+00    2.292E+00
     2.198E+00    2.105E+00    2.016E+00    1.929E+00    1.845E+00    1.765E+00    1.687E+00    1.613E+00    1.542E+00    1.474E+00
     1.410E+00    1.350E+00    1.294E+00    1.241E+00    1.191E+00    1.146E+00    1.103E+00    1.064E+00    1.028E+00    9.953E-01
     9.656E-01    9.388E-01    9.149E-01    8.938E-01    8.755E-01    8.597E-01    8.465E-01    8.357E-01    8.273E-01    8.212E-01
     8.172E-01    8.154E-01    8.156E-01    8.177E-01    8.217E-01    8.275E-01    8.349E-01    8.439E-01    8.545E-01    8.664E-01
     8.797E-01    8.943E-01    9.100E-01    9.268E-01    9.446E-01    9.633E-01    9.828E-01    1.003E+00    1.024E+00    1.046E+00
     1.067E+00    1.090E+00    1.113E+00    1.135E+00    1.158E+00    1.182E+00    1.205E+00    1.228E+00    1.250E+00    1.273E+00
     1.296E+00    1.319E+00    1.341E+00    1.364E+00    1.386E+00    1.409E+00    1.431E+00    1.454E+00    1.477E+00    1.500E+00
     1.522E+00    1.545E+00    1.568E+00    1.591E+00    1.615E+00    1.638E+00    1.662E+00    1.686E+00    1.710E+00    1.734E+00
     1.758E+00    1.783E+00    1.808E+00    1.833E+00    1.858E+00    1.884E+00    1.910E+00    1.936E+00    1.963E+00    1.990E+00
     2.017E+00    2.045E+00    2.073E+00    2.102E+00    2.131E+00    2.160E+00    2.190E+00    2.221E+00    2.251E+00    2.283E+00
     2.315E+00    2.347E+00    2.380E+00    2.413E+00    2.447E+00    2.482E+00    2.517E+00    2.552E+00    2.588E+00    2.624E+00
     2.661E+00    2.698E+00    2.736E+00    2.774E+00    2.812E+00    2.851E+00    2.890E+00    2.930E+00    2.969E+00    3.009E+00
     3.050E+00    3.091E+00    3.132E+00    3.173E+00    3.214E+00    3.256E+00    3.298E+00    3.340E+00    3.383E+00    3.425E+00
     3.468E+00    3.511E+00    3.554E+00    3.597E+00    3.641E+00    3.684E+00    3.728E+00    3.771E+00    3.815E+00    3.859E+00
     3.903E+00    3.947E+00    3.990E+00    4.034E+00    4.078E+00    4.122E+00    4.166E+00    4.210E+00    4.254E+00    4.297E+00
     4.341E+00    4.384E+00    4.428E+00    4.471E+00    4.515E+00    4.558E+00    4.601E+00    4.644E+00    4.687E+00    4.730E+00
     4.773E+00    4.816E+00    4.859E+00    4.901E+00    4.944E+00    4.986E+00    5.028E+00    5.070E+00    5.112E+00    5.154E+00
     5.195E+00    5.237E+00    5.278E+00    5.319E+00    5.360E+00    5.401E+00    5.442E+00    5.483E+00    5.523E+00    5.563E+00
     5.603E+00    5.643E+00    5.683E+00    5.722E+00    5.761E+00    5.800E+00    5.839E+00    5.878E+00    5.916E+00    5.955E+00
     5.993E+00    6.030E+00    6.068E+00    6.105E+00    6.142E+00    6.179E+00    6.216E+00    6.252E+00    6.288E+00    6.324E+00
     6.360E+00    6.395E+00    6.431E+00    6.466E+00    6.500E+00    6.535E+00    6.569E+00    6.603E+00    6.637E+00    6.670E+00
     6.704E+00    6.737E+00    6.769E+00    6.802E+00    6.834E+00    6.866E+00    6.898E+00    6.930E+00    6.961E+00    6.992E+00
     7.023E+00    7.053E+00    7.084E+00    7.114E+00    7.144E+00    7.173E+00    7.202E+00    7.231E+00    7.260E+00    7.289E+00
     7.317E+00    7.345E+00    7.373E+00    7.400E+00    7.428E+00    7.455E+00    7.481E+00    7.508E+00    7.534E+00    7.560E+00
     7.585E+00    7.611E+00    7.636E+00    7.661E+00    7.685E+00    7.709E+00    7.733E+00    7.757E+00    7.780E+00    7.803E+00
     7.825E+00    7.847E+00    7.869E+00    7.891E+00    7.912E+00    7.932E+00    7.953E+00    7.973E+00    7.992E+00    8.012E+00
     8.030E+00    8.049E+00    8.067E+00    8.084E+00    8.101E+00    8.118E+00    8.134E+00    8.150E+00    8.165E+00    8.180E+00
     8.194E+00    8.208E+00    8.222E+00    8.235E+00    8.247E+00    8.259E+00    8.271E+00    8.282E+00    8.292E+00    8.302E+00
     8.311E+00    8.320E+00    8.329E+00    8.336E+00    8.344E+00    8.350E+00    8.357E+00    8.362E+00    8.368E+00    8.373E+00
     8.377E+00    8.381E+00    8.384E+00    8.388E+00    8.390E+00    8.393E+00    8.395E+00    8.396E+00    8.398E+00    8.399E+00
     8.399E+00    8.400E+00    8.400E+00    8.400E+00    8.400E+00    8.399E+00    8.398E+00    8.397E+00    8.396E+00    8.394E+00
     8.393E+00    8.391E+00    8.389E+00    8.387E+00    8.385E+00    8.383E+00    8.381E+00    8.379E+00    8.376E+00    8.374E+00
     8.371E+00    8.369E+00    8.366E+00    8.364E+00    8.362E+00    8.359E+00    8.357E+00    8.355E+00
 Ala      Conc. = 1.47E+02
