 LCModel (Version 6.3-1L) Copyright: S.W. Provencher.          Ref.: Magn. Reson. Med. 30:672-679 (1993).                
 Slice#3 Row#9 Col#12  K_02_press_1_raw_act
 36 lines in following concentration table = NCONC+1
    Conc.  %SD /Cr+PCr  Metabolite                                         
    0.000 999%   0.000 Ala                                                 
   51.166 273% 8.0E-02 Asp                                                 
    0.000 999%   0.000 Cr                                                  
  642.308   6%   1.000 PCr                                                 
    0.000 999%   0.000 GABA                                                
   31.870 288% 5.0E-02 Glc                                                 
  581.816  26%   0.906 Gln                                                 
 1.10E+03  16%   1.719 Glu                                                 
  117.630  12%   0.183 GPC                                                 
    0.000 999%   0.000 PCh                                                 
   27.771 173% 4.3E-02 GSH                                                 
  182.516  90%   0.284 Ins                                                 
   29.872 302% 4.7E-02 Lac                                                 
 2.17E+03   6%   3.375 NAA                                                 
  118.084 113%   0.184 NAAG                                                
   33.428  52% 5.2E-02 Scyllo                                              
  171.422  77%   0.267 Tau                                                 
  553.683  12%   0.862 -CrCH2                                              
  117.630  12%   0.183 GPC+PCh                                             
 2.29E+03   3%   3.559 NAA+NAAG                                            
  642.308   6%   1.000 Cr+PCr                                              
 1.69E+03  15%   2.624 Glu+Gln                                             
    0.000 999%   0.000 Lip13a                                              
  317.016  30%   0.494 Lip13b                                              
   65.404  53%   0.102 Lip09                                               
 1.02E+03  16%   1.584 MM09                                                
   49.190  45% 7.7E-02 Lip20                                               
 2.05E+03  13%   3.185 MM20                                                
  284.358  27%   0.443 MM12                                                
 1.85E+03  13%   2.877+MM14                                                
  914.003  18%   1.423 MM17                                                
  317.016  30%   0.494 Lip13a+Lip13b                                       
 2.45E+03  11%   3.813 MM14+Lip13a+Lip13b+MM12                             
 1.08E+03  15%   1.686 MM09+Lip09                                          
 2.09E+03  12%   3.261 MM20+Lip20                                          
   6 lines in following misc. output table
  FWHM = 0.046 ppm    S/N =  17                                            
  Data shift = 0.000 ppm                                                   
  Ph: -47 deg     -30.1 deg/ppm                                            
  alphaB,S = 4.6E-01,   9.7E+01                                            
   14 spline knots.   Ns = 7(1)                                            
  (10) 2 infls.   ( 1) 1 extrs.                                            
  498 points on ppm-axis = NY
      4.000000     3.992357     3.984714     3.977070     3.969427     3.961784     3.954141     3.946497     3.938854     3.931211
      3.923568     3.915925     3.908281     3.900638     3.892995     3.885352     3.877708     3.870065     3.862422     3.854779
      3.847136     3.839492     3.831849     3.824206     3.816563     3.808919     3.801276     3.793633     3.785990     3.778347
      3.770703     3.763060     3.755417     3.747774     3.740130     3.732487     3.724844     3.717201     3.709558     3.701914
      3.694271     3.686628     3.678985     3.671341     3.663698     3.656055     3.648412     3.640769     3.633125     3.625482
      3.617839     3.610196     3.602552     3.594909     3.587266     3.579623     3.571980     3.564336     3.556693     3.549050
      3.541407     3.533763     3.526120     3.518477     3.510834     3.503191     3.495547     3.487904     3.480261     3.472618
      3.464974     3.457331     3.449688     3.442045     3.434402     3.426758     3.419115     3.411472     3.403829     3.396185
      3.388542     3.380899     3.373256     3.365613     3.357969     3.350326     3.342683     3.335040     3.327396     3.319753
      3.312110     3.304467     3.296824     3.289180     3.281537     3.273894     3.266251     3.258607     3.250964     3.243321
      3.235678     3.228034     3.220391     3.212748     3.205105     3.197462     3.189818     3.182175     3.174532     3.166889
      3.159245     3.151602     3.143959     3.136316     3.128673     3.121029     3.113386     3.105743     3.098100     3.090456
      3.082813     3.075170     3.067527     3.059884     3.052240     3.044597     3.036954     3.029311     3.021667     3.014024
      3.006381     2.998738     2.991095     2.983451     2.975808     2.968165     2.960522     2.952878     2.945235     2.937592
      2.929949     2.922306     2.914662     2.907019     2.899376     2.891733     2.884089     2.876446     2.868803     2.861160
      2.853517     2.845873     2.838230     2.830587     2.822944     2.815300     2.807657     2.800014     2.792371     2.784728
      2.777084     2.769441     2.761798     2.754155     2.746511     2.738868     2.731225     2.723582     2.715939     2.708295
      2.700652     2.693009     2.685366     2.677722     2.670079     2.662436     2.654793     2.647150     2.639506     2.631863
      2.624220     2.616577     2.608933     2.601290     2.593647     2.586004     2.578361     2.570717     2.563074     2.555431
      2.547788     2.540144     2.532501     2.524858     2.517215     2.509572     2.501928     2.494285     2.486642     2.478999
      2.471355     2.463712     2.456069     2.448426     2.440783     2.433139     2.425496     2.417853     2.410210     2.402566
      2.394923     2.387280     2.379637     2.371994     2.364350     2.356707     2.349064     2.341421     2.333777     2.326134
      2.318491     2.310848     2.303205     2.295561     2.287918     2.280275     2.272632     2.264988     2.257345     2.249702
      2.242059     2.234416     2.226772     2.219129     2.211486     2.203843     2.196199     2.188556     2.180913     2.173270
      2.165627     2.157983     2.150340     2.142697     2.135054     2.127410     2.119767     2.112124     2.104481     2.096838
      2.089194     2.081551     2.073908     2.066265     2.058621     2.050978     2.043335     2.035692     2.028049     2.020405
      2.012762     2.005119     1.997476     1.989833     1.982190     1.974546     1.966903     1.959260     1.951617     1.943974
      1.936331     1.928688     1.921045     1.913402     1.905759     1.898115     1.890472     1.882829     1.875186     1.867543
      1.859900     1.852257     1.844614     1.836971     1.829327     1.821684     1.814041     1.806398     1.798755     1.791112
      1.783469     1.775826     1.768183     1.760540     1.752896     1.745253     1.737610     1.729967     1.722324     1.714681
      1.707038     1.699395     1.691752     1.684108     1.676465     1.668822     1.661179     1.653536     1.645893     1.638250
      1.630607     1.622964     1.615321     1.607677     1.600034     1.592391     1.584748     1.577105     1.569462     1.561819
      1.554176     1.546533     1.538890     1.531246     1.523603     1.515960     1.508317     1.500674     1.493031     1.485388
      1.477745     1.470102     1.462458     1.454815     1.447172     1.439529     1.431886     1.424243     1.416600     1.408957
      1.401314     1.393671     1.386027     1.378384     1.370741     1.363098     1.355455     1.347812     1.340169     1.332526
      1.324883     1.317240     1.309596     1.301953     1.294310     1.286667     1.279024     1.271381     1.263738     1.256095
      1.248452     1.240808     1.233165     1.225522     1.217879     1.210236     1.202593     1.194950     1.187307     1.179664
      1.172021     1.164377     1.156734     1.149091     1.141448     1.133805     1.126162     1.118519     1.110876     1.103233
      1.095590     1.087946     1.080303     1.072660     1.065017     1.057374     1.049731     1.042088     1.034445     1.026802
      1.019158     1.011515     1.003872     0.996229     0.988586     0.980943     0.973300     0.965657     0.958014     0.950371
      0.942727     0.935084     0.927441     0.919798     0.912155     0.904512     0.896869     0.889226     0.881583     0.873940
      0.866296     0.858653     0.851010     0.843367     0.835724     0.828081     0.820438     0.812795     0.805152     0.797508
      0.789865     0.782222     0.774579     0.766936     0.759293     0.751650     0.744007     0.736364     0.728721     0.721077
      0.713434     0.705791     0.698148     0.690505     0.682862     0.675219     0.667576     0.659933     0.652290     0.644646
      0.637003     0.629360     0.621717     0.614074     0.606431     0.598788     0.591145     0.583502     0.575858     0.568215
      0.560572     0.552929     0.545286     0.537643     0.530000     0.522357     0.514714     0.507071     0.499427     0.491784
      0.484141     0.476498     0.468855     0.461212     0.453569     0.445925     0.438282     0.430639     0.422996     0.415353
      0.407710     0.400067     0.392424     0.384780     0.377137     0.369494     0.361851     0.354208     0.346565     0.338922
      0.331278     0.323635     0.315992     0.308349     0.300706     0.293063     0.285420     0.277777     0.270133     0.262490
      0.254847     0.247204     0.239561     0.231918     0.224275     0.216631     0.208988     0.201345
 NY phased data points follow
   8.80064E+00  8.44710E+00  8.85830E+00  9.39165E+00  7.77041E+00  7.79056E+00  1.05150E+01  9.48060E+00  8.31524E+00  9.13674E+00
   1.07504E+01  1.09753E+01  9.70146E+00  8.82479E+00  9.14068E+00  6.11041E+00  8.92069E+00  1.09514E+01  1.07522E+01  1.15170E+01
   9.82665E+00  8.29121E+00  1.00347E+01  8.53376E+00  1.09236E+01  8.57846E+00  8.57068E+00  1.10656E+01  7.57193E+00  8.80429E+00
   6.97440E+00  8.20906E+00  7.25525E+00  8.64617E+00  8.70199E+00  8.85158E+00  7.32927E+00  9.67990E+00  1.03739E+01  8.76889E+00
   9.51717E+00  1.11852E+01  7.51095E+00  9.05615E+00  7.85686E+00  1.24306E+01  1.03073E+01  1.06588E+01  9.07502E+00  9.28656E+00
   1.08963E+01  9.15629E+00  9.56141E+00  8.49056E+00  8.88943E+00  1.06125E+01  7.77761E+00  9.89732E+00  1.07026E+01  1.14760E+01
   5.87624E+00  7.15844E+00  4.81989E+00  7.24559E+00  4.73208E+00  6.13038E+00  5.25383E+00  6.20408E+00  6.28748E+00  6.69931E+00
   4.94929E+00  8.44228E+00  8.18551E+00  6.57327E+00  7.45099E+00  8.80593E+00  6.01166E+00  5.40707E+00  7.11282E+00  7.23845E+00
   5.59787E+00  7.33928E+00  7.76003E+00  7.14183E+00  1.05951E+01  3.96880E+00  9.11967E+00  7.38824E+00  7.22958E+00  9.24996E+00
   6.87785E+00  1.02711E+01  6.15075E+00  5.99037E+00  1.05726E+01  9.94192E+00  1.07655E+01  9.54047E+00  1.12926E+01  1.07345E+01
   1.36575E+01  1.39254E+01  1.46923E+01  2.02513E+01  1.76790E+01  1.31304E+01  1.37715E+01  1.16494E+01  9.87320E+00  8.34409E+00
   1.13349E+01  8.75411E+00  8.07375E+00  6.60434E+00  6.82789E+00  5.16578E+00  6.67164E+00  5.89383E+00  8.23921E+00  8.96606E+00
   7.03554E+00  1.22394E+01  1.05591E+01  1.15335E+01  1.45135E+01  2.05927E+01  2.72029E+01  3.06020E+01  2.88166E+01  2.49775E+01
   2.18607E+01  1.76857E+01  1.33620E+01  1.32593E+01  1.09404E+01  8.28290E+00  6.25013E+00  7.26189E+00  5.87227E+00  7.90890E+00
   7.47008E+00  7.32645E+00  8.76732E+00  6.56673E+00  6.26170E+00  4.23945E+00  5.08584E+00  4.42227E+00  4.94967E+00  5.97805E+00
   5.58681E+00  5.25143E+00  2.30981E+00  6.23593E+00  4.74661E+00  5.22516E+00  3.31904E+00  1.56759E+00  7.45783E+00  3.74696E+00
   3.21744E+00  2.99621E+00  3.83973E+00 -1.80793E-01  4.11267E+00  2.34864E+00  2.45202E+00  2.86648E+00 -7.55112E-01  2.46340E-01
  -2.67126E+00  1.77218E-01 -1.62063E+00 -1.34626E+00 -3.24232E+00 -4.11300E+00 -4.31640E+00 -2.16279E+00 -4.11658E+00 -9.78316E-01
   1.97642E+00 -2.32161E+00 -3.60539E-01 -4.15356E-01  1.14474E-01  1.22666E+00  1.12243E+00 -6.42497E-01  3.55785E-01  9.65751E-01
   2.99871E+00  3.80091E+00  2.54124E+00  4.23670E+00  7.28414E+00  3.77453E+00  1.65471E+00  1.74954E+00 -4.27089E-01 -1.85398E+00
   1.23898E+00  2.25804E+00  5.20410E+00  7.03248E+00  9.08944E+00  8.79930E+00  5.90677E+00  5.98779E+00  5.43235E+00  3.19014E+00
   1.86403E+00  5.95186E+00  9.15297E+00  1.31549E+01  1.62239E+01  1.85295E+01  1.73320E+01  1.60050E+01  1.30906E+01  1.25794E+01
   7.75396E+00  5.78291E+00  5.41273E+00  6.65487E+00  6.33742E+00  7.81961E+00  9.92597E+00  1.18550E+01  1.19144E+01  1.33768E+01
   1.27105E+01  1.15428E+01  1.42741E+01  8.17554E+00  1.04834E+01  1.11618E+01  1.50830E+01  1.37743E+01  1.03877E+01  1.28649E+01
   1.25724E+01  9.16710E+00  9.97675E+00  1.10157E+01  1.02811E+01  1.20273E+01  1.37806E+01  1.65046E+01  1.62396E+01  1.56298E+01
   1.74136E+01  1.80423E+01  2.03872E+01  2.26032E+01  2.59731E+01  3.46965E+01  4.12535E+01  5.18806E+01  6.56167E+01  7.99838E+01
   9.06112E+01  9.06209E+01  8.22086E+01  6.39269E+01  5.00611E+01  3.52356E+01  2.90965E+01  2.18092E+01  1.59311E+01  1.46761E+01
   1.54704E+01  1.30172E+01  1.08524E+01  1.29795E+01  1.11776E+01  9.93417E+00  1.21152E+01  9.80645E+00  8.03804E+00  1.06057E+01
   8.98229E+00  7.31586E+00  1.02579E+01  9.36548E+00  7.39647E+00  9.66678E+00  1.03386E+01  1.00542E+01  9.08819E+00  7.25972E+00
   1.02546E+01  1.04590E+01  1.06417E+01  1.21379E+01  8.58492E+00  9.64082E+00  7.76231E+00  1.04418E+01  8.49768E+00  7.46282E+00
   1.22340E+01  1.17576E+01  1.36708E+01  1.08755E+01  1.15254E+01  1.09762E+01  1.11659E+01  1.48793E+01  1.26848E+01  1.37542E+01
   1.66613E+01  1.82712E+01  1.54324E+01  1.82061E+01  1.79129E+01  1.67877E+01  1.70559E+01  1.75012E+01  1.64766E+01  1.62757E+01
   1.95958E+01  1.73423E+01  1.53429E+01  1.63258E+01  1.86163E+01  1.92934E+01  1.99161E+01  2.00780E+01  1.90395E+01  2.19893E+01
   1.87586E+01  1.75698E+01  2.13566E+01  1.88302E+01  1.92524E+01  1.82083E+01  1.58873E+01  1.60624E+01  1.55690E+01  1.61177E+01
   1.27832E+01  1.22045E+01  1.10727E+01  1.46064E+01  1.34104E+01  1.15727E+01  1.53255E+01  1.36971E+01  1.36203E+01  1.20630E+01
   1.24946E+01  1.15260E+01  9.69622E+00  1.19448E+01  9.75237E+00  9.06431E+00  7.09194E+00  9.51526E+00  8.19890E+00  6.18300E+00
   4.02750E+00  7.06903E+00  6.72942E+00  5.99578E+00  5.93033E+00  6.01876E+00  6.05604E+00  3.90254E+00  4.47276E+00  2.58640E+00
   5.37207E+00  6.72215E+00  2.83759E+00  6.15655E+00  5.87314E+00  4.58340E+00  1.89752E+00  3.83641E+00  3.04319E+00  3.43421E+00
   3.13493E+00  3.54437E+00  8.63897E-02  6.46631E-01  3.20932E-01  1.80049E+00  2.78953E+00  1.94661E+00  6.12400E+00  1.03189E+00
   4.73627E+00  1.95422E+00  3.57597E+00  8.71669E-01  2.34989E+00  5.85073E+00  7.58472E+00  6.27139E+00  6.82454E+00  7.43755E+00
   7.51162E+00  5.89924E+00  6.23015E+00  2.93203E+00  6.31680E+00  6.60565E+00  9.27341E+00  8.04875E+00  7.40915E+00  7.62862E+00
   7.96302E+00  7.39796E+00  8.62115E+00  8.64082E+00  8.30529E+00  8.75109E+00  6.96491E+00  4.21139E+00  6.96267E+00  4.67519E+00
   6.95065E+00  6.17470E+00  6.19590E+00  5.33900E+00  5.66273E+00  4.35061E+00  5.41103E+00  3.44710E+00  3.69465E+00  3.72086E+00
   3.82288E+00  3.41438E+00  3.13229E+00  5.19241E+00  4.06178E+00  4.40517E+00  1.69012E+00  3.14382E+00  4.88536E+00  4.71224E+00
   6.36862E+00  4.42726E+00  4.90487E+00  1.37142E+00  2.96861E+00  3.18196E+00  4.73323E+00  2.18389E+00  4.50945E+00  7.15620E+00
   3.88632E+00  4.27186E+00  4.49803E+00  4.41753E+00  5.79858E+00  4.02653E+00  2.57942E+00  4.85785E+00  5.16004E+00  3.18359E+00
   5.03974E+00  3.31393E+00  4.05063E+00  5.19481E+00  8.69867E-01  3.22534E+00  4.60850E+00  1.64448E+00  5.35564E+00  3.47097E+00
   2.56586E+00  3.35024E+00  1.63370E+00  4.60815E+00  1.96057E+00  5.08344E+00  5.29072E+00  3.49343E+00  1.14607E-01  1.06035E+00
   8.20034E-01  3.81637E+00  2.93014E+00  2.48394E+00  2.54906E+00  3.27852E+00  1.86845E+00  5.31869E+00  3.08997E+00  6.82935E+00
   3.43030E+00  5.21060E+00  2.79711E+00  2.91744E+00  5.76245E+00  4.20791E+00  2.32394E+00  3.79281E+00
 NY points of the fit to the data follow
   8.40677E+00  8.35391E+00  8.34798E+00  8.46012E+00  8.64239E+00  8.86365E+00  9.13616E+00  9.49062E+00  9.92706E+00  1.03711E+01
   1.06754E+01  1.07187E+01  1.04985E+01  1.01418E+01  9.79322E+00  9.55978E+00  9.42593E+00  9.32524E+00  9.20264E+00  9.16746E+00
   9.22317E+00  9.29183E+00  9.29782E+00  9.19063E+00  8.96447E+00  8.60820E+00  8.18186E+00  7.84895E+00  7.86045E+00  8.35527E+00
   9.30261E+00  1.04437E+01  1.13621E+01  1.16925E+01  1.12875E+01  1.02896E+01  9.11087E+00  8.09959E+00  7.50585E+00  7.43674E+00
   7.80298E+00  8.34785E+00  8.83073E+00  9.18401E+00  9.45907E+00  9.67297E+00  9.83291E+00  9.89717E+00  9.78125E+00  9.47925E+00
   9.06358E+00  8.62164E+00  8.24961E+00  7.97554E+00  7.78397E+00  7.66156E+00  7.60521E+00  7.60890E+00  7.65731E+00  7.72430E+00
   7.77181E+00  7.76179E+00  7.69620E+00  7.59420E+00  7.49546E+00  7.43497E+00  7.40707E+00  7.37670E+00  7.35071E+00  7.34621E+00
   7.36356E+00  7.41553E+00  7.51391E+00  7.63900E+00  7.74596E+00  7.77328E+00  7.66046E+00  7.40102E+00  7.08891E+00  6.86132E+00
   6.81621E+00  6.94661E+00  7.20183E+00  7.53543E+00  7.92457E+00  8.28932E+00  8.47931E+00  8.39314E+00  8.05550E+00  7.58912E+00
   7.13629E+00  6.78517E+00  6.53212E+00  6.31065E+00  6.14672E+00  6.25758E+00  6.89728E+00  7.88687E+00  9.11238E+00  1.07053E+01
   1.27958E+01  1.51837E+01  1.72247E+01  1.81289E+01  1.75099E+01  1.56570E+01  1.33202E+01  1.12279E+01  9.72266E+00  8.65183E+00
   7.73188E+00  6.97606E+00  6.60374E+00  6.44787E+00  6.36319E+00  6.31164E+00  6.28402E+00  6.28994E+00  6.34573E+00  6.55835E+00
   7.33473E+00  8.73053E+00  1.05554E+01  1.30899E+01  1.67320E+01  2.13107E+01  2.57701E+01  2.85329E+01  2.84522E+01  2.56301E+01
   2.13223E+01  1.70403E+01  1.37327E+01  1.14452E+01  9.63597E+00  8.03393E+00  7.03817E+00  6.63375E+00  6.42069E+00  6.28442E+00
   6.18008E+00  6.07866E+00  5.97450E+00  5.87161E+00  5.77109E+00  5.66977E+00  5.56277E+00  5.44373E+00  5.31735E+00  5.19645E+00
   5.09043E+00  4.99990E+00  4.92268E+00  4.84794E+00  4.73769E+00  4.60049E+00  4.45445E+00  4.26097E+00  3.97962E+00  3.57228E+00
   3.12081E+00  2.84498E+00  2.91180E+00  3.26459E+00  3.64518E+00  3.76389E+00  3.48912E+00  2.93204E+00  2.33536E+00  1.83799E+00
   1.42509E+00  1.08604E+00  7.43044E-01  3.45700E-01 -4.26509E-02 -3.01612E-01 -2.83411E-01  3.19975E-02  4.58737E-01  7.49917E-01
   7.94844E-01  7.40203E-01  8.17355E-01  1.08917E+00  1.45075E+00  1.77887E+00  2.12701E+00  2.71548E+00  3.60623E+00  4.62643E+00
   5.48667E+00  5.97375E+00  6.11115E+00  6.09867E+00  6.14772E+00  6.29483E+00  6.45307E+00  6.66290E+00  6.97517E+00  7.41125E+00
   8.01097E+00  8.71513E+00  9.33099E+00  9.60026E+00  9.31352E+00  8.32016E+00  6.66171E+00  4.65298E+00  2.84930E+00  1.82565E+00
   1.82973E+00  2.68589E+00  4.22008E+00  6.33338E+00  8.70588E+00  1.07540E+01  1.18263E+01  1.15419E+01  9.97128E+00  7.56374E+00
   5.05583E+00  3.09630E+00  2.12046E+00  2.37700E+00  3.78740E+00  5.95501E+00  8.25243E+00  1.00463E+01  1.11002E+01  1.15445E+01
   1.16420E+01  1.15010E+01  1.11836E+01  1.09144E+01  1.09230E+01  1.12592E+01  1.18900E+01  1.26812E+01  1.33761E+01  1.37065E+01
   1.35199E+01  1.29461E+01  1.23618E+01  1.20979E+01  1.22472E+01  1.27527E+01  1.34750E+01  1.42238E+01  1.49217E+01  1.56556E+01
   1.64657E+01  1.74040E+01  1.88196E+01  2.19578E+01  2.73967E+01  3.39647E+01  4.19316E+01  5.26553E+01  6.63210E+01  8.02531E+01
   8.95459E+01  8.98811E+01  8.06939E+01  6.55973E+01  4.98556E+01  3.73157E+01  2.87461E+01  2.24207E+01  1.69326E+01  1.32258E+01
   1.18402E+01  1.12244E+01  1.08643E+01  1.06675E+01  1.05530E+01  1.04225E+01  1.02474E+01  1.00250E+01  9.77316E+00  9.52188E+00
   9.29461E+00  9.09527E+00  8.92688E+00  8.79488E+00  8.69372E+00  8.60851E+00  8.52994E+00  8.46062E+00  8.41040E+00  8.38564E+00
   8.38811E+00  8.42219E+00  8.49076E+00  8.59243E+00  8.72507E+00  8.88875E+00  9.08651E+00  9.32187E+00  9.59807E+00  9.91635E+00
   1.02766E+01  1.06762E+01  1.11093E+01  1.15668E+01  1.20392E+01  1.25164E+01  1.29893E+01  1.34487E+01  1.38864E+01  1.42960E+01
   1.46729E+01  1.50132E+01  1.53165E+01  1.55848E+01  1.58229E+01  1.60368E+01  1.62347E+01  1.64242E+01  1.66137E+01  1.68100E+01
   1.70187E+01  1.72418E+01  1.74789E+01  1.77256E+01  1.79749E+01  1.82167E+01  1.84390E+01  1.86277E+01  1.87684E+01  1.88468E+01
   1.88506E+01  1.87694E+01  1.85964E+01  1.83276E+01  1.79637E+01  1.75093E+01  1.69740E+01  1.63717E+01  1.57211E+01  1.50457E+01
   1.43756E+01  1.37341E+01  1.31415E+01  1.26286E+01  1.22177E+01  1.19067E+01  1.16712E+01  1.14796E+01  1.13207E+01  1.11931E+01
   1.10873E+01  1.09848E+01  1.08589E+01  1.06753E+01  1.04001E+01  1.00111E+01  9.50751E+00  8.90146E+00  8.23041E+00  7.56006E+00
   6.95039E+00  6.43391E+00  6.01244E+00  5.67401E+00  5.41617E+00  5.22811E+00  5.08884E+00  4.98163E+00  4.89479E+00  4.81989E+00
   4.75206E+00  4.68819E+00  4.62722E+00  4.56868E+00  4.51332E+00  4.46192E+00  4.41587E+00  4.37611E+00  4.34393E+00  4.32017E+00
   4.30618E+00  4.30285E+00  4.31141E+00  4.33250E+00  4.36716E+00  4.41598E+00  4.48005E+00  4.55998E+00  4.65669E+00  4.77045E+00
   4.90187E+00  5.05102E+00  5.21822E+00  5.40303E+00  5.60498E+00  5.82267E+00  6.05470E+00  6.29875E+00  6.55243E+00  6.81220E+00
   7.07434E+00  7.33417E+00  7.58708E+00  7.82781E+00  8.05134E+00  8.25218E+00  8.42542E+00  8.56618E+00  8.67075E+00  8.73574E+00
   8.75913E+00  8.73943E+00  8.67673E+00  8.57187E+00  8.42729E+00  8.24598E+00  8.03216E+00  7.79022E+00  7.52551E+00  7.24324E+00
   6.94921E+00  6.64855E+00  6.34648E+00  6.04730E+00  5.75523E+00  5.47350E+00  5.20515E+00  4.95202E+00  4.71575E+00  4.49694E+00
   4.29621E+00  4.11335E+00  3.94823E+00  3.79989E+00  3.66761E+00  3.55013E+00  3.44659E+00  3.35573E+00  3.27664E+00  3.20795E+00
   3.14879E+00  3.09799E+00  3.05492E+00  3.01860E+00  2.98847E+00  2.96358E+00  2.94353E+00  2.92759E+00  2.91557E+00  2.90686E+00
   2.90124E+00  2.89810E+00  2.89738E+00  2.89864E+00  2.90195E+00  2.90690E+00  2.91346E+00  2.92126E+00  2.93039E+00  2.94061E+00
   2.95203E+00  2.96432E+00  2.97756E+00  2.99146E+00  3.00620E+00  3.02158E+00  3.03773E+00  3.05436E+00  3.07158E+00  3.08916E+00
   3.10735E+00  3.12593E+00  3.14504E+00  3.16441E+00  3.18419E+00  3.20420E+00  3.22469E+00  3.24542E+00  3.26654E+00  3.28778E+00
   3.30935E+00  3.33108E+00  3.35321E+00  3.37550E+00  3.39809E+00  3.42074E+00  3.44370E+00  3.46680E+00  3.49026E+00  3.51382E+00
   3.53765E+00  3.56154E+00  3.58575E+00  3.61013E+00  3.63486E+00  3.65969E+00  3.68482E+00  3.71008E+00
 NY background values follow
     8.190E+00    8.169E+00    8.148E+00    8.127E+00    8.107E+00    8.086E+00    8.065E+00    8.045E+00    8.024E+00    8.003E+00
     7.982E+00    7.962E+00    7.941E+00    7.920E+00    7.899E+00    7.879E+00    7.858E+00    7.837E+00    7.816E+00    7.795E+00
     7.774E+00    7.753E+00    7.732E+00    7.711E+00    7.690E+00    7.669E+00    7.648E+00    7.627E+00    7.606E+00    7.584E+00
     7.563E+00    7.542E+00    7.520E+00    7.499E+00    7.477E+00    7.455E+00    7.433E+00    7.412E+00    7.390E+00    7.368E+00
     7.346E+00    7.323E+00    7.301E+00    7.279E+00    7.256E+00    7.234E+00    7.211E+00    7.188E+00    7.166E+00    7.143E+00
     7.120E+00    7.096E+00    7.073E+00    7.050E+00    7.026E+00    7.002E+00    6.979E+00    6.955E+00    6.931E+00    6.907E+00
     6.882E+00    6.858E+00    6.833E+00    6.808E+00    6.783E+00    6.758E+00    6.733E+00    6.708E+00    6.682E+00    6.656E+00
     6.631E+00    6.605E+00    6.578E+00    6.552E+00    6.525E+00    6.499E+00    6.472E+00    6.444E+00    6.417E+00    6.390E+00
     6.362E+00    6.334E+00    6.306E+00    6.277E+00    6.249E+00    6.220E+00    6.191E+00    6.162E+00    6.133E+00    6.103E+00
     6.073E+00    6.043E+00    6.013E+00    5.982E+00    5.951E+00    5.920E+00    5.889E+00    5.858E+00    5.827E+00    5.795E+00
     5.763E+00    5.732E+00    5.700E+00    5.668E+00    5.636E+00    5.604E+00    5.571E+00    5.539E+00    5.507E+00    5.475E+00
     5.442E+00    5.410E+00    5.378E+00    5.346E+00    5.313E+00    5.281E+00    5.249E+00    5.217E+00    5.185E+00    5.153E+00
     5.122E+00    5.090E+00    5.059E+00    5.027E+00    4.996E+00    4.965E+00    4.934E+00    4.904E+00    4.873E+00    4.843E+00
     4.813E+00    4.784E+00    4.754E+00    4.725E+00    4.696E+00    4.668E+00    4.639E+00    4.611E+00    4.584E+00    4.557E+00
     4.530E+00    4.503E+00    4.477E+00    4.452E+00    4.427E+00    4.403E+00    4.379E+00    4.356E+00    4.333E+00    4.311E+00
     4.290E+00    4.270E+00    4.250E+00    4.231E+00    4.213E+00    4.195E+00    4.179E+00    4.163E+00    4.148E+00    4.135E+00
     4.122E+00    4.110E+00    4.099E+00    4.089E+00    4.081E+00    4.073E+00    4.067E+00    4.062E+00    4.057E+00    4.055E+00
     4.053E+00    4.053E+00    4.054E+00    4.056E+00    4.059E+00    4.064E+00    4.071E+00    4.079E+00    4.088E+00    4.099E+00
     4.111E+00    4.125E+00    4.141E+00    4.158E+00    4.176E+00    4.196E+00    4.217E+00    4.240E+00    4.264E+00    4.289E+00
     4.315E+00    4.342E+00    4.371E+00    4.400E+00    4.430E+00    4.462E+00    4.494E+00    4.527E+00    4.561E+00    4.596E+00
     4.631E+00    4.667E+00    4.704E+00    4.741E+00    4.779E+00    4.817E+00    4.856E+00    4.895E+00    4.934E+00    4.973E+00
     5.013E+00    5.053E+00    5.093E+00    5.133E+00    5.173E+00    5.214E+00    5.254E+00    5.294E+00    5.334E+00    5.373E+00
     5.413E+00    5.452E+00    5.490E+00    5.529E+00    5.567E+00    5.604E+00    5.641E+00    5.677E+00    5.713E+00    5.748E+00
     5.782E+00    5.816E+00    5.849E+00    5.882E+00    5.914E+00    5.945E+00    5.976E+00    6.006E+00    6.035E+00    6.064E+00
     6.092E+00    6.119E+00    6.145E+00    6.171E+00    6.196E+00    6.221E+00    6.244E+00    6.267E+00    6.289E+00    6.310E+00
     6.331E+00    6.351E+00    6.370E+00    6.388E+00    6.405E+00    6.422E+00    6.438E+00    6.453E+00    6.467E+00    6.480E+00
     6.492E+00    6.504E+00    6.514E+00    6.524E+00    6.533E+00    6.541E+00    6.548E+00    6.554E+00    6.559E+00    6.564E+00
     6.567E+00    6.570E+00    6.571E+00    6.572E+00    6.571E+00    6.570E+00    6.567E+00    6.564E+00    6.560E+00    6.555E+00
     6.549E+00    6.542E+00    6.534E+00    6.525E+00    6.515E+00    6.504E+00    6.492E+00    6.480E+00    6.466E+00    6.452E+00
     6.436E+00    6.420E+00    6.403E+00    6.384E+00    6.365E+00    6.345E+00    6.324E+00    6.302E+00    6.280E+00    6.256E+00
     6.231E+00    6.206E+00    6.180E+00    6.152E+00    6.124E+00    6.095E+00    6.065E+00    6.034E+00    6.002E+00    5.970E+00
     5.936E+00    5.902E+00    5.866E+00    5.830E+00    5.793E+00    5.755E+00    5.716E+00    5.676E+00    5.635E+00    5.594E+00
     5.552E+00    5.509E+00    5.465E+00    5.421E+00    5.375E+00    5.330E+00    5.283E+00    5.236E+00    5.189E+00    5.141E+00
     5.092E+00    5.044E+00    4.994E+00    4.945E+00    4.895E+00    4.844E+00    4.794E+00    4.743E+00    4.691E+00    4.640E+00
     4.589E+00    4.537E+00    4.485E+00    4.434E+00    4.382E+00    4.330E+00    4.278E+00    4.226E+00    4.175E+00    4.123E+00
     4.072E+00    4.021E+00    3.970E+00    3.919E+00    3.869E+00    3.819E+00    3.769E+00    3.719E+00    3.670E+00    3.622E+00
     3.574E+00    3.526E+00    3.479E+00    3.433E+00    3.387E+00    3.341E+00    3.297E+00    3.253E+00    3.209E+00    3.166E+00
     3.124E+00    3.083E+00    3.042E+00    3.002E+00    2.963E+00    2.924E+00    2.886E+00    2.850E+00    2.813E+00    2.778E+00
     2.744E+00    2.710E+00    2.677E+00    2.645E+00    2.615E+00    2.585E+00    2.555E+00    2.527E+00    2.500E+00    2.474E+00
     2.449E+00    2.425E+00    2.402E+00    2.380E+00    2.359E+00    2.339E+00    2.320E+00    2.303E+00    2.286E+00    2.271E+00
     2.257E+00    2.244E+00    2.232E+00    2.222E+00    2.213E+00    2.205E+00    2.198E+00    2.193E+00    2.189E+00    2.186E+00
     2.184E+00    2.184E+00    2.184E+00    2.186E+00    2.189E+00    2.194E+00    2.199E+00    2.205E+00    2.212E+00    2.221E+00
     2.230E+00    2.240E+00    2.251E+00    2.263E+00    2.275E+00    2.289E+00    2.303E+00    2.318E+00    2.334E+00    2.350E+00
     2.367E+00    2.385E+00    2.403E+00    2.422E+00    2.442E+00    2.462E+00    2.482E+00    2.503E+00    2.524E+00    2.546E+00
     2.568E+00    2.591E+00    2.614E+00    2.637E+00    2.660E+00    2.684E+00    2.708E+00    2.732E+00    2.756E+00    2.780E+00
     2.804E+00    2.829E+00    2.853E+00    2.878E+00    2.902E+00    2.927E+00    2.951E+00    2.976E+00    3.000E+00    3.025E+00
     3.049E+00    3.074E+00    3.098E+00    3.123E+00    3.147E+00    3.172E+00    3.197E+00    3.221E+00    3.246E+00    3.271E+00
     3.295E+00    3.320E+00    3.345E+00    3.369E+00    3.394E+00    3.419E+00    3.443E+00    3.468E+00    3.493E+00    3.518E+00
     3.542E+00    3.567E+00    3.592E+00    3.617E+00    3.641E+00    3.666E+00    3.691E+00    3.716E+00    3.741E+00    3.765E+00
     3.790E+00    3.815E+00    3.840E+00    3.865E+00    3.890E+00    3.915E+00    3.940E+00    3.964E+00
 Asp      Conc. = 5.12E+01
