 LCModel (Version 6.3-1L) Copyright: S.W. Provencher.          Ref.: Magn. Reson. Med. 30:672-679 (1993).                
 Slice#3 Row#9 Col#6  K_02_press_1_raw_act
 36 lines in following concentration table = NCONC+1
    Conc.  %SD /Cr+PCr  Metabolite                                         
  136.076  93% 5.9E-02 Ala                                                 
    0.000 999%   0.000 Asp                                                 
  416.674  67%   0.181 Cr                                                  
 1.88E+03  15%   0.819 PCr                                                 
    0.000 999%   0.000 GABA                                                
   14.803 999% 6.4E-03 Glc                                                 
  926.268  30%   0.403 Gln                                                 
 2.10E+03  14%   0.912 Glu                                                 
  862.381   3%   0.375 GPC                                                 
    0.000 999%   0.000 PCh                                                 
  851.179  11%   0.371 GSH                                                 
 2.01E+03  16%   0.874 Ins                                                 
  296.966  48%   0.129 Lac                                                 
 2.80E+03   6%   1.219 NAA                                                 
  289.804  61%   0.126 NAAG                                                
  171.617  20% 7.5E-02 Scyllo                                              
  431.558  64%   0.188 Tau                                                 
   80.862 157% 3.5E-02 -CrCH2                                              
  862.381   3%   0.375 GPC+PCh                                             
 3.09E+03   3%   1.345 NAA+NAAG                                            
 2.30E+03   3%   1.000 Cr+PCr                                              
 3.02E+03  15%   1.315 Glu+Gln                                             
 1.82E+03  30%   0.793 Lip13a                                              
    0.000 999%   0.000 Lip13b                                              
  407.192  73%   0.177 Lip09                                               
  831.959  36%   0.362 MM09                                                
  209.515  98% 9.1E-02 Lip20                                               
 1.92E+03  22%   0.836 MM20                                                
  279.962  72%   0.122 MM12                                                
  179.967 187% 7.8E-02 MM14                                                
    0.000 999%   0.000 MM17                                                
 1.82E+03  30%   0.793 Lip13a+Lip13b                                       
 2.28E+03  22%   0.993 MM14+Lip13a+Lip13b+MM12                             
 1.24E+03  17%   0.539 MM09+Lip09                                          
 2.13E+03  19%   0.927 MM20+Lip20                                          
   6 lines in following misc. output table
  FWHM = 0.061 ppm    S/N =  13                                            
  Data shift = 0.031 ppm                                                   
  Ph: -29 deg     -19.1 deg/ppm                                            
  alphaB,S = 1.3E+00,   1.0E+02                                            
   14 spline knots.   Ns = 7(1)                                            
  (14) 3 infls.   ( 9) 1 extrs.                                            
  498 points on ppm-axis = NY
      4.000000     3.992357     3.984714     3.977070     3.969427     3.961784     3.954141     3.946497     3.938854     3.931211
      3.923568     3.915925     3.908281     3.900638     3.892995     3.885352     3.877708     3.870065     3.862422     3.854779
      3.847136     3.839492     3.831849     3.824206     3.816563     3.808919     3.801276     3.793633     3.785990     3.778347
      3.770703     3.763060     3.755417     3.747774     3.740130     3.732487     3.724844     3.717201     3.709558     3.701914
      3.694271     3.686628     3.678985     3.671341     3.663698     3.656055     3.648412     3.640769     3.633125     3.625482
      3.617839     3.610196     3.602552     3.594909     3.587266     3.579623     3.571980     3.564336     3.556693     3.549050
      3.541407     3.533763     3.526120     3.518477     3.510834     3.503191     3.495547     3.487904     3.480261     3.472618
      3.464974     3.457331     3.449688     3.442045     3.434402     3.426758     3.419115     3.411472     3.403829     3.396185
      3.388542     3.380899     3.373256     3.365613     3.357969     3.350326     3.342683     3.335040     3.327396     3.319753
      3.312110     3.304467     3.296824     3.289180     3.281537     3.273894     3.266251     3.258607     3.250964     3.243321
      3.235678     3.228034     3.220391     3.212748     3.205105     3.197462     3.189818     3.182175     3.174532     3.166889
      3.159245     3.151602     3.143959     3.136316     3.128673     3.121029     3.113386     3.105743     3.098100     3.090456
      3.082813     3.075170     3.067527     3.059884     3.052240     3.044597     3.036954     3.029311     3.021667     3.014024
      3.006381     2.998738     2.991095     2.983451     2.975808     2.968165     2.960522     2.952878     2.945235     2.937592
      2.929949     2.922306     2.914662     2.907019     2.899376     2.891733     2.884089     2.876446     2.868803     2.861160
      2.853517     2.845873     2.838230     2.830587     2.822944     2.815300     2.807657     2.800014     2.792371     2.784728
      2.777084     2.769441     2.761798     2.754155     2.746511     2.738868     2.731225     2.723582     2.715939     2.708295
      2.700652     2.693009     2.685366     2.677722     2.670079     2.662436     2.654793     2.647150     2.639506     2.631863
      2.624220     2.616577     2.608933     2.601290     2.593647     2.586004     2.578361     2.570717     2.563074     2.555431
      2.547788     2.540144     2.532501     2.524858     2.517215     2.509572     2.501928     2.494285     2.486642     2.478999
      2.471355     2.463712     2.456069     2.448426     2.440783     2.433139     2.425496     2.417853     2.410210     2.402566
      2.394923     2.387280     2.379637     2.371994     2.364350     2.356707     2.349064     2.341421     2.333777     2.326134
      2.318491     2.310848     2.303205     2.295561     2.287918     2.280275     2.272632     2.264988     2.257345     2.249702
      2.242059     2.234416     2.226772     2.219129     2.211486     2.203843     2.196199     2.188556     2.180913     2.173270
      2.165627     2.157983     2.150340     2.142697     2.135054     2.127410     2.119767     2.112124     2.104481     2.096838
      2.089194     2.081551     2.073908     2.066265     2.058621     2.050978     2.043335     2.035692     2.028049     2.020405
      2.012762     2.005119     1.997476     1.989833     1.982190     1.974546     1.966903     1.959260     1.951617     1.943974
      1.936331     1.928688     1.921045     1.913402     1.905759     1.898115     1.890472     1.882829     1.875186     1.867543
      1.859900     1.852257     1.844614     1.836971     1.829327     1.821684     1.814041     1.806398     1.798755     1.791112
      1.783469     1.775826     1.768183     1.760540     1.752896     1.745253     1.737610     1.729967     1.722324     1.714681
      1.707038     1.699395     1.691752     1.684108     1.676465     1.668822     1.661179     1.653536     1.645893     1.638250
      1.630607     1.622964     1.615321     1.607677     1.600034     1.592391     1.584748     1.577105     1.569462     1.561819
      1.554176     1.546533     1.538890     1.531246     1.523603     1.515960     1.508317     1.500674     1.493031     1.485388
      1.477745     1.470102     1.462458     1.454815     1.447172     1.439529     1.431886     1.424243     1.416600     1.408957
      1.401314     1.393671     1.386027     1.378384     1.370741     1.363098     1.355455     1.347812     1.340169     1.332526
      1.324883     1.317240     1.309596     1.301953     1.294310     1.286667     1.279024     1.271381     1.263738     1.256095
      1.248452     1.240808     1.233165     1.225522     1.217879     1.210236     1.202593     1.194950     1.187307     1.179664
      1.172021     1.164377     1.156734     1.149091     1.141448     1.133805     1.126162     1.118519     1.110876     1.103233
      1.095590     1.087946     1.080303     1.072660     1.065017     1.057374     1.049731     1.042088     1.034445     1.026802
      1.019158     1.011515     1.003872     0.996229     0.988586     0.980943     0.973300     0.965657     0.958014     0.950371
      0.942727     0.935084     0.927441     0.919798     0.912155     0.904512     0.896869     0.889226     0.881583     0.873940
      0.866296     0.858653     0.851010     0.843367     0.835724     0.828081     0.820438     0.812795     0.805152     0.797508
      0.789865     0.782222     0.774579     0.766936     0.759293     0.751650     0.744007     0.736364     0.728721     0.721077
      0.713434     0.705791     0.698148     0.690505     0.682862     0.675219     0.667576     0.659933     0.652290     0.644646
      0.637003     0.629360     0.621717     0.614074     0.606431     0.598788     0.591145     0.583502     0.575858     0.568215
      0.560572     0.552929     0.545286     0.537643     0.530000     0.522357     0.514714     0.507071     0.499427     0.491784
      0.484141     0.476498     0.468855     0.461212     0.453569     0.445925     0.438282     0.430639     0.422996     0.415353
      0.407710     0.400067     0.392424     0.384780     0.377137     0.369494     0.361851     0.354208     0.346565     0.338922
      0.331278     0.323635     0.315992     0.308349     0.300706     0.293063     0.285420     0.277777     0.270133     0.262490
      0.254847     0.247204     0.239561     0.231918     0.224275     0.216631     0.208988     0.201345
 NY phased data points follow
  -6.06595E+01 -6.12838E+01 -5.18939E+01 -4.38509E+01 -4.27327E+01 -3.34664E+01 -2.46574E+01 -2.34064E+01 -8.73962E+00 -3.50258E+00
  -3.70467E+00 -5.95501E+00 -5.32828E+00 -9.68406E+00 -2.48632E+01 -3.31361E+01 -3.65700E+01 -4.29005E+01 -4.28493E+01 -4.94702E+01
  -4.51477E+01 -3.88571E+01 -4.14948E+01 -4.24568E+01 -4.13811E+01 -3.50298E+01 -3.10690E+01 -3.29234E+01 -2.47983E+01 -2.37549E+01
  -2.28303E+01 -2.21274E+01 -2.13758E+01 -2.20665E+01 -2.86165E+01 -2.18463E+01 -3.03334E+01 -2.57588E+01 -2.48770E+01 -2.87014E+01
  -2.58787E+01 -2.62451E+01 -2.47921E+01 -2.86470E+01 -2.00460E+01 -2.09092E+01 -1.32079E+01 -1.32589E+01 -1.55943E+01 -1.54979E+01
  -1.49162E+01 -2.30829E+01 -2.83096E+01 -2.20358E+01 -2.80529E+01 -2.32002E+01 -2.03438E+01 -2.95708E+01 -2.56193E+01 -2.22859E+01
  -2.40503E+01 -2.53046E+01 -2.57045E+01 -2.49272E+01 -2.49758E+01 -2.91609E+01 -2.45740E+01 -2.66143E+01 -2.48335E+01 -2.34703E+01
  -2.20218E+01 -2.19919E+01 -1.60489E+01 -2.15255E+01 -1.65844E+01 -1.86369E+01 -1.66311E+01 -2.07309E+01 -1.70715E+01 -1.52957E+01
  -1.08595E+01 -1.78662E+01 -1.51590E+01 -1.52639E+01 -1.47195E+01 -1.56897E+01 -1.18734E+01 -1.26996E+01 -1.12016E+01 -9.82661E+00
  -1.08743E+01 -5.50794E+00 -5.63781E+00 -9.12759E-01 -6.27876E+00 -1.04607E+00  1.58556E+00  8.41669E+00  1.25523E+01  2.41733E+01
   3.71631E+01  3.80862E+01  5.61310E+01  6.07773E+01  5.80330E+01  5.19746E+01  3.59546E+01  2.49312E+01  2.13708E+01  1.22187E+01
   8.68095E+00 -2.79592E+00 -8.40738E-01 -5.16341E+00 -2.21725E+00 -3.03020E+00 -3.26652E+00  2.33860E+00  3.21444E+00  1.14537E+00
   1.90620E-01  1.09812E+01  1.40773E+01  2.43951E+01  3.84153E+01  4.73486E+01  5.63939E+01  6.07781E+01  6.56671E+01  5.96770E+01
   4.74645E+01  3.74509E+01  2.89763E+01  1.97750E+01  4.32635E+00  2.79176E+00  1.91330E+00 -3.39973E+00 -2.47751E+00 -2.52596E+00
   3.75019E-01 -6.31921E-01 -3.51907E+00  1.24768E+00 -1.32962E+00  1.16469E+00  1.41782E+00 -6.37081E-01 -6.63493E-02 -2.26407E-01
  -1.35689E+00 -1.74795E+00 -1.25256E+00 -5.90589E-01 -1.28353E+00 -2.39846E+00 -1.99491E+00 -5.91628E+00 -2.36829E+00  3.97368E-01
  -1.56590E+00 -2.85343E+00 -2.33001E+00 -2.50627E+00 -1.28781E+00  5.91889E+00  6.39283E+00  1.08120E-01  8.27127E-01  7.62223E+00
  -4.20782E+00 -7.64579E+00 -9.91122E+00 -6.76212E+00 -1.09545E+01 -6.46251E+00 -1.20305E+01 -6.04584E+00 -6.53258E+00 -8.07509E+00
  -4.25218E+00 -3.88262E+00 -8.96680E+00 -6.72368E+00 -2.48611E+00 -6.83578E+00 -3.57897E+00 -3.61248E+00  6.98216E+00  5.61210E+00
   1.17490E+01  1.36260E+01  1.54207E+01  1.44346E+01  1.66797E+01  1.32333E+01  7.61057E+00  9.05806E+00  4.40885E+00  1.00163E+01
   1.10736E+01  1.32373E+01  1.19954E+01  1.65215E+01  1.11442E+01  1.08442E+01  1.07235E+01  7.92695E+00  2.56108E+00  8.17240E+00
   6.00059E+00  9.39974E+00  1.26778E+01  1.03207E+01  1.46580E+01  2.68316E+01  2.30065E+01  2.45304E+01  2.26034E+01  1.50003E+01
   1.40643E+01  1.23193E+01  7.08340E+00  8.74941E+00  7.02966E+00  1.29906E+01  1.47731E+01  1.95265E+01  1.66391E+01  1.97507E+01
   2.07324E+01  2.24332E+01  2.19955E+01  2.51957E+01  2.03801E+01  1.79347E+01  2.09544E+01  1.88852E+01  2.15554E+01  1.61710E+01
   1.93702E+01  1.71033E+01  1.63000E+01  1.40082E+01  1.08022E+01  1.73583E+01  2.14044E+01  2.49440E+01  2.34209E+01  2.75621E+01
   2.52368E+01  2.98654E+01  3.53903E+01  4.60470E+01  4.01211E+01  5.24143E+01  6.62141E+01  8.28342E+01  9.73261E+01  1.04049E+02
   1.06403E+02  1.08775E+02  1.06350E+02  9.24889E+01  7.38493E+01  5.38415E+01  4.97786E+01  3.59419E+01  3.15427E+01  2.65453E+01
   2.34104E+01  2.79355E+01  2.31372E+01  2.29490E+01  2.76331E+01  2.78494E+01  1.65598E+01  2.45023E+01  2.10896E+01  2.19828E+01
   2.42345E+01  1.92001E+01  2.50888E+01  1.98606E+01  2.22871E+01  1.91696E+01  1.96658E+01  1.74336E+01  1.85669E+01  1.91560E+01
   2.23223E+01  1.96787E+01  2.12389E+01  2.04959E+01  2.08718E+01  1.97364E+01  2.17541E+01  1.73423E+01  2.14575E+01  2.30049E+01
   1.58160E+01  2.36688E+01  2.46537E+01  1.89118E+01  2.43920E+01  2.08935E+01  1.98830E+01  1.77690E+01  2.25598E+01  2.26977E+01
   2.69978E+01  2.04476E+01  2.45412E+01  1.85652E+01  1.86788E+01  1.91345E+01  2.17298E+01  2.43724E+01  2.71660E+01  2.27631E+01
   2.18562E+01  1.98789E+01  2.39221E+01  2.28092E+01  1.86227E+01  2.44729E+01  2.75428E+01  2.60939E+01  2.64790E+01  2.79841E+01
   2.36781E+01  2.45684E+01  1.97777E+01  2.48392E+01  2.46078E+01  2.65796E+01  2.55535E+01  2.94405E+01  3.23475E+01  2.97919E+01
   2.67791E+01  2.75744E+01  3.43722E+01  3.27115E+01  3.05524E+01  3.42949E+01  3.69210E+01  2.96793E+01  2.86423E+01  3.20974E+01
   3.04121E+01  2.89055E+01  3.17430E+01  3.05837E+01  3.43374E+01  3.02010E+01  3.80783E+01  3.43678E+01  3.22860E+01  3.58186E+01
   3.74137E+01  3.26850E+01  3.30640E+01  3.10348E+01  3.44800E+01  3.03887E+01  3.44960E+01  3.64049E+01  3.21564E+01  3.23369E+01
   2.92951E+01  2.66969E+01  3.36173E+01  2.49188E+01  2.92150E+01  2.97774E+01  2.70383E+01  3.02226E+01  3.27603E+01  3.17057E+01
   3.08379E+01  3.20216E+01  2.68494E+01  2.80713E+01  2.85241E+01  2.81635E+01  2.68549E+01  3.17519E+01  2.70920E+01  3.18303E+01
   2.85178E+01  2.92667E+01  2.76159E+01  2.47232E+01  3.18615E+01  2.92095E+01  3.30146E+01  3.10522E+01  3.14679E+01  3.43348E+01
   3.31176E+01  3.35479E+01  3.40927E+01  3.46420E+01  3.36676E+01  3.12623E+01  3.43482E+01  3.56889E+01  3.56161E+01  4.00613E+01
   3.55684E+01  3.14522E+01  3.23322E+01  3.41940E+01  3.29840E+01  3.22721E+01  3.33359E+01  3.13246E+01  2.91794E+01  3.41262E+01
   3.16542E+01  2.65991E+01  3.03314E+01  3.11893E+01  3.06370E+01  2.78313E+01  2.81097E+01  3.05093E+01  2.56289E+01  2.64096E+01
   3.11890E+01  2.38087E+01  2.67606E+01  2.88662E+01  2.74442E+01  2.71204E+01  2.47736E+01  2.57848E+01  2.63090E+01  2.57298E+01
   2.70138E+01  2.44482E+01  2.28503E+01  2.59387E+01  2.88146E+01  2.98467E+01  2.88640E+01  3.18528E+01  3.10576E+01  2.52674E+01
   3.22470E+01  2.48054E+01  2.66936E+01  3.09415E+01  2.28025E+01  2.96356E+01  2.61687E+01  2.41639E+01  2.59580E+01  2.44016E+01
   2.55926E+01  3.09124E+01  2.65934E+01  2.58769E+01  2.21081E+01  2.77948E+01  2.11282E+01  2.54054E+01  2.41370E+01  2.69585E+01
   2.17777E+01  2.47706E+01  2.66816E+01  2.69878E+01  2.67829E+01  2.85264E+01  2.17385E+01  2.28687E+01  2.70985E+01  2.38093E+01
   2.01884E+01  1.97866E+01  2.63557E+01  2.55328E+01  2.81358E+01  2.35202E+01  2.46979E+01  2.31612E+01  2.13822E+01  2.42970E+01
   2.58974E+01  2.47029E+01  2.34728E+01  2.16823E+01  2.27752E+01  2.40965E+01  2.52223E+01  2.87890E+01
 NY points of the fit to the data follow
  -5.27273E+01 -5.20065E+01 -4.92842E+01 -4.50359E+01 -3.98338E+01 -3.33178E+01 -2.57353E+01 -1.80272E+01 -1.11297E+01 -5.92006E+00
  -3.37999E+00 -4.41347E+00 -9.05470E+00 -1.58764E+01 -2.27425E+01 -2.84887E+01 -3.33406E+01 -3.75347E+01 -4.01389E+01 -4.11620E+01
  -4.14416E+01 -4.15428E+01 -4.14074E+01 -4.04110E+01 -3.90853E+01 -3.74128E+01 -3.48768E+01 -3.15349E+01 -2.78420E+01 -2.43129E+01
  -2.12465E+01 -1.91650E+01 -1.88210E+01 -2.03111E+01 -2.28600E+01 -2.55523E+01 -2.80207E+01 -3.05500E+01 -3.26918E+01 -3.32085E+01
  -3.22497E+01 -3.05453E+01 -2.83107E+01 -2.55066E+01 -2.25347E+01 -2.00188E+01 -1.81496E+01 -1.70456E+01 -1.70681E+01 -1.84307E+01
  -2.08575E+01 -2.34368E+01 -2.52873E+01 -2.64395E+01 -2.70987E+01 -2.71356E+01 -2.63846E+01 -2.51549E+01 -2.39417E+01 -2.29575E+01
  -2.22723E+01 -2.20318E+01 -2.22081E+01 -2.26569E+01 -2.30047E+01 -2.30113E+01 -2.27211E+01 -2.21811E+01 -2.13378E+01 -2.02998E+01
  -1.92877E+01 -1.83995E+01 -1.76593E+01 -1.71485E+01 -1.69213E+01 -1.68879E+01 -1.69331E+01 -1.70493E+01 -1.72023E+01 -1.73860E+01
  -1.71635E+01 -1.65114E+01 -1.57056E+01 -1.46923E+01 -1.35046E+01 -1.22948E+01 -1.12454E+01 -1.04548E+01 -9.98560E+00 -9.91485E+00
  -1.03252E+01 -1.08683E+01 -1.10563E+01 -1.08384E+01 -1.01475E+01 -7.72068E+00 -2.03685E+00  5.02092E+00  1.34817E+01  2.40089E+01
   3.54153E+01  4.60081E+01  5.44000E+01  5.90652E+01  5.84498E+01  5.17938E+01  4.04960E+01  2.81476E+01  1.76512E+01  8.99174E+00
   1.25893E+00 -4.52865E+00 -6.88702E+00 -7.50709E+00 -7.61754E+00 -7.51116E+00 -7.28088E+00 -6.86323E+00 -6.08443E+00 -4.07312E+00
   1.10814E+00  7.85853E+00  1.55758E+01  2.54460E+01  3.67468E+01  4.76729E+01  5.69239E+01  6.31189E+01  6.44322E+01  5.96599E+01
   4.95855E+01  3.73736E+01  2.64338E+01  1.73943E+01  9.07752E+00  1.90198E+00 -1.92855E+00 -3.18157E+00 -3.32299E+00 -2.71635E+00
  -1.72731E+00 -6.75891E-01  2.92304E-01  1.02279E+00  1.32560E+00  1.25741E+00  9.81432E-01  5.86252E-01  1.64009E-01 -2.02864E-01
  -4.74382E-01 -6.09558E-01 -6.59954E-01 -6.84281E-01 -7.52354E-01 -7.78522E-01 -7.73730E-01 -7.57199E-01 -6.99833E-01 -7.27065E-01
  -7.95096E-01 -8.03849E-01 -7.28087E-01 -5.70685E-01 -3.62454E-01 -2.29246E-01 -3.24825E-01 -6.46130E-01 -1.06079E+00 -1.49957E+00
  -1.88722E+00 -2.18410E+00 -2.48971E+00 -2.74381E+00 -2.88955E+00 -2.93331E+00 -2.87849E+00 -2.69078E+00 -2.39777E+00 -2.07449E+00
  -1.88147E+00 -1.75765E+00 -1.55770E+00 -1.08814E+00 -2.78193E-01  7.54025E-01  1.96259E+00  3.47269E+00  5.30942E+00  7.24317E+00
   8.82703E+00  9.68088E+00  9.89479E+00  9.58424E+00  8.87738E+00  8.04660E+00  7.45745E+00  7.49169E+00  8.16388E+00  9.42896E+00
   1.12031E+01  1.30865E+01  1.45183E+01  1.50967E+01  1.48947E+01  1.39036E+01  1.21145E+01  9.86956E+00  7.79262E+00  6.50701E+00
   6.43985E+00  7.39023E+00  9.43499E+00  1.23213E+01  1.53159E+01  1.77470E+01  1.91511E+01  1.92531E+01  1.78683E+01  1.50141E+01
   1.16011E+01  8.71790E+00  6.87249E+00  6.24951E+00  6.86781E+00  8.83145E+00  1.19199E+01  1.49474E+01  1.70797E+01  1.83902E+01
   1.93406E+01  1.99291E+01  2.00146E+01  2.00930E+01  2.05920E+01  2.12920E+01  2.18514E+01  2.20830E+01  2.19742E+01  2.14502E+01
   2.03299E+01  1.89218E+01  1.79108E+01  1.76083E+01  1.79214E+01  1.88350E+01  2.03803E+01  2.21878E+01  2.38505E+01  2.55423E+01
   2.72149E+01  2.89741E+01  3.18018E+01  3.83775E+01  4.72247E+01  5.68761E+01  6.86321E+01  8.17390E+01  9.39326E+01  1.03588E+02
   1.09590E+02  1.10332E+02  1.04088E+02  9.10384E+01  7.49020E+01  6.04898E+01  4.90078E+01  3.88064E+01  2.98039E+01  2.48399E+01
   2.32408E+01  2.25322E+01  2.21354E+01  2.19511E+01  2.19150E+01  2.19037E+01  2.18804E+01  2.18073E+01  2.16642E+01  2.14923E+01
   2.13313E+01  2.11746E+01  2.10173E+01  2.08943E+01  2.08281E+01  2.07986E+01  2.07713E+01  2.07408E+01  2.07210E+01  2.07170E+01
   2.07185E+01  2.07269E+01  2.07500E+01  2.07890E+01  2.08342E+01  2.08777E+01  2.09184E+01  2.09595E+01  2.10024E+01  2.10476E+01
   2.10980E+01  2.11597E+01  2.12334E+01  2.13158E+01  2.14031E+01  2.14937E+01  2.15875E+01  2.16834E+01  2.17793E+01  2.18772E+01
   2.19793E+01  2.20864E+01  2.21993E+01  2.23194E+01  2.24479E+01  2.25860E+01  2.27361E+01  2.29020E+01  2.30899E+01  2.33143E+01
   2.36033E+01  2.39112E+01  2.41814E+01  2.44507E+01  2.46889E+01  2.48336E+01  2.48536E+01  2.47353E+01  2.45216E+01  2.42965E+01
   2.40817E+01  2.40125E+01  2.42174E+01  2.46796E+01  2.53095E+01  2.60737E+01  2.69719E+01  2.78984E+01  2.87002E+01  2.93830E+01
   3.00794E+01  3.07373E+01  3.12955E+01  3.17976E+01  3.21883E+01  3.24046E+01  3.23537E+01  3.20046E+01  3.15125E+01  3.08982E+01
   3.02765E+01  2.99985E+01  3.02637E+01  3.09532E+01  3.18663E+01  3.29267E+01  3.40890E+01  3.50370E+01  3.54744E+01  3.54550E+01
   3.51937E+01  3.48281E+01  3.43346E+01  3.37056E+01  3.31276E+01  3.26547E+01  3.22264E+01  3.18197E+01  3.14286E+01  3.10522E+01
   3.06919E+01  3.03503E+01  3.00299E+01  2.97333E+01  2.94624E+01  2.92190E+01  2.90045E+01  2.88202E+01  2.86671E+01  2.85458E+01
   2.84570E+01  2.84011E+01  2.83789E+01  2.83910E+01  2.84380E+01  2.85208E+01  2.86398E+01  2.87955E+01  2.89885E+01  2.92187E+01
   2.94858E+01  2.97884E+01  3.01245E+01  3.04912E+01  3.08846E+01  3.12993E+01  3.17288E+01  3.21655E+01  3.26005E+01  3.30244E+01
   3.34272E+01  3.37986E+01  3.41285E+01  3.44076E+01  3.46276E+01  3.47820E+01  3.48659E+01  3.48766E+01  3.48135E+01  3.46786E+01
   3.44757E+01  3.42108E+01  3.38914E+01  3.35262E+01  3.31246E+01  3.26964E+01  3.22515E+01  3.17990E+01  3.13474E+01  3.09042E+01
   3.04754E+01  3.00662E+01  2.96802E+01  2.93201E+01  2.89871E+01  2.86817E+01  2.84036E+01  2.81519E+01  2.79253E+01  2.77220E+01
   2.75401E+01  2.73774E+01  2.72322E+01  2.71025E+01  2.69866E+01  2.68827E+01  2.67893E+01  2.67050E+01  2.66286E+01  2.65592E+01
   2.64957E+01  2.64373E+01  2.63833E+01  2.63330E+01  2.62861E+01  2.62421E+01  2.62005E+01  2.61609E+01  2.61231E+01  2.60868E+01
   2.60518E+01  2.60180E+01  2.59850E+01  2.59528E+01  2.59213E+01  2.58903E+01  2.58598E+01  2.58297E+01  2.58000E+01  2.57705E+01
   2.57412E+01  2.57121E+01  2.56833E+01  2.56545E+01  2.56258E+01  2.55971E+01  2.55686E+01  2.55401E+01  2.55117E+01  2.54832E+01
   2.54548E+01  2.54263E+01  2.53979E+01  2.53696E+01  2.53413E+01  2.53129E+01  2.52846E+01  2.52563E+01  2.52281E+01  2.51999E+01
   2.51719E+01  2.51438E+01  2.51158E+01  2.50878E+01  2.50601E+01  2.50325E+01  2.50049E+01  2.49775E+01  2.49503E+01  2.49232E+01
   2.48964E+01  2.48698E+01  2.48434E+01  2.48172E+01  2.47914E+01  2.47658E+01  2.47407E+01  2.47158E+01
 NY background values follow
    -6.030E+01   -5.979E+01   -5.929E+01   -5.878E+01   -5.828E+01   -5.777E+01   -5.727E+01   -5.676E+01   -5.626E+01   -5.575E+01
    -5.525E+01   -5.474E+01   -5.424E+01   -5.374E+01   -5.323E+01   -5.273E+01   -5.223E+01   -5.173E+01   -5.123E+01   -5.073E+01
    -5.023E+01   -4.973E+01   -4.923E+01   -4.873E+01   -4.824E+01   -4.774E+01   -4.724E+01   -4.675E+01   -4.626E+01   -4.576E+01
    -4.527E+01   -4.478E+01   -4.429E+01   -4.380E+01   -4.332E+01   -4.283E+01   -4.235E+01   -4.186E+01   -4.138E+01   -4.090E+01
    -4.042E+01   -3.994E+01   -3.946E+01   -3.899E+01   -3.851E+01   -3.804E+01   -3.757E+01   -3.710E+01   -3.663E+01   -3.617E+01
    -3.570E+01   -3.524E+01   -3.478E+01   -3.432E+01   -3.386E+01   -3.341E+01   -3.296E+01   -3.250E+01   -3.205E+01   -3.161E+01
    -3.116E+01   -3.072E+01   -3.028E+01   -2.984E+01   -2.940E+01   -2.897E+01   -2.853E+01   -2.810E+01   -2.768E+01   -2.725E+01
    -2.683E+01   -2.641E+01   -2.599E+01   -2.558E+01   -2.516E+01   -2.475E+01   -2.435E+01   -2.394E+01   -2.354E+01   -2.314E+01
    -2.274E+01   -2.235E+01   -2.196E+01   -2.157E+01   -2.118E+01   -2.080E+01   -2.042E+01   -2.005E+01   -1.967E+01   -1.930E+01
    -1.894E+01   -1.857E+01   -1.821E+01   -1.786E+01   -1.750E+01   -1.715E+01   -1.680E+01   -1.646E+01   -1.612E+01   -1.578E+01
    -1.544E+01   -1.511E+01   -1.478E+01   -1.445E+01   -1.413E+01   -1.381E+01   -1.349E+01   -1.317E+01   -1.286E+01   -1.255E+01
    -1.225E+01   -1.194E+01   -1.164E+01   -1.135E+01   -1.105E+01   -1.076E+01   -1.047E+01   -1.018E+01   -9.900E+00   -9.619E+00
    -9.341E+00   -9.065E+00   -8.792E+00   -8.522E+00   -8.255E+00   -7.990E+00   -7.727E+00   -7.468E+00   -7.210E+00   -6.956E+00
    -6.704E+00   -6.454E+00   -6.207E+00   -5.963E+00   -5.721E+00   -5.481E+00   -5.244E+00   -5.010E+00   -4.777E+00   -4.547E+00
    -4.319E+00   -4.094E+00   -3.871E+00   -3.649E+00   -3.430E+00   -3.213E+00   -2.997E+00   -2.784E+00   -2.572E+00   -2.362E+00
    -2.154E+00   -1.948E+00   -1.743E+00   -1.540E+00   -1.338E+00   -1.138E+00   -9.387E-01   -7.411E-01   -5.447E-01   -3.497E-01
    -1.558E-01    3.699E-02    2.287E-01    4.194E-01    6.091E-01    7.979E-01    9.858E-01    1.173E+00    1.359E+00    1.545E+00
     1.730E+00    1.914E+00    2.098E+00    2.282E+00    2.465E+00    2.647E+00    2.830E+00    3.012E+00    3.194E+00    3.375E+00
     3.557E+00    3.738E+00    3.920E+00    4.101E+00    4.282E+00    4.464E+00    4.645E+00    4.826E+00    5.006E+00    5.187E+00
     5.367E+00    5.547E+00    5.726E+00    5.905E+00    6.084E+00    6.262E+00    6.440E+00    6.617E+00    6.794E+00    6.971E+00
     7.146E+00    7.321E+00    7.496E+00    7.669E+00    7.842E+00    8.015E+00    8.186E+00    8.357E+00    8.527E+00    8.695E+00
     8.864E+00    9.031E+00    9.197E+00    9.362E+00    9.526E+00    9.689E+00    9.851E+00    1.001E+01    1.017E+01    1.033E+01
     1.049E+01    1.064E+01    1.080E+01    1.095E+01    1.110E+01    1.125E+01    1.140E+01    1.155E+01    1.170E+01    1.184E+01
     1.199E+01    1.213E+01    1.227E+01    1.241E+01    1.255E+01    1.268E+01    1.282E+01    1.295E+01    1.309E+01    1.322E+01
     1.335E+01    1.348E+01    1.361E+01    1.373E+01    1.386E+01    1.398E+01    1.411E+01    1.423E+01    1.435E+01    1.447E+01
     1.459E+01    1.471E+01    1.482E+01    1.494E+01    1.505E+01    1.517E+01    1.528E+01    1.539E+01    1.550E+01    1.561E+01
     1.572E+01    1.583E+01    1.593E+01    1.604E+01    1.614E+01    1.625E+01    1.635E+01    1.645E+01    1.655E+01    1.665E+01
     1.675E+01    1.685E+01    1.695E+01    1.705E+01    1.714E+01    1.724E+01    1.734E+01    1.743E+01    1.752E+01    1.762E+01
     1.771E+01    1.780E+01    1.789E+01    1.798E+01    1.807E+01    1.816E+01    1.824E+01    1.833E+01    1.842E+01    1.850E+01
     1.859E+01    1.867E+01    1.876E+01    1.884E+01    1.893E+01    1.901E+01    1.909E+01    1.917E+01    1.925E+01    1.933E+01
     1.941E+01    1.949E+01    1.957E+01    1.965E+01    1.972E+01    1.980E+01    1.988E+01    1.995E+01    2.003E+01    2.010E+01
     2.018E+01    2.025E+01    2.032E+01    2.040E+01    2.047E+01    2.054E+01    2.061E+01    2.069E+01    2.076E+01    2.083E+01
     2.090E+01    2.097E+01    2.104E+01    2.111E+01    2.118E+01    2.124E+01    2.131E+01    2.138E+01    2.145E+01    2.151E+01
     2.158E+01    2.165E+01    2.171E+01    2.178E+01    2.184E+01    2.190E+01    2.197E+01    2.203E+01    2.209E+01    2.215E+01
     2.221E+01    2.228E+01    2.234E+01    2.240E+01    2.245E+01    2.251E+01    2.257E+01    2.263E+01    2.269E+01    2.274E+01
     2.280E+01    2.285E+01    2.291E+01    2.296E+01    2.302E+01    2.307E+01    2.312E+01    2.317E+01    2.323E+01    2.328E+01
     2.333E+01    2.338E+01    2.343E+01    2.347E+01    2.352E+01    2.357E+01    2.362E+01    2.366E+01    2.371E+01    2.375E+01
     2.380E+01    2.384E+01    2.388E+01    2.392E+01    2.397E+01    2.401E+01    2.405E+01    2.409E+01    2.413E+01    2.416E+01
     2.420E+01    2.424E+01    2.428E+01    2.431E+01    2.435E+01    2.438E+01    2.442E+01    2.445E+01    2.448E+01    2.452E+01
     2.455E+01    2.458E+01    2.461E+01    2.464E+01    2.467E+01    2.470E+01    2.472E+01    2.475E+01    2.478E+01    2.480E+01
     2.483E+01    2.486E+01    2.488E+01    2.490E+01    2.493E+01    2.495E+01    2.497E+01    2.499E+01    2.501E+01    2.503E+01
     2.505E+01    2.507E+01    2.509E+01    2.511E+01    2.512E+01    2.514E+01    2.515E+01    2.517E+01    2.518E+01    2.520E+01
     2.521E+01    2.522E+01    2.523E+01    2.525E+01    2.526E+01    2.527E+01    2.527E+01    2.528E+01    2.529E+01    2.530E+01
     2.530E+01    2.531E+01    2.531E+01    2.532E+01    2.532E+01    2.532E+01    2.533E+01    2.533E+01    2.533E+01    2.533E+01
     2.533E+01    2.533E+01    2.533E+01    2.532E+01    2.532E+01    2.532E+01    2.531E+01    2.530E+01    2.530E+01    2.529E+01
     2.528E+01    2.528E+01    2.527E+01    2.526E+01    2.525E+01    2.523E+01    2.522E+01    2.521E+01    2.520E+01    2.518E+01
     2.517E+01    2.515E+01    2.514E+01    2.512E+01    2.511E+01    2.509E+01    2.507E+01    2.505E+01    2.503E+01    2.502E+01
     2.500E+01    2.498E+01    2.496E+01    2.494E+01    2.492E+01    2.490E+01    2.487E+01    2.485E+01    2.483E+01    2.481E+01
     2.479E+01    2.477E+01    2.474E+01    2.472E+01    2.470E+01    2.468E+01    2.466E+01    2.463E+01    2.461E+01    2.459E+01
     2.457E+01    2.454E+01    2.452E+01    2.450E+01    2.448E+01    2.445E+01    2.443E+01    2.441E+01
 Ala      Conc. = 1.36E+02
