 LCModel (Version 6.3-1L) Copyright: S.W. Provencher.          Ref.: Magn. Reson. Med. 30:672-679 (1993).                
 Slice#2 Row#12 Col#8  K_02_press_1_raw_act
 36 lines in following concentration table = NCONC+1
    Conc.  %SD /Cr+PCr  Metabolite                                         
    0.000 999%   0.000 Ala                                                 
    0.000 999%   0.000 Asp                                                 
  664.608  43%   0.305 Cr                                                  
 1.52E+03  20%   0.695 PCr                                                 
    0.000 999%   0.000 GABA                                                
    0.000 999%   0.000 Glc                                                 
  246.694 122%   0.113 Gln                                                 
 1.38E+03  24%   0.633 Glu                                                 
  539.620   5%   0.247 GPC                                                 
    0.000 999%   0.000 PCh                                                 
  634.215  12%   0.291 GSH                                                 
 2.04E+03  16%   0.937 Ins                                                 
    0.000 999%   0.000 Lac                                                 
 2.81E+03   7%   1.286 NAA                                                 
  566.150  34%   0.260 NAAG                                                
  140.339  23% 6.4E-02 Scyllo                                              
    0.000 999%   0.000 Tau                                                 
    0.000 999%   0.000 -CrCH2                                              
  539.620   5%   0.247 GPC+PCh                                             
 3.37E+03   3%   1.546 NAA+NAAG                                            
 2.18E+03   3%   1.000 Cr+PCr                                              
 1.63E+03  33%   0.746 Glu+Gln                                             
  132.840 319% 6.1E-02 Lip13a                                              
    0.000 999%   0.000 Lip13b                                              
   10.566 999% 4.8E-03 Lip09                                               
 1.41E+03  17%   0.645 MM09                                                
   26.904 281% 1.2E-02 Lip20                                               
 2.71E+03  15%   1.241 MM20                                                
  452.541  32%   0.208 MM12                                                
 1.82E+03  19%   0.833 MM14                                                
  465.406  50%   0.213 MM17                                                
  132.840 319% 6.1E-02 Lip13a+Lip13b                                       
 2.40E+03  20%   1.101 MM14+Lip13a+Lip13b+MM12                             
 1.42E+03  17%   0.650 MM09+Lip09                                          
 2.73E+03  15%   1.253 MM20+Lip20                                          
   6 lines in following misc. output table
  FWHM = 0.069 ppm    S/N =  16                                            
  Data shift = 0.000 ppm                                                   
  Ph: -48 deg     -10.9 deg/ppm                                            
  alphaB,S = 4.9E-01,   1.0E+02                                            
   14 spline knots.   Ns = 9(1)                                            
  (15) 2 infls.   ( 5) 1 extrs.                                            
  498 points on ppm-axis = NY
      4.000000     3.992357     3.984714     3.977070     3.969427     3.961784     3.954141     3.946497     3.938854     3.931211
      3.923568     3.915925     3.908281     3.900638     3.892995     3.885352     3.877708     3.870065     3.862422     3.854779
      3.847136     3.839492     3.831849     3.824206     3.816563     3.808919     3.801276     3.793633     3.785990     3.778347
      3.770703     3.763060     3.755417     3.747774     3.740130     3.732487     3.724844     3.717201     3.709558     3.701914
      3.694271     3.686628     3.678985     3.671341     3.663698     3.656055     3.648412     3.640769     3.633125     3.625482
      3.617839     3.610196     3.602552     3.594909     3.587266     3.579623     3.571980     3.564336     3.556693     3.549050
      3.541407     3.533763     3.526120     3.518477     3.510834     3.503191     3.495547     3.487904     3.480261     3.472618
      3.464974     3.457331     3.449688     3.442045     3.434402     3.426758     3.419115     3.411472     3.403829     3.396185
      3.388542     3.380899     3.373256     3.365613     3.357969     3.350326     3.342683     3.335040     3.327396     3.319753
      3.312110     3.304467     3.296824     3.289180     3.281537     3.273894     3.266251     3.258607     3.250964     3.243321
      3.235678     3.228034     3.220391     3.212748     3.205105     3.197462     3.189818     3.182175     3.174532     3.166889
      3.159245     3.151602     3.143959     3.136316     3.128673     3.121029     3.113386     3.105743     3.098100     3.090456
      3.082813     3.075170     3.067527     3.059884     3.052240     3.044597     3.036954     3.029311     3.021667     3.014024
      3.006381     2.998738     2.991095     2.983451     2.975808     2.968165     2.960522     2.952878     2.945235     2.937592
      2.929949     2.922306     2.914662     2.907019     2.899376     2.891733     2.884089     2.876446     2.868803     2.861160
      2.853517     2.845873     2.838230     2.830587     2.822944     2.815300     2.807657     2.800014     2.792371     2.784728
      2.777084     2.769441     2.761798     2.754155     2.746511     2.738868     2.731225     2.723582     2.715939     2.708295
      2.700652     2.693009     2.685366     2.677722     2.670079     2.662436     2.654793     2.647150     2.639506     2.631863
      2.624220     2.616577     2.608933     2.601290     2.593647     2.586004     2.578361     2.570717     2.563074     2.555431
      2.547788     2.540144     2.532501     2.524858     2.517215     2.509572     2.501928     2.494285     2.486642     2.478999
      2.471355     2.463712     2.456069     2.448426     2.440783     2.433139     2.425496     2.417853     2.410210     2.402566
      2.394923     2.387280     2.379637     2.371994     2.364350     2.356707     2.349064     2.341421     2.333777     2.326134
      2.318491     2.310848     2.303205     2.295561     2.287918     2.280275     2.272632     2.264988     2.257345     2.249702
      2.242059     2.234416     2.226772     2.219129     2.211486     2.203843     2.196199     2.188556     2.180913     2.173270
      2.165627     2.157983     2.150340     2.142697     2.135054     2.127410     2.119767     2.112124     2.104481     2.096838
      2.089194     2.081551     2.073908     2.066265     2.058621     2.050978     2.043335     2.035692     2.028049     2.020405
      2.012762     2.005119     1.997476     1.989833     1.982190     1.974546     1.966903     1.959260     1.951617     1.943974
      1.936331     1.928688     1.921045     1.913402     1.905759     1.898115     1.890472     1.882829     1.875186     1.867543
      1.859900     1.852257     1.844614     1.836971     1.829327     1.821684     1.814041     1.806398     1.798755     1.791112
      1.783469     1.775826     1.768183     1.760540     1.752896     1.745253     1.737610     1.729967     1.722324     1.714681
      1.707038     1.699395     1.691752     1.684108     1.676465     1.668822     1.661179     1.653536     1.645893     1.638250
      1.630607     1.622964     1.615321     1.607677     1.600034     1.592391     1.584748     1.577105     1.569462     1.561819
      1.554176     1.546533     1.538890     1.531246     1.523603     1.515960     1.508317     1.500674     1.493031     1.485388
      1.477745     1.470102     1.462458     1.454815     1.447172     1.439529     1.431886     1.424243     1.416600     1.408957
      1.401314     1.393671     1.386027     1.378384     1.370741     1.363098     1.355455     1.347812     1.340169     1.332526
      1.324883     1.317240     1.309596     1.301953     1.294310     1.286667     1.279024     1.271381     1.263738     1.256095
      1.248452     1.240808     1.233165     1.225522     1.217879     1.210236     1.202593     1.194950     1.187307     1.179664
      1.172021     1.164377     1.156734     1.149091     1.141448     1.133805     1.126162     1.118519     1.110876     1.103233
      1.095590     1.087946     1.080303     1.072660     1.065017     1.057374     1.049731     1.042088     1.034445     1.026802
      1.019158     1.011515     1.003872     0.996229     0.988586     0.980943     0.973300     0.965657     0.958014     0.950371
      0.942727     0.935084     0.927441     0.919798     0.912155     0.904512     0.896869     0.889226     0.881583     0.873940
      0.866296     0.858653     0.851010     0.843367     0.835724     0.828081     0.820438     0.812795     0.805152     0.797508
      0.789865     0.782222     0.774579     0.766936     0.759293     0.751650     0.744007     0.736364     0.728721     0.721077
      0.713434     0.705791     0.698148     0.690505     0.682862     0.675219     0.667576     0.659933     0.652290     0.644646
      0.637003     0.629360     0.621717     0.614074     0.606431     0.598788     0.591145     0.583502     0.575858     0.568215
      0.560572     0.552929     0.545286     0.537643     0.530000     0.522357     0.514714     0.507071     0.499427     0.491784
      0.484141     0.476498     0.468855     0.461212     0.453569     0.445925     0.438282     0.430639     0.422996     0.415353
      0.407710     0.400067     0.392424     0.384780     0.377137     0.369494     0.361851     0.354208     0.346565     0.338922
      0.331278     0.323635     0.315992     0.308349     0.300706     0.293063     0.285420     0.277777     0.270133     0.262490
      0.254847     0.247204     0.239561     0.231918     0.224275     0.216631     0.208988     0.201345
 NY phased data points follow
  -3.98803E+01 -3.87110E+01 -3.31614E+01 -3.11271E+01 -2.64020E+01 -2.44637E+01 -1.72908E+01 -9.90296E+00 -5.82871E+00  5.58558E-02
   2.12850E+00  6.36621E-01 -1.04454E+00 -5.03416E+00 -1.37861E+01 -1.91340E+01 -2.26421E+01 -2.66746E+01 -3.20263E+01 -3.42441E+01
  -3.54145E+01 -3.52104E+01 -3.17352E+01 -3.29278E+01 -3.04730E+01 -2.95342E+01 -2.59287E+01 -2.45399E+01 -1.92460E+01 -2.16408E+01
  -1.88377E+01 -2.00380E+01 -2.10760E+01 -2.41951E+01 -2.12060E+01 -2.36154E+01 -1.87234E+01 -1.91871E+01 -2.43774E+01 -2.30090E+01
  -1.91584E+01 -1.99210E+01 -1.77745E+01 -1.56772E+01 -1.50363E+01 -1.54772E+01 -1.65260E+01 -1.15166E+01 -1.27350E+01 -1.27505E+01
  -1.64004E+01 -1.78250E+01 -1.66851E+01 -1.61766E+01 -1.62087E+01 -2.05414E+01 -1.73065E+01 -1.71672E+01 -1.90478E+01 -1.75835E+01
  -1.95099E+01 -2.10444E+01 -2.02672E+01 -2.46654E+01 -2.13823E+01 -2.43638E+01 -2.45370E+01 -2.05779E+01 -2.58422E+01 -2.51372E+01
  -2.14321E+01 -2.18926E+01 -2.21841E+01 -2.22338E+01 -2.30110E+01 -2.38657E+01 -1.67471E+01 -2.35705E+01 -2.16320E+01 -1.71170E+01
  -1.90013E+01 -1.95155E+01 -1.94779E+01 -1.77170E+01 -1.55400E+01 -1.54220E+01 -1.99233E+01 -1.41604E+01 -1.90862E+01 -1.23009E+01
  -1.27922E+01 -1.10586E+01 -1.41970E+01 -1.19648E+01 -1.21088E+01 -9.63360E+00 -3.02326E+00 -4.19097E+00  3.29284E-01  5.28759E+00
   1.02983E+01  1.29780E+01  1.61205E+01  1.99113E+01  2.19952E+01  1.96266E+01  1.49716E+01  8.46539E+00  5.82723E+00  2.09674E+00
  -5.46130E+00 -8.93908E+00 -6.89591E+00 -6.06425E+00 -6.58735E+00 -7.33148E+00 -7.55181E+00 -5.36185E+00 -5.79267E+00 -1.06060E-01
   6.62664E-01  7.34224E+00  1.17127E+01  2.02090E+01  2.86245E+01  3.68933E+01  4.28839E+01  4.75587E+01  4.59731E+01  4.49020E+01
   3.25529E+01  2.41907E+01  1.87088E+01  1.14582E+01  4.25881E+00 -4.35098E+00 -4.25173E+00 -3.65360E+00 -8.41454E+00 -6.64162E+00
  -8.38967E+00 -5.45607E+00 -7.07044E+00 -5.65191E+00 -5.47772E+00 -5.78917E+00 -6.93138E+00 -7.53459E+00 -1.02653E+01 -6.73166E+00
  -1.08785E+01 -7.05408E+00 -8.41542E+00 -1.03480E+01 -8.23229E+00 -1.09354E+01 -5.77967E+00 -8.15252E+00 -8.52601E+00 -8.46728E+00
  -7.23745E+00 -1.01213E+01 -1.25353E+01 -1.14758E+01 -1.25362E+01 -1.43245E+01 -1.02793E+01 -1.18185E+01 -1.18571E+01 -1.63372E+01
  -1.32235E+01 -2.08912E+01 -1.87598E+01 -1.91558E+01 -1.99436E+01 -2.30328E+01 -2.18227E+01 -2.21597E+01 -2.19550E+01 -1.81230E+01
  -1.58371E+01 -1.59194E+01 -1.72708E+01 -1.99596E+01 -1.78939E+01 -1.65725E+01 -1.55681E+01 -1.31370E+01 -1.40018E+01 -5.57809E+00
  -7.35808E+00 -4.98650E+00 -1.76171E+00 -3.42232E+00 -2.29789E+00 -3.83744E+00 -2.18168E+00 -4.65297E+00 -5.52278E+00 -6.16649E+00
  -4.76286E+00  1.88732E-01 -1.98347E+00 -1.37139E+00 -1.40598E+00 -2.81879E+00 -7.61860E+00 -5.12803E+00 -3.38226E+00 -1.48216E+00
  -1.83351E+00 -2.50260E+00  1.16388E+00  1.40987E+00  1.82649E+00  3.40201E+00  1.86644E+00 -7.20138E-01  2.93249E+00 -1.55720E+00
  -4.87709E+00 -2.94801E+00 -7.66507E-01 -3.98211E+00  4.03090E-01  3.90009E+00  5.83959E+00  8.92319E+00  1.00888E+01  9.89544E+00
   7.08068E+00  3.94192E+00  8.10716E+00  8.37781E+00  6.41640E+00  4.92416E+00  3.74931E+00  2.73555E+00  3.37444E+00  3.59123E+00
   1.27256E+00  5.01168E+00  5.60420E+00  8.57298E+00  7.43647E+00  8.02328E+00  1.02186E+01  1.36149E+01  1.40418E+01  2.12049E+01
   2.53980E+01  2.53316E+01  2.72703E+01  3.35123E+01  4.40649E+01  5.42446E+01  6.56659E+01  7.61720E+01  8.37504E+01  8.71927E+01
   9.09420E+01  9.08689E+01  8.45318E+01  7.04317E+01  5.74051E+01  4.87747E+01  3.65084E+01  2.98628E+01  2.33026E+01  1.62921E+01
   1.90679E+01  1.03547E+01  1.30090E+01  8.37694E+00  5.42162E+00  9.02552E+00  8.50931E+00  6.84184E+00  5.19683E+00  5.41095E+00
   5.74847E+00  7.83756E+00  7.38496E+00  1.08872E+01  5.99935E+00  6.52614E+00  4.61734E+00  5.67003E+00  7.15046E-01  6.59394E+00
   3.69874E+00  5.89558E+00  1.16829E+01  3.99857E+00  4.35394E+00  6.38617E+00  4.91303E+00  7.42974E+00  4.26680E+00  7.34473E+00
   7.69333E+00  1.05974E+01  6.65258E+00  6.12199E+00  6.68990E+00  3.99948E+00  1.02689E+01  1.01097E+01  8.80342E+00  8.81096E+00
   5.99521E+00  6.96525E+00  8.36609E+00  9.24676E+00  9.99618E+00  1.31879E+01  8.79028E+00  1.36069E+01  1.10827E+01  7.79722E+00
   1.05339E+01  5.93685E+00  7.87033E+00  1.07208E+01  1.20820E+01  1.09298E+01  1.20661E+01  1.43446E+01  1.51300E+01  1.09618E+01
   1.09455E+01  1.56099E+01  1.35217E+01  1.71583E+01  1.81752E+01  2.03884E+01  1.60102E+01  1.36683E+01  1.44462E+01  1.17652E+01
   1.17081E+01  1.53151E+01  1.36119E+01  1.16280E+01  1.53849E+01  1.26898E+01  1.07804E+01  1.41155E+01  1.30632E+01  1.09294E+01
   1.09713E+01  1.31942E+01  9.61181E+00  9.81081E+00  7.92218E+00  8.12931E+00  1.00022E+01  9.01889E+00  9.69309E+00  7.85681E+00
   8.76677E+00  3.50928E+00  1.07638E+01  8.43262E+00  7.81793E+00  9.37945E+00  1.22874E+01  4.18536E+00  9.19106E+00  5.68122E+00
   1.26678E+01  6.40489E+00  1.12169E+01  8.64465E+00  9.98635E+00  7.76221E+00  9.56460E+00  6.86676E+00  4.11583E+00  8.56642E+00
   6.39453E+00  5.17873E+00  4.24373E+00  5.95216E+00  6.30855E+00  8.09703E+00  7.53634E+00  7.27078E+00  5.90575E+00  5.00154E+00
   6.17911E+00  8.93117E+00  7.45394E+00  7.76936E+00  5.15040E+00  7.93341E+00  9.38742E+00  1.27953E+01  1.40267E+01  1.34637E+01
   1.24512E+01  1.37352E+01  1.08844E+01  1.48764E+01  1.15671E+01  1.48333E+01  1.17493E+01  1.60378E+01  1.77791E+01  1.72697E+01
   1.35611E+01  1.38092E+01  1.21446E+01  1.83306E+01  1.33475E+01  1.31372E+01  1.04990E+01  1.09150E+01  1.04733E+01  1.00647E+01
   9.77775E+00  1.17064E+01  9.84371E+00  8.14509E+00  8.92637E+00  7.34203E+00  1.00669E+01  7.42760E+00  8.80761E+00  3.59612E+00
   1.09251E+01  3.37600E+00  6.54287E+00  7.36973E+00  7.08415E+00  7.42573E+00  6.36257E+00  9.86935E+00  8.69394E+00  9.75236E+00
   6.71395E+00  9.78275E+00  7.30547E+00  8.51902E+00  7.71233E+00  5.32486E+00  5.98405E+00  7.21658E+00  1.75383E+00  6.76303E+00
   3.21119E+00  3.62974E+00  6.22272E+00  5.96046E+00  6.11929E+00  6.50459E+00  5.84124E+00  3.89727E+00  5.27257E+00  7.11513E+00
   6.61322E+00  5.85615E+00  7.53245E+00  3.85769E+00  6.97504E+00  6.25598E+00  5.46640E+00  2.34755E+00  7.83109E+00  6.13244E+00
   4.08309E+00  6.06249E+00  2.67597E+00  6.62976E+00  6.10605E+00  5.25296E+00  4.25822E+00  7.30505E+00  8.68825E+00  3.19144E+00
   5.84801E+00  8.29638E+00  3.88103E+00  5.13222E+00  4.24848E+00  5.61083E+00  6.54201E+00  4.59658E+00  3.53932E+00  6.95668E+00
   6.32833E+00  5.58607E+00  5.38721E+00  3.68245E+00  3.12637E+00  7.17131E+00  2.79013E+00  4.87760E+00
 NY points of the fit to the data follow
  -3.88076E+01 -3.68538E+01 -3.42355E+01 -3.09453E+01 -2.67398E+01 -2.17029E+01 -1.61253E+01 -1.06044E+01 -5.65429E+00 -1.69275E+00
   4.76996E-01 -8.05921E-02 -3.41308E+00 -8.28156E+00 -1.32595E+01 -1.78350E+01 -2.19904E+01 -2.54093E+01 -2.78205E+01 -2.97558E+01
  -3.12265E+01 -3.15924E+01 -3.12355E+01 -3.05756E+01 -2.96078E+01 -2.82078E+01 -2.64221E+01 -2.44613E+01 -2.24421E+01 -2.04370E+01
  -1.86542E+01 -1.75812E+01 -1.77359E+01 -1.88932E+01 -2.03683E+01 -2.19253E+01 -2.35452E+01 -2.47475E+01 -2.50068E+01 -2.45952E+01
  -2.40570E+01 -2.30264E+01 -2.14336E+01 -1.96034E+01 -1.78552E+01 -1.63665E+01 -1.52492E+01 -1.47416E+01 -1.51253E+01 -1.64763E+01
  -1.83162E+01 -1.98756E+01 -2.09226E+01 -2.16771E+01 -2.20867E+01 -2.19305E+01 -2.14571E+01 -2.10082E+01 -2.05112E+01 -1.99767E+01
  -1.96529E+01 -1.97090E+01 -2.00146E+01 -2.03786E+01 -2.06432E+01 -2.07265E+01 -2.05784E+01 -2.01535E+01 -1.95875E+01 -1.90380E+01
  -1.85243E+01 -1.81049E+01 -1.77994E+01 -1.76741E+01 -1.77229E+01 -1.78313E+01 -1.79316E+01 -1.80399E+01 -1.79883E+01 -1.78042E+01
  -1.76012E+01 -1.73944E+01 -1.71131E+01 -1.67231E+01 -1.62799E+01 -1.58774E+01 -1.55151E+01 -1.51515E+01 -1.49432E+01 -1.50172E+01
  -1.52984E+01 -1.55324E+01 -1.55511E+01 -1.51573E+01 -1.35157E+01 -1.09194E+01 -8.04117E+00 -4.75840E+00 -6.32168E-01  4.46302E+00
   9.89272E+00  1.49151E+01  1.91846E+01  2.22160E+01  2.28418E+01  2.01711E+01  1.49509E+01  9.20558E+00  4.10785E+00 -4.80595E-01
  -4.64418E+00 -7.69649E+00 -9.47539E+00 -1.10806E+01 -1.21864E+01 -1.23735E+01 -1.21174E+01 -1.10234E+01 -7.81480E+00 -3.38812E+00
   1.34466E+00  6.95335E+00  1.38438E+01  2.18032E+01  2.99129E+01  3.71876E+01  4.31423E+01  4.69860E+01  4.69923E+01  4.21800E+01
   3.40732E+01  2.55408E+01  1.79526E+01  1.09915E+01  4.59497E+00 -2.03051E-01 -3.33967E+00 -6.20134E+00 -7.88004E+00 -8.12221E+00
  -7.91552E+00 -7.58804E+00 -7.29137E+00 -7.18917E+00 -7.32206E+00 -7.56123E+00 -7.87075E+00 -8.22774E+00 -8.58142E+00 -8.92890E+00
  -9.24539E+00 -9.53414E+00 -9.87987E+00 -1.01891E+01 -1.04297E+01 -1.06120E+01 -1.07179E+01 -1.08307E+01 -1.10084E+01 -1.12276E+01
  -1.14748E+01 -1.17410E+01 -1.19616E+01 -1.20743E+01 -1.21003E+01 -1.21789E+01 -1.24739E+01 -1.29848E+01 -1.35525E+01 -1.40148E+01
  -1.43941E+01 -1.47159E+01 -1.50617E+01 -1.53830E+01 -1.56071E+01 -1.57886E+01 -1.58951E+01 -1.58634E+01 -1.57190E+01 -1.54715E+01
  -1.51786E+01 -1.49056E+01 -1.45105E+01 -1.38412E+01 -1.29509E+01 -1.19538E+01 -1.08291E+01 -9.55541E+00 -8.18155E+00 -6.83991E+00
  -5.66663E+00 -4.77462E+00 -4.28711E+00 -4.21157E+00 -4.41116E+00 -4.62800E+00 -4.72515E+00 -4.62349E+00 -4.37613E+00 -3.91975E+00
  -3.25309E+00 -2.57290E+00 -2.05007E+00 -1.74075E+00 -1.68314E+00 -1.89902E+00 -2.33587E+00 -2.81965E+00 -3.23598E+00 -3.50316E+00
  -3.48433E+00 -3.06540E+00 -2.35360E+00 -1.65987E+00 -1.11476E+00 -6.44296E-01 -4.86991E-01 -9.38566E-01 -1.95840E+00 -3.02080E+00
  -3.69226E+00 -3.99152E+00 -3.92424E+00 -3.21622E+00 -1.80488E+00 -1.31499E-01  1.33232E+00  2.57670E+00  3.61483E+00  4.47295E+00
   5.02382E+00  5.33407E+00  5.70284E+00  6.15044E+00  6.56834E+00  6.94457E+00  7.20688E+00  7.30753E+00  7.25443E+00  7.02975E+00
   6.72333E+00  6.61118E+00  6.84812E+00  7.41131E+00  8.27539E+00  9.38122E+00  1.07530E+01  1.25381E+01  1.43333E+01  1.61299E+01
   1.85112E+01  2.31245E+01  3.04460E+01  3.81620E+01  4.62650E+01  5.53898E+01  6.53952E+01  7.49833E+01  8.25053E+01  8.77151E+01
   9.09188E+01  9.05351E+01  8.42951E+01  7.28101E+01  5.99165E+01  4.85161E+01  3.82998E+01  2.90889E+01  2.18897E+01  1.74301E+01
   1.39084E+01  1.06717E+01  9.36704E+00  8.79949E+00  8.40031E+00  8.08005E+00  7.75216E+00  7.41664E+00  7.11313E+00  6.85189E+00
   6.62987E+00  6.44653E+00  6.30223E+00  6.19827E+00  6.11937E+00  6.04876E+00  5.98716E+00  5.94822E+00  5.93085E+00  5.93303E+00
   5.95921E+00  6.01539E+00  6.10292E+00  6.21056E+00  6.32667E+00  6.44799E+00  6.57163E+00  6.70166E+00  6.83679E+00  6.97428E+00
   7.12049E+00  7.27872E+00  7.43877E+00  7.59623E+00  7.74757E+00  7.89058E+00  8.02339E+00  8.14348E+00  8.25197E+00  8.35388E+00
   8.44914E+00  8.54142E+00  8.63625E+00  8.73793E+00  8.85167E+00  8.98241E+00  9.13480E+00  9.31298E+00  9.52017E+00  9.75863E+00
   1.00295E+01  1.03327E+01  1.06663E+01  1.10272E+01  1.14107E+01  1.18109E+01  1.22203E+01  1.26308E+01  1.30334E+01  1.34187E+01
   1.37771E+01  1.40996E+01  1.43776E+01  1.46039E+01  1.47722E+01  1.48781E+01  1.49188E+01  1.48937E+01  1.48038E+01  1.46521E+01
   1.44433E+01  1.41836E+01  1.38803E+01  1.35418E+01  1.31767E+01  1.27939E+01  1.24022E+01  1.20098E+01  1.16241E+01  1.12516E+01
   1.08975E+01  1.05660E+01  1.02598E+01  9.98047E+00  9.72843E+00  9.50306E+00  9.30282E+00  9.12547E+00  8.96826E+00  8.82811E+00
   8.70182E+00  8.58617E+00  8.47811E+00  8.37489E+00  8.27420E+00  8.17422E+00  8.07363E+00  7.97164E+00  7.86799E+00  7.76293E+00
   7.65717E+00  7.55185E+00  7.44841E+00  7.34852E+00  7.25407E+00  7.16706E+00  7.08963E+00  7.02391E+00  6.97203E+00  6.93612E+00
   6.91829E+00  6.92067E+00  6.94538E+00  6.99455E+00  7.07028E+00  7.17465E+00  7.30974E+00  7.47754E+00  7.67986E+00  7.91821E+00
   8.19368E+00  8.50680E+00  8.85735E+00  9.24419E+00  9.66503E+00  1.01163E+01  1.05931E+01  1.10891E+01  1.15963E+01  1.21056E+01
   1.26069E+01  1.30888E+01  1.35399E+01  1.39486E+01  1.43037E+01  1.45954E+01  1.48149E+01  1.49557E+01  1.50135E+01  1.49865E+01
   1.48755E+01  1.46839E+01  1.44175E+01  1.40841E+01  1.36933E+01  1.32558E+01  1.27830E+01  1.22864E+01  1.17772E+01  1.12657E+01
   1.07613E+01  1.02721E+01  9.80453E+00  9.36367E+00  8.95306E+00  8.57491E+00  8.23021E+00  7.91893E+00  7.64018E+00  7.39243E+00
   7.17369E+00  6.98172E+00  6.81411E+00  6.66842E+00  6.54226E+00  6.43331E+00  6.33947E+00  6.25880E+00  6.18956E+00  6.13018E+00
   6.07927E+00  6.03560E+00  5.99811E+00  5.96589E+00  5.93814E+00  5.91415E+00  5.89329E+00  5.87503E+00  5.85891E+00  5.84452E+00
   5.83151E+00  5.81953E+00  5.80829E+00  5.79757E+00  5.78721E+00  5.77711E+00  5.76716E+00  5.75725E+00  5.74731E+00  5.73728E+00
   5.72712E+00  5.71680E+00  5.70625E+00  5.69546E+00  5.68439E+00  5.67305E+00  5.66142E+00  5.64951E+00  5.63729E+00  5.62475E+00
   5.61192E+00  5.59881E+00  5.58543E+00  5.57178E+00  5.55787E+00  5.54371E+00  5.52933E+00  5.51475E+00  5.49999E+00  5.48506E+00
   5.46998E+00  5.45478E+00  5.43949E+00  5.42414E+00  5.40876E+00  5.39336E+00  5.37796E+00  5.36262E+00  5.34736E+00  5.33223E+00
   5.31724E+00  5.30243E+00  5.28783E+00  5.27350E+00  5.25948E+00  5.24581E+00  5.23254E+00  5.21971E+00
 NY background values follow
    -4.515E+01   -4.481E+01   -4.448E+01   -4.414E+01   -4.380E+01   -4.347E+01   -4.313E+01   -4.279E+01   -4.246E+01   -4.212E+01
    -4.179E+01   -4.145E+01   -4.111E+01   -4.078E+01   -4.044E+01   -4.011E+01   -3.977E+01   -3.944E+01   -3.911E+01   -3.878E+01
    -3.844E+01   -3.811E+01   -3.778E+01   -3.745E+01   -3.713E+01   -3.680E+01   -3.647E+01   -3.615E+01   -3.583E+01   -3.551E+01
    -3.518E+01   -3.487E+01   -3.455E+01   -3.423E+01   -3.392E+01   -3.361E+01   -3.330E+01   -3.299E+01   -3.268E+01   -3.237E+01
    -3.207E+01   -3.177E+01   -3.147E+01   -3.118E+01   -3.088E+01   -3.059E+01   -3.030E+01   -3.001E+01   -2.973E+01   -2.945E+01
    -2.917E+01   -2.889E+01   -2.861E+01   -2.834E+01   -2.807E+01   -2.780E+01   -2.753E+01   -2.727E+01   -2.701E+01   -2.675E+01
    -2.649E+01   -2.623E+01   -2.598E+01   -2.573E+01   -2.548E+01   -2.523E+01   -2.498E+01   -2.474E+01   -2.449E+01   -2.425E+01
    -2.401E+01   -2.378E+01   -2.354E+01   -2.331E+01   -2.307E+01   -2.284E+01   -2.261E+01   -2.239E+01   -2.216E+01   -2.194E+01
    -2.171E+01   -2.149E+01   -2.127E+01   -2.105E+01   -2.084E+01   -2.062E+01   -2.041E+01   -2.019E+01   -1.998E+01   -1.977E+01
    -1.956E+01   -1.935E+01   -1.915E+01   -1.894E+01   -1.874E+01   -1.854E+01   -1.833E+01   -1.814E+01   -1.794E+01   -1.774E+01
    -1.755E+01   -1.735E+01   -1.716E+01   -1.698E+01   -1.679E+01   -1.660E+01   -1.642E+01   -1.624E+01   -1.607E+01   -1.589E+01
    -1.572E+01   -1.555E+01   -1.538E+01   -1.522E+01   -1.505E+01   -1.489E+01   -1.474E+01   -1.459E+01   -1.444E+01   -1.429E+01
    -1.414E+01   -1.400E+01   -1.387E+01   -1.373E+01   -1.360E+01   -1.348E+01   -1.335E+01   -1.323E+01   -1.312E+01   -1.300E+01
    -1.290E+01   -1.279E+01   -1.269E+01   -1.260E+01   -1.250E+01   -1.242E+01   -1.233E+01   -1.225E+01   -1.218E+01   -1.211E+01
    -1.204E+01   -1.197E+01   -1.191E+01   -1.186E+01   -1.180E+01   -1.175E+01   -1.170E+01   -1.165E+01   -1.160E+01   -1.156E+01
    -1.151E+01   -1.147E+01   -1.143E+01   -1.139E+01   -1.135E+01   -1.131E+01   -1.127E+01   -1.123E+01   -1.119E+01   -1.115E+01
    -1.111E+01   -1.106E+01   -1.102E+01   -1.098E+01   -1.093E+01   -1.088E+01   -1.083E+01   -1.078E+01   -1.073E+01   -1.067E+01
    -1.061E+01   -1.055E+01   -1.048E+01   -1.041E+01   -1.034E+01   -1.026E+01   -1.018E+01   -1.010E+01   -1.000E+01   -9.910E+00
    -9.810E+00   -9.705E+00   -9.594E+00   -9.479E+00   -9.358E+00   -9.233E+00   -9.103E+00   -8.969E+00   -8.831E+00   -8.689E+00
    -8.543E+00   -8.393E+00   -8.241E+00   -8.085E+00   -7.926E+00   -7.764E+00   -7.600E+00   -7.433E+00   -7.264E+00   -7.093E+00
    -6.920E+00   -6.746E+00   -6.570E+00   -6.393E+00   -6.215E+00   -6.036E+00   -5.856E+00   -5.676E+00   -5.496E+00   -5.316E+00
    -5.136E+00   -4.956E+00   -4.776E+00   -4.598E+00   -4.420E+00   -4.243E+00   -4.068E+00   -3.894E+00   -3.722E+00   -3.552E+00
    -3.384E+00   -3.218E+00   -3.054E+00   -2.893E+00   -2.736E+00   -2.581E+00   -2.429E+00   -2.281E+00   -2.136E+00   -1.994E+00
    -1.856E+00   -1.720E+00   -1.588E+00   -1.459E+00   -1.333E+00   -1.210E+00   -1.089E+00   -9.715E-01   -8.567E-01   -7.445E-01
    -6.350E-01   -5.280E-01   -4.235E-01   -3.214E-01   -2.217E-01   -1.243E-01   -2.909E-02    6.388E-02    1.547E-01    2.435E-01
     3.303E-01    4.151E-01    4.981E-01    5.793E-01    6.586E-01    7.363E-01    8.124E-01    8.869E-01    9.598E-01    1.031E+00
     1.101E+00    1.170E+00    1.238E+00    1.304E+00    1.369E+00    1.433E+00    1.497E+00    1.559E+00    1.620E+00    1.680E+00
     1.740E+00    1.799E+00    1.857E+00    1.914E+00    1.971E+00    2.028E+00    2.083E+00    2.138E+00    2.192E+00    2.246E+00
     2.298E+00    2.350E+00    2.402E+00    2.452E+00    2.502E+00    2.551E+00    2.600E+00    2.647E+00    2.694E+00    2.740E+00
     2.785E+00    2.830E+00    2.873E+00    2.916E+00    2.958E+00    3.000E+00    3.040E+00    3.080E+00    3.118E+00    3.156E+00
     3.193E+00    3.229E+00    3.264E+00    3.299E+00    3.332E+00    3.365E+00    3.397E+00    3.427E+00    3.457E+00    3.486E+00
     3.514E+00    3.541E+00    3.567E+00    3.593E+00    3.617E+00    3.640E+00    3.662E+00    3.684E+00    3.704E+00    3.723E+00
     3.742E+00    3.759E+00    3.776E+00    3.791E+00    3.806E+00    3.820E+00    3.833E+00    3.846E+00    3.857E+00    3.868E+00
     3.878E+00    3.888E+00    3.896E+00    3.904E+00    3.911E+00    3.918E+00    3.924E+00    3.929E+00    3.934E+00    3.938E+00
     3.942E+00    3.945E+00    3.947E+00    3.949E+00    3.951E+00    3.952E+00    3.953E+00    3.953E+00    3.953E+00    3.952E+00
     3.951E+00    3.950E+00    3.948E+00    3.946E+00    3.944E+00    3.941E+00    3.939E+00    3.936E+00    3.932E+00    3.929E+00
     3.925E+00    3.921E+00    3.917E+00    3.913E+00    3.909E+00    3.905E+00    3.900E+00    3.896E+00    3.892E+00    3.888E+00
     3.883E+00    3.879E+00    3.875E+00    3.872E+00    3.868E+00    3.865E+00    3.862E+00    3.859E+00    3.857E+00    3.854E+00
     3.853E+00    3.851E+00    3.850E+00    3.850E+00    3.850E+00    3.851E+00    3.852E+00    3.853E+00    3.856E+00    3.859E+00
     3.862E+00    3.866E+00    3.871E+00    3.877E+00    3.884E+00    3.891E+00    3.899E+00    3.908E+00    3.918E+00    3.929E+00
     3.941E+00    3.954E+00    3.967E+00    3.982E+00    3.998E+00    4.015E+00    4.033E+00    4.053E+00    4.073E+00    4.095E+00
     4.117E+00    4.141E+00    4.165E+00    4.191E+00    4.217E+00    4.244E+00    4.272E+00    4.300E+00    4.329E+00    4.359E+00
     4.389E+00    4.419E+00    4.450E+00    4.481E+00    4.512E+00    4.544E+00    4.575E+00    4.607E+00    4.639E+00    4.671E+00
     4.702E+00    4.734E+00    4.765E+00    4.797E+00    4.827E+00    4.858E+00    4.888E+00    4.918E+00    4.947E+00    4.975E+00
     5.003E+00    5.030E+00    5.057E+00    5.082E+00    5.107E+00    5.131E+00    5.154E+00    5.175E+00    5.196E+00    5.216E+00
     5.234E+00    5.251E+00    5.267E+00    5.281E+00    5.294E+00    5.306E+00    5.317E+00    5.326E+00    5.335E+00    5.342E+00
     5.348E+00    5.353E+00    5.356E+00    5.359E+00    5.361E+00    5.362E+00    5.362E+00    5.361E+00    5.360E+00    5.357E+00
     5.354E+00    5.350E+00    5.345E+00    5.340E+00    5.334E+00    5.328E+00    5.321E+00    5.313E+00    5.305E+00    5.297E+00
     5.288E+00    5.279E+00    5.269E+00    5.259E+00    5.249E+00    5.239E+00    5.228E+00    5.217E+00    5.206E+00    5.195E+00
     5.184E+00    5.173E+00    5.162E+00    5.151E+00    5.140E+00    5.129E+00    5.119E+00    5.108E+00
 Cr       Conc. = 6.65E+02
