 LCModel (Version 6.3-1L) Copyright: S.W. Provencher.          Ref.: Magn. Reson. Med. 30:672-679 (1993).                
 Slice#3 Row#4 Col#14  K_02_press_1_raw_act
 36 lines in following concentration table = NCONC+1
    Conc.  %SD /Cr+PCr  Metabolite                                         
 2.95E+03  27% 132.332 Ala                                                 
    1.109 233% 5.0E-02 Asp                                                 
    0.000 999%   0.000 Cr                                                  
   22.255 222%   1.000 PCr                                                 
    0.665 233% 3.0E-02 GABA                                                
    0.665 233% 3.0E-02 Glc                                                 
    0.000 999%   0.000 Gln                                                 
  250.930 255%  11.275 Glu                                                 
    0.000 999%   0.000 GPC                                                 
    0.000 999%   0.000 PCh                                                 
   71.037 121%   3.192 GSH                                                 
  128.087 160%   5.755 Ins                                                 
 7.68E+03  22% 345.117 Lac                                                 
    0.000 999%   0.000 NAA                                                 
    0.000 999%   0.000 NAAG                                                
    0.221 234% 9.9E-03 Scyllo                                              
    1.099 235% 4.9E-02 Tau                                                 
    2.130 243% 9.6E-02 -CrCH2                                              
    0.000 999%   0.000 GPC+PCh                                             
    0.000 999%   0.000 NAA+NAAG                                            
   22.255 222%   1.000 Cr+PCr                                              
  250.930 255%  11.275 Glu+Gln                                             
 1.18E+05   2% 5.3E+03 Lip13a                                              
  173.795 209%   7.809 Lip13b                                              
  101.545 137%   4.563 Lip09                                               
    0.000 999%   0.000 MM09                                                
    0.000 999%   0.000 Lip20                                               
    0.000 999%   0.000 MM20                                                
    2.384 999%   0.107 MM12                                                
  420.760  57%  18.906 MM14                                                
  301.405  38%  13.543 MM17                                                
 1.18E+05   2% 5.3E+03 Lip13a+Lip13b                                       
 1.18E+05   2% 5.3E+03 MM14+Lip13a+Lip13b+MM12                             
  101.545 137%   4.563 MM09+Lip09                                          
    0.000 999%   0.000 MM20+Lip20                                          
   6 lines in following misc. output table
  FWHM = 0.153 ppm    S/N =  98                                            
  Data shift =-0.092 ppm                                                   
  Ph: 136 deg      27.1 deg/ppm                                            
  alphaB,S = 2.2E+01,   3.9E+02                                            
    9 spline knots.   Ns = 9(2)                                            
  (13) 2 infls.   ( 1) 1 extrs.                                            
  498 points on ppm-axis = NY
      4.000000     3.992357     3.984714     3.977070     3.969427     3.961784     3.954141     3.946497     3.938854     3.931211
      3.923568     3.915925     3.908281     3.900638     3.892995     3.885352     3.877708     3.870065     3.862422     3.854779
      3.847136     3.839492     3.831849     3.824206     3.816563     3.808919     3.801276     3.793633     3.785990     3.778347
      3.770703     3.763060     3.755417     3.747774     3.740130     3.732487     3.724844     3.717201     3.709558     3.701914
      3.694271     3.686628     3.678985     3.671341     3.663698     3.656055     3.648412     3.640769     3.633125     3.625482
      3.617839     3.610196     3.602552     3.594909     3.587266     3.579623     3.571980     3.564336     3.556693     3.549050
      3.541407     3.533763     3.526120     3.518477     3.510834     3.503191     3.495547     3.487904     3.480261     3.472618
      3.464974     3.457331     3.449688     3.442045     3.434402     3.426758     3.419115     3.411472     3.403829     3.396185
      3.388542     3.380899     3.373256     3.365613     3.357969     3.350326     3.342683     3.335040     3.327396     3.319753
      3.312110     3.304467     3.296824     3.289180     3.281537     3.273894     3.266251     3.258607     3.250964     3.243321
      3.235678     3.228034     3.220391     3.212748     3.205105     3.197462     3.189818     3.182175     3.174532     3.166889
      3.159245     3.151602     3.143959     3.136316     3.128673     3.121029     3.113386     3.105743     3.098100     3.090456
      3.082813     3.075170     3.067527     3.059884     3.052240     3.044597     3.036954     3.029311     3.021667     3.014024
      3.006381     2.998738     2.991095     2.983451     2.975808     2.968165     2.960522     2.952878     2.945235     2.937592
      2.929949     2.922306     2.914662     2.907019     2.899376     2.891733     2.884089     2.876446     2.868803     2.861160
      2.853517     2.845873     2.838230     2.830587     2.822944     2.815300     2.807657     2.800014     2.792371     2.784728
      2.777084     2.769441     2.761798     2.754155     2.746511     2.738868     2.731225     2.723582     2.715939     2.708295
      2.700652     2.693009     2.685366     2.677722     2.670079     2.662436     2.654793     2.647150     2.639506     2.631863
      2.624220     2.616577     2.608933     2.601290     2.593647     2.586004     2.578361     2.570717     2.563074     2.555431
      2.547788     2.540144     2.532501     2.524858     2.517215     2.509572     2.501928     2.494285     2.486642     2.478999
      2.471355     2.463712     2.456069     2.448426     2.440783     2.433139     2.425496     2.417853     2.410210     2.402566
      2.394923     2.387280     2.379637     2.371994     2.364350     2.356707     2.349064     2.341421     2.333777     2.326134
      2.318491     2.310848     2.303205     2.295561     2.287918     2.280275     2.272632     2.264988     2.257345     2.249702
      2.242059     2.234416     2.226772     2.219129     2.211486     2.203843     2.196199     2.188556     2.180913     2.173270
      2.165627     2.157983     2.150340     2.142697     2.135054     2.127410     2.119767     2.112124     2.104481     2.096838
      2.089194     2.081551     2.073908     2.066265     2.058621     2.050978     2.043335     2.035692     2.028049     2.020405
      2.012762     2.005119     1.997476     1.989833     1.982190     1.974546     1.966903     1.959260     1.951617     1.943974
      1.936331     1.928688     1.921045     1.913402     1.905759     1.898115     1.890472     1.882829     1.875186     1.867543
      1.859900     1.852257     1.844614     1.836971     1.829327     1.821684     1.814041     1.806398     1.798755     1.791112
      1.783469     1.775826     1.768183     1.760540     1.752896     1.745253     1.737610     1.729967     1.722324     1.714681
      1.707038     1.699395     1.691752     1.684108     1.676465     1.668822     1.661179     1.653536     1.645893     1.638250
      1.630607     1.622964     1.615321     1.607677     1.600034     1.592391     1.584748     1.577105     1.569462     1.561819
      1.554176     1.546533     1.538890     1.531246     1.523603     1.515960     1.508317     1.500674     1.493031     1.485388
      1.477745     1.470102     1.462458     1.454815     1.447172     1.439529     1.431886     1.424243     1.416600     1.408957
      1.401314     1.393671     1.386027     1.378384     1.370741     1.363098     1.355455     1.347812     1.340169     1.332526
      1.324883     1.317240     1.309596     1.301953     1.294310     1.286667     1.279024     1.271381     1.263738     1.256095
      1.248452     1.240808     1.233165     1.225522     1.217879     1.210236     1.202593     1.194950     1.187307     1.179664
      1.172021     1.164377     1.156734     1.149091     1.141448     1.133805     1.126162     1.118519     1.110876     1.103233
      1.095590     1.087946     1.080303     1.072660     1.065017     1.057374     1.049731     1.042088     1.034445     1.026802
      1.019158     1.011515     1.003872     0.996229     0.988586     0.980943     0.973300     0.965657     0.958014     0.950371
      0.942727     0.935084     0.927441     0.919798     0.912155     0.904512     0.896869     0.889226     0.881583     0.873940
      0.866296     0.858653     0.851010     0.843367     0.835724     0.828081     0.820438     0.812795     0.805152     0.797508
      0.789865     0.782222     0.774579     0.766936     0.759293     0.751650     0.744007     0.736364     0.728721     0.721077
      0.713434     0.705791     0.698148     0.690505     0.682862     0.675219     0.667576     0.659933     0.652290     0.644646
      0.637003     0.629360     0.621717     0.614074     0.606431     0.598788     0.591145     0.583502     0.575858     0.568215
      0.560572     0.552929     0.545286     0.537643     0.530000     0.522357     0.514714     0.507071     0.499427     0.491784
      0.484141     0.476498     0.468855     0.461212     0.453569     0.445925     0.438282     0.430639     0.422996     0.415353
      0.407710     0.400067     0.392424     0.384780     0.377137     0.369494     0.361851     0.354208     0.346565     0.338922
      0.331278     0.323635     0.315992     0.308349     0.300706     0.293063     0.285420     0.277777     0.270133     0.262490
      0.254847     0.247204     0.239561     0.231918     0.224275     0.216631     0.208988     0.201345
 NY phased data points follow
   5.18587E+00  4.57692E+00  3.31498E+00  3.63879E+00  4.07538E+00  5.17940E+00  1.94601E+00  4.94277E-02  3.17142E+00  5.11966E+00
   1.02953E+00  2.29795E+00  1.22287E-01  2.12776E+00 -6.27615E-01  7.73136E-01  2.20620E-01 -1.21603E+00  8.91226E-01 -2.05147E-01
  -2.56642E+00  3.62402E-01  1.93894E+00  4.51517E-01 -2.14516E+00 -2.11151E-02 -2.80383E+00 -1.00277E+00 -1.75777E-01 -1.64498E+00
   4.39999E-01 -3.50706E+00 -1.51595E+00  2.96059E-01 -4.70573E-01 -1.69132E+00 -4.14283E+00 -2.23185E+00 -1.88757E-01 -3.98969E-01
  -3.93361E+00 -4.75260E+00 -3.27056E+00 -6.58104E+00 -1.14481E+00 -2.19361E+00 -1.10894E+00 -2.74468E+00 -3.04560E+00 -3.02207E+00
  -6.89353E+00 -2.60390E+00 -3.79513E+00 -3.71893E+00 -6.77306E+00 -2.39896E+00 -7.33619E+00 -5.10669E+00 -5.76812E+00 -4.47084E+00
  -5.23208E+00 -3.31458E+00 -3.63807E+00 -7.12022E+00 -5.60762E+00 -1.71400E+00 -6.15732E+00 -6.25821E+00 -7.01615E+00 -5.22600E+00
  -4.34622E+00 -7.17646E+00 -4.35824E+00 -5.68745E+00 -7.33547E+00 -6.40642E+00 -9.03402E+00 -8.78009E+00 -7.02093E+00 -6.91110E+00
  -9.24726E+00 -8.69387E+00 -7.15958E+00 -9.93531E+00 -6.48480E+00 -7.01643E+00 -1.01127E+01 -7.79876E+00 -3.43058E+00 -6.69863E+00
  -6.20473E+00 -5.28964E+00 -9.28646E+00 -7.83887E+00 -9.82052E+00 -9.28936E+00 -7.90452E+00 -7.16340E+00 -8.12213E+00 -8.78167E+00
  -7.39457E+00 -1.08946E+01 -1.07577E+01 -1.09886E+01 -7.61293E+00 -8.65929E+00 -1.22023E+01 -8.89997E+00 -1.17217E+01 -8.83385E+00
  -8.80506E+00 -1.20933E+01 -1.21231E+01 -1.07631E+01 -8.16221E+00 -8.87598E+00 -8.10894E+00 -8.68831E+00 -8.07848E+00 -7.86760E+00
  -1.09336E+01 -9.91740E+00 -7.58489E+00 -8.64754E+00 -1.04970E+01 -1.25681E+01 -1.16924E+01 -1.24356E+01 -1.24987E+01 -8.87652E+00
  -1.11161E+01 -1.18576E+01 -1.17577E+01 -1.31575E+01 -1.29558E+01 -1.13312E+01 -1.47503E+01 -9.81384E+00 -1.04839E+01 -8.58991E+00
  -7.24625E+00 -6.36309E+00 -9.51688E+00 -1.03275E+01 -1.13635E+01 -8.42256E+00 -1.11452E+01 -9.33870E+00 -1.16777E+01 -1.18385E+01
  -9.92754E+00 -1.08128E+01 -1.31380E+01 -1.19142E+01 -1.10486E+01 -8.40834E+00 -1.03166E+01 -1.28376E+01 -9.14589E+00 -1.21061E+01
  -9.25140E+00 -1.11219E+01 -1.05342E+01 -1.20353E+01 -1.26608E+01 -1.19472E+01 -1.50631E+01 -1.32496E+01 -1.06528E+01 -8.59166E+00
  -1.34605E+01 -1.14052E+01 -1.10731E+01 -1.08852E+01 -1.53710E+01 -1.42940E+01 -1.02230E+01 -1.32681E+01 -9.99582E+00 -1.40890E+01
  -1.20545E+01 -1.36478E+01 -1.39052E+01 -1.19095E+01 -1.08390E+01 -1.03388E+01 -1.21621E+01 -1.26823E+01 -8.81736E+00 -1.27004E+01
  -1.32341E+01 -1.22281E+01 -1.25525E+01 -1.32622E+01 -1.44799E+01 -1.45351E+01 -1.23526E+01 -1.19195E+01 -1.26834E+01 -1.37107E+01
  -1.14188E+01 -1.36117E+01 -1.44588E+01 -1.51705E+01 -1.18970E+01 -1.36875E+01 -1.29191E+01 -1.12827E+01 -1.02926E+01 -1.11497E+01
  -1.69921E+01 -1.58641E+01 -1.45066E+01 -1.24449E+01 -1.67178E+01 -1.36113E+01 -1.48300E+01 -9.86810E+00 -1.46066E+01 -1.16839E+01
  -1.73558E+01 -1.56548E+01 -1.47793E+01 -1.32202E+01 -1.40908E+01 -1.95059E+01 -1.47009E+01 -1.48246E+01 -1.72270E+01 -1.23942E+01
  -1.57139E+01 -1.53602E+01 -1.57922E+01 -1.60866E+01 -1.65573E+01 -1.61220E+01 -1.34323E+01 -1.32302E+01 -1.31920E+01 -1.59343E+01
  -1.59620E+01 -1.62063E+01 -1.33654E+01 -1.53340E+01 -1.24656E+01 -1.73081E+01 -1.60074E+01 -1.54505E+01 -1.43890E+01 -1.22562E+01
  -1.74915E+01 -8.90703E+00 -1.46254E+01 -1.25499E+01 -1.29368E+01 -1.34026E+01 -1.57292E+01 -1.40536E+01 -1.45678E+01 -1.28338E+01
  -1.40905E+01 -1.16366E+01 -1.55660E+01 -1.26222E+01 -1.26746E+01 -1.23982E+01 -1.36838E+01 -1.22272E+01 -1.45105E+01 -1.19952E+01
  -1.02741E+01 -9.91620E+00 -7.62631E+00 -7.29022E+00 -2.24666E+00 -9.24550E+00 -9.53751E+00 -1.02979E+01 -6.88177E+00 -8.13405E+00
  -9.72959E+00 -4.89415E+00 -5.09054E+00 -3.03464E+00 -3.15097E+00 -2.68914E+00 -2.10597E+00 -5.44517E+00 -4.00404E+00 -1.48659E+00
  -3.19446E+00 -3.08840E+00  9.05099E-01  2.08416E+00  2.97625E+00  1.84621E+00  3.96042E+00  4.52936E+00  2.29844E+00  4.51263E+00
   8.27324E+00  7.61615E+00  9.08512E+00  1.00668E+01  1.33370E+01  1.36801E+01  1.25146E+01  1.34329E+01  1.72542E+01  2.07177E+01
   2.07506E+01  2.07341E+01  2.17250E+01  2.58354E+01  2.44416E+01  2.94606E+01  2.97941E+01  3.26779E+01  3.82428E+01  3.92262E+01
   4.07675E+01  4.42580E+01  4.92793E+01  5.15454E+01  5.65450E+01  6.07706E+01  6.62617E+01  7.13675E+01  7.82100E+01  8.25943E+01
   9.15167E+01  9.52157E+01  1.03487E+02  1.10491E+02  1.16030E+02  1.25153E+02  1.34094E+02  1.44272E+02  1.53852E+02  1.66128E+02
   1.77164E+02  1.88724E+02  2.00427E+02  2.14077E+02  2.27119E+02  2.40259E+02  2.52523E+02  2.66416E+02  2.80111E+02  2.94407E+02
   3.07643E+02  3.17186E+02  3.28607E+02  3.38004E+02  3.47477E+02  3.60614E+02  3.66527E+02  3.73930E+02  3.82482E+02  3.86320E+02
   3.88108E+02  3.85596E+02  3.83389E+02  3.79683E+02  3.74387E+02  3.66316E+02  3.56507E+02  3.45578E+02  3.33426E+02  3.21290E+02
   3.07151E+02  2.94917E+02  2.80547E+02  2.64687E+02  2.52129E+02  2.35508E+02  2.22101E+02  2.09846E+02  1.93703E+02  1.79568E+02
   1.66376E+02  1.57916E+02  1.41997E+02  1.34180E+02  1.24320E+02  1.12001E+02  1.02838E+02  9.53197E+01  8.77989E+01  8.14409E+01
   7.38198E+01  6.89837E+01  6.43036E+01  5.70524E+01  5.60284E+01  4.95970E+01  4.44006E+01  4.06554E+01  3.85395E+01  3.18736E+01
   3.15420E+01  2.88684E+01  2.60793E+01  2.45338E+01  2.23742E+01  1.86601E+01  1.90809E+01  1.35136E+01  1.30439E+01  1.40186E+01
   1.21375E+01  1.08771E+01  8.59555E+00  7.39787E+00  6.68712E+00  9.62724E+00  5.16848E+00  1.79146E+00  4.03438E+00  1.48762E+00
   3.09487E+00 -5.88440E-01 -1.24477E+00 -2.49520E+00 -2.31833E+00  2.68192E-01 -4.50373E+00 -2.20864E+00 -2.23192E+00 -3.76902E+00
  -8.85766E+00 -3.76753E+00 -9.48775E+00 -6.42243E+00 -1.09256E+01 -8.95338E+00 -7.67388E+00 -1.17552E+01 -1.43261E+01 -1.09435E+01
  -1.32046E+01 -1.17798E+01 -1.23657E+01 -1.35254E+01 -1.28604E+01 -1.53099E+01 -1.43818E+01 -1.57350E+01 -1.30545E+01 -1.33881E+01
  -1.63659E+01 -1.34455E+01 -1.43827E+01 -1.62645E+01 -1.82802E+01 -1.92049E+01 -1.63929E+01 -1.56288E+01 -1.93150E+01 -2.02612E+01
  -2.01419E+01 -1.76599E+01 -2.02591E+01 -1.96162E+01 -1.99301E+01 -1.84961E+01 -1.96934E+01 -1.79203E+01 -2.06441E+01 -2.09705E+01
  -2.19509E+01 -1.85820E+01 -2.11447E+01 -2.26830E+01 -2.17049E+01 -2.17964E+01 -1.93676E+01 -1.86029E+01 -2.01249E+01 -2.17127E+01
  -1.95113E+01 -1.98936E+01 -2.12489E+01 -1.98578E+01 -2.10032E+01 -2.22956E+01 -1.82128E+01 -2.16189E+01 -1.85977E+01 -2.03021E+01
  -2.30049E+01 -2.37132E+01 -2.21932E+01 -2.18367E+01 -2.51238E+01 -2.36476E+01 -2.08144E+01 -2.29185E+01
 NY points of the fit to the data follow
   6.87546E-01  1.85187E+00  4.10546E-01  1.48252E+00  5.73607E-01  1.64427E+00  9.01781E-01  1.77140E+00  1.03593E+00  1.54737E+00
   7.54952E-01  9.23320E-01  1.78313E-01  4.78156E-01 -1.85757E-01  2.44174E-01 -2.43184E-01  2.12437E-01 -1.72802E-01  1.72922E-01
  -2.56962E-01  6.40976E-02 -3.40579E-01 -1.13617E-01 -4.59385E-01 -3.66836E-01 -6.70239E-01 -7.59057E-01 -9.90654E-01 -1.24197E+00
  -1.31771E+00 -1.64779E+00 -1.50612E+00 -1.85650E+00 -1.53288E+00 -1.93846E+00 -1.50523E+00 -2.00984E+00 -1.58397E+00 -2.23150E+00
  -1.90609E+00 -2.57629E+00 -2.26702E+00 -2.91024E+00 -2.59668E+00 -3.13665E+00 -2.78569E+00 -3.16971E+00 -2.95288E+00 -3.32101E+00
  -3.21328E+00 -3.55028E+00 -3.52875E+00 -3.85963E+00 -3.93108E+00 -4.12694E+00 -4.14703E+00 -4.28535E+00 -4.30571E+00 -4.40771E+00
  -4.43835E+00 -4.52584E+00 -4.60654E+00 -4.72382E+00 -4.81121E+00 -4.93437E+00 -5.02325E+00 -5.14595E+00 -5.23208E+00 -5.34821E+00
  -5.42871E+00 -5.54751E+00 -5.63095E+00 -5.75441E+00 -5.84022E+00 -5.96625E+00 -6.05350E+00 -6.18061E+00 -6.26751E+00 -6.39493E+00
  -6.48342E+00 -6.60814E+00 -6.69528E+00 -6.81739E+00 -6.90351E+00 -7.02601E+00 -7.11247E+00 -7.23422E+00 -7.31894E+00 -7.43671E+00
  -7.51759E+00 -7.62835E+00 -7.70480E+00 -7.80731E+00 -7.87856E+00 -7.97542E+00 -8.04557E+00 -8.13879E+00 -8.20952E+00 -8.29950E+00
  -8.37098E+00 -8.45743E+00 -8.52916E+00 -8.61140E+00 -8.68159E+00 -8.75908E+00 -8.82643E+00 -8.89740E+00 -8.95630E+00 -9.01048E+00
  -9.07235E+00 -9.11664E+00 -9.18337E+00 -9.21751E+00 -9.28678E+00 -9.30455E+00 -9.37518E+00 -9.38825E+00 -9.46737E+00 -9.47981E+00
  -9.57126E+00 -9.58047E+00 -9.67707E+00 -9.68082E+00 -9.77697E+00 -9.78083E+00 -9.87906E+00 -9.88841E+00 -9.99047E+00 -1.00118E+01
  -1.01158E+01 -1.01536E+01 -1.02550E+01 -1.03116E+01 -1.04064E+01 -1.04795E+01 -1.05678E+01 -1.06543E+01 -1.07328E+01 -1.08247E+01
  -1.08914E+01 -1.09846E+01 -1.10408E+01 -1.11366E+01 -1.11880E+01 -1.12869E+01 -1.13372E+01 -1.14359E+01 -1.14826E+01 -1.15701E+01
  -1.16201E+01 -1.17029E+01 -1.17565E+01 -1.18335E+01 -1.18877E+01 -1.19554E+01 -1.20088E+01 -1.20756E+01 -1.21325E+01 -1.21983E+01
  -1.22581E+01 -1.23198E+01 -1.23786E+01 -1.24353E+01 -1.24910E+01 -1.25460E+01 -1.26002E+01 -1.26570E+01 -1.27100E+01 -1.27679E+01
  -1.28188E+01 -1.28750E+01 -1.29201E+01 -1.29722E+01 -1.30112E+01 -1.30626E+01 -1.30994E+01 -1.31521E+01 -1.31884E+01 -1.32454E+01
  -1.32829E+01 -1.33345E+01 -1.33692E+01 -1.34144E+01 -1.34472E+01 -1.34864E+01 -1.35176E+01 -1.35483E+01 -1.35769E+01 -1.36012E+01
  -1.36304E+01 -1.36468E+01 -1.36877E+01 -1.36986E+01 -1.37517E+01 -1.37549E+01 -1.38111E+01 -1.37959E+01 -1.38290E+01 -1.38020E+01
  -1.38313E+01 -1.38027E+01 -1.38359E+01 -1.38189E+01 -1.38720E+01 -1.38774E+01 -1.39300E+01 -1.39376E+01 -1.39879E+01 -1.39939E+01
  -1.40430E+01 -1.40461E+01 -1.40877E+01 -1.40928E+01 -1.41254E+01 -1.41298E+01 -1.41540E+01 -1.41581E+01 -1.41840E+01 -1.41881E+01
  -1.42241E+01 -1.42254E+01 -1.42679E+01 -1.42588E+01 -1.42874E+01 -1.42625E+01 -1.42651E+01 -1.42160E+01 -1.41894E+01 -1.41368E+01
  -1.40946E+01 -1.40513E+01 -1.40060E+01 -1.39778E+01 -1.39282E+01 -1.39050E+01 -1.38381E+01 -1.38125E+01 -1.37185E+01 -1.37028E+01
  -1.36083E+01 -1.36037E+01 -1.35054E+01 -1.35038E+01 -1.34061E+01 -1.33979E+01 -1.32832E+01 -1.32516E+01 -1.31328E+01 -1.30764E+01
  -1.29599E+01 -1.28817E+01 -1.27700E+01 -1.26722E+01 -1.25655E+01 -1.24423E+01 -1.23325E+01 -1.21831E+01 -1.20671E+01 -1.18925E+01
  -1.17682E+01 -1.15768E+01 -1.14471E+01 -1.12441E+01 -1.11047E+01 -1.08927E+01 -1.07395E+01 -1.05107E+01 -1.03371E+01 -1.00931E+01
  -9.89562E+00 -9.63585E+00 -9.41390E+00 -9.13933E+00 -8.88912E+00 -8.59163E+00 -8.30629E+00 -7.98164E+00 -7.65867E+00 -7.30293E+00
  -6.94175E+00 -6.54909E+00 -6.13987E+00 -5.70057E+00 -5.23759E+00 -4.74567E+00 -4.22286E+00 -3.67414E+00 -3.09135E+00 -2.48089E+00
  -1.83634E+00 -1.16403E+00 -4.58514E-01  2.74257E-01  1.03843E+00  1.83065E+00  2.65366E+00  3.50526E+00  4.38842E+00  5.30373E+00
   6.25552E+00  7.24809E+00  8.28850E+00  9.38664E+00  1.05561E+01  1.18163E+01  1.31980E+01  1.47583E+01  1.66366E+01  1.89397E+01
   2.06317E+01  2.28651E+01  2.43475E+01  2.64851E+01  2.78251E+01  2.98614E+01  3.09662E+01  3.36670E+01  3.54450E+01  3.85861E+01
   4.09599E+01  4.43721E+01  4.73661E+01  5.11665E+01  5.49626E+01  5.93284E+01  6.41243E+01  6.92894E+01  7.57810E+01  8.28136E+01
   8.97082E+01  9.62687E+01  1.03696E+02  1.10062E+02  1.18475E+02  1.24945E+02  1.34331E+02  1.43285E+02  1.54567E+02  1.65076E+02
   1.77343E+02  1.88657E+02  2.01421E+02  2.13785E+02  2.26996E+02  2.40323E+02  2.53626E+02  2.67409E+02  2.80443E+02  2.93846E+02
   3.05707E+02  3.17729E+02  3.28536E+02  3.39621E+02  3.49332E+02  3.59479E+02  3.67202E+02  3.75340E+02  3.80619E+02  3.85024E+02
   3.86611E+02  3.86355E+02  3.83932E+02  3.79635E+02  3.73580E+02  3.65589E+02  3.56533E+02  3.45908E+02  3.34937E+02  3.23017E+02
   3.09809E+02  2.95691E+02  2.81148E+02  2.65759E+02  2.50604E+02  2.34611E+02  2.19551E+02  2.05234E+02  1.91537E+02  1.78452E+02
   1.65993E+02  1.54176E+02  1.43014E+02  1.32507E+02  1.22651E+02  1.13432E+02  1.04832E+02  9.68250E+01  8.93841E+01  8.24788E+01
   7.60773E+01  7.01472E+01  6.46559E+01  5.95719E+01  5.48644E+01  5.05044E+01  4.64642E+01  4.27178E+01  3.92410E+01  3.60111E+01
   3.30074E+01  3.02108E+01  2.76035E+01  2.51693E+01  2.28932E+01  2.07618E+01  1.87626E+01  1.68844E+01  1.51169E+01  1.34510E+01
   1.18781E+01  1.03910E+01  8.98280E+00  7.64771E+00  6.38023E+00  5.17573E+00  4.02988E+00  2.93908E+00  1.89989E+00  9.09394E-01
  -3.52666E-02 -9.36477E-01 -1.79661E+00 -2.61766E+00 -3.40172E+00 -4.15058E+00 -4.86618E+00 -5.55012E+00 -6.20411E+00 -6.82960E+00
  -7.42821E+00 -8.00131E+00 -8.55039E+00 -9.07663E+00 -9.58137E+00 -1.00657E+01 -1.05307E+01 -1.09776E+01 -1.14073E+01 -1.18206E+01
  -1.22185E+01 -1.26018E+01 -1.29712E+01 -1.33274E+01 -1.36712E+01 -1.40030E+01 -1.43236E+01 -1.46334E+01 -1.49330E+01 -1.52228E+01
  -1.55034E+01 -1.57750E+01 -1.60381E+01 -1.62931E+01 -1.65404E+01 -1.67803E+01 -1.70131E+01 -1.72390E+01 -1.74585E+01 -1.76716E+01
  -1.78789E+01 -1.80803E+01 -1.82762E+01 -1.84668E+01 -1.86523E+01 -1.88329E+01 -1.90089E+01 -1.91802E+01 -1.93472E+01 -1.95100E+01
  -1.96688E+01 -1.98236E+01 -1.99747E+01 -2.01221E+01 -2.02661E+01 -2.04066E+01 -2.05440E+01 -2.06781E+01 -2.08093E+01 -2.09374E+01
  -2.10628E+01 -2.11853E+01 -2.13053E+01 -2.14226E+01 -2.15375E+01 -2.16499E+01 -2.17601E+01 -2.18678E+01 -2.19735E+01 -2.20769E+01
  -2.21783E+01 -2.22776E+01 -2.23750E+01 -2.24703E+01 -2.25638E+01 -2.26554E+01 -2.27450E+01 -2.28327E+01
 NY background values follow
     2.375E-01    1.282E-01    1.899E-02   -9.025E-02   -1.995E-01   -3.087E-01   -4.179E-01   -5.271E-01   -6.362E-01   -7.454E-01
    -8.545E-01   -9.635E-01   -1.073E+00   -1.181E+00   -1.290E+00   -1.399E+00   -1.508E+00   -1.617E+00   -1.725E+00   -1.834E+00
    -1.942E+00   -2.051E+00   -2.159E+00   -2.267E+00   -2.376E+00   -2.484E+00   -2.591E+00   -2.699E+00   -2.807E+00   -2.915E+00
    -3.022E+00   -3.129E+00   -3.236E+00   -3.344E+00   -3.450E+00   -3.557E+00   -3.664E+00   -3.770E+00   -3.877E+00   -3.983E+00
    -4.089E+00   -4.194E+00   -4.300E+00   -4.405E+00   -4.511E+00   -4.616E+00   -4.721E+00   -4.825E+00   -4.930E+00   -5.034E+00
    -5.138E+00   -5.242E+00   -5.345E+00   -5.449E+00   -5.552E+00   -5.655E+00   -5.757E+00   -5.860E+00   -5.962E+00   -6.064E+00
    -6.165E+00   -6.267E+00   -6.368E+00   -6.469E+00   -6.569E+00   -6.669E+00   -6.769E+00   -6.869E+00   -6.969E+00   -7.068E+00
    -7.166E+00   -7.265E+00   -7.363E+00   -7.461E+00   -7.559E+00   -7.656E+00   -7.753E+00   -7.849E+00   -7.945E+00   -8.041E+00
    -8.137E+00   -8.232E+00   -8.327E+00   -8.421E+00   -8.515E+00   -8.609E+00   -8.702E+00   -8.795E+00   -8.888E+00   -8.980E+00
    -9.072E+00   -9.164E+00   -9.255E+00   -9.346E+00   -9.437E+00   -9.527E+00   -9.617E+00   -9.707E+00   -9.797E+00   -9.886E+00
    -9.974E+00   -1.006E+01   -1.015E+01   -1.024E+01   -1.033E+01   -1.041E+01   -1.050E+01   -1.059E+01   -1.067E+01   -1.076E+01
    -1.085E+01   -1.093E+01   -1.102E+01   -1.110E+01   -1.119E+01   -1.127E+01   -1.136E+01   -1.144E+01   -1.152E+01   -1.161E+01
    -1.169E+01   -1.178E+01   -1.186E+01   -1.194E+01   -1.202E+01   -1.211E+01   -1.219E+01   -1.227E+01   -1.235E+01   -1.243E+01
    -1.252E+01   -1.260E+01   -1.268E+01   -1.276E+01   -1.284E+01   -1.292E+01   -1.300E+01   -1.308E+01   -1.316E+01   -1.324E+01
    -1.332E+01   -1.340E+01   -1.348E+01   -1.356E+01   -1.364E+01   -1.372E+01   -1.380E+01   -1.388E+01   -1.395E+01   -1.403E+01
    -1.411E+01   -1.419E+01   -1.427E+01   -1.435E+01   -1.442E+01   -1.450E+01   -1.458E+01   -1.466E+01   -1.473E+01   -1.481E+01
    -1.489E+01   -1.497E+01   -1.504E+01   -1.512E+01   -1.520E+01   -1.528E+01   -1.535E+01   -1.543E+01   -1.551E+01   -1.559E+01
    -1.566E+01   -1.574E+01   -1.582E+01   -1.589E+01   -1.597E+01   -1.605E+01   -1.612E+01   -1.620E+01   -1.627E+01   -1.635E+01
    -1.643E+01   -1.650E+01   -1.658E+01   -1.665E+01   -1.673E+01   -1.680E+01   -1.688E+01   -1.696E+01   -1.703E+01   -1.710E+01
    -1.718E+01   -1.725E+01   -1.733E+01   -1.740E+01   -1.748E+01   -1.755E+01   -1.762E+01   -1.770E+01   -1.777E+01   -1.784E+01
    -1.792E+01   -1.799E+01   -1.806E+01   -1.813E+01   -1.820E+01   -1.828E+01   -1.835E+01   -1.842E+01   -1.849E+01   -1.856E+01
    -1.863E+01   -1.870E+01   -1.877E+01   -1.884E+01   -1.891E+01   -1.898E+01   -1.905E+01   -1.912E+01   -1.918E+01   -1.925E+01
    -1.932E+01   -1.939E+01   -1.945E+01   -1.952E+01   -1.959E+01   -1.965E+01   -1.972E+01   -1.978E+01   -1.985E+01   -1.991E+01
    -1.998E+01   -2.004E+01   -2.011E+01   -2.017E+01   -2.023E+01   -2.029E+01   -2.036E+01   -2.042E+01   -2.048E+01   -2.054E+01
    -2.060E+01   -2.066E+01   -2.072E+01   -2.078E+01   -2.084E+01   -2.090E+01   -2.096E+01   -2.101E+01   -2.107E+01   -2.113E+01
    -2.118E+01   -2.124E+01   -2.129E+01   -2.135E+01   -2.140E+01   -2.146E+01   -2.151E+01   -2.157E+01   -2.162E+01   -2.167E+01
    -2.172E+01   -2.177E+01   -2.183E+01   -2.188E+01   -2.193E+01   -2.198E+01   -2.203E+01   -2.208E+01   -2.212E+01   -2.217E+01
    -2.222E+01   -2.227E+01   -2.232E+01   -2.236E+01   -2.241E+01   -2.246E+01   -2.250E+01   -2.255E+01   -2.259E+01   -2.264E+01
    -2.268E+01   -2.273E+01   -2.277E+01   -2.281E+01   -2.286E+01   -2.290E+01   -2.294E+01   -2.298E+01   -2.302E+01   -2.307E+01
    -2.311E+01   -2.315E+01   -2.319E+01   -2.323E+01   -2.327E+01   -2.331E+01   -2.335E+01   -2.338E+01   -2.342E+01   -2.346E+01
    -2.350E+01   -2.354E+01   -2.357E+01   -2.361E+01   -2.365E+01   -2.368E+01   -2.372E+01   -2.376E+01   -2.379E+01   -2.383E+01
    -2.386E+01   -2.390E+01   -2.393E+01   -2.396E+01   -2.400E+01   -2.403E+01   -2.407E+01   -2.410E+01   -2.413E+01   -2.416E+01
    -2.420E+01   -2.423E+01   -2.426E+01   -2.429E+01   -2.432E+01   -2.436E+01   -2.439E+01   -2.442E+01   -2.445E+01   -2.448E+01
    -2.451E+01   -2.454E+01   -2.457E+01   -2.460E+01   -2.463E+01   -2.466E+01   -2.469E+01   -2.471E+01   -2.474E+01   -2.477E+01
    -2.480E+01   -2.483E+01   -2.486E+01   -2.488E+01   -2.491E+01   -2.494E+01   -2.496E+01   -2.499E+01   -2.502E+01   -2.504E+01
    -2.507E+01   -2.510E+01   -2.512E+01   -2.515E+01   -2.517E+01   -2.520E+01   -2.522E+01   -2.525E+01   -2.527E+01   -2.530E+01
    -2.532E+01   -2.535E+01   -2.537E+01   -2.540E+01   -2.542E+01   -2.544E+01   -2.547E+01   -2.549E+01   -2.552E+01   -2.554E+01
    -2.556E+01   -2.558E+01   -2.561E+01   -2.563E+01   -2.565E+01   -2.568E+01   -2.570E+01   -2.572E+01   -2.574E+01   -2.576E+01
    -2.579E+01   -2.581E+01   -2.583E+01   -2.585E+01   -2.587E+01   -2.589E+01   -2.591E+01   -2.593E+01   -2.595E+01   -2.598E+01
    -2.600E+01   -2.602E+01   -2.604E+01   -2.606E+01   -2.608E+01   -2.610E+01   -2.612E+01   -2.614E+01   -2.616E+01   -2.618E+01
    -2.620E+01   -2.621E+01   -2.623E+01   -2.625E+01   -2.627E+01   -2.629E+01   -2.631E+01   -2.633E+01   -2.635E+01   -2.637E+01
    -2.639E+01   -2.640E+01   -2.642E+01   -2.644E+01   -2.646E+01   -2.648E+01   -2.650E+01   -2.651E+01   -2.653E+01   -2.655E+01
    -2.657E+01   -2.659E+01   -2.660E+01   -2.662E+01   -2.664E+01   -2.666E+01   -2.667E+01   -2.669E+01   -2.671E+01   -2.673E+01
    -2.674E+01   -2.676E+01   -2.678E+01   -2.680E+01   -2.681E+01   -2.683E+01   -2.685E+01   -2.686E+01   -2.688E+01   -2.690E+01
    -2.692E+01   -2.693E+01   -2.695E+01   -2.697E+01   -2.698E+01   -2.700E+01   -2.702E+01   -2.703E+01   -2.705E+01   -2.707E+01
    -2.708E+01   -2.710E+01   -2.712E+01   -2.713E+01   -2.715E+01   -2.716E+01   -2.718E+01   -2.720E+01   -2.721E+01   -2.723E+01
    -2.725E+01   -2.726E+01   -2.728E+01   -2.729E+01   -2.731E+01   -2.733E+01   -2.734E+01   -2.736E+01   -2.737E+01   -2.739E+01
    -2.741E+01   -2.742E+01   -2.744E+01   -2.745E+01   -2.747E+01   -2.749E+01   -2.750E+01   -2.752E+01   -2.753E+01   -2.755E+01
    -2.757E+01   -2.758E+01   -2.760E+01   -2.761E+01   -2.763E+01   -2.765E+01   -2.766E+01   -2.768E+01   -2.769E+01   -2.771E+01
    -2.773E+01   -2.774E+01   -2.776E+01   -2.777E+01   -2.779E+01   -2.781E+01   -2.782E+01   -2.784E+01
 Ala      Conc. = 2.95E+03
