 LCModel (Version 6.3-1L) Copyright: S.W. Provencher.          Ref.: Magn. Reson. Med. 30:672-679 (1993).                
 Slice#2 Row#14 Col#6  K_02_press_1_raw_act
 36 lines in following concentration table = NCONC+1
    Conc.  %SD /Cr+PCr  Metabolite                                         
   20.098 363%   0.136 Ala                                                 
    3.494 715% 2.4E-02 Asp                                                 
    0.000 999%   0.000 Cr                                                  
  147.270  19%   1.000 PCr                                                 
    9.586 158% 6.5E-02 GABA                                                
    8.120 186% 5.5E-02 Glc                                                 
    0.000 999%   0.000 Gln                                                 
    0.000 999%   0.000 Glu                                                 
   36.675  30%   0.249 GPC                                                 
    0.000 999%   0.000 PCh                                                 
    0.000 999%   0.000 GSH                                                 
  230.546  59%   1.565 Ins                                                 
    0.000 999%   0.000 Lac                                                 
   47.174 106%   0.320 NAA                                                 
   88.027  54%   0.598 NAAG                                                
    6.193  79% 4.2E-02 Scyllo                                              
   13.859 180% 9.4E-02 Tau                                                 
    0.000 999%   0.000 -CrCH2                                              
   36.675  30%   0.249 GPC+PCh                                             
  135.201  22%   0.918 NAA+NAAG                                            
  147.270  19%   1.000 Cr+PCr                                              
    0.000 999%   0.000 Glu+Gln                                             
    0.000 999%   0.000 Lip13a                                              
    0.000 999%   0.000 Lip13b                                              
    0.206 999% 1.4E-03 Lip09                                               
    1.650 732% 1.1E-02 MM09                                                
    0.000 999%   0.000 Lip20                                               
    0.000 999%   0.000 MM20                                                
    0.199 999% 1.4E-03 MM12                                                
    2.200 999% 1.5E-02 MM14                                                
    5.965 255% 4.1E-02 MM17                                                
    0.000 999%   0.000 Lip13a+Lip13b                                       
    2.399 999% 1.6E-02 MM14+Lip13a+Lip13b+MM12                             
    1.857 733% 1.3E-02 MM09+Lip09                                          
    0.000 999%   0.000 MM20+Lip20                                          
   6 lines in following misc. output table
  FWHM = 0.092 ppm    S/N =   1                                            
  Data shift = 0.023 ppm                                                   
  Ph:  34 deg       8.0 deg/ppm                                            
  alphaB,S = 9.7E-01,   1.2E+01                                            
   14 spline knots.   Ns = 9(1)                                            
  (11) 7 infls.   (11) 7 extrs.                                            
  498 points on ppm-axis = NY
      4.000000     3.992357     3.984714     3.977070     3.969427     3.961784     3.954141     3.946497     3.938854     3.931211
      3.923568     3.915925     3.908281     3.900638     3.892995     3.885352     3.877708     3.870065     3.862422     3.854779
      3.847136     3.839492     3.831849     3.824206     3.816563     3.808919     3.801276     3.793633     3.785990     3.778347
      3.770703     3.763060     3.755417     3.747774     3.740130     3.732487     3.724844     3.717201     3.709558     3.701914
      3.694271     3.686628     3.678985     3.671341     3.663698     3.656055     3.648412     3.640769     3.633125     3.625482
      3.617839     3.610196     3.602552     3.594909     3.587266     3.579623     3.571980     3.564336     3.556693     3.549050
      3.541407     3.533763     3.526120     3.518477     3.510834     3.503191     3.495547     3.487904     3.480261     3.472618
      3.464974     3.457331     3.449688     3.442045     3.434402     3.426758     3.419115     3.411472     3.403829     3.396185
      3.388542     3.380899     3.373256     3.365613     3.357969     3.350326     3.342683     3.335040     3.327396     3.319753
      3.312110     3.304467     3.296824     3.289180     3.281537     3.273894     3.266251     3.258607     3.250964     3.243321
      3.235678     3.228034     3.220391     3.212748     3.205105     3.197462     3.189818     3.182175     3.174532     3.166889
      3.159245     3.151602     3.143959     3.136316     3.128673     3.121029     3.113386     3.105743     3.098100     3.090456
      3.082813     3.075170     3.067527     3.059884     3.052240     3.044597     3.036954     3.029311     3.021667     3.014024
      3.006381     2.998738     2.991095     2.983451     2.975808     2.968165     2.960522     2.952878     2.945235     2.937592
      2.929949     2.922306     2.914662     2.907019     2.899376     2.891733     2.884089     2.876446     2.868803     2.861160
      2.853517     2.845873     2.838230     2.830587     2.822944     2.815300     2.807657     2.800014     2.792371     2.784728
      2.777084     2.769441     2.761798     2.754155     2.746511     2.738868     2.731225     2.723582     2.715939     2.708295
      2.700652     2.693009     2.685366     2.677722     2.670079     2.662436     2.654793     2.647150     2.639506     2.631863
      2.624220     2.616577     2.608933     2.601290     2.593647     2.586004     2.578361     2.570717     2.563074     2.555431
      2.547788     2.540144     2.532501     2.524858     2.517215     2.509572     2.501928     2.494285     2.486642     2.478999
      2.471355     2.463712     2.456069     2.448426     2.440783     2.433139     2.425496     2.417853     2.410210     2.402566
      2.394923     2.387280     2.379637     2.371994     2.364350     2.356707     2.349064     2.341421     2.333777     2.326134
      2.318491     2.310848     2.303205     2.295561     2.287918     2.280275     2.272632     2.264988     2.257345     2.249702
      2.242059     2.234416     2.226772     2.219129     2.211486     2.203843     2.196199     2.188556     2.180913     2.173270
      2.165627     2.157983     2.150340     2.142697     2.135054     2.127410     2.119767     2.112124     2.104481     2.096838
      2.089194     2.081551     2.073908     2.066265     2.058621     2.050978     2.043335     2.035692     2.028049     2.020405
      2.012762     2.005119     1.997476     1.989833     1.982190     1.974546     1.966903     1.959260     1.951617     1.943974
      1.936331     1.928688     1.921045     1.913402     1.905759     1.898115     1.890472     1.882829     1.875186     1.867543
      1.859900     1.852257     1.844614     1.836971     1.829327     1.821684     1.814041     1.806398     1.798755     1.791112
      1.783469     1.775826     1.768183     1.760540     1.752896     1.745253     1.737610     1.729967     1.722324     1.714681
      1.707038     1.699395     1.691752     1.684108     1.676465     1.668822     1.661179     1.653536     1.645893     1.638250
      1.630607     1.622964     1.615321     1.607677     1.600034     1.592391     1.584748     1.577105     1.569462     1.561819
      1.554176     1.546533     1.538890     1.531246     1.523603     1.515960     1.508317     1.500674     1.493031     1.485388
      1.477745     1.470102     1.462458     1.454815     1.447172     1.439529     1.431886     1.424243     1.416600     1.408957
      1.401314     1.393671     1.386027     1.378384     1.370741     1.363098     1.355455     1.347812     1.340169     1.332526
      1.324883     1.317240     1.309596     1.301953     1.294310     1.286667     1.279024     1.271381     1.263738     1.256095
      1.248452     1.240808     1.233165     1.225522     1.217879     1.210236     1.202593     1.194950     1.187307     1.179664
      1.172021     1.164377     1.156734     1.149091     1.141448     1.133805     1.126162     1.118519     1.110876     1.103233
      1.095590     1.087946     1.080303     1.072660     1.065017     1.057374     1.049731     1.042088     1.034445     1.026802
      1.019158     1.011515     1.003872     0.996229     0.988586     0.980943     0.973300     0.965657     0.958014     0.950371
      0.942727     0.935084     0.927441     0.919798     0.912155     0.904512     0.896869     0.889226     0.881583     0.873940
      0.866296     0.858653     0.851010     0.843367     0.835724     0.828081     0.820438     0.812795     0.805152     0.797508
      0.789865     0.782222     0.774579     0.766936     0.759293     0.751650     0.744007     0.736364     0.728721     0.721077
      0.713434     0.705791     0.698148     0.690505     0.682862     0.675219     0.667576     0.659933     0.652290     0.644646
      0.637003     0.629360     0.621717     0.614074     0.606431     0.598788     0.591145     0.583502     0.575858     0.568215
      0.560572     0.552929     0.545286     0.537643     0.530000     0.522357     0.514714     0.507071     0.499427     0.491784
      0.484141     0.476498     0.468855     0.461212     0.453569     0.445925     0.438282     0.430639     0.422996     0.415353
      0.407710     0.400067     0.392424     0.384780     0.377137     0.369494     0.361851     0.354208     0.346565     0.338922
      0.331278     0.323635     0.315992     0.308349     0.300706     0.293063     0.285420     0.277777     0.270133     0.262490
      0.254847     0.247204     0.239561     0.231918     0.224275     0.216631     0.208988     0.201345
 NY phased data points follow
   3.30741E+01  3.42439E+01  3.37399E+01  3.49439E+01  3.21010E+01  3.30736E+01  3.32759E+01  3.05866E+01  3.13465E+01  3.29024E+01
   3.23107E+01  3.06228E+01  3.01407E+01  2.99370E+01  2.64341E+01  2.58047E+01  2.58691E+01  2.41442E+01  2.59301E+01  2.47030E+01
   2.38753E+01  2.42397E+01  2.18919E+01  2.27234E+01  2.14021E+01  2.06193E+01  2.38138E+01  2.14604E+01  1.94880E+01  2.14129E+01
   2.25481E+01  2.32405E+01  1.96302E+01  2.01061E+01  1.96783E+01  1.90724E+01  2.06623E+01  2.03292E+01  1.85344E+01  2.05354E+01
   1.86942E+01  2.01196E+01  1.80556E+01  1.83702E+01  2.07577E+01  2.01480E+01  2.19522E+01  1.79241E+01  2.05748E+01  1.82069E+01
   1.93033E+01  1.79348E+01  1.77185E+01  1.69807E+01  1.75405E+01  1.61496E+01  1.51306E+01  1.87148E+01  1.81614E+01  1.44156E+01
   1.68693E+01  1.34709E+01  1.53430E+01  1.61687E+01  1.45805E+01  1.69023E+01  1.44558E+01  1.53200E+01  1.43164E+01  1.19564E+01
   1.13744E+01  1.48536E+01  1.31157E+01  1.53754E+01  1.23296E+01  1.53906E+01  1.42314E+01  1.23967E+01  1.16086E+01  1.24899E+01
   1.52679E+01  1.28692E+01  1.38239E+01  1.26477E+01  1.31290E+01  1.19948E+01  1.36116E+01  1.00767E+01  1.15921E+01  1.20653E+01
   1.04891E+01  1.15719E+01  1.09075E+01  1.41580E+01  1.02906E+01  1.15521E+01  1.26368E+01  1.16938E+01  1.15934E+01  1.32143E+01
   1.16793E+01  1.12363E+01  1.18201E+01  1.39386E+01  1.08717E+01  1.21698E+01  8.39864E+00  1.19009E+01  1.07598E+01  9.83910E+00
   9.18641E+00  9.36412E+00  8.46090E+00  8.59214E+00  8.37552E+00  9.69076E+00  8.71302E+00  7.58065E+00  7.15564E+00  6.49491E+00
   8.41908E+00  1.14620E+01  9.86687E+00  9.62397E+00  7.33565E+00  8.58848E+00  9.71115E+00  9.96417E+00  1.00683E+01  1.04789E+01
   7.46406E+00  8.79038E+00  1.23851E+01  7.11630E+00  7.29257E+00  9.35481E+00  9.08036E+00  9.57424E+00  8.08852E+00  8.75185E+00
   5.58788E+00  8.30309E+00  7.67007E+00  6.09747E+00  8.70922E+00  9.44168E+00  6.98991E+00  8.12717E+00  5.12507E+00  6.93044E+00
   8.07443E+00  8.17384E+00  7.92879E+00  8.09287E+00  8.41288E+00  8.34296E+00  8.05012E+00  8.26534E+00  5.18848E+00  6.06636E+00
   6.48940E+00  7.86969E+00  9.37087E+00  5.57363E+00  5.00587E+00  5.45837E+00  7.09732E+00  4.87300E+00  5.19239E+00  5.23994E+00
   5.66144E+00  4.95886E+00  2.95305E+00  5.96432E+00  4.80592E+00  4.18862E+00  4.70755E+00  4.55170E+00  5.91098E+00  3.84107E+00
   3.18003E+00  4.80736E+00  2.96196E+00  5.80590E+00  3.07708E+00  2.18444E+00  4.34290E+00  4.25934E+00  5.21951E+00  7.08548E+00
   4.37163E+00  4.24487E+00  5.16420E+00  4.62759E+00  5.89408E+00  6.33192E+00  4.21613E+00  5.07132E+00  3.74048E+00  5.76293E+00
   5.15283E+00  6.06188E+00  5.72644E+00  1.09339E+00  3.64297E+00  4.37410E+00  5.46677E+00  6.04646E+00  2.79275E+00  2.42159E+00
   1.85325E+00  5.46578E+00  3.66779E+00  4.25428E+00  4.31568E+00  3.41915E+00  4.47612E+00  3.06147E+00  3.74969E+00  5.15877E+00
   4.67115E+00  1.96625E+00  3.30818E+00  3.01154E+00  2.65473E+00  4.50706E+00  2.20432E+00  1.89839E+00  2.44217E+00  2.89550E+00
   3.01298E+00  3.05857E+00  1.22516E-01  4.14257E+00  3.20656E+00  3.77264E-01 -2.01712E-01  1.77410E-01  2.09916E+00  9.69122E-01
   3.39196E+00  1.03341E+00  8.65551E-01  2.84424E+00 -4.26676E-01  2.69727E+00  2.14519E+00  7.24587E-01  2.73174E+00  7.81449E-01
   1.08772E+00  3.31126E+00  2.91375E+00  3.72389E+00  4.48603E+00  4.52897E+00  2.81838E+00  5.77183E+00  5.31560E+00  4.04724E-01
   2.08990E+00  6.12365E+00  4.58160E+00  3.17973E-01  1.94539E+00  2.10973E+00  1.87542E-01 -1.16478E-01  2.53030E+00 -2.88521E-01
   5.94881E-01 -2.32692E+00  2.10575E+00 -8.48020E-01 -1.53104E+00  7.01099E-03  1.22982E-01 -1.26614E+00 -1.20625E+00 -2.87370E+00
   8.70268E-01 -1.34255E+00 -1.55542E-01  2.17443E+00  3.64449E+00  1.14258E+00  6.92504E-01 -1.85995E-01  1.18296E+00  8.78629E-01
   1.75716E+00  2.15084E-01  2.36915E+00  3.00006E+00 -1.03238E-01  3.28587E+00  1.64576E+00  6.79559E-01  1.69276E-01 -2.67740E+00
   1.07479E+00  1.82724E+00  9.55492E-01  1.46291E+00  1.18704E-02 -1.01105E+00 -5.04985E-01 -4.93550E-02  6.23015E-01  4.77989E-01
  -5.60273E-01 -4.24836E-01 -4.25254E-01  6.48458E-01  2.45919E+00 -1.97126E+00  8.37954E-01 -2.42507E+00 -6.54534E-01  5.11768E-01
  -1.23773E+00  7.42655E-01 -2.00221E-02  5.22683E-01 -9.33014E-01  4.67734E+00 -1.30456E+00 -5.35321E-01  1.08938E+00 -1.21515E-01
  -3.04364E+00 -1.09786E+00 -2.62358E+00  7.22679E-01 -6.78533E-02 -1.16661E+00 -2.63799E+00 -1.23655E+00 -1.68852E+00 -9.17070E-01
  -3.45992E+00  2.07959E-01 -2.02178E+00 -1.42841E+00 -3.43173E+00 -2.96792E+00  1.51304E+00 -2.06490E+00 -1.11123E+00 -9.06276E-01
  -1.78550E+00 -2.16785E+00  3.83250E-01 -2.74759E+00 -1.52468E+00 -2.63440E+00 -1.99642E+00  8.65879E-01 -3.41611E+00 -3.63528E+00
  -2.14865E+00 -1.58937E+00 -1.81371E+00 -3.43575E+00 -2.77022E+00 -1.27910E+00 -1.27975E+00 -2.95506E+00 -3.03672E+00 -3.29621E+00
  -1.52893E+00 -7.70353E-01 -2.39685E+00 -5.71487E+00 -3.15580E+00 -4.77964E+00  1.72440E-01 -4.53008E+00 -3.93040E+00 -3.67568E+00
  -3.78498E+00 -2.77089E+00 -1.44357E+00 -1.26776E+00 -1.87174E+00 -2.12799E+00 -3.92227E+00 -2.50932E+00 -2.78754E-01 -3.74108E+00
  -7.56661E-01 -1.98028E+00 -2.27172E+00 -2.64445E+00 -3.68606E+00 -4.48902E+00 -3.32680E+00 -2.83754E+00 -2.82429E+00 -4.77820E+00
  -5.32340E+00 -3.32892E+00 -2.85446E+00 -1.50496E+00 -1.77727E+00 -1.56965E+00 -2.52408E+00 -8.39887E-01 -3.37515E+00 -1.29088E+00
  -4.68905E+00 -1.13565E+00 -3.43020E+00 -1.56265E+00 -3.22002E+00 -2.13125E+00 -2.77862E+00 -4.17277E+00 -4.44577E+00 -3.78308E+00
  -4.67524E+00 -3.89278E+00 -4.26018E+00 -2.90096E+00 -2.75927E+00 -2.10808E+00 -1.99275E+00 -2.49910E+00 -2.91274E+00 -1.86335E+00
  -1.92443E+00 -1.79793E+00  3.10353E-01 -1.52120E+00 -3.64840E+00 -2.91294E+00 -2.32618E+00 -3.12912E+00 -4.67291E+00 -4.17523E+00
  -2.22409E+00 -4.71462E+00 -4.71903E+00 -4.01533E+00 -4.79856E+00 -2.59285E+00 -3.35083E+00 -3.62010E+00 -3.72833E+00 -2.20997E+00
  -4.25801E+00 -3.02625E+00 -3.81580E+00 -4.05121E+00 -2.20483E+00 -3.38440E+00 -3.40952E+00 -1.95897E+00 -2.66205E+00 -2.81525E+00
  -3.61103E+00 -3.36806E+00 -3.94117E+00 -2.89646E+00 -4.11094E+00 -1.45159E+00 -2.53793E+00 -1.68985E+00 -2.83300E+00 -4.50754E+00
  -5.02863E+00 -3.29269E+00 -4.25406E+00 -4.91968E+00 -5.81851E+00 -2.95140E+00 -3.38055E+00 -2.76491E+00 -3.54143E+00 -4.35162E+00
  -2.29182E+00 -3.26291E+00 -3.85731E+00 -4.71966E+00 -3.96964E+00 -4.87456E+00 -4.32407E+00 -2.60170E+00 -3.60119E+00 -4.26744E+00
  -3.08823E+00 -2.86644E+00 -3.61033E+00 -3.50710E+00 -2.12761E+00 -2.28011E+00  1.51291E-01 -8.25981E-01
 NY points of the fit to the data follow
   3.06663E+01  3.05933E+01  3.09517E+01  3.12062E+01  3.11504E+01  3.09324E+01  3.04607E+01  2.99879E+01  3.00012E+01  3.03163E+01
   3.01439E+01  2.92272E+01  2.83191E+01  2.80842E+01  2.78264E+01  2.69924E+01  2.63121E+01  2.61542E+01  2.58930E+01  2.52839E+01
   2.48541E+01  2.45571E+01  2.42630E+01  2.39720E+01  2.37051E+01  2.34512E+01  2.31894E+01  2.29259E+01  2.26833E+01  2.24658E+01
   2.22651E+01  2.20829E+01  2.19137E+01  2.17188E+01  2.14663E+01  2.11803E+01  2.08926E+01  2.06473E+01  2.04735E+01  2.02897E+01
   2.00444E+01  1.98941E+01  1.99813E+01  2.01224E+01  1.99982E+01  1.95930E+01  1.92064E+01  1.90536E+01  1.90508E+01  1.89737E+01
   1.86611E+01  1.81301E+01  1.77001E+01  1.75375E+01  1.73821E+01  1.70882E+01  1.68813E+01  1.67868E+01  1.65534E+01  1.62150E+01
   1.59921E+01  1.59067E+01  1.57980E+01  1.55875E+01  1.53637E+01  1.51920E+01  1.50295E+01  1.48593E+01  1.47259E+01  1.46190E+01
   1.44741E+01  1.43020E+01  1.41506E+01  1.40290E+01  1.38883E+01  1.36964E+01  1.35162E+01  1.33821E+01  1.32407E+01  1.30924E+01
   1.29689E+01  1.28210E+01  1.25829E+01  1.22970E+01  1.20454E+01  1.18835E+01  1.18172E+01  1.17283E+01  1.15017E+01  1.12325E+01
   1.11140E+01  1.11116E+01  1.10082E+01  1.07910E+01  1.06919E+01  1.09930E+01  1.15940E+01  1.21225E+01  1.23140E+01  1.21973E+01
   1.18194E+01  1.15839E+01  1.19260E+01  1.24552E+01  1.23014E+01  1.14163E+01  1.07739E+01  1.08530E+01  1.07156E+01  9.97390E+00
   9.54486E+00  9.64718E+00  9.53514E+00  9.10352E+00  8.89449E+00  8.79782E+00  8.71304E+00  8.59409E+00  8.53868E+00  8.94357E+00
   9.82855E+00  1.06724E+01  1.10543E+01  1.10246E+01  1.06327E+01  1.03830E+01  1.08900E+01  1.16997E+01  1.16193E+01  1.04909E+01
   9.60568E+00  9.72206E+00  9.59739E+00  8.63790E+00  8.05217E+00  8.20457E+00  8.10601E+00  7.56164E+00  7.30786E+00  7.21194E+00
   7.14891E+00  7.09159E+00  7.02916E+00  6.96928E+00  6.91910E+00  6.87233E+00  6.81984E+00  6.75925E+00  6.69181E+00  6.62499E+00
   6.56819E+00  6.52717E+00  6.49977E+00  6.46177E+00  6.39180E+00  6.30604E+00  6.23575E+00  6.19588E+00  6.17166E+00  6.13497E+00
   6.07560E+00  5.99849E+00  5.91291E+00  5.84169E+00  5.79072E+00  5.74142E+00  5.69591E+00  5.66486E+00  5.61630E+00  5.52798E+00
   5.43404E+00  5.37647E+00  5.36545E+00  5.36568E+00  5.31920E+00  5.22015E+00  5.13287E+00  5.09094E+00  5.08266E+00  5.07612E+00
   5.04568E+00  4.99591E+00  4.95450E+00  4.92861E+00  4.92010E+00  4.93258E+00  4.92841E+00  4.87863E+00  4.83147E+00  4.81057E+00
   4.77102E+00  4.70709E+00  4.66266E+00  4.63845E+00  4.58046E+00  4.49694E+00  4.44025E+00  4.40354E+00  4.33971E+00  4.26753E+00
   4.22696E+00  4.18265E+00  4.09068E+00  3.98846E+00  3.93025E+00  3.88265E+00  3.80514E+00  3.71931E+00  3.65245E+00  3.58105E+00
   3.50307E+00  3.45177E+00  3.41076E+00  3.34523E+00  3.27652E+00  3.24236E+00  3.21801E+00  3.17229E+00  3.12542E+00  3.10180E+00
   3.07384E+00  3.02388E+00  2.96813E+00  2.92072E+00  2.86947E+00  2.80826E+00  2.74524E+00  2.68877E+00  2.64865E+00  2.61925E+00
   2.57550E+00  2.51212E+00  2.44603E+00  2.39428E+00  2.35528E+00  2.30948E+00  2.25299E+00  2.19475E+00  2.13252E+00  2.08292E+00
   2.06356E+00  2.03111E+00  1.94771E+00  1.87427E+00  1.85796E+00  1.85300E+00  1.80400E+00  1.72158E+00  1.83387E+00  2.27498E+00
   2.82469E+00  3.15013E+00  3.28461E+00  3.34230E+00  3.41605E+00  3.75193E+00  4.33932E+00  4.58324E+00  4.03229E+00  3.30957E+00
   3.36836E+00  3.70605E+00  3.21418E+00  2.31145E+00  2.05163E+00  2.19725E+00  1.85482E+00  1.32821E+00  1.14669E+00  1.17044E+00
   1.06243E+00  8.75309E-01  7.95852E-01  7.49374E-01  7.08266E-01  6.75884E-01  6.48699E-01  6.12384E-01  5.68250E-01  5.37172E-01
   5.21175E-01  4.93995E-01  4.56483E-01  4.31375E-01  4.15419E-01  3.91882E-01  3.64186E-01  3.46389E-01  3.35286E-01  3.16109E-01
   2.88218E-01  2.64052E-01  2.46527E-01  2.29375E-01  2.07738E-01  1.81515E-01  1.58227E-01  1.43055E-01  1.22284E-01  9.17947E-02
   6.49363E-02  4.70122E-02  2.82766E-02  4.19628E-03 -2.15117E-02 -4.37004E-02 -6.51086E-02 -9.01658E-02 -1.16592E-01 -1.41164E-01
  -1.66398E-01 -1.92959E-01 -2.19808E-01 -2.46964E-01 -2.74275E-01 -3.01541E-01 -3.28323E-01 -3.54209E-01 -3.77913E-01 -3.86095E-01
  -3.74491E-01 -3.74007E-01 -4.15957E-01 -4.91485E-01 -5.78763E-01 -6.60053E-01 -7.14383E-01 -7.55948E-01 -8.20919E-01 -9.09663E-01
  -9.69535E-01 -9.60271E-01 -9.46532E-01 -1.02431E+00 -1.11805E+00 -1.10463E+00 -1.03138E+00 -1.02448E+00 -1.09273E+00 -1.15323E+00
  -1.15653E+00 -1.16294E+00 -1.23179E+00 -1.30155E+00 -1.32625E+00 -1.35628E+00 -1.41645E+00 -1.46985E+00 -1.51627E+00 -1.55958E+00
  -1.60109E+00 -1.64129E+00 -1.68045E+00 -1.71872E+00 -1.75622E+00 -1.79300E+00 -1.82908E+00 -1.86443E+00 -1.89906E+00 -1.93298E+00
  -1.96620E+00 -1.99871E+00 -2.03047E+00 -2.06147E+00 -2.09173E+00 -2.12129E+00 -2.15019E+00 -2.17844E+00 -2.20601E+00 -2.23293E+00
  -2.25922E+00 -2.28492E+00 -2.31004E+00 -2.33458E+00 -2.35852E+00 -2.38188E+00 -2.40470E+00 -2.42700E+00 -2.44878E+00 -2.47002E+00
  -2.49073E+00 -2.51092E+00 -2.53064E+00 -2.54988E+00 -2.56864E+00 -2.58692E+00 -2.60472E+00 -2.62206E+00 -2.63898E+00 -2.65548E+00
  -2.67155E+00 -2.68720E+00 -2.70246E+00 -2.71736E+00 -2.73193E+00 -2.74619E+00 -2.76013E+00 -2.77380E+00 -2.78722E+00 -2.80045E+00
  -2.81351E+00 -2.82641E+00 -2.83916E+00 -2.85180E+00 -2.86436E+00 -2.87687E+00 -2.88932E+00 -2.90171E+00 -2.91403E+00 -2.92628E+00
  -2.93847E+00 -2.95057E+00 -2.96256E+00 -2.97440E+00 -2.98608E+00 -2.99759E+00 -3.00895E+00 -3.02011E+00 -3.03106E+00 -3.04178E+00
  -3.05227E+00 -3.06256E+00 -3.07263E+00 -3.08247E+00 -3.09206E+00 -3.10142E+00 -3.11056E+00 -3.11950E+00 -3.12822E+00 -3.13672E+00
  -3.14498E+00 -3.15304E+00 -3.16089E+00 -3.16855E+00 -3.17601E+00 -3.18325E+00 -3.19027E+00 -3.19710E+00 -3.20373E+00 -3.21018E+00
  -3.21642E+00 -3.22244E+00 -3.22825E+00 -3.23388E+00 -3.23931E+00 -3.24455E+00 -3.24957E+00 -3.25437E+00 -3.25898E+00 -3.26339E+00
  -3.26761E+00 -3.27162E+00 -3.27541E+00 -3.27898E+00 -3.28236E+00 -3.28554E+00 -3.28851E+00 -3.29127E+00 -3.29380E+00 -3.29612E+00
  -3.29823E+00 -3.30015E+00 -3.30184E+00 -3.30331E+00 -3.30454E+00 -3.30557E+00 -3.30639E+00 -3.30700E+00 -3.30737E+00 -3.30751E+00
  -3.30743E+00 -3.30713E+00 -3.30661E+00 -3.30587E+00 -3.30489E+00 -3.30367E+00 -3.30222E+00 -3.30055E+00 -3.29866E+00 -3.29653E+00
  -3.29415E+00 -3.29154E+00 -3.28869E+00 -3.28562E+00 -3.28231E+00 -3.27875E+00 -3.27493E+00 -3.27088E+00 -3.26660E+00 -3.26207E+00
  -3.25730E+00 -3.25227E+00 -3.24698E+00 -3.24145E+00 -3.23568E+00 -3.22966E+00 -3.22337E+00 -3.21682E+00
 NY background values follow
     2.992E+01    2.965E+01    2.937E+01    2.909E+01    2.882E+01    2.854E+01    2.827E+01    2.799E+01    2.772E+01    2.744E+01
     2.717E+01    2.690E+01    2.663E+01    2.635E+01    2.609E+01    2.582E+01    2.555E+01    2.528E+01    2.502E+01    2.475E+01
     2.449E+01    2.422E+01    2.396E+01    2.370E+01    2.345E+01    2.319E+01    2.293E+01    2.268E+01    2.243E+01    2.218E+01
     2.193E+01    2.168E+01    2.143E+01    2.119E+01    2.095E+01    2.071E+01    2.047E+01    2.024E+01    2.000E+01    1.977E+01
     1.954E+01    1.932E+01    1.909E+01    1.887E+01    1.865E+01    1.843E+01    1.822E+01    1.801E+01    1.780E+01    1.759E+01
     1.739E+01    1.718E+01    1.698E+01    1.679E+01    1.659E+01    1.640E+01    1.621E+01    1.602E+01    1.584E+01    1.565E+01
     1.547E+01    1.529E+01    1.512E+01    1.495E+01    1.477E+01    1.460E+01    1.444E+01    1.427E+01    1.411E+01    1.395E+01
     1.379E+01    1.364E+01    1.348E+01    1.333E+01    1.318E+01    1.304E+01    1.289E+01    1.275E+01    1.261E+01    1.247E+01
     1.233E+01    1.220E+01    1.207E+01    1.194E+01    1.181E+01    1.168E+01    1.156E+01    1.143E+01    1.131E+01    1.120E+01
     1.108E+01    1.096E+01    1.085E+01    1.074E+01    1.063E+01    1.052E+01    1.042E+01    1.031E+01    1.021E+01    1.011E+01
     1.001E+01    9.915E+00    9.820E+00    9.726E+00    9.634E+00    9.543E+00    9.453E+00    9.366E+00    9.279E+00    9.194E+00
     9.111E+00    9.029E+00    8.948E+00    8.868E+00    8.790E+00    8.713E+00    8.637E+00    8.563E+00    8.490E+00    8.418E+00
     8.347E+00    8.277E+00    8.208E+00    8.140E+00    8.073E+00    8.008E+00    7.943E+00    7.879E+00    7.816E+00    7.754E+00
     7.693E+00    7.633E+00    7.573E+00    7.514E+00    7.457E+00    7.399E+00    7.343E+00    7.287E+00    7.232E+00    7.177E+00
     7.123E+00    7.070E+00    7.017E+00    6.965E+00    6.913E+00    6.862E+00    6.811E+00    6.760E+00    6.710E+00    6.661E+00
     6.612E+00    6.563E+00    6.514E+00    6.466E+00    6.418E+00    6.370E+00    6.322E+00    6.275E+00    6.228E+00    6.181E+00
     6.134E+00    6.087E+00    6.041E+00    5.994E+00    5.947E+00    5.901E+00    5.854E+00    5.807E+00    5.761E+00    5.714E+00
     5.667E+00    5.620E+00    5.573E+00    5.525E+00    5.478E+00    5.430E+00    5.382E+00    5.333E+00    5.284E+00    5.235E+00
     5.186E+00    5.136E+00    5.086E+00    5.036E+00    4.985E+00    4.934E+00    4.882E+00    4.830E+00    4.778E+00    4.725E+00
     4.673E+00    4.620E+00    4.566E+00    4.513E+00    4.459E+00    4.405E+00    4.351E+00    4.297E+00    4.242E+00    4.188E+00
     4.133E+00    4.078E+00    4.023E+00    3.968E+00    3.913E+00    3.858E+00    3.803E+00    3.747E+00    3.692E+00    3.637E+00
     3.582E+00    3.526E+00    3.471E+00    3.416E+00    3.361E+00    3.306E+00    3.251E+00    3.196E+00    3.141E+00    3.087E+00
     3.032E+00    2.978E+00    2.924E+00    2.870E+00    2.816E+00    2.763E+00    2.710E+00    2.657E+00    2.604E+00    2.551E+00
     2.499E+00    2.447E+00    2.396E+00    2.344E+00    2.294E+00    2.243E+00    2.193E+00    2.143E+00    2.093E+00    2.044E+00
     1.995E+00    1.947E+00    1.899E+00    1.851E+00    1.804E+00    1.757E+00    1.711E+00    1.665E+00    1.620E+00    1.575E+00
     1.531E+00    1.487E+00    1.444E+00    1.401E+00    1.358E+00    1.317E+00    1.276E+00    1.235E+00    1.195E+00    1.155E+00
     1.117E+00    1.078E+00    1.041E+00    1.004E+00    9.674E-01    9.317E-01    8.967E-01    8.623E-01    8.287E-01    7.957E-01
     7.634E-01    7.318E-01    7.010E-01    6.708E-01    6.413E-01    6.125E-01    5.842E-01    5.566E-01    5.294E-01    5.028E-01
     4.767E-01    4.510E-01    4.257E-01    4.008E-01    3.762E-01    3.520E-01    3.280E-01    3.044E-01    2.809E-01    2.576E-01
     2.345E-01    2.116E-01    1.887E-01    1.659E-01    1.431E-01    1.204E-01    9.758E-02    7.474E-02    5.181E-02    2.876E-02
     5.559E-03   -1.783E-02   -4.143E-02   -6.527E-02   -8.939E-02   -1.138E-01   -1.386E-01   -1.637E-01   -1.893E-01   -2.153E-01
    -2.417E-01   -2.687E-01   -2.961E-01   -3.242E-01   -3.528E-01   -3.820E-01   -4.120E-01   -4.425E-01   -4.738E-01   -5.057E-01
    -5.382E-01   -5.713E-01   -6.050E-01   -6.391E-01   -6.738E-01   -7.089E-01   -7.445E-01   -7.804E-01   -8.168E-01   -8.534E-01
    -8.904E-01   -9.276E-01   -9.651E-01   -1.003E+00   -1.041E+00   -1.079E+00   -1.117E+00   -1.155E+00   -1.194E+00   -1.232E+00
    -1.271E+00   -1.309E+00   -1.347E+00   -1.385E+00   -1.424E+00   -1.462E+00   -1.499E+00   -1.537E+00   -1.574E+00   -1.611E+00
    -1.648E+00   -1.685E+00   -1.721E+00   -1.757E+00   -1.792E+00   -1.827E+00   -1.861E+00   -1.895E+00   -1.929E+00   -1.961E+00
    -1.994E+00   -2.025E+00   -2.056E+00   -2.086E+00   -2.116E+00   -2.145E+00   -2.173E+00   -2.201E+00   -2.228E+00   -2.254E+00
    -2.280E+00   -2.306E+00   -2.330E+00   -2.354E+00   -2.378E+00   -2.401E+00   -2.424E+00   -2.446E+00   -2.468E+00   -2.489E+00
    -2.509E+00   -2.529E+00   -2.549E+00   -2.568E+00   -2.587E+00   -2.606E+00   -2.624E+00   -2.641E+00   -2.658E+00   -2.675E+00
    -2.692E+00   -2.708E+00   -2.724E+00   -2.739E+00   -2.754E+00   -2.769E+00   -2.784E+00   -2.798E+00   -2.812E+00   -2.826E+00
    -2.839E+00   -2.852E+00   -2.865E+00   -2.878E+00   -2.891E+00   -2.903E+00   -2.915E+00   -2.927E+00   -2.939E+00   -2.951E+00
    -2.962E+00   -2.974E+00   -2.985E+00   -2.996E+00   -3.007E+00   -3.018E+00   -3.028E+00   -3.038E+00   -3.049E+00   -3.058E+00
    -3.068E+00   -3.078E+00   -3.087E+00   -3.097E+00   -3.106E+00   -3.115E+00   -3.123E+00   -3.132E+00   -3.140E+00   -3.148E+00
    -3.156E+00   -3.164E+00   -3.172E+00   -3.179E+00   -3.186E+00   -3.194E+00   -3.200E+00   -3.207E+00   -3.214E+00   -3.220E+00
    -3.226E+00   -3.232E+00   -3.238E+00   -3.243E+00   -3.248E+00   -3.253E+00   -3.258E+00   -3.263E+00   -3.268E+00   -3.272E+00
    -3.276E+00   -3.280E+00   -3.284E+00   -3.287E+00   -3.290E+00   -3.294E+00   -3.296E+00   -3.299E+00   -3.302E+00   -3.304E+00
    -3.306E+00   -3.308E+00   -3.309E+00   -3.311E+00   -3.312E+00   -3.313E+00   -3.314E+00   -3.314E+00   -3.314E+00   -3.315E+00
    -3.314E+00   -3.314E+00   -3.313E+00   -3.313E+00   -3.312E+00   -3.310E+00   -3.309E+00   -3.307E+00   -3.305E+00   -3.303E+00
    -3.301E+00   -3.298E+00   -3.295E+00   -3.292E+00   -3.289E+00   -3.285E+00   -3.281E+00   -3.277E+00   -3.273E+00   -3.268E+00
    -3.263E+00   -3.258E+00   -3.253E+00   -3.247E+00   -3.242E+00   -3.236E+00   -3.229E+00   -3.223E+00
 Ala      Conc. = 2.01E+01
