 LCModel (Version 6.3-1L) Copyright: S.W. Provencher.          Ref.: Magn. Reson. Med. 30:672-679 (1993).                
 Slice#3 Row#4 Col#13  K_02_press_1_raw_act
 36 lines in following concentration table = NCONC+1
    Conc.  %SD /Cr+PCr  Metabolite                                         
 2.12E+04  23%   0.000 Ala                                                 
    9.963 645%   0.000 Asp                                                 
    0.000 999%   0.000 Cr                                                  
    0.000 999%   0.000 PCr                                                 
   10.645 363%   0.000 GABA                                                
   28.284 136%   0.000 Glc                                                 
 7.25E+03  13%   0.000 Gln                                                 
 5.55E+03  20%   0.000 Glu                                                 
    0.000 999%   0.000 GPC                                                 
  123.181  25%   0.000 PCh                                                 
    0.000 999%   0.000 GSH                                                 
 1.68E+03  19%   0.000 Ins                                                 
 2.65E+03 122%   0.000 Lac                                                 
    0.000 999%   0.000 NAA                                                 
    0.000 999%   0.000 NAAG                                                
   21.018  58%   0.000 Scyllo                                              
   84.397  75%   0.000 Tau                                                 
    0.000 999%   0.000 -CrCH2                                              
  123.181  25%   0.000 GPC+PCh                                             
    0.000 999%   0.000 NAA+NAAG                                            
    0.000 999%   0.000 Cr+PCr                                              
 1.28E+04  14%   0.000 Glu+Gln                                             
 2.47E+05   4%   0.000 Lip13a                                              
 4.13E+03  86%   0.000 Lip13b                                              
 4.21E+04  11%   0.000-Lip09                                               
    0.000 999%   0.000 MM09                                                
 2.69E+03  38%   0.000-Lip20                                               
 9.68E+03  10%   0.000 MM20                                                
 1.26E+03 171%   0.000 MM12                                                
 4.42E+04  10%   0.000+MM14                                                
 4.05E+03  55%   0.000 MM17                                                
 2.51E+05   4%   0.000 Lip13a+Lip13b                                       
 2.97E+05   2%   0.000 MM14+Lip13a+Lip13b+MM12                             
 4.21E+04  11%   0.000 MM09+Lip09                                          
 1.24E+04   9%   0.000 MM20+Lip20                                          
   6 lines in following misc. output table
  FWHM = 0.168 ppm    S/N = 169                                            
  Data shift =-0.023 ppm                                                   
  Ph:  37 deg      -5.3 deg/ppm                                            
  alphaB,S = 2.3E+01,   4.3E+02                                            
    7 spline knots.   Ns = 9(2)                                            
  ( 9)10 infls.   (11) 7 extrs.                                            
  498 points on ppm-axis = NY
      4.000000     3.992357     3.984714     3.977070     3.969427     3.961784     3.954141     3.946497     3.938854     3.931211
      3.923568     3.915925     3.908281     3.900638     3.892995     3.885352     3.877708     3.870065     3.862422     3.854779
      3.847136     3.839492     3.831849     3.824206     3.816563     3.808919     3.801276     3.793633     3.785990     3.778347
      3.770703     3.763060     3.755417     3.747774     3.740130     3.732487     3.724844     3.717201     3.709558     3.701914
      3.694271     3.686628     3.678985     3.671341     3.663698     3.656055     3.648412     3.640769     3.633125     3.625482
      3.617839     3.610196     3.602552     3.594909     3.587266     3.579623     3.571980     3.564336     3.556693     3.549050
      3.541407     3.533763     3.526120     3.518477     3.510834     3.503191     3.495547     3.487904     3.480261     3.472618
      3.464974     3.457331     3.449688     3.442045     3.434402     3.426758     3.419115     3.411472     3.403829     3.396185
      3.388542     3.380899     3.373256     3.365613     3.357969     3.350326     3.342683     3.335040     3.327396     3.319753
      3.312110     3.304467     3.296824     3.289180     3.281537     3.273894     3.266251     3.258607     3.250964     3.243321
      3.235678     3.228034     3.220391     3.212748     3.205105     3.197462     3.189818     3.182175     3.174532     3.166889
      3.159245     3.151602     3.143959     3.136316     3.128673     3.121029     3.113386     3.105743     3.098100     3.090456
      3.082813     3.075170     3.067527     3.059884     3.052240     3.044597     3.036954     3.029311     3.021667     3.014024
      3.006381     2.998738     2.991095     2.983451     2.975808     2.968165     2.960522     2.952878     2.945235     2.937592
      2.929949     2.922306     2.914662     2.907019     2.899376     2.891733     2.884089     2.876446     2.868803     2.861160
      2.853517     2.845873     2.838230     2.830587     2.822944     2.815300     2.807657     2.800014     2.792371     2.784728
      2.777084     2.769441     2.761798     2.754155     2.746511     2.738868     2.731225     2.723582     2.715939     2.708295
      2.700652     2.693009     2.685366     2.677722     2.670079     2.662436     2.654793     2.647150     2.639506     2.631863
      2.624220     2.616577     2.608933     2.601290     2.593647     2.586004     2.578361     2.570717     2.563074     2.555431
      2.547788     2.540144     2.532501     2.524858     2.517215     2.509572     2.501928     2.494285     2.486642     2.478999
      2.471355     2.463712     2.456069     2.448426     2.440783     2.433139     2.425496     2.417853     2.410210     2.402566
      2.394923     2.387280     2.379637     2.371994     2.364350     2.356707     2.349064     2.341421     2.333777     2.326134
      2.318491     2.310848     2.303205     2.295561     2.287918     2.280275     2.272632     2.264988     2.257345     2.249702
      2.242059     2.234416     2.226772     2.219129     2.211486     2.203843     2.196199     2.188556     2.180913     2.173270
      2.165627     2.157983     2.150340     2.142697     2.135054     2.127410     2.119767     2.112124     2.104481     2.096838
      2.089194     2.081551     2.073908     2.066265     2.058621     2.050978     2.043335     2.035692     2.028049     2.020405
      2.012762     2.005119     1.997476     1.989833     1.982190     1.974546     1.966903     1.959260     1.951617     1.943974
      1.936331     1.928688     1.921045     1.913402     1.905759     1.898115     1.890472     1.882829     1.875186     1.867543
      1.859900     1.852257     1.844614     1.836971     1.829327     1.821684     1.814041     1.806398     1.798755     1.791112
      1.783469     1.775826     1.768183     1.760540     1.752896     1.745253     1.737610     1.729967     1.722324     1.714681
      1.707038     1.699395     1.691752     1.684108     1.676465     1.668822     1.661179     1.653536     1.645893     1.638250
      1.630607     1.622964     1.615321     1.607677     1.600034     1.592391     1.584748     1.577105     1.569462     1.561819
      1.554176     1.546533     1.538890     1.531246     1.523603     1.515960     1.508317     1.500674     1.493031     1.485388
      1.477745     1.470102     1.462458     1.454815     1.447172     1.439529     1.431886     1.424243     1.416600     1.408957
      1.401314     1.393671     1.386027     1.378384     1.370741     1.363098     1.355455     1.347812     1.340169     1.332526
      1.324883     1.317240     1.309596     1.301953     1.294310     1.286667     1.279024     1.271381     1.263738     1.256095
      1.248452     1.240808     1.233165     1.225522     1.217879     1.210236     1.202593     1.194950     1.187307     1.179664
      1.172021     1.164377     1.156734     1.149091     1.141448     1.133805     1.126162     1.118519     1.110876     1.103233
      1.095590     1.087946     1.080303     1.072660     1.065017     1.057374     1.049731     1.042088     1.034445     1.026802
      1.019158     1.011515     1.003872     0.996229     0.988586     0.980943     0.973300     0.965657     0.958014     0.950371
      0.942727     0.935084     0.927441     0.919798     0.912155     0.904512     0.896869     0.889226     0.881583     0.873940
      0.866296     0.858653     0.851010     0.843367     0.835724     0.828081     0.820438     0.812795     0.805152     0.797508
      0.789865     0.782222     0.774579     0.766936     0.759293     0.751650     0.744007     0.736364     0.728721     0.721077
      0.713434     0.705791     0.698148     0.690505     0.682862     0.675219     0.667576     0.659933     0.652290     0.644646
      0.637003     0.629360     0.621717     0.614074     0.606431     0.598788     0.591145     0.583502     0.575858     0.568215
      0.560572     0.552929     0.545286     0.537643     0.530000     0.522357     0.514714     0.507071     0.499427     0.491784
      0.484141     0.476498     0.468855     0.461212     0.453569     0.445925     0.438282     0.430639     0.422996     0.415353
      0.407710     0.400067     0.392424     0.384780     0.377137     0.369494     0.361851     0.354208     0.346565     0.338922
      0.331278     0.323635     0.315992     0.308349     0.300706     0.293063     0.285420     0.277777     0.270133     0.262490
      0.254847     0.247204     0.239561     0.231918     0.224275     0.216631     0.208988     0.201345
 NY phased data points follow
  -1.81220E+01 -2.04549E+01 -1.92000E+01 -2.19471E+01 -2.13853E+01 -2.20197E+01 -1.66053E+01 -2.25902E+01 -2.40303E+01 -2.02531E+01
  -2.23258E+01 -2.15546E+01 -1.97739E+01 -2.04628E+01 -2.35044E+01 -2.15915E+01 -1.95083E+01 -2.06719E+01 -1.66586E+01 -2.37035E+01
  -1.93987E+01 -1.97869E+01 -1.76967E+01 -1.90106E+01 -2.09510E+01 -2.27749E+01 -2.13784E+01 -1.94105E+01 -2.14445E+01 -2.08668E+01
  -2.19022E+01 -2.39941E+01 -2.03950E+01 -2.10818E+01 -2.02992E+01 -2.24462E+01 -2.08154E+01 -1.88014E+01 -2.21127E+01 -2.31997E+01
  -2.44666E+01 -2.47762E+01 -2.06275E+01 -2.29504E+01 -2.19865E+01 -2.41730E+01 -2.33637E+01 -2.29527E+01 -2.28939E+01 -2.38251E+01
  -2.25532E+01 -2.30969E+01 -2.36560E+01 -1.99403E+01 -2.69243E+01 -2.52098E+01 -2.28422E+01 -2.19127E+01 -2.29148E+01 -2.33662E+01
  -2.37903E+01 -2.23583E+01 -2.44714E+01 -2.36602E+01 -2.42585E+01 -2.32774E+01 -2.40116E+01 -2.60866E+01 -2.54747E+01 -2.53679E+01
  -2.60788E+01 -2.43760E+01 -2.38763E+01 -2.49396E+01 -2.88666E+01 -2.37924E+01 -2.34698E+01 -2.59162E+01 -2.36156E+01 -2.33770E+01
  -2.61456E+01 -2.70151E+01 -2.62234E+01 -2.54861E+01 -2.62597E+01 -2.82206E+01 -2.78509E+01 -2.61773E+01 -2.55006E+01 -2.89719E+01
  -2.98343E+01 -2.81752E+01 -3.31815E+01 -2.52609E+01 -2.97565E+01 -2.93390E+01 -3.00349E+01 -3.05157E+01 -3.03387E+01 -3.04405E+01
  -2.94893E+01 -2.91173E+01 -3.07955E+01 -3.00947E+01 -3.16521E+01 -2.81834E+01 -2.94100E+01 -2.37695E+01 -2.95397E+01 -2.91929E+01
  -2.82376E+01 -2.81430E+01 -2.75713E+01 -3.09779E+01 -2.87882E+01 -2.91496E+01 -3.14577E+01 -2.90741E+01 -2.89037E+01 -3.21584E+01
  -2.99870E+01 -3.28684E+01 -3.06586E+01 -3.12963E+01 -3.15426E+01 -3.25033E+01 -3.37121E+01 -3.43333E+01 -3.03240E+01 -3.13608E+01
  -2.90539E+01 -2.76593E+01 -2.78359E+01 -2.88349E+01 -2.83039E+01 -2.80526E+01 -2.85935E+01 -2.83378E+01 -2.93259E+01 -2.69392E+01
  -3.12823E+01 -2.89234E+01 -2.81181E+01 -2.94281E+01 -2.70714E+01 -3.16400E+01 -2.56167E+01 -3.04498E+01 -3.27392E+01 -2.74942E+01
  -2.88045E+01 -2.97531E+01 -2.91458E+01 -2.92401E+01 -3.26582E+01 -3.36483E+01 -3.05142E+01 -3.00027E+01 -3.18080E+01 -3.08791E+01
  -3.05376E+01 -3.04543E+01 -3.15478E+01 -2.89971E+01 -3.30481E+01 -3.28502E+01 -3.48762E+01 -3.22893E+01 -3.66149E+01 -3.32722E+01
  -3.65138E+01 -3.54984E+01 -3.41291E+01 -3.36089E+01 -3.54475E+01 -3.35257E+01 -3.33763E+01 -3.51530E+01 -3.51789E+01 -3.41223E+01
  -3.76405E+01 -3.45898E+01 -3.69371E+01 -3.38350E+01 -3.59597E+01 -3.71527E+01 -3.45396E+01 -3.61720E+01 -3.74721E+01 -3.66541E+01
  -3.50300E+01 -3.38979E+01 -3.63590E+01 -3.92795E+01 -3.65523E+01 -3.37342E+01 -3.27699E+01 -3.50714E+01 -3.25718E+01 -3.57960E+01
  -3.41394E+01 -3.44491E+01 -2.88857E+01 -3.37754E+01 -2.92155E+01 -3.15702E+01 -2.55608E+01 -2.58597E+01 -2.56068E+01 -2.52720E+01
  -2.21326E+01 -2.28096E+01 -2.28270E+01 -2.17055E+01 -2.19357E+01 -1.79299E+01 -2.03798E+01 -1.81529E+01 -1.35137E+01 -1.60461E+01
  -1.27999E+01 -9.93701E+00 -1.00426E+01 -6.42950E+00 -8.65654E+00 -7.74707E+00 -5.79558E+00 -3.48411E-01 -3.39635E+00 -2.66879E+00
   3.79495E-01  3.51747E+00  4.41001E+00  7.72916E+00  8.52647E+00  1.08748E+01  1.28683E+01  1.16042E+01  1.54751E+01  1.65285E+01
   1.98007E+01  2.08753E+01  2.62896E+01  2.51389E+01  2.85503E+01  2.41752E+01  2.76077E+01  2.62320E+01  2.81188E+01  2.92089E+01
   3.20183E+01  3.03458E+01  3.02440E+01  2.81807E+01  3.01136E+01  2.96413E+01  3.27027E+01  3.23194E+01  3.18647E+01  3.24903E+01
   2.98767E+01  3.11368E+01  3.40730E+01  3.85829E+01  3.68371E+01  4.33594E+01  3.72627E+01  4.02424E+01  3.63574E+01  3.74422E+01
   3.71853E+01  3.93887E+01  4.07885E+01  4.09240E+01  4.18877E+01  4.41713E+01  4.48449E+01  4.69987E+01  4.42228E+01  4.82599E+01
   4.92720E+01  4.79767E+01  4.88777E+01  5.37411E+01  5.47276E+01  5.45034E+01  5.73758E+01  6.29825E+01  6.41456E+01  6.01839E+01
   6.62542E+01  6.82581E+01  7.44992E+01  7.65454E+01  8.07719E+01  8.33427E+01  8.91941E+01  9.09813E+01  9.88595E+01  1.03523E+02
   1.13250E+02  1.14118E+02  1.23325E+02  1.24829E+02  1.36910E+02  1.45144E+02  1.56673E+02  1.62544E+02  1.70684E+02  1.86230E+02
   1.97738E+02  2.11365E+02  2.26808E+02  2.42852E+02  2.58194E+02  2.80110E+02  2.95236E+02  3.16878E+02  3.39441E+02  3.61361E+02
   3.83106E+02  4.10089E+02  4.35477E+02  4.62751E+02  4.92199E+02  5.19367E+02  5.52410E+02  5.85770E+02  6.17714E+02  6.49219E+02
   6.85556E+02  7.14880E+02  7.48592E+02  7.79798E+02  8.10210E+02  8.36468E+02  8.66532E+02  8.88528E+02  9.06480E+02  9.25392E+02
   9.41820E+02  9.56921E+02  9.65071E+02  9.74022E+02  9.81336E+02  9.85333E+02  9.92042E+02  9.93013E+02  9.93863E+02  9.92070E+02
   9.84501E+02  9.73583E+02  9.60861E+02  9.48516E+02  9.29781E+02  9.05451E+02  8.77633E+02  8.50046E+02  8.19633E+02  7.83640E+02
   7.48871E+02  7.13533E+02  6.82538E+02  6.45928E+02  6.10422E+02  5.78710E+02  5.48450E+02  5.19013E+02  4.88702E+02  4.61723E+02
   4.36590E+02  4.11295E+02  3.88169E+02  3.63871E+02  3.45319E+02  3.28171E+02  3.06428E+02  2.95236E+02  2.75832E+02  2.62269E+02
   2.49598E+02  2.36623E+02  2.25550E+02  2.18697E+02  2.04596E+02  2.01176E+02  1.91951E+02  1.86102E+02  1.79661E+02  1.68220E+02
   1.63036E+02  1.56088E+02  1.53253E+02  1.48412E+02  1.41118E+02  1.37932E+02  1.34218E+02  1.28299E+02  1.26326E+02  1.22386E+02
   1.20331E+02  1.17747E+02  1.14687E+02  1.13817E+02  1.09330E+02  1.06314E+02  1.04597E+02  1.03780E+02  9.88564E+01  9.78298E+01
   9.62833E+01  9.35385E+01  9.09982E+01  8.72864E+01  8.53780E+01  8.34397E+01  8.20403E+01  7.52691E+01  7.88869E+01  7.71559E+01
   7.34421E+01  6.69486E+01  6.73236E+01  6.49741E+01  6.26106E+01  6.04502E+01  5.95765E+01  5.77748E+01  5.63784E+01  5.09928E+01
   5.12963E+01  4.99319E+01  4.96126E+01  4.55792E+01  4.52093E+01  4.03264E+01  4.18224E+01  3.93090E+01  3.57151E+01  3.75726E+01
   3.98769E+01  3.35540E+01  3.27807E+01  3.30630E+01  3.09454E+01  2.90129E+01  2.71776E+01  2.73701E+01  2.69284E+01  2.62628E+01
   2.50700E+01  2.27368E+01  2.25739E+01  2.24072E+01  2.14254E+01  2.08966E+01  2.12765E+01  1.88740E+01  1.96239E+01  1.57443E+01
   1.57482E+01  1.67360E+01  1.33869E+01  1.29811E+01  9.49345E+00  1.26435E+01  1.09309E+01  1.14526E+01  8.72639E+00  1.05999E+01
   9.07669E+00  8.15620E+00  7.09113E+00  5.88509E+00  6.60956E+00  7.07360E+00  8.08512E+00  7.67353E+00  6.08123E+00  7.42935E+00
   6.95319E+00  5.55592E+00  3.29609E+00  3.10997E+00  2.16017E+00 -1.32590E-01  1.66356E+00  1.82128E+00  1.21863E+00  3.92513E+00
   1.82544E+00  1.37923E-01  8.15580E-01  9.34297E-02  1.29622E+00 -5.62776E-01 -4.88337E-01 -4.57040E-01
 NY points of the fit to the data follow
  -1.95643E+01 -1.97327E+01 -1.95897E+01 -1.98526E+01 -1.98703E+01 -2.01564E+01 -2.02618E+01 -2.06402E+01 -2.06009E+01 -2.10769E+01
  -2.10223E+01 -2.15638E+01 -2.14466E+01 -2.17260E+01 -2.14247E+01 -2.16634E+01 -2.12163E+01 -2.12367E+01 -2.11380E+01 -2.10271E+01
  -2.13089E+01 -2.09261E+01 -2.15710E+01 -2.08994E+01 -2.19510E+01 -2.07447E+01 -2.22381E+01 -2.06784E+01 -2.25984E+01 -2.06169E+01
  -2.29000E+01 -2.04279E+01 -2.29567E+01 -2.01466E+01 -2.28706E+01 -2.00145E+01 -2.30357E+01 -2.02038E+01 -2.33368E+01 -2.05305E+01
  -2.33711E+01 -2.07761E+01 -2.29945E+01 -2.04123E+01 -2.21206E+01 -1.96877E+01 -2.08335E+01 -1.87340E+01 -1.94762E+01 -1.82608E+01
  -1.95518E+01 -1.91271E+01 -2.06828E+01 -2.04916E+01 -2.19572E+01 -2.20950E+01 -2.29948E+01 -2.26663E+01 -2.33901E+01 -2.30895E+01
  -2.36394E+01 -2.33952E+01 -2.38517E+01 -2.37615E+01 -2.44138E+01 -2.43484E+01 -2.50123E+01 -2.49304E+01 -2.55516E+01 -2.54117E+01
  -2.59204E+01 -2.56503E+01 -2.61071E+01 -2.59049E+01 -2.64052E+01 -2.63095E+01 -2.68386E+01 -2.68283E+01 -2.73800E+01 -2.74410E+01
  -2.79958E+01 -2.81303E+01 -2.86759E+01 -2.88401E+01 -2.93476E+01 -2.94667E+01 -2.99712E+01 -3.00663E+01 -3.05767E+01 -3.05951E+01
  -3.10977E+01 -3.09591E+01 -3.14322E+01 -3.10683E+01 -3.15459E+01 -3.09724E+01 -3.14665E+01 -3.07097E+01 -3.12379E+01 -3.03513E+01
  -3.09123E+01 -2.99361E+01 -3.05138E+01 -2.94839E+01 -3.00859E+01 -2.90705E+01 -2.97021E+01 -2.87704E+01 -2.93987E+01 -2.85777E+01
  -2.92219E+01 -2.85383E+01 -2.91750E+01 -2.86432E+01 -2.92205E+01 -2.88747E+01 -2.93463E+01 -2.91508E+01 -2.94600E+01 -2.93374E+01
  -2.94938E+01 -2.94612E+01 -2.95036E+01 -2.95123E+01 -2.94129E+01 -2.92995E+01 -2.91862E+01 -2.90969E+01 -2.90122E+01 -2.89545E+01
  -2.89074E+01 -2.88889E+01 -2.88843E+01 -2.89053E+01 -2.89410E+01 -2.89980E+01 -2.90691E+01 -2.91568E+01 -2.92567E+01 -2.93691E+01
  -2.94900E+01 -2.96200E+01 -2.97548E+01 -2.98943E+01 -3.00345E+01 -3.01760E+01 -3.03152E+01 -3.04533E+01 -3.05875E+01 -3.07193E+01
  -3.08465E+01 -3.09719E+01 -3.10924E+01 -3.12120E+01 -3.13275E+01 -3.14436E+01 -3.15565E+01 -3.16708E+01 -3.17826E+01 -3.18972E+01
  -3.20100E+01 -3.21242E+01 -3.22375E+01 -3.23511E+01 -3.24642E+01 -3.25743E+01 -3.26837E+01 -3.27876E+01 -3.28873E+01 -3.29793E+01
  -3.30665E+01 -3.31410E+01 -3.32082E+01 -3.32569E+01 -3.33066E+01 -3.33684E+01 -3.34027E+01 -3.35377E+01 -3.35858E+01 -3.38162E+01
  -3.38790E+01 -3.42296E+01 -3.42274E+01 -3.46424E+01 -3.45224E+01 -3.50020E+01 -3.46517E+01 -3.51243E+01 -3.44747E+01 -3.49439E+01
  -3.40670E+01 -3.47323E+01 -3.36028E+01 -3.44047E+01 -3.30360E+01 -3.40376E+01 -3.25190E+01 -3.37371E+01 -3.19975E+01 -3.33675E+01
  -3.13902E+01 -3.26582E+01 -3.04731E+01 -3.16253E+01 -2.93290E+01 -3.02629E+01 -2.78528E+01 -2.83808E+01 -2.60749E+01 -2.62429E+01
  -2.41318E+01 -2.39678E+01 -2.21923E+01 -2.16959E+01 -2.02942E+01 -1.94628E+01 -1.84600E+01 -1.74321E+01 -1.66377E+01 -1.50964E+01
  -1.42076E+01 -1.20382E+01 -1.08034E+01 -8.28125E+00 -6.99555E+00 -4.76149E+00 -3.33776E+00 -1.38654E+00 -8.86302E-02  1.23031E+00
   2.29369E+00  2.82240E+00  4.27585E+00  4.97899E+00  6.93761E+00  7.83717E+00  1.03119E+01  1.13786E+01  1.42761E+01  1.53644E+01
   1.80149E+01  1.89773E+01  2.11606E+01  2.19391E+01  2.35068E+01  2.42015E+01  2.55226E+01  2.66510E+01  2.76203E+01  2.90282E+01
   2.95025E+01  3.09678E+01  3.09573E+01  3.25027E+01  3.21472E+01  3.38361E+01  3.31936E+01  3.47155E+01  3.40275E+01  3.57264E+01
   3.50834E+01  3.69360E+01  3.63619E+01  3.79820E+01  3.70592E+01  3.84314E+01  3.73627E+01  3.85778E+01  3.76343E+01  3.88082E+01
   3.81792E+01  3.93982E+01  3.91700E+01  4.03755E+01  4.04580E+01  4.17131E+01  4.21566E+01  4.34371E+01  4.41860E+01  4.55314E+01
   4.65163E+01  4.79918E+01  4.93682E+01  5.10944E+01  5.28797E+01  5.48642E+01  5.70561E+01  5.93176E+01  6.18339E+01  6.44498E+01
   6.73404E+01  7.03487E+01  7.36503E+01  7.71095E+01  8.08711E+01  8.48630E+01  8.91865E+01  9.37860E+01  9.87311E+01  1.04004E+02
   1.09651E+02  1.15687E+02  1.22143E+02  1.29062E+02  1.36496E+02  1.44510E+02  1.53194E+02  1.62673E+02  1.73144E+02  1.84929E+02
   1.98067E+02  2.11612E+02  2.26940E+02  2.42287E+02  2.60090E+02  2.77179E+02  2.97420E+02  3.15952E+02  3.39559E+02  3.59686E+02
   3.85966E+02  4.07895E+02  4.37152E+02  4.60937E+02  4.93048E+02  5.19024E+02  5.54110E+02  5.82567E+02  6.19230E+02  6.48980E+02
   6.85631E+02  7.15411E+02  7.50269E+02  7.79018E+02  8.10669E+02  8.37029E+02  8.64149E+02  8.86881E+02  9.08133E+02  9.26266E+02
   9.41155E+02  9.55117E+02  9.64863E+02  9.75397E+02  9.81378E+02  9.88325E+02  9.90354E+02  9.93541E+02  9.91639E+02  9.90538E+02
   9.84630E+02  9.75735E+02  9.63502E+02  9.47412E+02  9.28530E+02  9.04697E+02  8.78883E+02  8.48026E+02  8.18608E+02  7.84265E+02
   7.51420E+02  7.14929E+02  6.80828E+02  6.44904E+02  6.11850E+02  5.78204E+02  5.47580E+02  5.17008E+02  4.89204E+02  4.61904E+02
   4.36536E+02  4.11784E+02  3.88908E+02  3.66720E+02  3.46282E+02  3.26680E+02  3.08690E+02  2.92106E+02  2.76768E+02  2.62583E+02
   2.49474E+02  2.37373E+02  2.26210E+02  2.15919E+02  2.06435E+02  1.97695E+02  1.89636E+02  1.82202E+02  1.75337E+02  1.68989E+02
   1.63109E+02  1.57652E+02  1.52576E+02  1.47841E+02  1.43413E+02  1.39257E+02  1.35345E+02  1.31649E+02  1.28145E+02  1.24809E+02
   1.21622E+02  1.18565E+02  1.15623E+02  1.12781E+02  1.10026E+02  1.07348E+02  1.04735E+02  1.02180E+02  9.96759E+01  9.72159E+01
   9.47950E+01  9.24091E+01  9.00547E+01  8.77291E+01  8.54305E+01  8.31572E+01  8.09086E+01  7.86841E+01  7.64838E+01  7.43079E+01
   7.21569E+01  7.00316E+01  6.79330E+01  6.58621E+01  6.38201E+01  6.18081E+01  5.98274E+01  5.78791E+01  5.59643E+01  5.40844E+01
   5.22401E+01  5.04325E+01  4.86624E+01  4.69306E+01  4.52378E+01  4.35844E+01  4.19709E+01  4.03975E+01  3.88646E+01  3.73722E+01
   3.59203E+01  3.45088E+01  3.31375E+01  3.18061E+01  3.05144E+01  2.92618E+01  2.80480E+01  2.68723E+01  2.57342E+01  2.46331E+01
   2.35682E+01  2.25389E+01  2.15444E+01  2.05840E+01  1.96568E+01  1.87622E+01  1.78993E+01  1.70673E+01  1.62654E+01  1.54927E+01
   1.47486E+01  1.40321E+01  1.33425E+01  1.26791E+01  1.20410E+01  1.14275E+01  1.08378E+01  1.02712E+01  9.72703E+00  9.20459E+00
   8.70317E+00  8.22212E+00  7.76080E+00  7.31862E+00  6.89494E+00  6.48920E+00  6.10082E+00  5.72926E+00  5.37402E+00  5.03458E+00
   4.71048E+00  4.40124E+00  4.10642E+00  3.82561E+00  3.55844E+00  3.30452E+00  3.06352E+00  2.83511E+00  2.61899E+00  2.41491E+00
   2.22266E+00  2.04204E+00  1.87290E+00  1.71515E+00  1.56875E+00  1.43375E+00  1.31032E+00  1.19870E+00
 NY background values follow
     2.083E+01    2.070E+01    2.056E+01    2.043E+01    2.029E+01    2.016E+01    2.002E+01    1.988E+01    1.974E+01    1.960E+01
     1.945E+01    1.931E+01    1.916E+01    1.901E+01    1.886E+01    1.871E+01    1.856E+01    1.841E+01    1.825E+01    1.810E+01
     1.794E+01    1.778E+01    1.762E+01    1.746E+01    1.730E+01    1.714E+01    1.697E+01    1.681E+01    1.664E+01    1.647E+01
     1.631E+01    1.614E+01    1.597E+01    1.579E+01    1.562E+01    1.545E+01    1.527E+01    1.510E+01    1.492E+01    1.475E+01
     1.457E+01    1.439E+01    1.421E+01    1.403E+01    1.385E+01    1.366E+01    1.348E+01    1.330E+01    1.311E+01    1.293E+01
     1.274E+01    1.255E+01    1.236E+01    1.218E+01    1.199E+01    1.180E+01    1.161E+01    1.142E+01    1.122E+01    1.103E+01
     1.084E+01    1.065E+01    1.045E+01    1.026E+01    1.006E+01    9.867E+00    9.671E+00    9.475E+00    9.278E+00    9.081E+00
     8.884E+00    8.686E+00    8.488E+00    8.289E+00    8.090E+00    7.891E+00    7.692E+00    7.492E+00    7.292E+00    7.092E+00
     6.892E+00    6.692E+00    6.491E+00    6.290E+00    6.090E+00    5.889E+00    5.688E+00    5.487E+00    5.285E+00    5.084E+00
     4.883E+00    4.682E+00    4.481E+00    4.280E+00    4.079E+00    3.878E+00    3.678E+00    3.477E+00    3.277E+00    3.077E+00
     2.877E+00    2.677E+00    2.477E+00    2.278E+00    2.079E+00    1.880E+00    1.682E+00    1.484E+00    1.286E+00    1.089E+00
     8.923E-01    6.959E-01    5.000E-01    3.045E-01    1.095E-01   -8.496E-02   -2.789E-01   -4.723E-01   -6.651E-01   -8.573E-01
    -1.049E+00   -1.240E+00   -1.430E+00   -1.620E+00   -1.809E+00   -1.997E+00   -2.184E+00   -2.371E+00   -2.557E+00   -2.742E+00
    -2.926E+00   -3.110E+00   -3.292E+00   -3.474E+00   -3.655E+00   -3.835E+00   -4.014E+00   -4.192E+00   -4.369E+00   -4.545E+00
    -4.720E+00   -4.894E+00   -5.067E+00   -5.239E+00   -5.410E+00   -5.580E+00   -5.749E+00   -5.917E+00   -6.083E+00   -6.248E+00
    -6.412E+00   -6.575E+00   -6.737E+00   -6.898E+00   -7.057E+00   -7.215E+00   -7.371E+00   -7.527E+00   -7.681E+00   -7.833E+00
    -7.984E+00   -8.134E+00   -8.283E+00   -8.430E+00   -8.575E+00   -8.720E+00   -8.862E+00   -9.003E+00   -9.143E+00   -9.281E+00
    -9.418E+00   -9.553E+00   -9.686E+00   -9.818E+00   -9.948E+00   -1.008E+01   -1.020E+01   -1.033E+01   -1.045E+01   -1.057E+01
    -1.069E+01   -1.081E+01   -1.093E+01   -1.104E+01   -1.116E+01   -1.127E+01   -1.138E+01   -1.148E+01   -1.159E+01   -1.169E+01
    -1.179E+01   -1.189E+01   -1.199E+01   -1.209E+01   -1.218E+01   -1.227E+01   -1.236E+01   -1.245E+01   -1.254E+01   -1.262E+01
    -1.270E+01   -1.278E+01   -1.286E+01   -1.293E+01   -1.301E+01   -1.308E+01   -1.315E+01   -1.321E+01   -1.328E+01   -1.334E+01
    -1.340E+01   -1.345E+01   -1.351E+01   -1.356E+01   -1.361E+01   -1.366E+01   -1.370E+01   -1.375E+01   -1.379E+01   -1.383E+01
    -1.386E+01   -1.390E+01   -1.393E+01   -1.395E+01   -1.398E+01   -1.400E+01   -1.402E+01   -1.404E+01   -1.406E+01   -1.407E+01
    -1.408E+01   -1.409E+01   -1.409E+01   -1.409E+01   -1.409E+01   -1.409E+01   -1.409E+01   -1.408E+01   -1.407E+01   -1.405E+01
    -1.403E+01   -1.401E+01   -1.399E+01   -1.397E+01   -1.394E+01   -1.391E+01   -1.387E+01   -1.384E+01   -1.380E+01   -1.375E+01
    -1.371E+01   -1.366E+01   -1.361E+01   -1.355E+01   -1.350E+01   -1.344E+01   -1.337E+01   -1.331E+01   -1.324E+01   -1.317E+01
    -1.309E+01   -1.302E+01   -1.294E+01   -1.286E+01   -1.277E+01   -1.269E+01   -1.260E+01   -1.251E+01   -1.241E+01   -1.232E+01
    -1.222E+01   -1.212E+01   -1.201E+01   -1.191E+01   -1.180E+01   -1.169E+01   -1.158E+01   -1.146E+01   -1.134E+01   -1.122E+01
    -1.110E+01   -1.098E+01   -1.085E+01   -1.073E+01   -1.060E+01   -1.047E+01   -1.033E+01   -1.020E+01   -1.006E+01   -9.921E+00
    -9.780E+00   -9.637E+00   -9.492E+00   -9.346E+00   -9.198E+00   -9.049E+00   -8.897E+00   -8.744E+00   -8.590E+00   -8.434E+00
    -8.276E+00   -8.117E+00   -7.956E+00   -7.794E+00   -7.630E+00   -7.465E+00   -7.299E+00   -7.131E+00   -6.962E+00   -6.792E+00
    -6.620E+00   -6.448E+00   -6.274E+00   -6.099E+00   -5.922E+00   -5.745E+00   -5.567E+00   -5.387E+00   -5.207E+00   -5.025E+00
    -4.843E+00   -4.659E+00   -4.475E+00   -4.290E+00   -4.104E+00   -3.917E+00   -3.729E+00   -3.541E+00   -3.352E+00   -3.162E+00
    -2.972E+00   -2.781E+00   -2.589E+00   -2.397E+00   -2.204E+00   -2.011E+00   -1.817E+00   -1.623E+00   -1.428E+00   -1.233E+00
    -1.038E+00   -8.422E-01   -6.462E-01   -4.499E-01   -2.533E-01   -5.657E-02    1.404E-01    3.375E-01    5.348E-01    7.321E-01
     9.295E-01    1.127E+00    1.324E+00    1.522E+00    1.719E+00    1.917E+00    2.114E+00    2.311E+00    2.508E+00    2.705E+00
     2.901E+00    3.097E+00    3.293E+00    3.489E+00    3.684E+00    3.879E+00    4.074E+00    4.268E+00    4.461E+00    4.654E+00
     4.847E+00    5.039E+00    5.231E+00    5.422E+00    5.612E+00    5.801E+00    5.990E+00    6.179E+00    6.367E+00    6.554E+00
     6.740E+00    6.926E+00    7.111E+00    7.295E+00    7.479E+00    7.662E+00    7.845E+00    8.027E+00    8.208E+00    8.388E+00
     8.568E+00    8.747E+00    8.926E+00    9.103E+00    9.280E+00    9.457E+00    9.632E+00    9.807E+00    9.981E+00    1.015E+01
     1.033E+01    1.050E+01    1.067E+01    1.084E+01    1.101E+01    1.118E+01    1.135E+01    1.152E+01    1.168E+01    1.185E+01
     1.201E+01    1.218E+01    1.234E+01    1.251E+01    1.267E+01    1.283E+01    1.299E+01    1.315E+01    1.331E+01    1.347E+01
     1.363E+01    1.378E+01    1.394E+01    1.410E+01    1.425E+01    1.440E+01    1.456E+01    1.471E+01    1.486E+01    1.501E+01
     1.516E+01    1.531E+01    1.546E+01    1.561E+01    1.575E+01    1.590E+01    1.604E+01    1.619E+01    1.633E+01    1.647E+01
     1.661E+01    1.675E+01    1.689E+01    1.703E+01    1.717E+01    1.731E+01    1.745E+01    1.758E+01    1.772E+01    1.785E+01
     1.798E+01    1.811E+01    1.825E+01    1.838E+01    1.851E+01    1.864E+01    1.876E+01    1.889E+01    1.902E+01    1.914E+01
     1.927E+01    1.939E+01    1.951E+01    1.963E+01    1.975E+01    1.987E+01    1.999E+01    2.011E+01    2.023E+01    2.035E+01
     2.046E+01    2.058E+01    2.069E+01    2.080E+01    2.091E+01    2.102E+01    2.113E+01    2.124E+01    2.135E+01    2.146E+01
     2.156E+01    2.167E+01    2.177E+01    2.188E+01    2.198E+01    2.208E+01    2.218E+01    2.228E+01    2.238E+01    2.248E+01
     2.258E+01    2.267E+01    2.277E+01    2.286E+01    2.296E+01    2.305E+01    2.314E+01    2.323E+01
 Ala      Conc. = 2.12E+04
