 LCModel (Version 6.3-1L) Copyright: S.W. Provencher.          Ref.: Magn. Reson. Med. 30:672-679 (1993).                
 Slice#3 Row#4 Col#11  K_02_press_1_raw_act
 36 lines in following concentration table = NCONC+1
    Conc.  %SD /Cr+PCr  Metabolite                                         
   14.817 999% 1.1E-02 Ala                                                 
    0.000 999%   0.000 Asp                                                 
  965.329  31%   0.709 Cr                                                  
  395.425  77%   0.291 PCr                                                 
   47.110 239% 3.5E-02 GABA                                                
    0.000 999%   0.000 Glc                                                 
  992.847  36%   0.730 Gln                                                 
 1.86E+03  23%   1.366 Glu                                                 
  286.940  11%   0.211 GPC                                                 
    0.000 999%   0.000 PCh                                                 
  664.167  17%   0.488 GSH                                                 
 1.57E+03  27%   1.156 Ins                                                 
  305.472  66%   0.224 Lac                                                 
 1.61E+03   7%   1.187 NAA                                                 
    0.000 999%   0.000 NAAG                                                
   26.298 109% 1.9E-02 Scyllo                                              
    0.000 999%   0.000 Tau                                                 
  285.241  49%   0.210 -CrCH2                                              
  286.940  11%   0.211 GPC+PCh                                             
 1.61E+03   7%   1.187 NAA+NAAG                                            
 1.36E+03   8%   1.000 Cr+PCr                                              
 2.85E+03  22%   2.095 Glu+Gln                                             
    0.000 999%   0.000 Lip13a                                              
    0.000 999%   0.000 Lip13b                                              
    0.000 999%   0.000 Lip09                                               
 1.08E+03  29%   0.792 MM09                                                
 2.15E+03  18%   1.584 Lip20                                               
    0.000 999%   0.000 MM20                                                
 1.67E+03  20%   1.231 MM12                                                
 9.19E+03   4%   6.750+MM14                                                
 3.41E+03  25%   2.507 MM17                                                
    0.000 999%   0.000 Lip13a+Lip13b                                       
 1.09E+04   5%   7.981 MM14+Lip13a+Lip13b+MM12                             
 1.08E+03  29%   0.792 MM09+Lip09                                          
 2.15E+03  18%   1.584 MM20+Lip20                                          
   6 lines in following misc. output table
  FWHM = 0.076 ppm    S/N =  11                                            
  Data shift = 0.023 ppm                                                   
  Ph:  44 deg     -16.9 deg/ppm                                            
  alphaB,S = 3.1E-01,   5.1E+01                                            
   14 spline knots.   Ns = 7(2)                                            
  ( 8) 4 infls.   ( 8) 2 extrs.                                            
  498 points on ppm-axis = NY
      4.000000     3.992357     3.984714     3.977070     3.969427     3.961784     3.954141     3.946497     3.938854     3.931211
      3.923568     3.915925     3.908281     3.900638     3.892995     3.885352     3.877708     3.870065     3.862422     3.854779
      3.847136     3.839492     3.831849     3.824206     3.816563     3.808919     3.801276     3.793633     3.785990     3.778347
      3.770703     3.763060     3.755417     3.747774     3.740130     3.732487     3.724844     3.717201     3.709558     3.701914
      3.694271     3.686628     3.678985     3.671341     3.663698     3.656055     3.648412     3.640769     3.633125     3.625482
      3.617839     3.610196     3.602552     3.594909     3.587266     3.579623     3.571980     3.564336     3.556693     3.549050
      3.541407     3.533763     3.526120     3.518477     3.510834     3.503191     3.495547     3.487904     3.480261     3.472618
      3.464974     3.457331     3.449688     3.442045     3.434402     3.426758     3.419115     3.411472     3.403829     3.396185
      3.388542     3.380899     3.373256     3.365613     3.357969     3.350326     3.342683     3.335040     3.327396     3.319753
      3.312110     3.304467     3.296824     3.289180     3.281537     3.273894     3.266251     3.258607     3.250964     3.243321
      3.235678     3.228034     3.220391     3.212748     3.205105     3.197462     3.189818     3.182175     3.174532     3.166889
      3.159245     3.151602     3.143959     3.136316     3.128673     3.121029     3.113386     3.105743     3.098100     3.090456
      3.082813     3.075170     3.067527     3.059884     3.052240     3.044597     3.036954     3.029311     3.021667     3.014024
      3.006381     2.998738     2.991095     2.983451     2.975808     2.968165     2.960522     2.952878     2.945235     2.937592
      2.929949     2.922306     2.914662     2.907019     2.899376     2.891733     2.884089     2.876446     2.868803     2.861160
      2.853517     2.845873     2.838230     2.830587     2.822944     2.815300     2.807657     2.800014     2.792371     2.784728
      2.777084     2.769441     2.761798     2.754155     2.746511     2.738868     2.731225     2.723582     2.715939     2.708295
      2.700652     2.693009     2.685366     2.677722     2.670079     2.662436     2.654793     2.647150     2.639506     2.631863
      2.624220     2.616577     2.608933     2.601290     2.593647     2.586004     2.578361     2.570717     2.563074     2.555431
      2.547788     2.540144     2.532501     2.524858     2.517215     2.509572     2.501928     2.494285     2.486642     2.478999
      2.471355     2.463712     2.456069     2.448426     2.440783     2.433139     2.425496     2.417853     2.410210     2.402566
      2.394923     2.387280     2.379637     2.371994     2.364350     2.356707     2.349064     2.341421     2.333777     2.326134
      2.318491     2.310848     2.303205     2.295561     2.287918     2.280275     2.272632     2.264988     2.257345     2.249702
      2.242059     2.234416     2.226772     2.219129     2.211486     2.203843     2.196199     2.188556     2.180913     2.173270
      2.165627     2.157983     2.150340     2.142697     2.135054     2.127410     2.119767     2.112124     2.104481     2.096838
      2.089194     2.081551     2.073908     2.066265     2.058621     2.050978     2.043335     2.035692     2.028049     2.020405
      2.012762     2.005119     1.997476     1.989833     1.982190     1.974546     1.966903     1.959260     1.951617     1.943974
      1.936331     1.928688     1.921045     1.913402     1.905759     1.898115     1.890472     1.882829     1.875186     1.867543
      1.859900     1.852257     1.844614     1.836971     1.829327     1.821684     1.814041     1.806398     1.798755     1.791112
      1.783469     1.775826     1.768183     1.760540     1.752896     1.745253     1.737610     1.729967     1.722324     1.714681
      1.707038     1.699395     1.691752     1.684108     1.676465     1.668822     1.661179     1.653536     1.645893     1.638250
      1.630607     1.622964     1.615321     1.607677     1.600034     1.592391     1.584748     1.577105     1.569462     1.561819
      1.554176     1.546533     1.538890     1.531246     1.523603     1.515960     1.508317     1.500674     1.493031     1.485388
      1.477745     1.470102     1.462458     1.454815     1.447172     1.439529     1.431886     1.424243     1.416600     1.408957
      1.401314     1.393671     1.386027     1.378384     1.370741     1.363098     1.355455     1.347812     1.340169     1.332526
      1.324883     1.317240     1.309596     1.301953     1.294310     1.286667     1.279024     1.271381     1.263738     1.256095
      1.248452     1.240808     1.233165     1.225522     1.217879     1.210236     1.202593     1.194950     1.187307     1.179664
      1.172021     1.164377     1.156734     1.149091     1.141448     1.133805     1.126162     1.118519     1.110876     1.103233
      1.095590     1.087946     1.080303     1.072660     1.065017     1.057374     1.049731     1.042088     1.034445     1.026802
      1.019158     1.011515     1.003872     0.996229     0.988586     0.980943     0.973300     0.965657     0.958014     0.950371
      0.942727     0.935084     0.927441     0.919798     0.912155     0.904512     0.896869     0.889226     0.881583     0.873940
      0.866296     0.858653     0.851010     0.843367     0.835724     0.828081     0.820438     0.812795     0.805152     0.797508
      0.789865     0.782222     0.774579     0.766936     0.759293     0.751650     0.744007     0.736364     0.728721     0.721077
      0.713434     0.705791     0.698148     0.690505     0.682862     0.675219     0.667576     0.659933     0.652290     0.644646
      0.637003     0.629360     0.621717     0.614074     0.606431     0.598788     0.591145     0.583502     0.575858     0.568215
      0.560572     0.552929     0.545286     0.537643     0.530000     0.522357     0.514714     0.507071     0.499427     0.491784
      0.484141     0.476498     0.468855     0.461212     0.453569     0.445925     0.438282     0.430639     0.422996     0.415353
      0.407710     0.400067     0.392424     0.384780     0.377137     0.369494     0.361851     0.354208     0.346565     0.338922
      0.331278     0.323635     0.315992     0.308349     0.300706     0.293063     0.285420     0.277777     0.270133     0.262490
      0.254847     0.247204     0.239561     0.231918     0.224275     0.216631     0.208988     0.201345
 NY phased data points follow
  -2.27556E+01 -2.20298E+01 -2.27089E+01 -2.27458E+01 -1.86002E+01 -1.42423E+01 -1.27993E+01 -9.61985E+00 -1.09394E+01 -1.00207E+01
  -4.32947E+00  2.04851E+00 -6.04669E+00 -3.73965E+00 -9.33610E+00 -6.60413E+00 -7.41430E+00 -1.56480E+01 -1.23175E+01 -1.30620E+01
  -1.33374E+01 -1.09976E+01 -1.09644E+01 -1.31900E+01 -1.19115E+01 -1.15034E+01 -1.15185E+01 -9.43706E+00 -1.05125E+01 -7.94009E+00
  -1.29277E+01 -1.06627E+01 -6.97218E+00 -1.18315E+01 -7.65063E+00 -1.39525E+01 -1.15309E+01 -7.91813E+00 -1.17190E+01 -1.21535E+01
  -1.08046E+01 -1.19177E+01 -1.19930E+01 -8.32653E+00 -7.64343E+00 -6.89190E+00 -9.77743E+00 -6.84059E+00 -8.13508E+00 -7.39383E+00
  -8.21251E+00 -6.77686E+00 -1.27444E+01 -1.14467E+01 -1.10427E+01 -8.26433E+00 -1.23473E+01 -9.53338E+00 -8.17702E+00 -1.36733E+01
  -1.16223E+01 -1.84793E+01 -1.69438E+01 -1.85857E+01 -1.47764E+01 -1.76822E+01 -1.95397E+01 -2.42198E+01 -1.72232E+01 -1.70703E+01
  -2.33457E+01 -2.29346E+01 -2.27146E+01 -1.58490E+01 -2.23545E+01 -2.10963E+01 -2.21843E+01 -2.23107E+01 -2.27331E+01 -2.52370E+01
  -2.30312E+01 -2.61383E+01 -2.20744E+01 -2.20266E+01 -2.42489E+01 -2.73547E+01 -1.89581E+01 -2.63684E+01 -2.28374E+01 -2.67105E+01
  -2.33598E+01 -2.20217E+01 -2.22569E+01 -2.38403E+01 -2.13719E+01 -2.28917E+01 -1.86569E+01 -1.54414E+01 -1.23232E+01 -1.21153E+01
  -6.95699E+00 -8.01239E+00 -1.27047E+00 -7.54695E-01  7.98792E-01 -3.95754E+00 -2.49692E+00 -4.69994E+00 -1.07524E+01 -1.45204E+01
  -1.28125E+01 -1.86472E+01 -1.39076E+01 -1.96162E+01 -1.93180E+01 -2.13960E+01 -1.93321E+01 -2.09391E+01 -2.03425E+01 -1.97468E+01
  -1.42922E+01 -1.00328E+01 -8.88401E+00  1.41954E+00  5.77787E+00  9.82925E+00  1.71403E+01  1.43436E+01  2.24699E+01  1.76790E+01
   1.24094E+01  7.65515E+00  5.86166E+00 -3.12202E+00  2.38948E+00 -1.79993E+00 -1.35053E+00 -1.52350E+00 -4.89476E+00 -3.79709E+00
  -5.45403E+00 -3.87024E+00 -3.50225E+00 -1.97923E+00 -3.22886E+00 -7.24615E+00 -3.96628E+00 -4.56209E+00 -4.88696E+00 -8.22851E+00
  -6.51078E+00 -3.89075E+00 -7.88185E+00 -3.40038E+00 -4.15504E+00 -5.37349E+00 -6.87807E+00 -7.28384E+00 -4.85727E+00 -5.85533E+00
  -4.89108E+00 -9.33274E+00 -6.66198E+00 -4.81229E+00 -8.39589E+00 -9.22791E+00 -1.15625E+01 -1.20886E+01 -1.32558E+01 -1.50122E+01
  -1.46706E+01 -1.93188E+01 -1.57675E+01 -1.73409E+01 -1.63478E+01 -1.87689E+01 -2.17349E+01 -1.98385E+01 -1.85790E+01 -1.99253E+01
  -2.13078E+01 -1.77179E+01 -1.85811E+01 -1.83742E+01 -1.65383E+01 -1.24655E+01 -1.64053E+01 -1.13851E+01 -1.53904E+01 -1.80871E+01
  -9.96687E+00 -9.28199E+00 -7.58971E+00 -9.75230E+00 -1.08876E+01 -7.33475E+00 -9.41139E+00 -1.04467E+01 -3.23416E+00 -2.49632E+00
  -4.09390E+00 -2.68067E+00  7.06317E-01  1.50744E+00  1.80542E+00  2.67438E+00 -1.80434E+00  3.05906E+00  5.38703E+00  4.45899E+00
   7.30141E+00  9.17540E+00  1.75341E+01  1.61879E+01  1.70189E+01  1.89365E+01  1.74214E+01  1.67105E+01  1.82849E+01  1.82175E+01
   1.60235E+01  1.65922E+01  1.56216E+01  1.56249E+01  1.87541E+01  1.92758E+01  2.03299E+01  2.15797E+01  2.41977E+01  2.40176E+01
   2.66079E+01  2.32388E+01  2.47707E+01  2.83595E+01  2.47899E+01  2.67811E+01  2.60285E+01  3.04419E+01  2.50592E+01  2.49002E+01
   2.24334E+01  2.34000E+01  2.62558E+01  2.43101E+01  2.40520E+01  2.95061E+01  3.04320E+01  2.24155E+01  2.47795E+01  2.85568E+01
   2.67281E+01  3.43775E+01  2.96773E+01  2.90467E+01  3.61519E+01  4.60232E+01  5.34797E+01  6.33917E+01  7.04766E+01  8.04983E+01
   8.28216E+01  8.49187E+01  8.34953E+01  7.82180E+01  7.18925E+01  7.01511E+01  6.33006E+01  6.15173E+01  5.39073E+01  5.42016E+01
   5.29067E+01  5.33919E+01  5.20016E+01  4.87704E+01  5.05235E+01  5.38154E+01  4.62694E+01  5.15217E+01  4.72626E+01  4.94481E+01
   4.66664E+01  4.62970E+01  4.82730E+01  4.96043E+01  5.46880E+01  4.92804E+01  5.11087E+01  5.13656E+01  5.22957E+01  5.31531E+01
   5.31833E+01  5.35200E+01  5.46751E+01  5.26970E+01  5.67494E+01  5.77541E+01  5.50882E+01  5.91071E+01  6.03762E+01  6.20611E+01
   6.23065E+01  6.48248E+01  6.67869E+01  6.52114E+01  7.32519E+01  7.21213E+01  7.00777E+01  7.97755E+01  7.82355E+01  7.98018E+01
   8.50939E+01  8.81593E+01  9.05001E+01  9.29218E+01  9.82131E+01  9.52837E+01  1.01602E+02  1.04921E+02  1.11353E+02  1.13867E+02
   1.16953E+02  1.19946E+02  1.25195E+02  1.23938E+02  1.28271E+02  1.34524E+02  1.32434E+02  1.37830E+02  1.32159E+02  1.34247E+02
   1.32425E+02  1.30451E+02  1.30870E+02  1.26028E+02  1.22586E+02  1.17321E+02  1.14076E+02  1.12345E+02  1.04814E+02  9.95553E+01
   9.77595E+01  9.44940E+01  9.05252E+01  8.77160E+01  8.11976E+01  7.72793E+01  7.46685E+01  7.50009E+01  7.14463E+01  6.87919E+01
   6.15735E+01  6.65660E+01  6.50772E+01  6.45511E+01  6.48962E+01  6.35397E+01  6.57214E+01  6.49822E+01  6.33565E+01  6.77651E+01
   6.61173E+01  6.83622E+01  6.69867E+01  7.03262E+01  6.56667E+01  7.16717E+01  7.18173E+01  6.93259E+01  7.50203E+01  7.30479E+01
   7.20875E+01  7.17696E+01  7.02415E+01  6.95596E+01  7.35045E+01  7.02148E+01  7.08848E+01  6.84403E+01  6.94440E+01  6.82480E+01
   6.77204E+01  6.77715E+01  6.45261E+01  6.31644E+01  6.41680E+01  6.18319E+01  6.16504E+01  6.30617E+01  5.99932E+01  5.56293E+01
   5.95418E+01  6.19225E+01  5.76687E+01  6.07497E+01  5.80216E+01  5.89826E+01  6.07501E+01  5.78150E+01  6.14805E+01  5.71925E+01
   6.22241E+01  5.68075E+01  5.37244E+01  5.39678E+01  5.46448E+01  5.47689E+01  5.32833E+01  5.50546E+01  5.61555E+01  5.55989E+01
   5.56899E+01  5.44915E+01  5.51819E+01  5.46595E+01  5.08884E+01  5.31608E+01  4.94319E+01  4.78320E+01  4.91870E+01  4.70090E+01
   4.62209E+01  4.85323E+01  4.67069E+01  4.24829E+01  4.53369E+01  4.39100E+01  4.16293E+01  4.25216E+01  4.27662E+01  4.24733E+01
   4.24639E+01  4.50444E+01  4.16766E+01  3.86280E+01  3.99048E+01  4.37105E+01  4.15687E+01  3.97281E+01  4.10069E+01  3.47799E+01
   3.87307E+01  3.96135E+01  3.34572E+01  3.96105E+01  3.71061E+01  3.85126E+01  3.47723E+01  3.78875E+01  3.55905E+01  3.62441E+01
   3.53078E+01  3.54059E+01  3.29356E+01  3.48886E+01  3.73172E+01  3.40235E+01  3.45249E+01  3.12281E+01  3.09171E+01  3.50418E+01
   3.22140E+01  3.11904E+01  3.32508E+01  3.08832E+01  3.17416E+01  2.69057E+01  3.04831E+01  2.94276E+01  2.72478E+01  3.16496E+01
   3.00237E+01  3.09300E+01  2.63938E+01  2.62004E+01  2.66979E+01  3.13923E+01  3.01378E+01  3.25237E+01  2.78225E+01  3.13149E+01
   2.87003E+01  2.89958E+01  2.64596E+01  2.68509E+01  2.67992E+01  2.75789E+01  2.59377E+01  2.69076E+01  2.37398E+01  2.44205E+01
   2.52149E+01  2.45980E+01  2.76309E+01  2.63383E+01  2.47591E+01  2.55093E+01  2.88279E+01  2.46667E+01
 NY points of the fit to the data follow
  -2.25643E+01 -2.23215E+01 -2.15978E+01 -2.02803E+01 -1.87586E+01 -1.60445E+01 -1.36312E+01 -1.07459E+01 -8.16748E+00 -6.51663E+00
  -4.07794E+00 -4.21288E+00 -2.75277E+00 -4.90002E+00 -4.23578E+00 -7.68244E+00 -8.86885E+00 -1.14538E+01 -1.27544E+01 -1.36896E+01
  -1.46088E+01 -1.44009E+01 -1.45879E+01 -1.37128E+01 -1.29034E+01 -1.17330E+01 -9.56035E+00 -9.31479E+00 -6.94788E+00 -6.64771E+00
  -4.21705E+00 -5.39461E+00 -4.85886E+00 -7.82171E+00 -8.90865E+00 -1.15360E+01 -1.25872E+01 -1.40293E+01 -1.39687E+01 -1.42662E+01
  -1.29545E+01 -1.22124E+01 -1.03954E+01 -9.54197E+00 -8.29221E+00 -8.33803E+00 -9.00462E+00 -9.44980E+00 -1.04031E+01 -1.13612E+01
  -1.26276E+01 -1.35484E+01 -1.44256E+01 -1.48994E+01 -1.53726E+01 -1.50367E+01 -1.49700E+01 -1.46858E+01 -1.47228E+01 -1.48859E+01
  -1.52658E+01 -1.59064E+01 -1.67049E+01 -1.77908E+01 -1.84987E+01 -1.87407E+01 -1.86665E+01 -1.84897E+01 -1.81168E+01 -1.79119E+01
  -1.74724E+01 -1.76154E+01 -1.74297E+01 -1.77129E+01 -1.76155E+01 -1.80397E+01 -1.82190E+01 -1.85001E+01 -1.86844E+01 -1.88250E+01
  -1.89714E+01 -1.93523E+01 -1.96535E+01 -2.03880E+01 -2.06486E+01 -2.15127E+01 -2.16767E+01 -2.25007E+01 -2.29405E+01 -2.52636E+01
  -2.55782E+01 -2.61546E+01 -2.57905E+01 -2.52959E+01 -2.44828E+01 -2.29733E+01 -2.15389E+01 -1.80285E+01 -1.57936E+01 -1.14971E+01
  -8.95003E+00 -5.50771E+00 -3.41632E+00 -2.28518E+00 -1.23556E+00 -3.08643E+00 -3.32270E+00 -6.63088E+00 -7.44680E+00 -1.04541E+01
  -1.11528E+01 -1.27696E+01 -1.40792E+01 -1.73851E+01 -1.86403E+01 -2.00187E+01 -2.03723E+01 -2.06635E+01 -2.02780E+01 -1.96877E+01
  -1.72105E+01 -1.12338E+01 -6.29576E+00  9.56506E-01  6.20523E+00  1.17635E+01  1.53809E+01  1.70678E+01  1.78618E+01  1.51865E+01
   1.36175E+01  8.76994E+00  6.33056E+00  1.87072E+00  1.67145E-01 -1.92692E+00 -2.38224E+00 -3.07239E+00 -2.99210E+00 -3.60310E+00
  -3.62523E+00 -4.83964E+00 -5.65243E+00 -8.20337E+00 -8.75642E+00 -9.01087E+00 -8.99748E+00 -9.09203E+00 -8.98666E+00 -9.02399E+00
  -8.81297E+00 -8.60595E+00 -8.37374E+00 -8.20262E+00 -8.08800E+00 -8.18741E+00 -8.41290E+00 -8.56875E+00 -9.00733E+00 -8.98617E+00
  -9.40811E+00 -9.39084E+00 -9.71564E+00 -9.74325E+00 -1.00432E+01 -1.04363E+01 -1.06624E+01 -1.12012E+01 -1.13444E+01 -1.20533E+01
  -1.23440E+01 -1.29858E+01 -1.32863E+01 -1.36936E+01 -1.38126E+01 -1.42859E+01 -1.45849E+01 -1.49179E+01 -1.51591E+01 -1.51528E+01
  -1.53447E+01 -1.50129E+01 -1.49565E+01 -1.40650E+01 -1.36203E+01 -1.25854E+01 -1.19764E+01 -1.09560E+01 -1.02844E+01 -9.36100E+00
  -9.10394E+00 -8.62961E+00 -8.49207E+00 -7.95489E+00 -7.43457E+00 -6.32623E+00 -5.16266E+00 -3.78462E+00 -2.05329E+00 -4.30575E-01
   1.13754E+00  2.03340E+00  2.09742E+00  1.92429E+00  1.37014E+00  9.42398E-01 -8.66008E-02  4.37909E-01  4.20244E-01  2.96096E+00
   3.95341E+00  7.21871E+00  8.66541E+00  1.18980E+01  1.25068E+01  1.45870E+01  1.34524E+01  1.42359E+01  1.20610E+01  1.24119E+01
   1.04849E+01  1.16541E+01  1.12009E+01  1.33195E+01  1.45380E+01  1.74015E+01  1.89032E+01  2.10854E+01  2.21155E+01  2.35197E+01
   2.37666E+01  2.41305E+01  2.38718E+01  2.44072E+01  2.50349E+01  2.57848E+01  2.63590E+01  2.69561E+01  2.73381E+01  2.74088E+01
   2.71063E+01  2.66878E+01  2.68481E+01  2.71440E+01  2.83276E+01  2.93585E+01  3.00000E+01  2.74051E+01  2.85588E+01  2.82887E+01
   3.00763E+01  3.16557E+01  3.39298E+01  3.76690E+01  4.12416E+01  5.01240E+01  5.43678E+01  6.56788E+01  6.89376E+01  7.89524E+01
   7.91778E+01  8.42881E+01  8.10282E+01  8.02293E+01  7.49807E+01  7.09420E+01  6.56386E+01  6.16984E+01  5.80382E+01  5.67457E+01
   5.45910E+01  5.46863E+01  5.32563E+01  5.29888E+01  5.16719E+01  5.04226E+01  4.85835E+01  4.52363E+01  4.45992E+01  4.48454E+01
   4.50853E+01  4.55376E+01  4.60754E+01  4.66203E+01  4.72631E+01  4.79441E+01  4.86868E+01  4.94448E+01  5.02521E+01  5.10551E+01
   5.18828E+01  5.27613E+01  5.37125E+01  5.47324E+01  5.58241E+01  5.69961E+01  5.82333E+01  5.95657E+01  6.09393E+01  6.23987E+01
   6.39077E+01  6.54983E+01  6.71389E+01  6.88643E+01  7.06463E+01  7.25215E+01  7.44650E+01  7.65229E+01  7.86771E+01  8.09754E+01
   8.34044E+01  8.60130E+01  8.87821E+01  9.17546E+01  9.49251E+01  9.82962E+01  1.01831E+02  1.05521E+02  1.09294E+02  1.13122E+02
   1.16894E+02  1.20554E+02  1.23958E+02  1.27085E+02  1.29743E+02  1.31944E+02  1.33496E+02  1.34447E+02  1.34644E+02  1.34173E+02
   1.32936E+02  1.31026E+02  1.28378E+02  1.25091E+02  1.21735E+02  1.17895E+02  1.13973E+02  1.09804E+02  1.05683E+02  1.01649E+02
   9.76331E+01  9.36284E+01  8.96433E+01  8.60976E+01  8.23312E+01  7.92472E+01  7.57834E+01  7.31776E+01  7.02700E+01  6.85886E+01
   6.66025E+01  6.60984E+01  6.50589E+01  6.56246E+01  6.53312E+01  6.64941E+01  6.64819E+01  6.75200E+01  6.75293E+01  6.82078E+01
   6.82337E+01  6.86561E+01  6.87592E+01  6.92077E+01  6.96451E+01  7.03839E+01  7.07005E+01  7.11925E+01  7.13067E+01  7.14531E+01
   7.12817E+01  7.08363E+01  7.03803E+01  6.98825E+01  6.92940E+01  6.86478E+01  6.79271E+01  6.71773E+01  6.63878E+01  6.56059E+01
   6.48209E+01  6.40778E+01  6.33618E+01  6.27129E+01  6.21111E+01  6.15901E+01  6.11242E+01  6.07415E+01  6.04111E+01  6.01562E+01
   5.99422E+01  5.97887E+01  5.96585E+01  5.95692E+01  5.94824E+01  5.94146E+01  5.93276E+01  5.92384E+01  5.91101E+01  5.89612E+01
   5.87573E+01  5.85199E+01  5.82177E+01  5.78754E+01  5.74657E+01  5.70166E+01  5.65042E+01  5.59595E+01  5.53614E+01  5.47429E+01
   5.40841E+01  5.34188E+01  5.27276E+01  5.20435E+01  5.13465E+01  5.06682E+01  4.99870E+01  4.93329E+01  4.86825E+01  4.80641E+01
   4.74527E+01  4.68750E+01  4.63051E+01  4.57683E+01  4.52381E+01  4.47392E+01  4.42447E+01  4.37789E+01  4.33151E+01  4.28774E+01
   4.24394E+01  4.20250E+01  4.16082E+01  4.12131E+01  4.08139E+01  4.04350E+01  4.00508E+01  3.96856E+01  3.93141E+01  3.89608E+01
   3.86008E+01  3.82583E+01  3.79087E+01  3.75762E+01  3.72363E+01  3.69133E+01  3.65828E+01  3.62691E+01  3.59479E+01  3.56434E+01
   3.53314E+01  3.50362E+01  3.47336E+01  3.44476E+01  3.41543E+01  3.38773E+01  3.35926E+01  3.33239E+01  3.30474E+01  3.27866E+01
   3.25177E+01  3.22642E+01  3.20025E+01  3.17559E+01  3.15009E+01  3.12608E+01  3.10121E+01  3.07781E+01  3.05353E+01  3.03069E+01
   3.00696E+01  2.98465E+01  2.96144E+01  2.93961E+01  2.91687E+01  2.89550E+01  2.87321E+01  2.85225E+01  2.83036E+01  2.80978E+01
   2.78826E+01  2.76803E+01  2.74683E+01  2.72692E+01  2.70602E+01  2.68638E+01  2.66576E+01  2.64636E+01  2.62596E+01  2.60678E+01
   2.58658E+01  2.56757E+01  2.54753E+01  2.52866E+01  2.50876E+01  2.49000E+01  2.47019E+01  2.45151E+01
 NY background values follow
    -2.492E+01   -2.480E+01   -2.469E+01   -2.457E+01   -2.446E+01   -2.434E+01   -2.422E+01   -2.410E+01   -2.398E+01   -2.386E+01
    -2.374E+01   -2.362E+01   -2.350E+01   -2.338E+01   -2.326E+01   -2.314E+01   -2.303E+01   -2.291E+01   -2.280E+01   -2.268E+01
    -2.257E+01   -2.247E+01   -2.236E+01   -2.225E+01   -2.215E+01   -2.205E+01   -2.196E+01   -2.187E+01   -2.178E+01   -2.169E+01
    -2.161E+01   -2.153E+01   -2.146E+01   -2.139E+01   -2.133E+01   -2.127E+01   -2.121E+01   -2.116E+01   -2.112E+01   -2.108E+01
    -2.105E+01   -2.102E+01   -2.100E+01   -2.099E+01   -2.098E+01   -2.098E+01   -2.099E+01   -2.100E+01   -2.102E+01   -2.104E+01
    -2.108E+01   -2.111E+01   -2.115E+01   -2.120E+01   -2.125E+01   -2.130E+01   -2.136E+01   -2.142E+01   -2.148E+01   -2.155E+01
    -2.161E+01   -2.168E+01   -2.175E+01   -2.182E+01   -2.189E+01   -2.196E+01   -2.203E+01   -2.209E+01   -2.216E+01   -2.223E+01
    -2.229E+01   -2.235E+01   -2.241E+01   -2.247E+01   -2.252E+01   -2.257E+01   -2.261E+01   -2.265E+01   -2.268E+01   -2.271E+01
    -2.274E+01   -2.275E+01   -2.276E+01   -2.277E+01   -2.277E+01   -2.275E+01   -2.274E+01   -2.271E+01   -2.267E+01   -2.263E+01
    -2.257E+01   -2.251E+01   -2.243E+01   -2.235E+01   -2.226E+01   -2.215E+01   -2.204E+01   -2.193E+01   -2.180E+01   -2.167E+01
    -2.153E+01   -2.139E+01   -2.124E+01   -2.109E+01   -2.093E+01   -2.076E+01   -2.060E+01   -2.043E+01   -2.025E+01   -2.008E+01
    -1.990E+01   -1.972E+01   -1.953E+01   -1.935E+01   -1.917E+01   -1.898E+01   -1.880E+01   -1.861E+01   -1.843E+01   -1.825E+01
    -1.807E+01   -1.789E+01   -1.772E+01   -1.755E+01   -1.738E+01   -1.722E+01   -1.706E+01   -1.691E+01   -1.676E+01   -1.661E+01
    -1.648E+01   -1.634E+01   -1.622E+01   -1.610E+01   -1.599E+01   -1.589E+01   -1.580E+01   -1.572E+01   -1.564E+01   -1.557E+01
    -1.551E+01   -1.545E+01   -1.540E+01   -1.536E+01   -1.532E+01   -1.528E+01   -1.524E+01   -1.521E+01   -1.518E+01   -1.515E+01
    -1.512E+01   -1.510E+01   -1.507E+01   -1.504E+01   -1.501E+01   -1.497E+01   -1.494E+01   -1.490E+01   -1.485E+01   -1.480E+01
    -1.475E+01   -1.469E+01   -1.462E+01   -1.455E+01   -1.447E+01   -1.438E+01   -1.428E+01   -1.417E+01   -1.406E+01   -1.393E+01
    -1.379E+01   -1.364E+01   -1.347E+01   -1.329E+01   -1.310E+01   -1.290E+01   -1.268E+01   -1.244E+01   -1.219E+01   -1.192E+01
    -1.164E+01   -1.134E+01   -1.101E+01   -1.068E+01   -1.032E+01   -9.947E+00   -9.558E+00   -9.154E+00   -8.734E+00   -8.300E+00
    -7.852E+00   -7.391E+00   -6.916E+00   -6.429E+00   -5.930E+00   -5.420E+00   -4.898E+00   -4.366E+00   -3.824E+00   -3.273E+00
    -2.712E+00   -2.143E+00   -1.566E+00   -9.821E-01   -3.910E-01    2.065E-01    8.100E-01    1.419E+00    2.032E+00    2.650E+00
     3.272E+00    3.897E+00    4.525E+00    5.156E+00    5.788E+00    6.421E+00    7.055E+00    7.690E+00    8.324E+00    8.958E+00
     9.590E+00    1.022E+01    1.085E+01    1.147E+01    1.210E+01    1.271E+01    1.333E+01    1.394E+01    1.454E+01    1.514E+01
     1.574E+01    1.633E+01    1.691E+01    1.750E+01    1.808E+01    1.865E+01    1.922E+01    1.979E+01    2.035E+01    2.091E+01
     2.146E+01    2.202E+01    2.257E+01    2.311E+01    2.366E+01    2.420E+01    2.473E+01    2.527E+01    2.580E+01    2.633E+01
     2.685E+01    2.738E+01    2.790E+01    2.842E+01    2.893E+01    2.945E+01    2.996E+01    3.047E+01    3.098E+01    3.149E+01
     3.200E+01    3.250E+01    3.301E+01    3.351E+01    3.401E+01    3.451E+01    3.501E+01    3.551E+01    3.600E+01    3.650E+01
     3.700E+01    3.749E+01    3.799E+01    3.848E+01    3.898E+01    3.947E+01    3.996E+01    4.045E+01    4.094E+01    4.143E+01
     4.192E+01    4.240E+01    4.288E+01    4.336E+01    4.383E+01    4.430E+01    4.477E+01    4.524E+01    4.570E+01    4.615E+01
     4.661E+01    4.706E+01    4.750E+01    4.794E+01    4.837E+01    4.880E+01    4.923E+01    4.964E+01    5.005E+01    5.046E+01
     5.086E+01    5.125E+01    5.164E+01    5.202E+01    5.239E+01    5.275E+01    5.311E+01    5.346E+01    5.380E+01    5.413E+01
     5.445E+01    5.477E+01    5.508E+01    5.537E+01    5.566E+01    5.594E+01    5.621E+01    5.647E+01    5.672E+01    5.696E+01
     5.718E+01    5.740E+01    5.761E+01    5.781E+01    5.800E+01    5.818E+01    5.836E+01    5.852E+01    5.867E+01    5.881E+01
     5.895E+01    5.908E+01    5.919E+01    5.930E+01    5.940E+01    5.949E+01    5.957E+01    5.965E+01    5.971E+01    5.977E+01
     5.982E+01    5.986E+01    5.989E+01    5.991E+01    5.993E+01    5.994E+01    5.994E+01    5.993E+01    5.992E+01    5.989E+01
     5.986E+01    5.982E+01    5.978E+01    5.973E+01    5.967E+01    5.960E+01    5.953E+01    5.945E+01    5.936E+01    5.926E+01
     5.916E+01    5.905E+01    5.894E+01    5.882E+01    5.869E+01    5.856E+01    5.842E+01    5.827E+01    5.812E+01    5.796E+01
     5.780E+01    5.763E+01    5.745E+01    5.727E+01    5.708E+01    5.689E+01    5.670E+01    5.649E+01    5.629E+01    5.607E+01
     5.586E+01    5.563E+01    5.541E+01    5.518E+01    5.494E+01    5.470E+01    5.446E+01    5.421E+01    5.395E+01    5.370E+01
     5.344E+01    5.317E+01    5.290E+01    5.263E+01    5.236E+01    5.208E+01    5.180E+01    5.151E+01    5.122E+01    5.093E+01
     5.064E+01    5.034E+01    5.004E+01    4.973E+01    4.943E+01    4.912E+01    4.881E+01    4.850E+01    4.818E+01    4.787E+01
     4.755E+01    4.723E+01    4.690E+01    4.658E+01    4.626E+01    4.593E+01    4.560E+01    4.527E+01    4.494E+01    4.461E+01
     4.428E+01    4.395E+01    4.362E+01    4.329E+01    4.296E+01    4.263E+01    4.229E+01    4.196E+01    4.163E+01    4.130E+01
     4.097E+01    4.065E+01    4.032E+01    3.999E+01    3.967E+01    3.934E+01    3.902E+01    3.870E+01    3.838E+01    3.807E+01
     3.775E+01    3.744E+01    3.713E+01    3.682E+01    3.652E+01    3.621E+01    3.592E+01    3.562E+01    3.533E+01    3.504E+01
     3.475E+01    3.447E+01    3.419E+01    3.391E+01    3.364E+01    3.337E+01    3.311E+01    3.284E+01    3.259E+01    3.233E+01
     3.208E+01    3.183E+01    3.158E+01    3.134E+01    3.110E+01    3.087E+01    3.063E+01    3.040E+01    3.017E+01    2.994E+01
     2.972E+01    2.950E+01    2.928E+01    2.906E+01    2.885E+01    2.863E+01    2.842E+01    2.821E+01    2.800E+01    2.780E+01
     2.759E+01    2.739E+01    2.719E+01    2.699E+01    2.679E+01    2.659E+01    2.640E+01    2.620E+01    2.601E+01    2.581E+01
     2.562E+01    2.543E+01    2.524E+01    2.505E+01    2.486E+01    2.467E+01    2.448E+01    2.429E+01
 Ala      Conc. = 1.48E+01
