 LCModel (Version 6.3-1L) Copyright: S.W. Provencher.          Ref.: Magn. Reson. Med. 30:672-679 (1993).                
 Slice#2 Row#10 Col#14  K_02_press_1_raw_act
 36 lines in following concentration table = NCONC+1
    Conc.  %SD /Cr+PCr  Metabolite                                         
   36.049  68%   0.939 Ala                                                 
    6.493 132%   0.169 Asp                                                 
   20.544 145%   0.535 Cr                                                  
   17.843 172%   0.465 PCr                                                 
    4.669 110%   0.122 GABA                                                
    4.509 115%   0.117 Glc                                                 
   55.499  82%   1.446 Gln                                                 
   34.871 139%   0.908 Glu                                                 
   19.887  27%   0.518 GPC                                                 
    0.000 999%   0.000 PCh                                                 
    0.949 999% 2.5E-02 GSH                                                 
    0.000 999%   0.000 Ins                                                 
    0.000 999%   0.000 Lac                                                 
   55.928  30%   1.457 NAA                                                 
    0.000 999%   0.000 NAAG                                                
    2.055  82% 5.4E-02 Scyllo                                              
    7.101 120%   0.185 Tau                                                 
    6.114 180%   0.159 -CrCH2                                              
   19.887  27%   0.518 GPC+PCh                                             
   55.928  30%   1.457 NAA+NAAG                                            
   38.387  35%   1.000 Cr+PCr                                              
   90.370  71%   2.354 Glu+Gln                                             
 5.49E+03  17% 143.080 Lip13a                                              
    0.000 999%   0.000 Lip13b                                              
 1.33E+03  27%  34.699 Lip09                                               
 1.04E+03  22%  27.167 MM09                                                
    8.740 999%   0.228 Lip20                                               
    0.000 999%   0.000 MM20                                                
 1.18E+03  34%  30.798 MM12                                                
 1.17E+03  30%  30.357 MM14                                                
 1.08E+03  31%  28.261 MM17                                                
 5.49E+03  17% 143.080 Lip13a+Lip13b                                       
 7.84E+03  10% 204.234 MM14+Lip13a+Lip13b+MM12                             
 2.37E+03  16%  61.866 MM09+Lip09                                          
    8.740 999%   0.228 MM20+Lip20                                          
   6 lines in following misc. output table
  FWHM = 0.038 ppm    S/N =  10                                            
  Data shift = 0.000 ppm                                                   
  Ph: -83 deg     -22.4 deg/ppm                                            
  alphaB,S = 4.1E-01,   1.3E+01                                            
   14 spline knots.   Ns = 5(1)                                            
  ( 5) 2 infls.   ( 5) 1 extrs.                                            
  498 points on ppm-axis = NY
      4.000000     3.992357     3.984714     3.977070     3.969427     3.961784     3.954141     3.946497     3.938854     3.931211
      3.923568     3.915925     3.908281     3.900638     3.892995     3.885352     3.877708     3.870065     3.862422     3.854779
      3.847136     3.839492     3.831849     3.824206     3.816563     3.808919     3.801276     3.793633     3.785990     3.778347
      3.770703     3.763060     3.755417     3.747774     3.740130     3.732487     3.724844     3.717201     3.709558     3.701914
      3.694271     3.686628     3.678985     3.671341     3.663698     3.656055     3.648412     3.640769     3.633125     3.625482
      3.617839     3.610196     3.602552     3.594909     3.587266     3.579623     3.571980     3.564336     3.556693     3.549050
      3.541407     3.533763     3.526120     3.518477     3.510834     3.503191     3.495547     3.487904     3.480261     3.472618
      3.464974     3.457331     3.449688     3.442045     3.434402     3.426758     3.419115     3.411472     3.403829     3.396185
      3.388542     3.380899     3.373256     3.365613     3.357969     3.350326     3.342683     3.335040     3.327396     3.319753
      3.312110     3.304467     3.296824     3.289180     3.281537     3.273894     3.266251     3.258607     3.250964     3.243321
      3.235678     3.228034     3.220391     3.212748     3.205105     3.197462     3.189818     3.182175     3.174532     3.166889
      3.159245     3.151602     3.143959     3.136316     3.128673     3.121029     3.113386     3.105743     3.098100     3.090456
      3.082813     3.075170     3.067527     3.059884     3.052240     3.044597     3.036954     3.029311     3.021667     3.014024
      3.006381     2.998738     2.991095     2.983451     2.975808     2.968165     2.960522     2.952878     2.945235     2.937592
      2.929949     2.922306     2.914662     2.907019     2.899376     2.891733     2.884089     2.876446     2.868803     2.861160
      2.853517     2.845873     2.838230     2.830587     2.822944     2.815300     2.807657     2.800014     2.792371     2.784728
      2.777084     2.769441     2.761798     2.754155     2.746511     2.738868     2.731225     2.723582     2.715939     2.708295
      2.700652     2.693009     2.685366     2.677722     2.670079     2.662436     2.654793     2.647150     2.639506     2.631863
      2.624220     2.616577     2.608933     2.601290     2.593647     2.586004     2.578361     2.570717     2.563074     2.555431
      2.547788     2.540144     2.532501     2.524858     2.517215     2.509572     2.501928     2.494285     2.486642     2.478999
      2.471355     2.463712     2.456069     2.448426     2.440783     2.433139     2.425496     2.417853     2.410210     2.402566
      2.394923     2.387280     2.379637     2.371994     2.364350     2.356707     2.349064     2.341421     2.333777     2.326134
      2.318491     2.310848     2.303205     2.295561     2.287918     2.280275     2.272632     2.264988     2.257345     2.249702
      2.242059     2.234416     2.226772     2.219129     2.211486     2.203843     2.196199     2.188556     2.180913     2.173270
      2.165627     2.157983     2.150340     2.142697     2.135054     2.127410     2.119767     2.112124     2.104481     2.096838
      2.089194     2.081551     2.073908     2.066265     2.058621     2.050978     2.043335     2.035692     2.028049     2.020405
      2.012762     2.005119     1.997476     1.989833     1.982190     1.974546     1.966903     1.959260     1.951617     1.943974
      1.936331     1.928688     1.921045     1.913402     1.905759     1.898115     1.890472     1.882829     1.875186     1.867543
      1.859900     1.852257     1.844614     1.836971     1.829327     1.821684     1.814041     1.806398     1.798755     1.791112
      1.783469     1.775826     1.768183     1.760540     1.752896     1.745253     1.737610     1.729967     1.722324     1.714681
      1.707038     1.699395     1.691752     1.684108     1.676465     1.668822     1.661179     1.653536     1.645893     1.638250
      1.630607     1.622964     1.615321     1.607677     1.600034     1.592391     1.584748     1.577105     1.569462     1.561819
      1.554176     1.546533     1.538890     1.531246     1.523603     1.515960     1.508317     1.500674     1.493031     1.485388
      1.477745     1.470102     1.462458     1.454815     1.447172     1.439529     1.431886     1.424243     1.416600     1.408957
      1.401314     1.393671     1.386027     1.378384     1.370741     1.363098     1.355455     1.347812     1.340169     1.332526
      1.324883     1.317240     1.309596     1.301953     1.294310     1.286667     1.279024     1.271381     1.263738     1.256095
      1.248452     1.240808     1.233165     1.225522     1.217879     1.210236     1.202593     1.194950     1.187307     1.179664
      1.172021     1.164377     1.156734     1.149091     1.141448     1.133805     1.126162     1.118519     1.110876     1.103233
      1.095590     1.087946     1.080303     1.072660     1.065017     1.057374     1.049731     1.042088     1.034445     1.026802
      1.019158     1.011515     1.003872     0.996229     0.988586     0.980943     0.973300     0.965657     0.958014     0.950371
      0.942727     0.935084     0.927441     0.919798     0.912155     0.904512     0.896869     0.889226     0.881583     0.873940
      0.866296     0.858653     0.851010     0.843367     0.835724     0.828081     0.820438     0.812795     0.805152     0.797508
      0.789865     0.782222     0.774579     0.766936     0.759293     0.751650     0.744007     0.736364     0.728721     0.721077
      0.713434     0.705791     0.698148     0.690505     0.682862     0.675219     0.667576     0.659933     0.652290     0.644646
      0.637003     0.629360     0.621717     0.614074     0.606431     0.598788     0.591145     0.583502     0.575858     0.568215
      0.560572     0.552929     0.545286     0.537643     0.530000     0.522357     0.514714     0.507071     0.499427     0.491784
      0.484141     0.476498     0.468855     0.461212     0.453569     0.445925     0.438282     0.430639     0.422996     0.415353
      0.407710     0.400067     0.392424     0.384780     0.377137     0.369494     0.361851     0.354208     0.346565     0.338922
      0.331278     0.323635     0.315992     0.308349     0.300706     0.293063     0.285420     0.277777     0.270133     0.262490
      0.254847     0.247204     0.239561     0.231918     0.224275     0.216631     0.208988     0.201345
 NY phased data points follow
  -1.83766E+00  6.65228E-02  7.48129E-02 -9.08307E-01 -4.51888E-01 -3.67257E-01 -1.81205E-01  1.27755E-01  9.91290E-01  1.71164E+00
   2.31072E-02  6.29930E-01 -2.51871E-01  3.01540E-01  1.75944E+00  1.31768E+00  1.08739E+00  1.58083E+00  8.80580E-01  1.92724E+00
   6.04715E-01  3.03122E-01 -6.57794E-01  9.40425E-01  1.56155E+00  1.83925E-01  3.09856E-02  1.29558E+00  4.35295E-01  1.61718E+00
   3.89489E-01  2.51233E+00 -5.19801E-01  1.05929E-01  9.70794E-01  9.92344E-01  1.44784E+00  6.24855E-01  2.63940E+00  1.26248E+00
   4.24189E-01  1.36495E+00  1.20718E+00  2.64521E+00  7.61798E-01  5.98622E-01  2.07575E+00  1.88619E+00  8.83024E-01  1.50073E+00
   2.45062E+00  2.82456E+00  3.03803E+00  7.80845E-01  1.98482E+00  3.68830E+00  1.83009E+00  3.51473E+00  3.11705E+00  2.83010E+00
   1.30129E+00  2.84734E+00  2.02491E+00  1.63978E+00  2.20738E+00  5.96639E-01  2.21479E+00  6.47634E-01  2.48936E+00  2.84010E+00
   5.41181E-01  3.30430E+00  6.58551E-01  2.02699E+00  2.95137E+00  3.46794E+00  2.82946E+00  2.38288E+00  2.09334E+00  2.62443E+00
   1.78756E+00  2.45750E+00  1.32088E+00  2.50347E+00  3.08688E+00  3.03865E+00  2.52860E+00  3.20206E+00  3.55049E+00  3.15173E+00
   6.38587E+00  3.00312E+00  2.86814E+00  3.85493E+00  2.36495E+00  2.78271E+00  3.30537E+00  3.75488E+00  4.08032E+00  2.53774E+00
   2.80326E+00  4.18592E+00  4.74026E+00  5.25188E+00  6.96001E+00  5.41367E+00  5.53698E+00  5.73140E+00  4.77483E+00  4.58133E+00
   3.15755E+00  2.97067E+00  1.51562E+00  5.04471E+00  4.75094E+00  4.95426E+00  3.73095E+00  4.09426E+00  3.13021E+00  4.50446E+00
   5.03232E+00  4.67747E+00  4.13174E+00  4.54363E+00  5.53760E+00  3.26006E+00  4.44026E+00  6.75494E+00  5.44659E+00  6.45053E+00
   5.78584E+00  5.10483E+00  6.87671E+00  2.78005E+00  3.62836E+00  5.93832E+00  3.67318E+00  4.76487E+00  4.83706E+00  3.38849E+00
   6.40274E+00  4.43244E+00  4.54715E+00  5.92011E+00  4.92286E+00  3.87256E+00  4.55814E+00  4.94913E+00  4.15942E+00  4.83407E+00
   4.56197E+00  4.26811E+00  6.41603E+00  5.06879E+00  5.63821E+00  4.98721E+00  5.46237E+00  3.88093E+00  4.40450E+00  4.90532E+00
   5.58661E+00  4.93665E+00  5.65041E+00  4.30564E+00  5.22211E+00  5.43307E+00  7.11533E+00  5.57672E+00  5.84866E+00  5.79213E+00
   6.88580E+00  6.27471E+00  5.25208E+00  4.21685E+00  3.70687E+00  5.17209E+00  4.15166E+00  5.73938E+00  5.85830E+00  5.92980E+00
   3.85951E+00  5.75818E+00  4.09148E+00  4.22449E+00  7.02171E+00  5.21515E+00  6.47484E+00  3.85329E+00  2.77094E+00  5.58691E+00
   6.99668E+00  6.01111E+00  4.97355E+00  6.78636E+00  6.96642E+00  6.19244E+00  6.55981E+00  6.21947E+00  5.89638E+00  6.68386E+00
   5.20890E+00  5.29578E+00  5.17308E+00  6.29675E+00  5.90778E+00  6.62323E+00  7.10912E+00  5.08656E+00  6.57940E+00  7.40316E+00
   5.28664E+00  5.79943E+00  5.34754E+00  6.68743E+00  4.87938E+00  6.09643E+00  7.16104E+00  6.83609E+00  8.77166E+00  7.55666E+00
   6.70999E+00  7.93605E+00  7.17769E+00  7.38247E+00  7.60207E+00  6.78312E+00  6.07950E+00  8.24271E+00  7.85364E+00  7.26729E+00
   7.52946E+00  7.47204E+00  8.29507E+00  5.56392E+00  7.57799E+00  7.67670E+00  9.60792E+00  6.93908E+00  8.42950E+00  9.47136E+00
   9.58735E+00  7.86708E+00  8.84593E+00  8.58900E+00  7.38775E+00  8.43203E+00  7.31117E+00  7.99157E+00  7.48712E+00  8.59984E+00
   8.16999E+00  7.19858E+00  8.58867E+00  9.55106E+00  7.72853E+00  1.02591E+01  9.57632E+00  9.43476E+00  7.49082E+00  8.97420E+00
   1.16574E+01  1.22090E+01  1.26754E+01  1.20701E+01  1.12594E+01  1.20951E+01  9.84149E+00  1.19015E+01  1.39278E+01  1.31091E+01
   1.16765E+01  1.17888E+01  1.15240E+01  1.24465E+01  1.36306E+01  1.21609E+01  1.40322E+01  1.21178E+01  1.31152E+01  1.35000E+01
   1.17234E+01  1.38668E+01  1.18100E+01  1.23122E+01  1.39150E+01  1.40807E+01  1.22611E+01  1.23370E+01  1.44332E+01  1.40016E+01
   1.33161E+01  1.19751E+01  1.51581E+01  1.52853E+01  1.44674E+01  1.40322E+01  1.51891E+01  1.54800E+01  1.45422E+01  1.53898E+01
   1.47000E+01  1.54834E+01  1.59326E+01  1.61419E+01  1.68926E+01  1.58231E+01  1.65853E+01  1.70512E+01  1.46153E+01  1.70795E+01
   1.75724E+01  1.72121E+01  1.66543E+01  1.76972E+01  1.70595E+01  1.75908E+01  1.76899E+01  1.87784E+01  1.85838E+01  1.95236E+01
   1.79371E+01  2.02362E+01  2.01226E+01  2.27100E+01  1.99158E+01  1.79601E+01  2.12018E+01  2.17538E+01  1.88673E+01  1.93451E+01
   2.15478E+01  2.10601E+01  1.81423E+01  2.01583E+01  2.10526E+01  2.14724E+01  1.97319E+01  2.13231E+01  2.24287E+01  2.13373E+01
   2.32714E+01  2.22657E+01  2.49730E+01  2.38039E+01  2.46124E+01  2.41170E+01  2.45606E+01  2.55422E+01  2.66743E+01  2.80170E+01
   2.75463E+01  2.77310E+01  2.92890E+01  2.99509E+01  2.94334E+01  2.97611E+01  3.16720E+01  3.05544E+01  3.12742E+01  3.13594E+01
   3.09076E+01  3.22948E+01  3.17824E+01  3.11522E+01  3.31979E+01  3.01304E+01  3.22432E+01  2.99764E+01  2.98495E+01  3.15403E+01
   3.10347E+01  2.73978E+01  2.84655E+01  2.82725E+01  2.69699E+01  2.70953E+01  2.63060E+01  2.56489E+01  2.49930E+01  2.40116E+01
   2.54355E+01  2.30426E+01  2.32186E+01  2.30355E+01  2.33350E+01  2.23504E+01  2.27726E+01  2.05493E+01  2.27998E+01  2.16455E+01
   2.22901E+01  2.04810E+01  2.15577E+01  2.05812E+01  1.98117E+01  2.01199E+01  1.89105E+01  1.94005E+01  2.12088E+01  1.82351E+01
   1.67987E+01  1.74063E+01  1.84168E+01  1.62333E+01  1.65043E+01  1.39906E+01  1.67847E+01  1.61183E+01  1.50174E+01  1.37900E+01
   1.57738E+01  1.43618E+01  1.33734E+01  1.27333E+01  1.22833E+01  1.31356E+01  1.38773E+01  9.71218E+00  8.08328E+00  8.50960E+00
   9.37139E+00  9.20428E+00  9.89894E+00  9.84231E+00  9.01793E+00  7.45508E+00  8.46213E+00  7.75258E+00  7.65532E+00  8.19352E+00
   6.86601E+00  6.96178E+00  6.73927E+00  4.85922E+00  3.66287E+00  4.29329E+00  6.13870E+00  4.09222E+00  3.74728E+00  3.57274E+00
   4.70785E+00  2.49210E+00  3.64931E+00  2.37144E+00  3.23102E+00  1.33057E+00  2.67485E+00  1.35818E+00  1.04744E+00  3.15355E-01
  -5.91082E-01  7.12196E-01 -1.90183E-01  1.54406E+00 -2.14322E-01 -6.52288E-01 -9.58774E-01 -2.20697E+00 -1.38610E+00  1.16989E-01
  -4.06158E+00 -2.47915E+00 -1.92973E+00 -1.54375E+00 -2.88661E+00 -3.31801E+00 -3.41048E+00 -3.21186E+00 -4.66333E+00 -4.90464E+00
  -3.77638E+00 -3.50969E+00 -6.51001E+00 -5.88872E+00 -2.94296E+00 -5.66729E+00 -5.38593E+00 -4.57977E+00 -4.15115E+00 -4.97154E+00
  -3.95056E+00 -5.85090E+00 -6.10180E+00 -4.36409E+00 -4.98473E+00 -7.56346E+00 -5.96028E+00 -4.39100E+00 -5.58061E+00 -5.61829E+00
  -5.38471E+00 -5.82061E+00 -7.12754E+00 -6.87873E+00 -6.82921E+00 -6.38838E+00 -4.89873E+00 -4.46471E+00
 NY points of the fit to the data follow
  -4.31082E-01 -3.87662E-01 -3.41247E-01 -2.88835E-01 -2.26365E-01 -1.65585E-01 -8.59895E-02  2.99730E-02  1.72060E-01  3.60401E-01
   6.11521E-01  8.75989E-01  1.06179E+00  1.11651E+00  1.06078E+00  9.53934E-01  8.30659E-01  6.83127E-01  5.77731E-01  5.57172E-01
   5.75894E-01  6.04391E-01  6.52112E-01  7.48582E-01  8.77026E-01  9.63005E-01  9.56758E-01  8.73988E-01  7.56244E-01  6.38932E-01
   5.72400E-01  6.28595E-01  8.36655E-01  1.11154E+00  1.34417E+00  1.46971E+00  1.47521E+00  1.40156E+00  1.30434E+00  1.23718E+00
   1.22995E+00  1.28404E+00  1.37640E+00  1.47080E+00  1.54318E+00  1.58986E+00  1.62609E+00  1.65126E+00  1.65996E+00  1.68298E+00
   1.73363E+00  1.78422E+00  1.82286E+00  1.86487E+00  1.90620E+00  1.93132E+00  1.94358E+00  1.95778E+00  1.97613E+00  1.99834E+00
   2.02233E+00  2.04821E+00  2.07769E+00  2.10969E+00  2.14505E+00  2.18221E+00  2.21984E+00  2.25731E+00  2.29299E+00  2.32428E+00
   2.35297E+00  2.38032E+00  2.40620E+00  2.43836E+00  2.48444E+00  2.54071E+00  2.59764E+00  2.64298E+00  2.67192E+00  2.68916E+00
   2.70157E+00  2.71720E+00  2.73946E+00  2.77030E+00  2.82257E+00  2.90635E+00  3.00445E+00  3.08442E+00  3.13056E+00  3.15152E+00
   3.15931E+00  3.15368E+00  3.13777E+00  3.13302E+00  3.14320E+00  3.15538E+00  3.17677E+00  3.23486E+00  3.32683E+00  3.31875E+00
   3.36174E+00  3.78681E+00  4.63113E+00  5.51369E+00  6.05334E+00  6.16765E+00  5.97328E+00  5.52928E+00  4.86122E+00  4.23667E+00
   3.97886E+00  3.91899E+00  3.90532E+00  3.90706E+00  3.91594E+00  3.93090E+00  3.95007E+00  3.97151E+00  3.99275E+00  4.01354E+00
   4.03632E+00  4.07026E+00  4.12238E+00  4.12098E+00  4.11922E+00  4.33037E+00  4.83457E+00  5.43108E+00  5.85472E+00  6.00455E+00
   5.93067E+00  5.68639E+00  5.28492E+00  4.85825E+00  4.63487E+00  4.57634E+00  4.55900E+00  4.55567E+00  4.56369E+00  4.58172E+00
   4.60561E+00  4.62978E+00  4.65119E+00  4.67287E+00  4.69658E+00  4.72133E+00  4.74611E+00  4.76945E+00  4.79095E+00  4.81001E+00
   4.82682E+00  4.84293E+00  4.86002E+00  4.88008E+00  4.90209E+00  4.92388E+00  4.94522E+00  4.96916E+00  4.99398E+00  5.00973E+00
   5.01120E+00  5.00294E+00  5.00107E+00  5.02041E+00  5.05985E+00  5.10660E+00  5.15078E+00  5.18646E+00  5.20730E+00  5.21569E+00
   5.21815E+00  5.22171E+00  5.23679E+00  5.25963E+00  5.27477E+00  5.27749E+00  5.27861E+00  5.29713E+00  5.33612E+00  5.37847E+00
   5.41029E+00  5.43586E+00  5.46571E+00  5.50011E+00  5.53309E+00  5.56216E+00  5.58837E+00  5.62188E+00  5.66540E+00  5.71711E+00
   5.77650E+00  5.83644E+00  5.89032E+00  5.92711E+00  5.93934E+00  5.93945E+00  5.94382E+00  5.95252E+00  5.96438E+00  5.99296E+00
   6.06045E+00  6.17161E+00  6.31292E+00  6.46497E+00  6.60918E+00  6.71365E+00  6.76574E+00  6.74318E+00  6.60636E+00  6.38340E+00
   6.17349E+00  6.06933E+00  6.09270E+00  6.22419E+00  6.45346E+00  6.76358E+00  7.06607E+00  7.24090E+00  7.30166E+00  7.31382E+00
   7.26759E+00  7.15725E+00  7.04209E+00  7.00524E+00  7.06147E+00  7.17563E+00  7.31993E+00  7.47848E+00  7.63059E+00  7.73810E+00
   7.78543E+00  7.80311E+00  7.83724E+00  7.88589E+00  7.91540E+00  7.91301E+00  7.91486E+00  7.96027E+00  8.05294E+00  8.20106E+00
   8.39041E+00  8.57253E+00  8.68618E+00  8.70307E+00  8.66140E+00  8.60732E+00  8.56433E+00  8.55594E+00  8.60819E+00  8.71050E+00
   8.82206E+00  8.95085E+00  9.09632E+00  9.24106E+00  9.37698E+00  9.52790E+00  9.62852E+00  9.60860E+00  9.73876E+00  1.02992E+01
   1.11767E+01  1.19613E+01  1.23813E+01  1.24393E+01  1.22375E+01  1.17971E+01  1.11988E+01  1.07777E+01  1.06953E+01  1.07246E+01
   1.07816E+01  1.08572E+01  1.09494E+01  1.10552E+01  1.11769E+01  1.13126E+01  1.14572E+01  1.16061E+01  1.17568E+01  1.19071E+01
   1.20592E+01  1.22171E+01  1.23827E+01  1.25578E+01  1.27440E+01  1.29407E+01  1.31460E+01  1.33577E+01  1.35729E+01  1.37902E+01
   1.40074E+01  1.42222E+01  1.44332E+01  1.46392E+01  1.48386E+01  1.50296E+01  1.52113E+01  1.53828E+01  1.55433E+01  1.56923E+01
   1.58299E+01  1.59564E+01  1.60729E+01  1.61808E+01  1.62820E+01  1.63787E+01  1.64734E+01  1.65689E+01  1.66676E+01  1.67723E+01
   1.68855E+01  1.70093E+01  1.71453E+01  1.72949E+01  1.74587E+01  1.76367E+01  1.78287E+01  1.80334E+01  1.82495E+01  1.84754E+01
   1.87097E+01  1.89520E+01  1.92012E+01  1.94340E+01  1.96805E+01  2.00059E+01  2.03725E+01  2.06471E+01  2.07434E+01  2.06959E+01
   2.06041E+01  2.04988E+01  2.03542E+01  2.02863E+01  2.04788E+01  2.09059E+01  2.14139E+01  2.19074E+01  2.23506E+01  2.27447E+01
   2.30660E+01  2.32977E+01  2.35347E+01  2.38655E+01  2.42662E+01  2.47177E+01  2.52108E+01  2.57384E+01  2.62938E+01  2.68695E+01
   2.74578E+01  2.80498E+01  2.86364E+01  2.92077E+01  2.97539E+01  3.02647E+01  3.07305E+01  3.11416E+01  3.14895E+01  3.17663E+01
   3.19656E+01  3.20824E+01  3.21132E+01  3.20566E+01  3.19127E+01  3.16840E+01  3.13747E+01  3.09909E+01  3.05404E+01  3.00326E+01
   2.94780E+01  2.88881E+01  2.82750E+01  2.76507E+01  2.70273E+01  2.64159E+01  2.58269E+01  2.52691E+01  2.47498E+01  2.42741E+01
   2.38454E+01  2.34646E+01  2.31307E+01  2.28406E+01  2.25893E+01  2.23704E+01  2.21762E+01  2.19983E+01  2.18280E+01  2.16567E+01
   2.14763E+01  2.12798E+01  2.10614E+01  2.08169E+01  2.05437E+01  2.02409E+01  1.99092E+01  1.95506E+01  1.91685E+01  1.87670E+01
   1.83506E+01  1.79242E+01  1.74922E+01  1.70590E+01  1.66280E+01  1.62019E+01  1.57826E+01  1.53711E+01  1.49676E+01  1.45714E+01
   1.41815E+01  1.37963E+01  1.34142E+01  1.30333E+01  1.26519E+01  1.22685E+01  1.18818E+01  1.14911E+01  1.10958E+01  1.06958E+01
   1.02916E+01  9.88375E+00  9.47318E+00  9.06106E+00  8.64867E+00  8.23741E+00  7.82869E+00  7.42386E+00  7.02422E+00  6.63092E+00
   6.24499E+00  5.86729E+00  5.49851E+00  5.13916E+00  4.78961E+00  4.45005E+00  4.12055E+00  3.80106E+00  3.49142E+00  3.19139E+00
   2.90067E+00  2.61889E+00  2.34567E+00  2.08059E+00  1.82322E+00  1.57314E+00  1.32992E+00  1.09313E+00  8.62392E-01  6.37310E-01
   4.17528E-01  2.02696E-01 -7.50028E-03 -2.13369E-01 -4.15183E-01 -6.13210E-01 -8.07687E-01 -9.98847E-01 -1.18689E+00 -1.37201E+00
  -1.55438E+00 -1.73416E+00 -1.91150E+00 -2.08654E+00 -2.25939E+00 -2.43017E+00 -2.59899E+00 -2.76594E+00 -2.93112E+00 -3.09460E+00
  -3.25645E+00 -3.41675E+00 -3.57554E+00 -3.73291E+00 -3.88888E+00 -4.04353E+00 -4.19687E+00 -4.34897E+00 -4.49984E+00 -4.64953E+00
  -4.79806E+00 -4.94548E+00 -5.09178E+00 -5.23702E+00 -5.38118E+00 -5.52432E+00 -5.66643E+00 -5.80753E+00 -5.94764E+00 -6.08676E+00
  -6.22491E+00 -6.36210E+00 -6.49834E+00 -6.63363E+00 -6.76797E+00 -6.90138E+00 -7.03385E+00 -7.16539E+00
 NY background values follow
    -6.975E-02   -2.849E-02    1.274E-02    5.395E-02    9.514E-02    1.363E-01    1.774E-01    2.185E-01    2.596E-01    3.006E-01
     3.416E-01    3.825E-01    4.234E-01    4.643E-01    5.051E-01    5.458E-01    5.865E-01    6.271E-01    6.677E-01    7.082E-01
     7.486E-01    7.890E-01    8.293E-01    8.695E-01    9.097E-01    9.497E-01    9.897E-01    1.030E+00    1.069E+00    1.109E+00
     1.149E+00    1.188E+00    1.228E+00    1.267E+00    1.306E+00    1.345E+00    1.385E+00    1.423E+00    1.462E+00    1.501E+00
     1.539E+00    1.578E+00    1.616E+00    1.654E+00    1.693E+00    1.730E+00    1.768E+00    1.806E+00    1.844E+00    1.881E+00
     1.918E+00    1.955E+00    1.992E+00    2.029E+00    2.066E+00    2.103E+00    2.139E+00    2.176E+00    2.212E+00    2.248E+00
     2.285E+00    2.321E+00    2.356E+00    2.392E+00    2.428E+00    2.463E+00    2.499E+00    2.534E+00    2.570E+00    2.605E+00
     2.640E+00    2.675E+00    2.710E+00    2.745E+00    2.780E+00    2.814E+00    2.849E+00    2.883E+00    2.918E+00    2.952E+00
     2.986E+00    3.021E+00    3.055E+00    3.089E+00    3.123E+00    3.157E+00    3.191E+00    3.225E+00    3.258E+00    3.292E+00
     3.326E+00    3.359E+00    3.393E+00    3.426E+00    3.460E+00    3.493E+00    3.526E+00    3.559E+00    3.592E+00    3.625E+00
     3.658E+00    3.691E+00    3.723E+00    3.756E+00    3.788E+00    3.820E+00    3.852E+00    3.884E+00    3.916E+00    3.947E+00
     3.979E+00    4.010E+00    4.041E+00    4.072E+00    4.102E+00    4.133E+00    4.163E+00    4.193E+00    4.222E+00    4.252E+00
     4.281E+00    4.310E+00    4.339E+00    4.367E+00    4.395E+00    4.423E+00    4.451E+00    4.478E+00    4.505E+00    4.532E+00
     4.559E+00    4.585E+00    4.610E+00    4.636E+00    4.661E+00    4.686E+00    4.710E+00    4.734E+00    4.758E+00    4.782E+00
     4.805E+00    4.828E+00    4.850E+00    4.873E+00    4.895E+00    4.917E+00    4.938E+00    4.960E+00    4.981E+00    5.003E+00
     5.024E+00    5.045E+00    5.066E+00    5.086E+00    5.107E+00    5.128E+00    5.149E+00    5.169E+00    5.190E+00    5.211E+00
     5.231E+00    5.252E+00    5.273E+00    5.294E+00    5.315E+00    5.336E+00    5.357E+00    5.379E+00    5.400E+00    5.422E+00
     5.444E+00    5.466E+00    5.488E+00    5.511E+00    5.534E+00    5.557E+00    5.581E+00    5.605E+00    5.629E+00    5.653E+00
     5.678E+00    5.703E+00    5.729E+00    5.755E+00    5.782E+00    5.808E+00    5.836E+00    5.863E+00    5.892E+00    5.920E+00
     5.949E+00    5.979E+00    6.009E+00    6.039E+00    6.070E+00    6.102E+00    6.133E+00    6.166E+00    6.199E+00    6.232E+00
     6.266E+00    6.301E+00    6.336E+00    6.371E+00    6.407E+00    6.444E+00    6.481E+00    6.519E+00    6.558E+00    6.597E+00
     6.636E+00    6.676E+00    6.717E+00    6.758E+00    6.800E+00    6.843E+00    6.886E+00    6.930E+00    6.975E+00    7.020E+00
     7.066E+00    7.113E+00    7.160E+00    7.208E+00    7.256E+00    7.306E+00    7.356E+00    7.406E+00    7.458E+00    7.510E+00
     7.562E+00    7.615E+00    7.669E+00    7.723E+00    7.777E+00    7.832E+00    7.887E+00    7.942E+00    7.998E+00    8.053E+00
     8.109E+00    8.165E+00    8.220E+00    8.276E+00    8.331E+00    8.387E+00    8.442E+00    8.497E+00    8.552E+00    8.606E+00
     8.660E+00    8.714E+00    8.767E+00    8.819E+00    8.871E+00    8.923E+00    8.973E+00    9.023E+00    9.072E+00    9.121E+00
     9.168E+00    9.215E+00    9.261E+00    9.306E+00    9.349E+00    9.392E+00    9.433E+00    9.474E+00    9.513E+00    9.551E+00
     9.587E+00    9.622E+00    9.656E+00    9.688E+00    9.719E+00    9.748E+00    9.776E+00    9.803E+00    9.828E+00    9.852E+00
     9.874E+00    9.895E+00    9.915E+00    9.934E+00    9.951E+00    9.966E+00    9.980E+00    9.993E+00    1.001E+01    1.002E+01
     1.002E+01    1.003E+01    1.004E+01    1.004E+01    1.005E+01    1.005E+01    1.005E+01    1.005E+01    1.005E+01    1.005E+01
     1.004E+01    1.004E+01    1.003E+01    1.002E+01    1.001E+01    1.000E+01    9.993E+00    9.981E+00    9.967E+00    9.952E+00
     9.935E+00    9.918E+00    9.899E+00    9.880E+00    9.859E+00    9.837E+00    9.813E+00    9.789E+00    9.763E+00    9.736E+00
     9.708E+00    9.679E+00    9.649E+00    9.618E+00    9.585E+00    9.551E+00    9.517E+00    9.481E+00    9.444E+00    9.406E+00
     9.367E+00    9.327E+00    9.285E+00    9.243E+00    9.199E+00    9.155E+00    9.109E+00    9.063E+00    9.015E+00    8.966E+00
     8.916E+00    8.866E+00    8.814E+00    8.761E+00    8.707E+00    8.652E+00    8.596E+00    8.539E+00    8.481E+00    8.422E+00
     8.362E+00    8.301E+00    8.240E+00    8.177E+00    8.113E+00    8.048E+00    7.982E+00    7.916E+00    7.848E+00    7.780E+00
     7.710E+00    7.640E+00    7.568E+00    7.496E+00    7.423E+00    7.349E+00    7.274E+00    7.198E+00    7.121E+00    7.043E+00
     6.964E+00    6.885E+00    6.804E+00    6.723E+00    6.641E+00    6.557E+00    6.473E+00    6.388E+00    6.303E+00    6.216E+00
     6.128E+00    6.040E+00    5.950E+00    5.860E+00    5.769E+00    5.677E+00    5.584E+00    5.490E+00    5.396E+00    5.300E+00
     5.204E+00    5.107E+00    5.009E+00    4.910E+00    4.810E+00    4.709E+00    4.608E+00    4.505E+00    4.402E+00    4.298E+00
     4.193E+00    4.088E+00    3.981E+00    3.874E+00    3.766E+00    3.657E+00    3.547E+00    3.436E+00    3.324E+00    3.212E+00
     3.099E+00    2.985E+00    2.871E+00    2.755E+00    2.639E+00    2.522E+00    2.405E+00    2.287E+00    2.168E+00    2.049E+00
     1.929E+00    1.808E+00    1.687E+00    1.565E+00    1.443E+00    1.320E+00    1.197E+00    1.073E+00    9.493E-01    8.246E-01
     6.996E-01    5.741E-01    4.482E-01    3.220E-01    1.954E-01    6.845E-02   -5.881E-02   -1.864E-01   -3.142E-01   -4.424E-01
    -5.707E-01   -6.994E-01   -8.282E-01   -9.572E-01   -1.086E+00   -1.216E+00   -1.345E+00   -1.475E+00   -1.605E+00   -1.735E+00
    -1.864E+00   -1.994E+00   -2.124E+00   -2.254E+00   -2.385E+00   -2.515E+00   -2.645E+00   -2.775E+00   -2.905E+00   -3.034E+00
    -3.164E+00   -3.294E+00   -3.424E+00   -3.553E+00   -3.683E+00   -3.812E+00   -3.941E+00   -4.070E+00   -4.199E+00   -4.328E+00
    -4.456E+00   -4.584E+00   -4.712E+00   -4.840E+00   -4.968E+00   -5.095E+00   -5.222E+00   -5.349E+00   -5.475E+00   -5.601E+00
    -5.727E+00   -5.852E+00   -5.977E+00   -6.102E+00   -6.226E+00   -6.350E+00   -6.474E+00   -6.597E+00   -6.720E+00   -6.842E+00
    -6.964E+00   -7.085E+00   -7.206E+00   -7.326E+00   -7.446E+00   -7.566E+00   -7.684E+00   -7.803E+00
 Ala      Conc. = 3.60E+01
