 LCModel (Version 6.3-1L) Copyright: S.W. Provencher.          Ref.: Magn. Reson. Med. 30:672-679 (1993).                
 Slice#3 Row#9 Col#2  K_02_press_1_raw_act
 36 lines in following concentration table = NCONC+1
    Conc.  %SD /Cr+PCr  Metabolite                                         
   39.808 143%   0.104 Ala                                                 
    0.000 999%   0.000 Asp                                                 
  332.855  30%   0.873 Cr                                                  
   48.339 213%   0.127 PCr                                                 
   21.728 229% 5.7E-02 GABA                                                
   70.373  70%   0.185 Glc                                                 
  214.291  57%   0.562 Gln                                                 
  592.725  23%   1.555 Glu                                                 
  124.544   8%   0.327 GPC                                                 
    0.000 999%   0.000 PCh                                                 
  268.325  15%   0.704 GSH                                                 
  384.258  39%   1.008 Ins                                                 
  110.570  57%   0.290 Lac                                                 
  639.081   7%   1.677 NAA                                                 
  151.243  30%   0.397 NAAG                                                
   18.371  65% 4.8E-02 Scyllo                                              
   20.819 380% 5.5E-02 Tau                                                 
  183.775  29%   0.482 -CrCH2                                              
  124.544   8%   0.327 GPC+PCh                                             
  790.324   4%   2.073 NAA+NAAG                                            
  381.194   7%   1.000 Cr+PCr                                              
  807.016  25%   2.117 Glu+Gln                                             
  306.840  55%   0.805 Lip13a                                              
    0.000 999%   0.000 Lip13b                                              
   36.322 190% 9.5E-02 Lip09                                               
    0.000 999%   0.000 MM09                                                
   49.818 100%   0.131 Lip20                                               
    0.000 999%   0.000 MM20                                                
    0.000 999%   0.000 MM12                                                
    0.100 999% 2.6E-04 MM14                                                
 2.75E-02 999% 7.2E-05 MM17                                                
  306.840  55%   0.805 Lip13a+Lip13b                                       
  306.941  55%   0.805 MM14+Lip13a+Lip13b+MM12                             
   36.322 190% 9.5E-02 MM09+Lip09                                          
   49.818 100%   0.131 MM20+Lip20                                          
   6 lines in following misc. output table
  FWHM = 0.054 ppm    S/N =   6                                            
  Data shift =-0.008 ppm                                                   
  Ph: -24 deg     -18.9 deg/ppm                                            
  alphaB,S = 8.3E-01,   1.0E+02                                            
   14 spline knots.   Ns = 7(1)                                            
  (11) 4 infls.   ( 9) 1 extrs.                                            
  498 points on ppm-axis = NY
      4.000000     3.992357     3.984714     3.977070     3.969427     3.961784     3.954141     3.946497     3.938854     3.931211
      3.923568     3.915925     3.908281     3.900638     3.892995     3.885352     3.877708     3.870065     3.862422     3.854779
      3.847136     3.839492     3.831849     3.824206     3.816563     3.808919     3.801276     3.793633     3.785990     3.778347
      3.770703     3.763060     3.755417     3.747774     3.740130     3.732487     3.724844     3.717201     3.709558     3.701914
      3.694271     3.686628     3.678985     3.671341     3.663698     3.656055     3.648412     3.640769     3.633125     3.625482
      3.617839     3.610196     3.602552     3.594909     3.587266     3.579623     3.571980     3.564336     3.556693     3.549050
      3.541407     3.533763     3.526120     3.518477     3.510834     3.503191     3.495547     3.487904     3.480261     3.472618
      3.464974     3.457331     3.449688     3.442045     3.434402     3.426758     3.419115     3.411472     3.403829     3.396185
      3.388542     3.380899     3.373256     3.365613     3.357969     3.350326     3.342683     3.335040     3.327396     3.319753
      3.312110     3.304467     3.296824     3.289180     3.281537     3.273894     3.266251     3.258607     3.250964     3.243321
      3.235678     3.228034     3.220391     3.212748     3.205105     3.197462     3.189818     3.182175     3.174532     3.166889
      3.159245     3.151602     3.143959     3.136316     3.128673     3.121029     3.113386     3.105743     3.098100     3.090456
      3.082813     3.075170     3.067527     3.059884     3.052240     3.044597     3.036954     3.029311     3.021667     3.014024
      3.006381     2.998738     2.991095     2.983451     2.975808     2.968165     2.960522     2.952878     2.945235     2.937592
      2.929949     2.922306     2.914662     2.907019     2.899376     2.891733     2.884089     2.876446     2.868803     2.861160
      2.853517     2.845873     2.838230     2.830587     2.822944     2.815300     2.807657     2.800014     2.792371     2.784728
      2.777084     2.769441     2.761798     2.754155     2.746511     2.738868     2.731225     2.723582     2.715939     2.708295
      2.700652     2.693009     2.685366     2.677722     2.670079     2.662436     2.654793     2.647150     2.639506     2.631863
      2.624220     2.616577     2.608933     2.601290     2.593647     2.586004     2.578361     2.570717     2.563074     2.555431
      2.547788     2.540144     2.532501     2.524858     2.517215     2.509572     2.501928     2.494285     2.486642     2.478999
      2.471355     2.463712     2.456069     2.448426     2.440783     2.433139     2.425496     2.417853     2.410210     2.402566
      2.394923     2.387280     2.379637     2.371994     2.364350     2.356707     2.349064     2.341421     2.333777     2.326134
      2.318491     2.310848     2.303205     2.295561     2.287918     2.280275     2.272632     2.264988     2.257345     2.249702
      2.242059     2.234416     2.226772     2.219129     2.211486     2.203843     2.196199     2.188556     2.180913     2.173270
      2.165627     2.157983     2.150340     2.142697     2.135054     2.127410     2.119767     2.112124     2.104481     2.096838
      2.089194     2.081551     2.073908     2.066265     2.058621     2.050978     2.043335     2.035692     2.028049     2.020405
      2.012762     2.005119     1.997476     1.989833     1.982190     1.974546     1.966903     1.959260     1.951617     1.943974
      1.936331     1.928688     1.921045     1.913402     1.905759     1.898115     1.890472     1.882829     1.875186     1.867543
      1.859900     1.852257     1.844614     1.836971     1.829327     1.821684     1.814041     1.806398     1.798755     1.791112
      1.783469     1.775826     1.768183     1.760540     1.752896     1.745253     1.737610     1.729967     1.722324     1.714681
      1.707038     1.699395     1.691752     1.684108     1.676465     1.668822     1.661179     1.653536     1.645893     1.638250
      1.630607     1.622964     1.615321     1.607677     1.600034     1.592391     1.584748     1.577105     1.569462     1.561819
      1.554176     1.546533     1.538890     1.531246     1.523603     1.515960     1.508317     1.500674     1.493031     1.485388
      1.477745     1.470102     1.462458     1.454815     1.447172     1.439529     1.431886     1.424243     1.416600     1.408957
      1.401314     1.393671     1.386027     1.378384     1.370741     1.363098     1.355455     1.347812     1.340169     1.332526
      1.324883     1.317240     1.309596     1.301953     1.294310     1.286667     1.279024     1.271381     1.263738     1.256095
      1.248452     1.240808     1.233165     1.225522     1.217879     1.210236     1.202593     1.194950     1.187307     1.179664
      1.172021     1.164377     1.156734     1.149091     1.141448     1.133805     1.126162     1.118519     1.110876     1.103233
      1.095590     1.087946     1.080303     1.072660     1.065017     1.057374     1.049731     1.042088     1.034445     1.026802
      1.019158     1.011515     1.003872     0.996229     0.988586     0.980943     0.973300     0.965657     0.958014     0.950371
      0.942727     0.935084     0.927441     0.919798     0.912155     0.904512     0.896869     0.889226     0.881583     0.873940
      0.866296     0.858653     0.851010     0.843367     0.835724     0.828081     0.820438     0.812795     0.805152     0.797508
      0.789865     0.782222     0.774579     0.766936     0.759293     0.751650     0.744007     0.736364     0.728721     0.721077
      0.713434     0.705791     0.698148     0.690505     0.682862     0.675219     0.667576     0.659933     0.652290     0.644646
      0.637003     0.629360     0.621717     0.614074     0.606431     0.598788     0.591145     0.583502     0.575858     0.568215
      0.560572     0.552929     0.545286     0.537643     0.530000     0.522357     0.514714     0.507071     0.499427     0.491784
      0.484141     0.476498     0.468855     0.461212     0.453569     0.445925     0.438282     0.430639     0.422996     0.415353
      0.407710     0.400067     0.392424     0.384780     0.377137     0.369494     0.361851     0.354208     0.346565     0.338922
      0.331278     0.323635     0.315992     0.308349     0.300706     0.293063     0.285420     0.277777     0.270133     0.262490
      0.254847     0.247204     0.239561     0.231918     0.224275     0.216631     0.208988     0.201345
 NY phased data points follow
  -1.14627E+02 -1.11750E+02 -1.08435E+02 -1.07383E+02 -1.04854E+02 -1.04162E+02 -9.77081E+01 -9.68022E+01 -9.74451E+01 -9.51190E+01
  -9.22827E+01 -9.26934E+01 -8.99070E+01 -9.03485E+01 -8.84422E+01 -9.12900E+01 -8.95692E+01 -8.84491E+01 -8.96813E+01 -8.64850E+01
  -8.53330E+01 -8.54581E+01 -8.22038E+01 -8.25837E+01 -8.21686E+01 -7.82064E+01 -7.79434E+01 -7.99225E+01 -7.35961E+01 -7.19970E+01
  -7.03726E+01 -7.24908E+01 -7.09453E+01 -6.96911E+01 -6.80334E+01 -7.03254E+01 -6.77526E+01 -6.75126E+01 -6.57248E+01 -6.80372E+01
  -6.42914E+01 -6.40876E+01 -6.11519E+01 -6.55060E+01 -6.52245E+01 -6.09624E+01 -6.11914E+01 -6.17155E+01 -5.62892E+01 -6.01083E+01
  -5.82041E+01 -5.91182E+01 -5.82349E+01 -5.72721E+01 -5.40849E+01 -5.52784E+01 -5.74703E+01 -5.56736E+01 -5.27804E+01 -5.25927E+01
  -5.20363E+01 -5.29393E+01 -5.26836E+01 -5.41249E+01 -5.25381E+01 -5.03457E+01 -4.88979E+01 -5.08716E+01 -4.67341E+01 -4.78009E+01
  -4.33717E+01 -4.48195E+01 -4.38938E+01 -4.35805E+01 -4.42886E+01 -4.19663E+01 -4.08753E+01 -4.34138E+01 -4.09614E+01 -3.75765E+01
  -4.13990E+01 -4.02660E+01 -4.08483E+01 -3.92097E+01 -3.75133E+01 -3.75152E+01 -3.54111E+01 -3.74478E+01 -3.60219E+01 -3.61907E+01
  -3.58600E+01 -3.41326E+01 -3.51317E+01 -3.52392E+01 -3.08186E+01 -3.32547E+01 -3.21677E+01 -3.14045E+01 -2.87102E+01 -2.86023E+01
  -2.40241E+01 -1.93488E+01 -1.83006E+01 -1.69778E+01 -1.93484E+01 -1.95413E+01 -2.06177E+01 -2.42427E+01 -2.50719E+01 -2.46441E+01
  -2.34146E+01 -2.54726E+01 -2.48461E+01 -2.39686E+01 -2.50892E+01 -2.36691E+01 -2.45543E+01 -2.03897E+01 -2.00050E+01 -2.23610E+01
  -2.21081E+01 -1.75947E+01 -1.59286E+01 -1.46963E+01 -1.28189E+01 -8.52067E+00 -8.79572E+00 -7.90969E+00 -1.00100E+01 -6.15692E+00
  -1.22146E+01 -1.44222E+01 -1.52473E+01 -1.70790E+01 -1.66013E+01 -1.68847E+01 -1.56144E+01 -1.76845E+01 -1.57954E+01 -1.90221E+01
  -1.47869E+01 -1.62011E+01 -1.82069E+01 -1.32732E+01 -1.53668E+01 -1.49632E+01 -1.43577E+01 -1.17113E+01 -1.42864E+01 -1.35429E+01
  -1.28586E+01 -1.23443E+01 -1.31508E+01 -1.33175E+01 -1.04674E+01 -1.13737E+01 -1.13487E+01 -1.35408E+01 -1.24940E+01 -1.21329E+01
  -1.07344E+01 -9.79237E+00 -1.03739E+01 -1.02947E+01 -1.27793E+01 -9.37509E+00 -1.04910E+01 -1.16902E+01 -1.06197E+01 -1.43499E+01
  -1.12002E+01 -1.02061E+01 -1.01205E+01 -1.24630E+01 -1.11737E+01 -9.88723E+00 -1.31340E+01 -1.28227E+01 -1.17535E+01 -1.07172E+01
  -9.30165E+00 -1.26556E+01 -1.12372E+01 -1.17444E+01 -6.92463E+00 -7.81647E+00 -6.38138E+00 -5.98673E+00 -7.32382E+00 -7.88476E+00
  -6.06382E+00 -5.92025E+00 -4.50975E+00 -4.63058E+00 -6.23131E+00 -6.75847E+00 -5.88062E+00 -5.62987E+00 -6.72511E+00 -5.85800E+00
  -4.96583E+00 -7.41711E+00 -2.73310E+00 -5.58224E+00 -6.07351E+00 -7.12810E+00 -5.11546E+00 -6.20970E+00 -5.80843E+00 -6.72009E+00
  -6.63765E+00 -3.01975E+00 -4.94069E+00 -3.88210E+00 -3.02691E+00 -4.04581E-01 -1.77287E+00 -7.60694E-01 -2.74390E+00 -1.46575E+00
  -3.86812E+00 -5.13913E+00 -6.64188E+00 -7.82837E+00 -3.43599E+00 -4.42017E+00 -4.04711E+00 -8.47605E-01 -2.64156E+00 -2.13259E+00
  -4.03804E+00 -2.85742E+00 -1.98346E+00 -1.89488E+00 -3.98510E+00 -1.64685E+00 -1.29056E+00 -4.44954E+00 -5.06254E+00 -3.41355E+00
  -1.29669E+00 -1.82716E+00 -1.68525E+00 -2.62880E+00 -2.88341E+00 -9.59506E-01 -1.61128E+00 -1.72525E-01  4.24397E-02  3.31253E+00
   1.23364E+00  4.18327E+00  4.71787E+00  3.74830E+00  7.90390E+00  8.54268E+00  1.48574E+01  1.70711E+01  1.87553E+01  1.74836E+01
   2.00142E+01  2.28963E+01  2.11742E+01  1.52198E+01  8.23419E+00  2.92155E+00  3.82639E+00  6.16724E+00  4.12156E+00  3.39627E+00
   2.79941E+00  1.99537E+00  2.90367E+00  6.60699E-02  4.99142E-01  9.55898E-01  2.08569E+00  1.87454E+00  2.92319E-01  1.62348E+00
   2.76062E+00  2.32761E+00  2.43631E+00  1.63307E+00  3.15728E-01  5.83707E-01  2.30769E+00 -2.27866E+00  1.06866E+00  4.97046E+00
   3.88429E+00  5.45130E-01  2.49750E+00  3.38159E+00  3.48946E+00  1.24270E+00  6.28601E-01  3.32076E+00  3.01109E+00  6.36340E+00
   4.79400E+00  4.41814E+00  5.20154E+00  5.15009E+00  5.97004E+00  6.86646E+00  6.67662E+00  8.50142E+00  7.28942E+00  8.17875E+00
   7.46455E+00  4.76508E+00  5.29886E+00  4.58896E+00  5.95053E+00  9.09974E+00  6.94975E+00  7.76900E+00  6.42433E+00  7.79679E+00
   6.35388E+00  6.30574E+00  5.94582E+00  6.14637E+00  7.49682E+00  7.01366E+00  9.05767E+00  8.66388E+00  9.12390E+00  5.99657E+00
   8.72324E+00  9.43295E+00  7.98475E+00  5.83891E+00  7.20257E+00  9.85176E+00  8.98027E+00  8.16193E+00  8.68068E+00  1.11664E+01
   8.92169E+00  1.11788E+01  8.48341E+00  1.09677E+01  1.08825E+01  9.12241E+00  1.03250E+01  8.67167E+00  9.93265E+00  7.74079E+00
   1.09069E+01  6.93075E+00  1.14090E+01  9.50480E+00  7.66235E+00  1.02006E+01  1.14786E+01  1.22076E+01  9.13172E+00  8.81940E+00
   7.75308E+00  8.91180E+00  1.13167E+01  9.67420E+00  1.19478E+01  8.32335E+00  1.13800E+01  9.56651E+00  1.03578E+01  6.39505E+00
   8.37471E+00  9.13797E+00  8.10976E+00  8.43933E+00  8.01680E+00  1.04743E+01  1.02168E+01  9.24186E+00  8.56745E+00  1.03423E+01
   7.68524E+00  9.17062E+00  7.82702E+00  7.97246E+00  9.07793E+00  7.45208E+00  6.85049E+00  1.09789E+01  8.58564E+00  1.02428E+01
   8.62177E+00  1.20940E+01  1.04160E+01  6.65822E+00  1.06531E+01  8.49024E+00  9.17558E+00  9.15528E+00  8.84671E+00  7.87253E+00
   6.83931E+00  7.26265E+00  7.52046E+00  7.18660E+00  9.84368E+00  7.77904E+00  8.89624E+00  8.45650E+00  9.31153E+00  1.07390E+01
   9.19155E+00  8.27911E+00  6.68116E+00  7.73305E+00  9.76746E+00  9.05989E+00  7.75943E+00  7.81225E+00  1.00391E+01  9.58494E+00
   4.57751E+00  9.45159E+00  9.80132E+00  1.04912E+01  7.06561E+00  7.56652E+00  8.88452E+00  1.02182E+01  7.86240E+00  7.30737E+00
   7.55075E+00  8.51646E+00  9.12266E+00  1.00003E+01  9.69929E+00  1.11774E+01  8.42436E+00  7.50450E+00  1.04846E+01  1.18637E+01
   9.09337E+00  8.34724E+00  9.85177E+00  7.75014E+00  7.91941E+00  9.53021E+00  6.55413E+00  8.67067E+00  6.95551E+00  7.69099E+00
   8.14064E+00  9.71607E+00  7.75938E+00  1.02049E+01  1.00378E+01  1.10354E+01  1.00762E+01  1.02405E+01  9.57317E+00  8.53462E+00
   9.95441E+00  8.84473E+00  8.13481E+00  6.39506E+00  9.06974E+00  7.83569E+00  9.17342E+00  8.93907E+00  1.03453E+01  9.58506E+00
   7.08486E+00  8.13562E+00  9.64968E+00  1.01209E+01  7.37427E+00  9.77672E+00  8.86850E+00  8.83987E+00  9.58452E+00  7.53087E+00
   9.14130E+00  7.49404E+00  7.62980E+00  9.74083E+00  7.69198E+00  7.14054E+00  1.04784E+01  1.16391E+01  7.19880E+00  8.00497E+00
   9.86632E+00  7.58665E+00  7.21260E+00  9.08167E+00  8.17832E+00  9.29281E+00  9.79542E+00  9.41827E+00
 NY points of the fit to the data follow
  -1.07297E+02 -1.06461E+02 -1.05687E+02 -1.04884E+02 -1.03692E+02 -1.02079E+02 -1.00307E+02 -9.85574E+01 -9.67916E+01 -9.49062E+01
  -9.29304E+01 -9.11095E+01 -8.98219E+01 -8.93288E+01 -8.94459E+01 -8.95464E+01 -8.91160E+01 -8.83516E+01 -8.77154E+01 -8.72086E+01
  -8.64866E+01 -8.55993E+01 -8.46819E+01 -8.35479E+01 -8.20936E+01 -8.04314E+01 -7.86641E+01 -7.68155E+01 -7.48867E+01 -7.30007E+01
  -7.13663E+01 -7.01969E+01 -6.96647E+01 -6.97539E+01 -7.01280E+01 -7.03542E+01 -7.02720E+01 -7.00744E+01 -6.98742E+01 -6.93331E+01
  -6.83179E+01 -6.70326E+01 -6.56627E+01 -6.43331E+01 -6.30889E+01 -6.19663E+01 -6.09645E+01 -6.01218E+01 -5.95355E+01 -5.92188E+01
  -5.90748E+01 -5.89039E+01 -5.84935E+01 -5.78422E+01 -5.71127E+01 -5.63736E+01 -5.55747E+01 -5.47301E+01 -5.39184E+01 -5.31715E+01
  -5.24881E+01 -5.18845E+01 -5.13658E+01 -5.08994E+01 -5.03931E+01 -4.97710E+01 -4.90541E+01 -4.82981E+01 -4.75299E+01 -4.67657E+01
  -4.60135E+01 -4.52865E+01 -4.45992E+01 -4.39595E+01 -4.33761E+01 -4.28371E+01 -4.23123E+01 -4.17906E+01 -4.12704E+01 -4.07411E+01
  -4.01852E+01 -3.96247E+01 -3.90948E+01 -3.85995E+01 -3.81219E+01 -3.76557E+01 -3.72193E+01 -3.68246E+01 -3.64570E+01 -3.60635E+01
  -3.55946E+01 -3.50353E+01 -3.44371E+01 -3.38746E+01 -3.33495E+01 -3.27073E+01 -3.15235E+01 -2.96755E+01 -2.75258E+01 -2.53882E+01
  -2.33461E+01 -2.13721E+01 -1.96136E+01 -1.84304E+01 -1.82251E+01 -1.91614E+01 -2.09527E+01 -2.28144E+01 -2.39709E+01 -2.43776E+01
  -2.46226E+01 -2.50314E+01 -2.51683E+01 -2.49047E+01 -2.45528E+01 -2.41852E+01 -2.38075E+01 -2.34062E+01 -2.29376E+01 -2.21805E+01
  -2.06919E+01 -1.86259E+01 -1.63919E+01 -1.42411E+01 -1.21919E+01 -1.02709E+01 -8.69985E+00 -7.85459E+00 -8.13180E+00 -9.59791E+00
  -1.17334E+01 -1.36289E+01 -1.47419E+01 -1.53712E+01 -1.61272E+01 -1.69581E+01 -1.72935E+01 -1.72391E+01 -1.69093E+01 -1.63367E+01
  -1.56669E+01 -1.50751E+01 -1.46291E+01 -1.43127E+01 -1.41250E+01 -1.40225E+01 -1.39324E+01 -1.38374E+01 -1.37494E+01 -1.36664E+01
  -1.35851E+01 -1.34635E+01 -1.33100E+01 -1.31369E+01 -1.29636E+01 -1.28050E+01 -1.26504E+01 -1.24867E+01 -1.23065E+01 -1.21377E+01
  -1.20165E+01 -1.19231E+01 -1.18096E+01 -1.16512E+01 -1.14606E+01 -1.12841E+01 -1.11783E+01 -1.11522E+01 -1.11569E+01 -1.11414E+01
  -1.11014E+01 -1.10354E+01 -1.09521E+01 -1.08741E+01 -1.08103E+01 -1.07663E+01 -1.07095E+01 -1.05730E+01 -1.03611E+01 -1.01462E+01
  -1.00008E+01 -9.93656E+00 -9.85482E+00 -9.63406E+00 -9.23730E+00 -8.73349E+00 -8.21631E+00 -7.69656E+00 -7.14357E+00 -6.57407E+00
  -6.10312E+00 -5.89367E+00 -5.96841E+00 -6.21413E+00 -6.48980E+00 -6.67526E+00 -6.70766E+00 -6.54201E+00 -6.15728E+00 -5.60947E+00
  -4.98266E+00 -4.40257E+00 -4.01707E+00 -3.94984E+00 -4.14857E+00 -4.48869E+00 -4.92509E+00 -5.46066E+00 -5.94749E+00 -6.15399E+00
  -5.90835E+00 -5.29543E+00 -4.49719E+00 -3.66483E+00 -2.92786E+00 -2.43752E+00 -2.34218E+00 -2.70302E+00 -3.43606E+00 -4.39435E+00
  -5.29675E+00 -5.84431E+00 -5.94822E+00 -5.67283E+00 -5.11469E+00 -4.35068E+00 -3.46597E+00 -2.75340E+00 -2.37688E+00 -2.26990E+00
  -2.20188E+00 -2.03820E+00 -1.84923E+00 -1.65682E+00 -1.40970E+00 -1.16850E+00 -1.08412E+00 -1.22395E+00 -1.52150E+00 -1.85907E+00
  -2.20744E+00 -2.53727E+00 -2.69296E+00 -2.55624E+00 -2.18118E+00 -1.70607E+00 -1.19137E+00 -6.79504E-01 -1.86838E-01  4.52144E-01
   1.27410E+00  2.21606E+00  3.24124E+00  4.78918E+00  7.55463E+00  1.10203E+01  1.42665E+01  1.67699E+01  1.86187E+01  2.00066E+01
   2.08354E+01  2.05943E+01  1.86208E+01  1.48267E+01  1.02882E+01  6.74405E+00  4.81450E+00  3.69569E+00  2.38814E+00  1.16965E+00
   8.39800E-01  8.87678E-01  1.00650E+00  1.16505E+00  1.35150E+00  1.52095E+00  1.65873E+00  1.76906E+00  1.85778E+00  1.94438E+00
   2.04725E+00  2.16144E+00  2.27385E+00  2.38891E+00  2.51478E+00  2.64684E+00  2.77526E+00  2.89880E+00  3.02328E+00  3.15249E+00
   3.28300E+00  3.41393E+00  3.54647E+00  3.67735E+00  3.80230E+00  3.92122E+00  4.03646E+00  4.15219E+00  4.27022E+00  4.38952E+00
   4.51015E+00  4.63459E+00  4.76186E+00  4.88898E+00  5.01362E+00  5.13595E+00  5.25711E+00  5.37711E+00  5.49478E+00  5.61125E+00
   5.72688E+00  5.84162E+00  5.95544E+00  6.06889E+00  6.18233E+00  6.29626E+00  6.41123E+00  6.52849E+00  6.65038E+00  6.78251E+00
   6.93411E+00  7.09036E+00  7.22217E+00  7.32006E+00  7.38837E+00  7.43027E+00  7.43739E+00  7.39918E+00  7.33455E+00  7.29202E+00
   7.30929E+00  7.41027E+00  7.59260E+00  7.82538E+00  8.07451E+00  8.33200E+00  8.60059E+00  8.84418E+00  9.03009E+00  9.18970E+00
   9.39552E+00  9.63353E+00  9.81485E+00  9.88711E+00  9.86981E+00  9.78986E+00  9.61239E+00  9.31299E+00  8.97015E+00  8.68659E+00
   8.54675E+00  8.61565E+00  8.89336E+00  9.28785E+00  9.68861E+00  1.00580E+01  1.03897E+01  1.05764E+01  1.05482E+01  1.03923E+01
   1.02392E+01  1.01379E+01  1.00314E+01  9.87479E+00  9.73539E+00  9.63428E+00  9.54987E+00  9.47418E+00  9.40443E+00  9.33965E+00
   9.27931E+00  9.22323E+00  9.17120E+00  9.12321E+00  9.07920E+00  9.03920E+00  9.00299E+00  8.97040E+00  8.94113E+00  8.91505E+00
   8.89197E+00  8.87177E+00  8.85417E+00  8.83894E+00  8.82584E+00  8.81482E+00  8.80573E+00  8.79852E+00  8.79295E+00  8.78890E+00
   8.78621E+00  8.78488E+00  8.78479E+00  8.78583E+00  8.78774E+00  8.79038E+00  8.79354E+00  8.79716E+00  8.80099E+00  8.80483E+00
   8.80836E+00  8.81141E+00  8.81381E+00  8.81548E+00  8.81624E+00  8.81598E+00  8.81457E+00  8.81209E+00  8.80856E+00  8.80411E+00
   8.79873E+00  8.79255E+00  8.78566E+00  8.77835E+00  8.77081E+00  8.76329E+00  8.75590E+00  8.74884E+00  8.74223E+00  8.73633E+00
   8.73123E+00  8.72705E+00  8.72374E+00  8.72138E+00  8.71994E+00  8.71952E+00  8.72002E+00  8.72143E+00  8.72357E+00  8.72643E+00
   8.72994E+00  8.73410E+00  8.73878E+00  8.74391E+00  8.74932E+00  8.75504E+00  8.76099E+00  8.76717E+00  8.77345E+00  8.77978E+00
   8.78604E+00  8.79230E+00  8.79849E+00  8.80461E+00  8.81052E+00  8.81622E+00  8.82164E+00  8.82682E+00  8.83172E+00  8.83633E+00
   8.84051E+00  8.84429E+00  8.84761E+00  8.85056E+00  8.85308E+00  8.85520E+00  8.85686E+00  8.85813E+00  8.85901E+00  8.85959E+00
   8.85981E+00  8.85971E+00  8.85922E+00  8.85844E+00  8.85738E+00  8.85611E+00  8.85456E+00  8.85275E+00  8.85067E+00  8.84841E+00
   8.84597E+00  8.84340E+00  8.84063E+00  8.83770E+00  8.83461E+00  8.83146E+00  8.82823E+00  8.82495E+00  8.82156E+00  8.81812E+00
   8.81463E+00  8.81119E+00  8.80777E+00  8.80440E+00  8.80101E+00  8.79770E+00  8.79446E+00  8.79139E+00  8.78844E+00  8.78563E+00
   8.78294E+00  8.78046E+00  8.77819E+00  8.77622E+00  8.77448E+00  8.77303E+00  8.77185E+00  8.77106E+00
 NY background values follow
    -1.081E+02   -1.071E+02   -1.061E+02   -1.051E+02   -1.041E+02   -1.031E+02   -1.021E+02   -1.011E+02   -1.001E+02   -9.905E+01
    -9.805E+01   -9.705E+01   -9.605E+01   -9.505E+01   -9.406E+01   -9.307E+01   -9.209E+01   -9.110E+01   -9.012E+01   -8.914E+01
    -8.817E+01   -8.720E+01   -8.624E+01   -8.528E+01   -8.432E+01   -8.337E+01   -8.242E+01   -8.148E+01   -8.054E+01   -7.961E+01
    -7.868E+01   -7.776E+01   -7.684E+01   -7.593E+01   -7.503E+01   -7.413E+01   -7.324E+01   -7.235E+01   -7.147E+01   -7.060E+01
    -6.974E+01   -6.888E+01   -6.803E+01   -6.719E+01   -6.636E+01   -6.553E+01   -6.471E+01   -6.390E+01   -6.310E+01   -6.231E+01
    -6.152E+01   -6.074E+01   -5.997E+01   -5.921E+01   -5.845E+01   -5.771E+01   -5.697E+01   -5.623E+01   -5.551E+01   -5.479E+01
    -5.408E+01   -5.337E+01   -5.268E+01   -5.199E+01   -5.131E+01   -5.063E+01   -4.996E+01   -4.930E+01   -4.865E+01   -4.800E+01
    -4.736E+01   -4.672E+01   -4.609E+01   -4.547E+01   -4.486E+01   -4.425E+01   -4.364E+01   -4.305E+01   -4.246E+01   -4.187E+01
    -4.129E+01   -4.072E+01   -4.015E+01   -3.959E+01   -3.904E+01   -3.849E+01   -3.794E+01   -3.740E+01   -3.687E+01   -3.634E+01
    -3.582E+01   -3.530E+01   -3.479E+01   -3.429E+01   -3.378E+01   -3.329E+01   -3.280E+01   -3.231E+01   -3.183E+01   -3.136E+01
    -3.089E+01   -3.042E+01   -2.996E+01   -2.951E+01   -2.906E+01   -2.862E+01   -2.818E+01   -2.774E+01   -2.731E+01   -2.689E+01
    -2.647E+01   -2.606E+01   -2.565E+01   -2.525E+01   -2.485E+01   -2.446E+01   -2.407E+01   -2.369E+01   -2.331E+01   -2.294E+01
    -2.257E+01   -2.221E+01   -2.185E+01   -2.150E+01   -2.115E+01   -2.081E+01   -2.047E+01   -2.014E+01   -1.981E+01   -1.949E+01
    -1.917E+01   -1.885E+01   -1.855E+01   -1.824E+01   -1.795E+01   -1.765E+01   -1.736E+01   -1.708E+01   -1.680E+01   -1.653E+01
    -1.626E+01   -1.599E+01   -1.573E+01   -1.548E+01   -1.523E+01   -1.498E+01   -1.474E+01   -1.450E+01   -1.426E+01   -1.403E+01
    -1.381E+01   -1.358E+01   -1.337E+01   -1.315E+01   -1.294E+01   -1.273E+01   -1.253E+01   -1.233E+01   -1.213E+01   -1.194E+01
    -1.175E+01   -1.156E+01   -1.138E+01   -1.120E+01   -1.102E+01   -1.084E+01   -1.067E+01   -1.050E+01   -1.034E+01   -1.017E+01
    -1.001E+01   -9.855E+00   -9.699E+00   -9.546E+00   -9.396E+00   -9.247E+00   -9.101E+00   -8.957E+00   -8.816E+00   -8.676E+00
    -8.539E+00   -8.403E+00   -8.269E+00   -8.137E+00   -8.007E+00   -7.879E+00   -7.752E+00   -7.627E+00   -7.503E+00   -7.382E+00
    -7.261E+00   -7.143E+00   -7.025E+00   -6.910E+00   -6.795E+00   -6.682E+00   -6.570E+00   -6.460E+00   -6.351E+00   -6.242E+00
    -6.136E+00   -6.030E+00   -5.925E+00   -5.821E+00   -5.719E+00   -5.617E+00   -5.516E+00   -5.416E+00   -5.317E+00   -5.218E+00
    -5.121E+00   -5.024E+00   -4.928E+00   -4.832E+00   -4.737E+00   -4.643E+00   -4.549E+00   -4.455E+00   -4.362E+00   -4.269E+00
    -4.177E+00   -4.085E+00   -3.993E+00   -3.902E+00   -3.810E+00   -3.719E+00   -3.628E+00   -3.537E+00   -3.446E+00   -3.355E+00
    -3.264E+00   -3.173E+00   -3.082E+00   -2.991E+00   -2.900E+00   -2.808E+00   -2.716E+00   -2.624E+00   -2.532E+00   -2.440E+00
    -2.347E+00   -2.254E+00   -2.161E+00   -2.067E+00   -1.973E+00   -1.878E+00   -1.783E+00   -1.688E+00   -1.592E+00   -1.495E+00
    -1.398E+00   -1.300E+00   -1.202E+00   -1.103E+00   -1.003E+00   -9.024E-01   -8.012E-01   -6.992E-01   -5.964E-01   -4.928E-01
    -3.883E-01   -2.829E-01   -1.766E-01   -6.938E-02    3.882E-02    1.480E-01    2.582E-01    3.695E-01    4.818E-01    5.953E-01
     7.099E-01    8.256E-01    9.426E-01    1.061E+00    1.180E+00    1.300E+00    1.421E+00    1.543E+00    1.665E+00    1.788E+00
     1.912E+00    2.037E+00    2.161E+00    2.287E+00    2.412E+00    2.538E+00    2.664E+00    2.790E+00    2.916E+00    3.042E+00
     3.168E+00    3.293E+00    3.419E+00    3.544E+00    3.668E+00    3.792E+00    3.915E+00    4.038E+00    4.160E+00    4.282E+00
     4.402E+00    4.521E+00    4.640E+00    4.757E+00    4.873E+00    4.988E+00    5.101E+00    5.214E+00    5.324E+00    5.433E+00
     5.541E+00    5.647E+00    5.751E+00    5.853E+00    5.953E+00    6.052E+00    6.148E+00    6.242E+00    6.334E+00    6.424E+00
     6.512E+00    6.597E+00    6.681E+00    6.763E+00    6.842E+00    6.920E+00    6.995E+00    7.069E+00    7.140E+00    7.210E+00
     7.278E+00    7.344E+00    7.408E+00    7.470E+00    7.531E+00    7.589E+00    7.646E+00    7.701E+00    7.754E+00    7.806E+00
     7.856E+00    7.904E+00    7.950E+00    7.995E+00    8.038E+00    8.079E+00    8.119E+00    8.158E+00    8.194E+00    8.230E+00
     8.263E+00    8.296E+00    8.326E+00    8.356E+00    8.383E+00    8.410E+00    8.435E+00    8.458E+00    8.481E+00    8.501E+00
     8.521E+00    8.539E+00    8.556E+00    8.572E+00    8.586E+00    8.600E+00    8.612E+00    8.623E+00    8.633E+00    8.642E+00
     8.650E+00    8.657E+00    8.663E+00    8.668E+00    8.673E+00    8.677E+00    8.680E+00    8.682E+00    8.684E+00    8.685E+00
     8.686E+00    8.686E+00    8.686E+00    8.685E+00    8.684E+00    8.682E+00    8.681E+00    8.678E+00    8.676E+00    8.674E+00
     8.671E+00    8.669E+00    8.666E+00    8.663E+00    8.660E+00    8.658E+00    8.655E+00    8.653E+00    8.651E+00    8.649E+00
     8.647E+00    8.646E+00    8.645E+00    8.644E+00    8.644E+00    8.644E+00    8.645E+00    8.647E+00    8.649E+00    8.651E+00
     8.655E+00    8.658E+00    8.662E+00    8.667E+00    8.672E+00    8.677E+00    8.683E+00    8.690E+00    8.696E+00    8.703E+00
     8.710E+00    8.718E+00    8.725E+00    8.733E+00    8.741E+00    8.750E+00    8.758E+00    8.767E+00    8.775E+00    8.784E+00
     8.793E+00    8.802E+00    8.810E+00    8.819E+00    8.828E+00    8.837E+00    8.845E+00    8.854E+00    8.862E+00    8.870E+00
     8.878E+00    8.886E+00    8.893E+00    8.901E+00    8.908E+00    8.914E+00    8.921E+00    8.927E+00    8.932E+00    8.937E+00
     8.942E+00    8.947E+00    8.950E+00    8.954E+00    8.957E+00    8.959E+00    8.961E+00    8.963E+00    8.964E+00    8.964E+00
     8.965E+00    8.965E+00    8.964E+00    8.964E+00    8.963E+00    8.961E+00    8.960E+00    8.958E+00    8.956E+00    8.953E+00
     8.951E+00    8.948E+00    8.945E+00    8.942E+00    8.939E+00    8.935E+00    8.932E+00    8.928E+00    8.925E+00    8.921E+00
     8.917E+00    8.913E+00    8.909E+00    8.905E+00    8.901E+00    8.897E+00    8.894E+00    8.890E+00    8.886E+00    8.882E+00
     8.879E+00    8.875E+00    8.872E+00    8.869E+00    8.866E+00    8.863E+00    8.861E+00    8.858E+00
 Ala      Conc. = 3.98E+01
