 LCModel (Version 6.3-1L) Copyright: S.W. Provencher.          Ref.: Magn. Reson. Med. 30:672-679 (1993).                
 Slice#3 Row#3 Col#4  K_02_press_1_raw_act
 36 lines in following concentration table = NCONC+1
    Conc.  %SD /Cr+PCr  Metabolite                                         
    0.000 999%   0.000 Ala                                                 
   83.723 157% 9.4E-02 Asp                                                 
    0.000 999%   0.000 Cr                                                  
  886.240   9%   1.000 PCr                                                 
   49.805 164% 5.6E-02 GABA                                                
   33.816 242% 3.8E-02 Glc                                                 
  649.591  40%   0.733 Gln                                                 
  878.352  32%   0.991 Glu                                                 
  221.095  12%   0.249 GPC                                                 
    0.000 999%   0.000 PCh                                                 
  322.940  25%   0.364 GSH                                                 
  984.089  29%   1.110 Ins                                                 
    0.000 999%   0.000 Lac                                                 
 1.27E+03   8%   1.437 NAA                                                 
    0.000 999%   0.000 NAAG                                                
   19.485 110% 2.2E-02 Scyllo                                              
   41.719 308% 4.7E-02 Tau                                                 
    0.000 999%   0.000 -CrCH2                                              
  221.095  12%   0.249 GPC+PCh                                             
 1.27E+03   8%   1.437 NAA+NAAG                                            
  886.240   9%   1.000 Cr+PCr                                              
 1.53E+03  26%   1.724 Glu+Gln                                             
 4.60E+04   7%  51.854 Lip13a                                              
    0.000 999%   0.000 Lip13b                                              
 1.68E+03  35%   1.890-Lip09                                               
    0.000 999%   0.000 MM09                                                
 4.50E+03  17%   5.076 Lip20                                               
    0.000 999%   0.000 MM20                                                
    0.000 999%   0.000 MM12                                                
 4.53E+03  10%   5.107 MM14                                                
 1.59E+03  34%   1.800 MM17                                                
 4.60E+04   7%  51.854 Lip13a+Lip13b                                       
 5.05E+04   6%  56.960 MM14+Lip13a+Lip13b+MM12                             
 1.68E+03  35%   1.890 MM09+Lip09                                          
 4.50E+03  17%   5.076 MM20+Lip20                                          
   6 lines in following misc. output table
  FWHM = 0.061 ppm    S/N =  19                                            
  Data shift = 0.031 ppm                                                   
  Ph:  32 deg     -17.7 deg/ppm                                            
  alphaB,S = 1.5E+00,   2.9E+01                                            
   11 spline knots.   Ns = 9(2)                                            
  ( 7) 6 infls.   (10) 4 extrs.                                            
  498 points on ppm-axis = NY
      4.000000     3.992357     3.984714     3.977070     3.969427     3.961784     3.954141     3.946497     3.938854     3.931211
      3.923568     3.915925     3.908281     3.900638     3.892995     3.885352     3.877708     3.870065     3.862422     3.854779
      3.847136     3.839492     3.831849     3.824206     3.816563     3.808919     3.801276     3.793633     3.785990     3.778347
      3.770703     3.763060     3.755417     3.747774     3.740130     3.732487     3.724844     3.717201     3.709558     3.701914
      3.694271     3.686628     3.678985     3.671341     3.663698     3.656055     3.648412     3.640769     3.633125     3.625482
      3.617839     3.610196     3.602552     3.594909     3.587266     3.579623     3.571980     3.564336     3.556693     3.549050
      3.541407     3.533763     3.526120     3.518477     3.510834     3.503191     3.495547     3.487904     3.480261     3.472618
      3.464974     3.457331     3.449688     3.442045     3.434402     3.426758     3.419115     3.411472     3.403829     3.396185
      3.388542     3.380899     3.373256     3.365613     3.357969     3.350326     3.342683     3.335040     3.327396     3.319753
      3.312110     3.304467     3.296824     3.289180     3.281537     3.273894     3.266251     3.258607     3.250964     3.243321
      3.235678     3.228034     3.220391     3.212748     3.205105     3.197462     3.189818     3.182175     3.174532     3.166889
      3.159245     3.151602     3.143959     3.136316     3.128673     3.121029     3.113386     3.105743     3.098100     3.090456
      3.082813     3.075170     3.067527     3.059884     3.052240     3.044597     3.036954     3.029311     3.021667     3.014024
      3.006381     2.998738     2.991095     2.983451     2.975808     2.968165     2.960522     2.952878     2.945235     2.937592
      2.929949     2.922306     2.914662     2.907019     2.899376     2.891733     2.884089     2.876446     2.868803     2.861160
      2.853517     2.845873     2.838230     2.830587     2.822944     2.815300     2.807657     2.800014     2.792371     2.784728
      2.777084     2.769441     2.761798     2.754155     2.746511     2.738868     2.731225     2.723582     2.715939     2.708295
      2.700652     2.693009     2.685366     2.677722     2.670079     2.662436     2.654793     2.647150     2.639506     2.631863
      2.624220     2.616577     2.608933     2.601290     2.593647     2.586004     2.578361     2.570717     2.563074     2.555431
      2.547788     2.540144     2.532501     2.524858     2.517215     2.509572     2.501928     2.494285     2.486642     2.478999
      2.471355     2.463712     2.456069     2.448426     2.440783     2.433139     2.425496     2.417853     2.410210     2.402566
      2.394923     2.387280     2.379637     2.371994     2.364350     2.356707     2.349064     2.341421     2.333777     2.326134
      2.318491     2.310848     2.303205     2.295561     2.287918     2.280275     2.272632     2.264988     2.257345     2.249702
      2.242059     2.234416     2.226772     2.219129     2.211486     2.203843     2.196199     2.188556     2.180913     2.173270
      2.165627     2.157983     2.150340     2.142697     2.135054     2.127410     2.119767     2.112124     2.104481     2.096838
      2.089194     2.081551     2.073908     2.066265     2.058621     2.050978     2.043335     2.035692     2.028049     2.020405
      2.012762     2.005119     1.997476     1.989833     1.982190     1.974546     1.966903     1.959260     1.951617     1.943974
      1.936331     1.928688     1.921045     1.913402     1.905759     1.898115     1.890472     1.882829     1.875186     1.867543
      1.859900     1.852257     1.844614     1.836971     1.829327     1.821684     1.814041     1.806398     1.798755     1.791112
      1.783469     1.775826     1.768183     1.760540     1.752896     1.745253     1.737610     1.729967     1.722324     1.714681
      1.707038     1.699395     1.691752     1.684108     1.676465     1.668822     1.661179     1.653536     1.645893     1.638250
      1.630607     1.622964     1.615321     1.607677     1.600034     1.592391     1.584748     1.577105     1.569462     1.561819
      1.554176     1.546533     1.538890     1.531246     1.523603     1.515960     1.508317     1.500674     1.493031     1.485388
      1.477745     1.470102     1.462458     1.454815     1.447172     1.439529     1.431886     1.424243     1.416600     1.408957
      1.401314     1.393671     1.386027     1.378384     1.370741     1.363098     1.355455     1.347812     1.340169     1.332526
      1.324883     1.317240     1.309596     1.301953     1.294310     1.286667     1.279024     1.271381     1.263738     1.256095
      1.248452     1.240808     1.233165     1.225522     1.217879     1.210236     1.202593     1.194950     1.187307     1.179664
      1.172021     1.164377     1.156734     1.149091     1.141448     1.133805     1.126162     1.118519     1.110876     1.103233
      1.095590     1.087946     1.080303     1.072660     1.065017     1.057374     1.049731     1.042088     1.034445     1.026802
      1.019158     1.011515     1.003872     0.996229     0.988586     0.980943     0.973300     0.965657     0.958014     0.950371
      0.942727     0.935084     0.927441     0.919798     0.912155     0.904512     0.896869     0.889226     0.881583     0.873940
      0.866296     0.858653     0.851010     0.843367     0.835724     0.828081     0.820438     0.812795     0.805152     0.797508
      0.789865     0.782222     0.774579     0.766936     0.759293     0.751650     0.744007     0.736364     0.728721     0.721077
      0.713434     0.705791     0.698148     0.690505     0.682862     0.675219     0.667576     0.659933     0.652290     0.644646
      0.637003     0.629360     0.621717     0.614074     0.606431     0.598788     0.591145     0.583502     0.575858     0.568215
      0.560572     0.552929     0.545286     0.537643     0.530000     0.522357     0.514714     0.507071     0.499427     0.491784
      0.484141     0.476498     0.468855     0.461212     0.453569     0.445925     0.438282     0.430639     0.422996     0.415353
      0.407710     0.400067     0.392424     0.384780     0.377137     0.369494     0.361851     0.354208     0.346565     0.338922
      0.331278     0.323635     0.315992     0.308349     0.300706     0.293063     0.285420     0.277777     0.270133     0.262490
      0.254847     0.247204     0.239561     0.231918     0.224275     0.216631     0.208988     0.201345
 NY phased data points follow
   5.29909E+00  7.79625E+00  5.97144E+00  6.69951E+00  1.49092E+01  1.20488E+01  1.70606E+01  1.78540E+01  2.76984E+01  2.15720E+01
   2.18402E+01  2.42219E+01  2.12254E+01  1.73121E+01  1.40511E+01  1.57790E+01  1.25048E+01  9.92237E+00  1.36162E+01  1.34901E+01
   1.44901E+01  1.19656E+01  1.38488E+01  6.98623E+00  6.92430E+00  6.88256E+00  9.63377E+00  1.02538E+01  1.44028E+01  1.42736E+01
   9.55032E+00  1.32271E+01  1.49269E+01  1.28409E+01  8.47685E+00  5.73939E+00  7.98905E+00  1.06175E+01  9.52086E+00  8.11669E+00
   1.32772E+01  7.56478E+00  6.44737E+00  1.08243E+01  1.12190E+01  1.34686E+01  1.49986E+01  1.31427E+01  1.34615E+01  1.11136E+01
   6.62881E+00  1.14746E+01  1.09802E+01  6.68269E+00  8.90947E+00  9.92190E+00  8.60659E+00  8.01739E+00  1.17058E+01  1.10910E+01
   9.10967E+00  7.31375E+00  7.18546E+00  5.13932E+00  7.11829E+00  6.30439E+00  8.61571E+00 -1.92184E-01  9.01849E+00  5.14362E+00
   7.78503E+00  1.27805E+00  5.67992E+00  6.18890E+00  6.01948E+00  7.74192E+00  2.52444E+00  5.61508E+00  6.56194E+00  3.07304E+00
   2.41017E+00  5.84007E+00  3.59143E+00  5.46943E+00  2.76055E+00  8.80334E-01  5.70668E+00  1.78894E+00  9.67600E+00  2.71451E+00
  -1.48403E+00  5.23082E-01  3.03919E+00  5.37998E+00  8.88927E+00  2.47717E+00  7.51590E-01  8.65564E+00  9.39443E+00  1.21855E+01
   1.32007E+01  1.82624E+01  1.98294E+01  1.91225E+01  1.64629E+01  2.08972E+01  1.53461E+01  1.43322E+01  1.22289E+01  9.77389E+00
   8.36051E+00  1.00286E+01  5.67943E+00  1.25781E+01  4.48678E+00  8.03397E+00  1.05190E+01  8.14875E+00  1.08071E+01  3.69680E+00
   6.30849E+00  6.87218E+00  7.93732E+00  8.44420E+00  2.01054E+01  2.73957E+01  3.22303E+01  2.88872E+01  3.05176E+01  2.42424E+01
   2.65583E+01  2.17853E+01  2.12242E+01  2.01123E+01  1.37367E+01  1.48438E+01  1.25424E+01  1.57434E+01  1.81513E+01  1.16194E+01
   1.13368E+01  1.56108E+01  1.20143E+01  1.59428E+01  1.32812E+01  1.69228E+01  1.34084E+01  1.68240E+01  1.39871E+01  1.50098E+01
   1.66584E+01  1.25404E+01  1.27665E+01  1.69191E+01  1.41848E+01  1.37430E+01  1.52997E+01  1.86328E+01  1.44880E+01  1.33068E+01
   1.53995E+01  1.32555E+01  1.02498E+01  1.29759E+01  1.55081E+01  1.04677E+01  1.49568E+01  1.37346E+01  1.28078E+01  1.23585E+01
   1.33156E+01  1.58700E+01  1.28656E+01  1.03311E+01  1.04962E+01  1.32405E+01  1.24082E+01  1.18934E+01  1.54000E+01  1.27966E+01
   1.01518E+01  8.01488E+00  8.73570E+00  1.07468E+01  9.93867E+00  9.82057E+00  8.91474E+00  1.03987E+01  1.08954E+01  1.26735E+01
   1.80119E+01  1.51588E+01  1.53150E+01  1.52637E+01  1.90447E+01  1.78904E+01  1.49057E+01  1.24164E+01  1.41357E+01  1.63921E+01
   1.80979E+01  1.63452E+01  2.17129E+01  1.97322E+01  2.07364E+01  1.83420E+01  1.62649E+01  1.98775E+01  1.52777E+01  2.02816E+01
   1.99875E+01  1.85275E+01  2.22715E+01  2.05242E+01  2.54126E+01  2.84681E+01  3.13165E+01  2.77414E+01  2.75285E+01  2.67245E+01
   2.47426E+01  2.61593E+01  2.28796E+01  2.68041E+01  2.64154E+01  3.07167E+01  3.19741E+01  3.16788E+01  2.71398E+01  3.14442E+01
   3.39453E+01  3.77263E+01  3.68764E+01  3.13486E+01  3.62468E+01  3.70378E+01  3.73195E+01  3.44211E+01  3.40355E+01  3.69044E+01
   3.62168E+01  3.21739E+01  3.35269E+01  3.20962E+01  3.43386E+01  3.54868E+01  3.45389E+01  3.51885E+01  3.34594E+01  3.63729E+01
   3.74301E+01  3.79007E+01  3.79394E+01  3.95299E+01  3.95515E+01  3.89758E+01  4.44416E+01  4.99882E+01  6.52514E+01  7.78769E+01
   7.96039E+01  7.35800E+01  7.44887E+01  6.94030E+01  6.29803E+01  5.93031E+01  5.41942E+01  5.19951E+01  5.07512E+01  5.02362E+01
   4.78533E+01  5.02553E+01  5.09836E+01  5.06044E+01  4.67271E+01  4.54162E+01  4.61651E+01  4.64955E+01  4.69255E+01  4.33625E+01
   4.31588E+01  4.34982E+01  4.32554E+01  4.75385E+01  4.52419E+01  4.68888E+01  4.56867E+01  4.02477E+01  4.42740E+01  4.52248E+01
   5.04409E+01  4.54391E+01  4.37886E+01  4.49236E+01  4.39287E+01  4.94083E+01  4.77517E+01  4.96572E+01  4.86023E+01  4.81960E+01
   5.30820E+01  5.19848E+01  4.87264E+01  5.09272E+01  5.47105E+01  5.56680E+01  5.61155E+01  5.78941E+01  5.91032E+01  5.88339E+01
   5.99605E+01  6.55129E+01  6.60536E+01  6.84007E+01  7.01585E+01  6.66243E+01  6.83088E+01  7.10522E+01  7.58148E+01  7.63244E+01
   7.48878E+01  7.72762E+01  8.42655E+01  8.26206E+01  8.23306E+01  8.57653E+01  8.66938E+01  9.02868E+01  9.89306E+01  9.90345E+01
   1.00221E+02  1.04965E+02  1.03203E+02  1.06064E+02  1.08051E+02  1.10865E+02  1.12325E+02  1.13113E+02  1.17433E+02  1.18271E+02
   1.20797E+02  1.30450E+02  1.33019E+02  1.36429E+02  1.43581E+02  1.48664E+02  1.51972E+02  1.53381E+02  1.53696E+02  1.58586E+02
   1.57734E+02  1.55860E+02  1.54598E+02  1.50556E+02  1.47548E+02  1.43113E+02  1.42879E+02  1.39240E+02  1.36006E+02  1.30629E+02
   1.29528E+02  1.30044E+02  1.25677E+02  1.17750E+02  1.20508E+02  1.17937E+02  1.18032E+02  1.16653E+02  1.13999E+02  1.12563E+02
   1.12412E+02  1.07316E+02  1.05872E+02  1.05451E+02  1.06044E+02  1.01744E+02  9.65103E+01  9.27288E+01  9.48198E+01  9.30199E+01
   8.69454E+01  8.78032E+01  8.59284E+01  8.35080E+01  8.21928E+01  7.95652E+01  7.74335E+01  7.94576E+01  8.02727E+01  7.72000E+01
   7.09791E+01  7.45900E+01  7.22641E+01  7.05782E+01  6.90091E+01  6.83016E+01  7.12668E+01  6.45944E+01  5.96056E+01  6.46262E+01
   6.51762E+01  6.43979E+01  5.94763E+01  6.06421E+01  5.70675E+01  5.82007E+01  5.69181E+01  5.17125E+01  5.25483E+01  5.25035E+01
   5.26775E+01  5.68522E+01  5.30103E+01  5.35603E+01  4.64710E+01  5.04110E+01  4.99616E+01  5.34616E+01  4.78341E+01  5.05543E+01
   4.98202E+01  4.69628E+01  4.71545E+01  4.60218E+01  3.91718E+01  4.49720E+01  4.45598E+01  4.22141E+01  4.41616E+01  4.29186E+01
   3.84863E+01  3.99942E+01  4.22147E+01  3.58610E+01  3.57260E+01  3.98512E+01  3.55700E+01  3.63415E+01  3.78830E+01  3.77199E+01
   3.44028E+01  3.47755E+01  3.58088E+01  2.99606E+01  3.44066E+01  3.09709E+01  3.21842E+01  3.90668E+01  3.31315E+01  3.27539E+01
   3.11902E+01  3.09297E+01  3.44378E+01  3.23981E+01  3.11893E+01  3.26358E+01  3.18684E+01  3.04621E+01  3.27927E+01  3.38066E+01
   2.78498E+01  3.31506E+01  2.81520E+01  2.92594E+01  3.10679E+01  3.16161E+01  2.86816E+01  2.74137E+01  2.86009E+01  3.03387E+01
   2.70436E+01  2.46637E+01  2.74753E+01  2.73857E+01  2.75579E+01  2.48314E+01  2.66080E+01  2.32802E+01  2.70348E+01  2.43492E+01
   2.56018E+01  2.56097E+01  2.63402E+01  3.01113E+01  2.58110E+01  2.46226E+01  2.63594E+01  2.19653E+01  2.39391E+01  2.60181E+01
   2.45898E+01  2.46327E+01  2.76464E+01  2.45476E+01  2.47785E+01  2.04751E+01  2.10582E+01  2.37775E+01
 NY points of the fit to the data follow
   8.39434E+00  7.85448E+00  7.67159E+00  8.50077E+00  9.34680E+00  1.26394E+01  1.53559E+01  1.97823E+01  2.31939E+01  2.27328E+01
   2.43352E+01  2.09921E+01  2.09089E+01  1.67366E+01  1.63505E+01  1.35422E+01  1.30798E+01  1.17044E+01  1.17883E+01  1.15592E+01
   1.20610E+01  1.13183E+01  1.09639E+01  9.90210E+00  9.13026E+00  8.93274E+00  9.23336E+00  1.00931E+01  1.21701E+01  1.26214E+01
   1.36908E+01  1.41608E+01  1.40227E+01  1.32963E+01  1.16651E+01  1.05015E+01  9.14690E+00  8.44837E+00  7.87767E+00  7.66223E+00
   7.80680E+00  8.14401E+00  8.50857E+00  9.44611E+00  1.04101E+01  1.17698E+01  1.27617E+01  1.28867E+01  1.26584E+01  1.15411E+01
   1.03132E+01  8.78317E+00  7.80038E+00  6.91956E+00  6.50136E+00  6.55006E+00  6.86834E+00  7.59022E+00  8.18391E+00  8.38829E+00
   8.48645E+00  7.84692E+00  7.55283E+00  6.74782E+00  6.46075E+00  6.05870E+00  5.87589E+00  5.70639E+00  5.74870E+00  5.98717E+00
   6.62934E+00  6.68717E+00  7.06956E+00  6.83196E+00  6.95033E+00  6.63855E+00  6.57651E+00  6.32252E+00  6.20453E+00  6.02357E+00
   5.99319E+00  5.91338E+00  6.01632E+00  5.71320E+00  5.46264E+00  4.21236E+00  4.27462E+00  3.41757E+00  3.40742E+00  2.63369E+00
   3.07061E+00  2.72333E+00  3.66338E+00  3.71211E+00  4.05032E+00  3.46052E+00  4.27328E+00  4.69431E+00  7.03151E+00  1.06434E+01
   1.34486E+01  2.00728E+01  1.83650E+01  2.23525E+01  1.81005E+01  1.94654E+01  1.48346E+01  1.46021E+01  1.12450E+01  1.02921E+01
   8.41362E+00  9.03489E+00  8.24667E+00  8.97489E+00  7.67579E+00  8.03046E+00  6.77954E+00  7.43626E+00  6.64463E+00  6.46277E+00
   5.96784E+00  7.31476E+00  8.04349E+00  1.29441E+01  1.66238E+01  2.50840E+01  2.80722E+01  2.99522E+01  3.03247E+01  2.79563E+01
   2.69150E+01  2.27961E+01  2.14394E+01  1.80566E+01  1.69092E+01  1.52598E+01  1.50295E+01  1.51601E+01  1.57567E+01  1.52997E+01
   1.60812E+01  1.51496E+01  1.58779E+01  1.54378E+01  1.59285E+01  1.51619E+01  1.49904E+01  1.32865E+01  1.31398E+01  1.31225E+01
   1.33849E+01  1.33954E+01  1.37195E+01  1.37395E+01  1.39982E+01  1.41204E+01  1.43096E+01  1.41811E+01  1.43318E+01  1.39228E+01
   1.40743E+01  1.39842E+01  1.41567E+01  1.44170E+01  1.42233E+01  1.43394E+01  1.39748E+01  1.40155E+01  1.37216E+01  1.36113E+01
   1.32144E+01  1.29236E+01  1.25096E+01  1.23258E+01  1.19904E+01  1.19396E+01  1.20021E+01  1.17156E+01  1.19690E+01  1.15295E+01
   1.19868E+01  1.16846E+01  1.19170E+01  1.14703E+01  1.16852E+01  1.14621E+01  1.22241E+01  1.26583E+01  1.37505E+01  1.44038E+01
   1.52953E+01  1.56205E+01  1.57744E+01  1.57514E+01  1.51857E+01  1.55304E+01  1.48217E+01  1.57171E+01  1.57559E+01  1.74632E+01
   1.83862E+01  2.01824E+01  2.11756E+01  2.18595E+01  2.19347E+01  2.14809E+01  2.02071E+01  1.95423E+01  1.75789E+01  1.84135E+01
   1.79287E+01  1.96817E+01  2.11651E+01  2.32877E+01  2.58536E+01  2.66937E+01  2.76687E+01  2.71762E+01  2.66523E+01  2.53320E+01
   2.41064E+01  2.37534E+01  2.40437E+01  2.52141E+01  2.64261E+01  2.81174E+01  2.93701E+01  3.06584E+01  3.11899E+01  3.16469E+01
   3.16190E+01  3.17634E+01  3.16607E+01  3.21850E+01  3.24657E+01  3.38637E+01  3.42924E+01  3.55301E+01  3.54886E+01  3.59389E+01
   3.53832E+01  3.48709E+01  3.37774E+01  3.34064E+01  3.44756E+01  3.45022E+01  3.51949E+01  3.52974E+01  3.61618E+01  3.65839E+01
   3.80952E+01  3.86749E+01  3.83493E+01  3.87746E+01  4.05686E+01  4.29892E+01  5.04747E+01  5.59536E+01  6.73595E+01  7.32077E+01
   7.43705E+01  7.63785E+01  7.10979E+01  7.04720E+01  6.26917E+01  6.10550E+01  5.52586E+01  5.41786E+01  5.11326E+01  5.10990E+01
   5.04641E+01  5.09272E+01  4.93271E+01  4.93051E+01  4.73145E+01  4.71789E+01  4.61965E+01  4.61961E+01  4.51301E+01  4.46841E+01
   4.21940E+01  4.16061E+01  4.16066E+01  4.17723E+01  4.19819E+01  4.22859E+01  4.26144E+01  4.29549E+01  4.33318E+01  4.37294E+01
   4.41599E+01  4.46066E+01  4.50939E+01  4.55914E+01  4.61206E+01  4.66918E+01  4.73029E+01  4.79592E+01  4.86667E+01  4.94247E+01
   5.02419E+01  5.11201E+01  5.20559E+01  5.30589E+01  5.41285E+01  5.52685E+01  5.64789E+01  5.77617E+01  5.91143E+01  6.05318E+01
   6.20077E+01  6.35368E+01  6.51067E+01  6.67086E+01  6.83304E+01  6.99605E+01  7.15889E+01  7.32064E+01  7.48074E+01  7.63891E+01
   7.79535E+01  7.95064E+01  8.10592E+01  8.26274E+01  8.42321E+01  8.58970E+01  8.76491E+01  8.95166E+01  9.15277E+01  9.37082E+01
   9.60808E+01  9.86625E+01  1.01463E+02  1.04484E+02  1.07717E+02  1.11143E+02  1.14732E+02  1.18444E+02  1.22230E+02  1.26032E+02
   1.29784E+02  1.33420E+02  1.36868E+02  1.40061E+02  1.42936E+02  1.45435E+02  1.47512E+02  1.49132E+02  1.50272E+02  1.50924E+02
   1.51093E+02  1.50795E+02  1.50061E+02  1.48927E+02  1.47439E+02  1.45647E+02  1.43603E+02  1.41358E+02  1.38961E+02  1.36458E+02
   1.33889E+02  1.31287E+02  1.28679E+02  1.26088E+02  1.23528E+02  1.21009E+02  1.18537E+02  1.16115E+02  1.13743E+02  1.11420E+02
   1.09143E+02  1.06910E+02  1.04719E+02  1.02569E+02  1.00458E+02  9.83872E+01  9.63574E+01  9.43700E+01  9.24275E+01  9.05322E+01
   8.86870E+01  8.68945E+01  8.51575E+01  8.34782E+01  8.18585E+01  8.02998E+01  7.88030E+01  7.73681E+01  7.59949E+01  7.46822E+01
   7.34282E+01  7.22305E+01  7.10861E+01  6.99917E+01  6.89430E+01  6.79359E+01  6.69656E+01  6.60273E+01  6.51160E+01  6.42271E+01
   6.33556E+01  6.24974E+01  6.16482E+01  6.08046E+01  5.99637E+01  5.91231E+01  5.82811E+01  5.74367E+01  5.65897E+01  5.57402E+01
   5.48892E+01  5.40379E+01  5.31881E+01  5.23420E+01  5.15016E+01  5.06695E+01  4.98479E+01  4.90392E+01  4.82456E+01  4.74689E+01
   4.67109E+01  4.59731E+01  4.52564E+01  4.45619E+01  4.38900E+01  4.32409E+01  4.26148E+01  4.20114E+01  4.14304E+01  4.08711E+01
   4.03329E+01  3.98151E+01  3.93169E+01  3.88373E+01  3.83754E+01  3.79304E+01  3.75014E+01  3.70874E+01  3.66876E+01  3.63012E+01
   3.59275E+01  3.55655E+01  3.52148E+01  3.48745E+01  3.45442E+01  3.42231E+01  3.39108E+01  3.36067E+01  3.33105E+01  3.30215E+01
   3.27396E+01  3.24641E+01  3.21949E+01  3.19316E+01  3.16738E+01  3.14213E+01  3.11738E+01  3.09312E+01  3.06930E+01  3.04592E+01
   3.02294E+01  3.00036E+01  2.97816E+01  2.95631E+01  2.93481E+01  2.91363E+01  2.89277E+01  2.87221E+01  2.85193E+01  2.83194E+01
   2.81220E+01  2.79273E+01  2.77350E+01  2.75451E+01  2.73574E+01  2.71720E+01  2.69887E+01  2.68074E+01  2.66282E+01  2.64508E+01
   2.62753E+01  2.61017E+01  2.59297E+01  2.57595E+01  2.55909E+01  2.54239E+01  2.52584E+01  2.50945E+01  2.49320E+01  2.47710E+01
   2.46114E+01  2.44532E+01  2.42962E+01  2.41406E+01  2.39863E+01  2.38332E+01  2.36813E+01  2.35306E+01
 NY background values follow
     3.877E+00    3.839E+00    3.801E+00    3.762E+00    3.723E+00    3.684E+00    3.645E+00    3.605E+00    3.566E+00    3.526E+00
     3.486E+00    3.446E+00    3.406E+00    3.366E+00    3.325E+00    3.285E+00    3.244E+00    3.204E+00    3.163E+00    3.123E+00
     3.083E+00    3.042E+00    3.002E+00    2.961E+00    2.921E+00    2.881E+00    2.841E+00    2.801E+00    2.761E+00    2.722E+00
     2.682E+00    2.643E+00    2.604E+00    2.565E+00    2.527E+00    2.489E+00    2.451E+00    2.413E+00    2.376E+00    2.338E+00
     2.302E+00    2.265E+00    2.229E+00    2.194E+00    2.159E+00    2.124E+00    2.089E+00    2.055E+00    2.022E+00    1.989E+00
     1.957E+00    1.925E+00    1.893E+00    1.862E+00    1.832E+00    1.802E+00    1.773E+00    1.745E+00    1.717E+00    1.689E+00
     1.663E+00    1.637E+00    1.612E+00    1.587E+00    1.563E+00    1.540E+00    1.518E+00    1.496E+00    1.475E+00    1.456E+00
     1.436E+00    1.418E+00    1.401E+00    1.384E+00    1.368E+00    1.354E+00    1.340E+00    1.327E+00    1.315E+00    1.304E+00
     1.294E+00    1.285E+00    1.276E+00    1.269E+00    1.263E+00    1.259E+00    1.255E+00    1.252E+00    1.250E+00    1.250E+00
     1.251E+00    1.252E+00    1.255E+00    1.259E+00    1.265E+00    1.271E+00    1.279E+00    1.288E+00    1.299E+00    1.310E+00
     1.323E+00    1.338E+00    1.353E+00    1.370E+00    1.388E+00    1.408E+00    1.429E+00    1.452E+00    1.476E+00    1.501E+00
     1.528E+00    1.556E+00    1.586E+00    1.618E+00    1.651E+00    1.685E+00    1.721E+00    1.759E+00    1.798E+00    1.839E+00
     1.881E+00    1.925E+00    1.971E+00    2.018E+00    2.067E+00    2.118E+00    2.171E+00    2.225E+00    2.281E+00    2.338E+00
     2.398E+00    2.459E+00    2.521E+00    2.586E+00    2.652E+00    2.720E+00    2.789E+00    2.860E+00    2.933E+00    3.008E+00
     3.084E+00    3.162E+00    3.242E+00    3.323E+00    3.406E+00    3.490E+00    3.577E+00    3.665E+00    3.754E+00    3.846E+00
     3.938E+00    4.033E+00    4.129E+00    4.227E+00    4.327E+00    4.428E+00    4.531E+00    4.635E+00    4.741E+00    4.849E+00
     4.959E+00    5.070E+00    5.182E+00    5.297E+00    5.412E+00    5.530E+00    5.649E+00    5.770E+00    5.893E+00    6.017E+00
     6.142E+00    6.270E+00    6.398E+00    6.529E+00    6.661E+00    6.795E+00    6.930E+00    7.067E+00    7.206E+00    7.346E+00
     7.487E+00    7.631E+00    7.776E+00    7.922E+00    8.070E+00    8.220E+00    8.371E+00    8.524E+00    8.679E+00    8.834E+00
     8.992E+00    9.151E+00    9.311E+00    9.472E+00    9.635E+00    9.800E+00    9.965E+00    1.013E+01    1.030E+01    1.047E+01
     1.064E+01    1.081E+01    1.098E+01    1.115E+01    1.133E+01    1.150E+01    1.168E+01    1.185E+01    1.203E+01    1.221E+01
     1.239E+01    1.257E+01    1.275E+01    1.293E+01    1.311E+01    1.329E+01    1.347E+01    1.365E+01    1.383E+01    1.402E+01
     1.420E+01    1.438E+01    1.457E+01    1.475E+01    1.493E+01    1.512E+01    1.530E+01    1.548E+01    1.567E+01    1.585E+01
     1.604E+01    1.622E+01    1.640E+01    1.658E+01    1.677E+01    1.695E+01    1.713E+01    1.731E+01    1.749E+01    1.767E+01
     1.785E+01    1.803E+01    1.821E+01    1.839E+01    1.857E+01    1.874E+01    1.892E+01    1.909E+01    1.927E+01    1.944E+01
     1.961E+01    1.979E+01    1.996E+01    2.013E+01    2.029E+01    2.046E+01    2.063E+01    2.079E+01    2.096E+01    2.112E+01
     2.128E+01    2.144E+01    2.160E+01    2.176E+01    2.192E+01    2.208E+01    2.223E+01    2.239E+01    2.254E+01    2.269E+01
     2.284E+01    2.299E+01    2.314E+01    2.328E+01    2.343E+01    2.357E+01    2.372E+01    2.386E+01    2.400E+01    2.414E+01
     2.427E+01    2.441E+01    2.454E+01    2.468E+01    2.481E+01    2.494E+01    2.507E+01    2.519E+01    2.532E+01    2.544E+01
     2.556E+01    2.568E+01    2.580E+01    2.592E+01    2.604E+01    2.615E+01    2.626E+01    2.637E+01    2.648E+01    2.659E+01
     2.669E+01    2.680E+01    2.690E+01    2.700E+01    2.710E+01    2.719E+01    2.729E+01    2.738E+01    2.747E+01    2.756E+01
     2.765E+01    2.774E+01    2.782E+01    2.790E+01    2.798E+01    2.806E+01    2.813E+01    2.821E+01    2.828E+01    2.835E+01
     2.842E+01    2.849E+01    2.855E+01    2.861E+01    2.867E+01    2.873E+01    2.879E+01    2.885E+01    2.890E+01    2.895E+01
     2.900E+01    2.905E+01    2.910E+01    2.914E+01    2.919E+01    2.923E+01    2.927E+01    2.931E+01    2.934E+01    2.938E+01
     2.941E+01    2.944E+01    2.947E+01    2.950E+01    2.953E+01    2.955E+01    2.957E+01    2.959E+01    2.961E+01    2.963E+01
     2.965E+01    2.966E+01    2.968E+01    2.969E+01    2.970E+01    2.971E+01    2.971E+01    2.972E+01    2.972E+01    2.972E+01
     2.973E+01    2.972E+01    2.972E+01    2.972E+01    2.971E+01    2.971E+01    2.970E+01    2.969E+01    2.968E+01    2.966E+01
     2.965E+01    2.963E+01    2.961E+01    2.960E+01    2.958E+01    2.955E+01    2.953E+01    2.951E+01    2.948E+01    2.945E+01
     2.943E+01    2.940E+01    2.936E+01    2.933E+01    2.930E+01    2.926E+01    2.923E+01    2.919E+01    2.915E+01    2.911E+01
     2.907E+01    2.902E+01    2.898E+01    2.894E+01    2.889E+01    2.884E+01    2.879E+01    2.874E+01    2.869E+01    2.864E+01
     2.859E+01    2.853E+01    2.848E+01    2.842E+01    2.836E+01    2.831E+01    2.825E+01    2.819E+01    2.813E+01    2.806E+01
     2.800E+01    2.794E+01    2.787E+01    2.780E+01    2.774E+01    2.767E+01    2.760E+01    2.753E+01    2.746E+01    2.739E+01
     2.732E+01    2.724E+01    2.717E+01    2.709E+01    2.702E+01    2.694E+01    2.686E+01    2.679E+01    2.671E+01    2.663E+01
     2.655E+01    2.647E+01    2.639E+01    2.630E+01    2.622E+01    2.614E+01    2.605E+01    2.597E+01    2.588E+01    2.580E+01
     2.571E+01    2.562E+01    2.554E+01    2.545E+01    2.536E+01    2.527E+01    2.518E+01    2.509E+01    2.500E+01    2.491E+01
     2.481E+01    2.472E+01    2.463E+01    2.454E+01    2.444E+01    2.435E+01    2.425E+01    2.416E+01    2.406E+01    2.397E+01
     2.387E+01    2.378E+01    2.368E+01    2.358E+01    2.348E+01    2.339E+01    2.329E+01    2.319E+01    2.309E+01    2.299E+01
     2.289E+01    2.279E+01    2.270E+01    2.260E+01    2.250E+01    2.240E+01    2.230E+01    2.219E+01    2.209E+01    2.199E+01
     2.189E+01    2.179E+01    2.169E+01    2.159E+01    2.149E+01    2.139E+01    2.129E+01    2.118E+01    2.108E+01    2.098E+01
     2.088E+01    2.078E+01    2.068E+01    2.057E+01    2.047E+01    2.037E+01    2.027E+01    2.017E+01
 Asp      Conc. = 8.37E+01
