 LCModel (Version 6.3-1L) Copyright: S.W. Provencher.          Ref.: Magn. Reson. Med. 30:672-679 (1993).                
 Slice#3 Row#11 Col#3  K_02_press_1_raw_act
 36 lines in following concentration table = NCONC+1
    Conc.  %SD /Cr+PCr  Metabolite                                         
 1.57E+03  19%   3.393 Ala                                                 
    0.000 999%   0.000 Asp                                                 
  461.590  13%   1.000 Cr                                                  
    0.000 999%   0.000 PCr                                                 
   39.817 195% 8.6E-02 GABA                                                
    0.000 999%   0.000 Glc                                                 
 6.28E+03  13%  13.600 Gln                                                 
 6.43E+03  16%  13.921 Glu                                                 
  197.136  13%   0.427 GPC                                                 
    0.000 999%   0.000 PCh                                                 
    8.913 999% 1.9E-02 GSH                                                 
 1.20E+03  31%   2.607 Ins                                                 
    0.000 999%   0.000 Lac                                                 
  665.403  10%   1.442 NAA                                                 
    0.000 999%   0.000 NAAG                                                
   44.845  51% 9.7E-02 Scyllo                                              
    0.000 999%   0.000 Tau                                                 
    0.000 999%   0.000 -CrCH2                                              
  197.136  13%   0.427 GPC+PCh                                             
  665.403  10%   1.442 NAA+NAAG                                            
  461.590  13%   1.000 Cr+PCr                                              
 1.27E+04  14%  27.521 Glu+Gln                                             
    0.000 999%   0.000 Lip13a                                              
    0.000 999%   0.000 Lip13b                                              
    0.000 999%   0.000 Lip09                                               
 1.35E+03   8%   2.924 MM09                                                
   20.732 517% 4.5E-02 Lip20                                               
 2.01E+03   8%   4.365 MM20                                                
  404.502   9%   0.876 MM12                                                
 1.08E+03   8%   2.336 MM14                                                
  521.951   9%   1.131 MM17                                                
    0.000 999%   0.000 Lip13a+Lip13b                                       
 1.48E+03   7%   3.212 MM14+Lip13a+Lip13b+MM12                             
 1.35E+03   8%   2.924 MM09+Lip09                                          
 2.04E+03   9%   4.410 MM20+Lip20                                          
   6 lines in following misc. output table
  FWHM = 0.138 ppm    S/N =   5                                            
  Data shift = 0.046 ppm                                                   
  Ph:  -4 deg      -7.1 deg/ppm                                            
  alphaB,S = 5.9E-01,   1.9E+02                                            
   14 spline knots.   Ns = 8(2)                                            
  (13) 2 infls.   ( 3) 1 extrs.                                            
  498 points on ppm-axis = NY
      4.000000     3.992357     3.984714     3.977070     3.969427     3.961784     3.954141     3.946497     3.938854     3.931211
      3.923568     3.915925     3.908281     3.900638     3.892995     3.885352     3.877708     3.870065     3.862422     3.854779
      3.847136     3.839492     3.831849     3.824206     3.816563     3.808919     3.801276     3.793633     3.785990     3.778347
      3.770703     3.763060     3.755417     3.747774     3.740130     3.732487     3.724844     3.717201     3.709558     3.701914
      3.694271     3.686628     3.678985     3.671341     3.663698     3.656055     3.648412     3.640769     3.633125     3.625482
      3.617839     3.610196     3.602552     3.594909     3.587266     3.579623     3.571980     3.564336     3.556693     3.549050
      3.541407     3.533763     3.526120     3.518477     3.510834     3.503191     3.495547     3.487904     3.480261     3.472618
      3.464974     3.457331     3.449688     3.442045     3.434402     3.426758     3.419115     3.411472     3.403829     3.396185
      3.388542     3.380899     3.373256     3.365613     3.357969     3.350326     3.342683     3.335040     3.327396     3.319753
      3.312110     3.304467     3.296824     3.289180     3.281537     3.273894     3.266251     3.258607     3.250964     3.243321
      3.235678     3.228034     3.220391     3.212748     3.205105     3.197462     3.189818     3.182175     3.174532     3.166889
      3.159245     3.151602     3.143959     3.136316     3.128673     3.121029     3.113386     3.105743     3.098100     3.090456
      3.082813     3.075170     3.067527     3.059884     3.052240     3.044597     3.036954     3.029311     3.021667     3.014024
      3.006381     2.998738     2.991095     2.983451     2.975808     2.968165     2.960522     2.952878     2.945235     2.937592
      2.929949     2.922306     2.914662     2.907019     2.899376     2.891733     2.884089     2.876446     2.868803     2.861160
      2.853517     2.845873     2.838230     2.830587     2.822944     2.815300     2.807657     2.800014     2.792371     2.784728
      2.777084     2.769441     2.761798     2.754155     2.746511     2.738868     2.731225     2.723582     2.715939     2.708295
      2.700652     2.693009     2.685366     2.677722     2.670079     2.662436     2.654793     2.647150     2.639506     2.631863
      2.624220     2.616577     2.608933     2.601290     2.593647     2.586004     2.578361     2.570717     2.563074     2.555431
      2.547788     2.540144     2.532501     2.524858     2.517215     2.509572     2.501928     2.494285     2.486642     2.478999
      2.471355     2.463712     2.456069     2.448426     2.440783     2.433139     2.425496     2.417853     2.410210     2.402566
      2.394923     2.387280     2.379637     2.371994     2.364350     2.356707     2.349064     2.341421     2.333777     2.326134
      2.318491     2.310848     2.303205     2.295561     2.287918     2.280275     2.272632     2.264988     2.257345     2.249702
      2.242059     2.234416     2.226772     2.219129     2.211486     2.203843     2.196199     2.188556     2.180913     2.173270
      2.165627     2.157983     2.150340     2.142697     2.135054     2.127410     2.119767     2.112124     2.104481     2.096838
      2.089194     2.081551     2.073908     2.066265     2.058621     2.050978     2.043335     2.035692     2.028049     2.020405
      2.012762     2.005119     1.997476     1.989833     1.982190     1.974546     1.966903     1.959260     1.951617     1.943974
      1.936331     1.928688     1.921045     1.913402     1.905759     1.898115     1.890472     1.882829     1.875186     1.867543
      1.859900     1.852257     1.844614     1.836971     1.829327     1.821684     1.814041     1.806398     1.798755     1.791112
      1.783469     1.775826     1.768183     1.760540     1.752896     1.745253     1.737610     1.729967     1.722324     1.714681
      1.707038     1.699395     1.691752     1.684108     1.676465     1.668822     1.661179     1.653536     1.645893     1.638250
      1.630607     1.622964     1.615321     1.607677     1.600034     1.592391     1.584748     1.577105     1.569462     1.561819
      1.554176     1.546533     1.538890     1.531246     1.523603     1.515960     1.508317     1.500674     1.493031     1.485388
      1.477745     1.470102     1.462458     1.454815     1.447172     1.439529     1.431886     1.424243     1.416600     1.408957
      1.401314     1.393671     1.386027     1.378384     1.370741     1.363098     1.355455     1.347812     1.340169     1.332526
      1.324883     1.317240     1.309596     1.301953     1.294310     1.286667     1.279024     1.271381     1.263738     1.256095
      1.248452     1.240808     1.233165     1.225522     1.217879     1.210236     1.202593     1.194950     1.187307     1.179664
      1.172021     1.164377     1.156734     1.149091     1.141448     1.133805     1.126162     1.118519     1.110876     1.103233
      1.095590     1.087946     1.080303     1.072660     1.065017     1.057374     1.049731     1.042088     1.034445     1.026802
      1.019158     1.011515     1.003872     0.996229     0.988586     0.980943     0.973300     0.965657     0.958014     0.950371
      0.942727     0.935084     0.927441     0.919798     0.912155     0.904512     0.896869     0.889226     0.881583     0.873940
      0.866296     0.858653     0.851010     0.843367     0.835724     0.828081     0.820438     0.812795     0.805152     0.797508
      0.789865     0.782222     0.774579     0.766936     0.759293     0.751650     0.744007     0.736364     0.728721     0.721077
      0.713434     0.705791     0.698148     0.690505     0.682862     0.675219     0.667576     0.659933     0.652290     0.644646
      0.637003     0.629360     0.621717     0.614074     0.606431     0.598788     0.591145     0.583502     0.575858     0.568215
      0.560572     0.552929     0.545286     0.537643     0.530000     0.522357     0.514714     0.507071     0.499427     0.491784
      0.484141     0.476498     0.468855     0.461212     0.453569     0.445925     0.438282     0.430639     0.422996     0.415353
      0.407710     0.400067     0.392424     0.384780     0.377137     0.369494     0.361851     0.354208     0.346565     0.338922
      0.331278     0.323635     0.315992     0.308349     0.300706     0.293063     0.285420     0.277777     0.270133     0.262490
      0.254847     0.247204     0.239561     0.231918     0.224275     0.216631     0.208988     0.201345
 NY phased data points follow
  -2.00196E+02 -1.97406E+02 -1.91874E+02 -1.86559E+02 -1.84960E+02 -1.81411E+02 -1.78569E+02 -1.77032E+02 -1.74319E+02 -1.69127E+02
  -1.67695E+02 -1.65695E+02 -1.65877E+02 -1.63006E+02 -1.60379E+02 -1.57434E+02 -1.56725E+02 -1.58117E+02 -1.53345E+02 -1.51698E+02
  -1.49993E+02 -1.49313E+02 -1.47504E+02 -1.44159E+02 -1.46568E+02 -1.46842E+02 -1.39867E+02 -1.40510E+02 -1.37709E+02 -1.36645E+02
  -1.34305E+02 -1.33335E+02 -1.29510E+02 -1.27365E+02 -1.23679E+02 -1.22479E+02 -1.24842E+02 -1.20022E+02 -1.20854E+02 -1.16072E+02
  -1.14786E+02 -1.14488E+02 -1.14208E+02 -1.12901E+02 -1.10197E+02 -1.08124E+02 -1.07490E+02 -1.09376E+02 -1.04330E+02 -1.05519E+02
  -1.06421E+02 -1.04044E+02 -1.02196E+02 -1.02124E+02 -9.96672E+01 -1.01450E+02 -1.01300E+02 -9.98480E+01 -1.00452E+02 -1.00728E+02
  -9.50235E+01 -9.90413E+01 -9.50710E+01 -9.63982E+01 -9.67493E+01 -9.38856E+01 -9.46313E+01 -9.20807E+01 -9.29066E+01 -9.26926E+01
  -9.08873E+01 -9.04090E+01 -8.93393E+01 -9.06349E+01 -8.99377E+01 -8.76226E+01 -8.64158E+01 -8.53530E+01 -8.60593E+01 -8.33262E+01
  -8.36101E+01 -8.00195E+01 -8.21679E+01 -8.10830E+01 -8.12742E+01 -7.88862E+01 -7.76772E+01 -7.73351E+01 -7.92582E+01 -7.42538E+01
  -7.59541E+01 -7.57744E+01 -7.51324E+01 -7.34066E+01 -7.18385E+01 -6.95803E+01 -6.83665E+01 -6.56163E+01 -6.48176E+01 -6.51289E+01
  -6.70990E+01 -6.42402E+01 -6.32655E+01 -6.13372E+01 -6.30756E+01 -6.34610E+01 -6.09838E+01 -6.10215E+01 -5.99643E+01 -5.91650E+01
  -5.54047E+01 -5.98878E+01 -5.93100E+01 -5.82023E+01 -6.12520E+01 -6.06922E+01 -6.05551E+01 -6.03641E+01 -5.68790E+01 -5.47272E+01
  -5.58515E+01 -5.31953E+01 -5.27991E+01 -4.94000E+01 -4.98884E+01 -4.85890E+01 -4.85904E+01 -4.99289E+01 -4.89551E+01 -4.76852E+01
  -5.00972E+01 -4.71426E+01 -4.66166E+01 -4.61682E+01 -4.52798E+01 -4.65104E+01 -4.85765E+01 -4.88359E+01 -4.74785E+01 -4.86243E+01
  -5.24238E+01 -5.07612E+01 -4.81982E+01 -4.87408E+01 -4.52620E+01 -4.67841E+01 -4.84328E+01 -4.71596E+01 -4.53653E+01 -4.58794E+01
  -4.38625E+01 -4.48395E+01 -4.52932E+01 -4.41021E+01 -4.24930E+01 -4.42704E+01 -4.03711E+01 -4.38770E+01 -4.20262E+01 -3.97396E+01
  -4.28267E+01 -4.14183E+01 -4.00075E+01 -3.92895E+01 -3.67460E+01 -3.82484E+01 -4.24074E+01 -3.83211E+01 -4.19995E+01 -4.22100E+01
  -4.02800E+01 -3.86701E+01 -3.76750E+01 -3.96525E+01 -3.92372E+01 -3.91513E+01 -3.96355E+01 -3.99476E+01 -4.22425E+01 -4.18752E+01
  -4.11364E+01 -3.81910E+01 -3.83161E+01 -4.01411E+01 -3.92388E+01 -4.05569E+01 -3.73822E+01 -3.64538E+01 -3.70196E+01 -4.08583E+01
  -3.80597E+01 -3.83930E+01 -3.58049E+01 -3.56777E+01 -3.50236E+01 -3.54083E+01 -3.39050E+01 -3.36363E+01 -3.26227E+01 -3.13644E+01
  -3.28849E+01 -3.24049E+01 -3.27685E+01 -3.26312E+01 -3.40461E+01 -3.14155E+01 -3.21732E+01 -3.25645E+01 -2.92268E+01 -3.01998E+01
  -2.90733E+01 -2.86161E+01 -2.83853E+01 -3.09154E+01 -2.75720E+01 -2.98548E+01 -3.08094E+01 -2.95552E+01 -2.95654E+01 -2.85029E+01
  -2.70026E+01 -2.50985E+01 -2.62820E+01 -2.77353E+01 -2.79496E+01 -2.71399E+01 -2.69718E+01 -2.67460E+01 -2.52453E+01 -2.42256E+01
  -2.26028E+01 -2.47748E+01 -2.35774E+01 -2.40234E+01 -2.34411E+01 -2.36175E+01 -2.33061E+01 -2.49522E+01 -2.17626E+01 -2.45874E+01
  -2.34704E+01 -2.40189E+01 -2.54738E+01 -2.36171E+01 -2.22836E+01 -2.15001E+01 -2.13844E+01 -2.16091E+01 -2.01730E+01 -2.10990E+01
  -1.94047E+01 -1.87992E+01 -2.01941E+01 -1.61572E+01 -1.01809E+01 -7.51537E+00 -8.35825E+00 -1.03576E+01 -9.12476E+00 -8.55839E+00
  -9.49863E+00 -1.00984E+01 -6.02451E+00 -8.71233E+00 -8.01343E+00 -1.08366E+01 -6.75559E+00 -1.50362E+01 -1.43031E+01 -1.58050E+01
  -1.30760E+01 -1.63655E+01 -1.70408E+01 -1.61694E+01 -1.28148E+01 -1.68418E+01 -1.15876E+01 -1.79033E+01 -1.62394E+01 -1.53590E+01
  -1.63275E+01 -1.57388E+01 -1.69606E+01 -1.31701E+01 -1.54044E+01 -1.66371E+01 -1.19501E+01 -1.59759E+01 -1.20142E+01 -1.26669E+01
  -9.97217E+00 -1.17717E+01 -1.20710E+01 -1.10439E+01 -1.21206E+01 -1.00768E+01 -8.51063E+00 -6.82012E+00 -1.03080E+01 -7.17847E+00
  -8.64500E+00 -5.52403E+00 -5.82021E+00 -4.49355E+00 -6.60287E+00 -4.66052E+00 -2.70103E+00  2.23177E+00 -1.47214E+00  6.63834E-01
  -2.61236E-01  2.49944E+00  4.95462E+00  2.78042E+00  2.90454E+00  4.47403E+00  5.61917E+00  6.46838E+00  9.32053E+00  9.00810E+00
   7.07491E+00  8.32646E+00  9.08724E+00  9.31602E+00  1.01103E+01  8.57454E+00  9.34888E+00  9.86016E+00  6.04411E+00  9.28908E+00
   1.18662E+01  7.70797E+00  6.97230E+00  7.99169E+00  4.05127E+00  7.19192E+00  5.24681E+00  5.44772E+00  3.28689E+00  4.33539E+00
   2.62468E+00  4.87710E+00 -2.32137E+00  2.59997E+00  4.72103E+00  2.69028E+00  2.58871E+00  1.24449E+00 -2.30254E-01  1.79467E+00
  -5.74826E-01 -1.20227E+00 -2.18792E+00 -3.95564E+00 -2.30264E+00 -4.13095E+00 -5.30863E+00 -7.40339E+00 -6.83618E+00 -7.47127E+00
  -7.30531E+00 -6.47839E+00 -7.64760E+00 -8.08601E+00 -9.86583E+00 -7.53157E+00 -8.89201E+00 -8.09257E+00 -8.95517E+00 -6.92918E+00
  -8.17873E+00 -1.01660E+01 -1.00780E+01 -1.03976E+01 -9.40583E+00 -1.31576E+01 -1.10747E+01 -9.20426E+00 -8.79407E+00 -1.27480E+01
  -1.03023E+01 -1.08365E+01 -1.28044E+01 -1.24640E+01 -1.05376E+01 -1.26751E+01 -1.03329E+01 -1.08228E+01 -1.23962E+01 -1.29849E+01
  -1.22525E+01 -1.36180E+01 -1.27030E+01 -1.45240E+01 -1.44180E+01 -1.59638E+01 -1.67578E+01 -1.30666E+01 -1.58770E+01 -1.58454E+01
  -1.49763E+01 -1.23387E+01 -1.57899E+01 -1.52567E+01 -1.39058E+01 -1.69823E+01 -1.42754E+01 -1.26168E+01 -1.59602E+01 -1.38718E+01
  -1.49837E+01 -1.34884E+01 -1.48291E+01 -1.46058E+01 -1.38104E+01 -1.31066E+01 -1.65193E+01 -1.57402E+01 -1.44540E+01 -1.47793E+01
  -1.82823E+01 -1.57328E+01 -1.37651E+01 -1.65923E+01 -1.55680E+01 -1.71355E+01 -1.45926E+01 -1.86724E+01 -1.66017E+01 -1.94578E+01
  -1.69166E+01 -1.69578E+01 -1.59027E+01 -1.57110E+01 -1.50583E+01 -1.52928E+01 -1.76440E+01 -1.69928E+01 -1.90659E+01 -1.68091E+01
  -1.87607E+01 -1.59761E+01 -1.46308E+01 -1.83783E+01 -1.47155E+01 -1.63560E+01 -1.49853E+01 -1.58201E+01 -1.35525E+01 -1.65700E+01
  -1.85317E+01 -1.47674E+01 -1.53135E+01 -1.45555E+01 -1.43433E+01 -1.52869E+01 -1.29545E+01 -1.44052E+01 -1.47166E+01 -1.31870E+01
  -1.34981E+01 -1.48550E+01 -1.59456E+01 -1.48422E+01 -1.49572E+01 -1.42958E+01 -1.13694E+01 -1.25472E+01 -1.50610E+01 -1.31523E+01
  -1.56845E+01 -1.37458E+01 -1.32296E+01 -1.29769E+01 -1.58600E+01 -1.39076E+01 -1.39896E+01 -1.50666E+01 -1.56405E+01 -1.76107E+01
  -1.30320E+01 -1.24564E+01 -1.40399E+01 -1.29563E+01 -1.23248E+01 -1.41967E+01 -1.41052E+01 -1.15960E+01 -1.42788E+01 -1.61632E+01
  -1.32282E+01 -1.27448E+01 -1.12299E+01 -1.40989E+01 -1.26803E+01 -1.38090E+01 -1.11159E+01 -1.24522E+01
 NY points of the fit to the data follow
  -1.93071E+02 -1.90814E+02 -1.88761E+02 -1.86397E+02 -1.84262E+02 -1.81813E+02 -1.79610E+02 -1.77163E+02 -1.74875E+02 -1.72291E+02
  -1.70133E+02 -1.67772E+02 -1.65972E+02 -1.63744E+02 -1.62210E+02 -1.59864E+02 -1.58081E+02 -1.55574E+02 -1.53998E+02 -1.51807E+02
  -1.50823E+02 -1.49060E+02 -1.48192E+02 -1.46066E+02 -1.44585E+02 -1.42079E+02 -1.40198E+02 -1.37907E+02 -1.36421E+02 -1.34622E+02
  -1.33408E+02 -1.31653E+02 -1.30261E+02 -1.28474E+02 -1.26726E+02 -1.24963E+02 -1.23029E+02 -1.21334E+02 -1.19444E+02 -1.17966E+02
  -1.16483E+02 -1.15427E+02 -1.14254E+02 -1.13300E+02 -1.11963E+02 -1.10788E+02 -1.09250E+02 -1.08262E+02 -1.07107E+02 -1.06458E+02
  -1.05681E+02 -1.05089E+02 -1.04153E+02 -1.03337E+02 -1.02357E+02 -1.01681E+02 -1.00907E+02 -1.00420E+02 -9.98085E+01 -9.92112E+01
  -9.84481E+01 -9.77157E+01 -9.68474E+01 -9.60951E+01 -9.52110E+01 -9.44809E+01 -9.35598E+01 -9.28105E+01 -9.18722E+01 -9.11646E+01
  -9.02474E+01 -8.95650E+01 -8.87083E+01 -8.80419E+01 -8.72320E+01 -8.65893E+01 -8.58242E+01 -8.52109E+01 -8.45110E+01 -8.38980E+01
  -8.32521E+01 -8.26416E+01 -8.20805E+01 -8.14805E+01 -8.09464E+01 -8.03215E+01 -7.96788E+01 -7.87048E+01 -7.79944E+01 -7.68897E+01
  -7.61740E+01 -7.49517E+01 -7.41815E+01 -7.26698E+01 -7.18510E+01 -7.00860E+01 -6.92709E+01 -6.73989E+01 -6.67235E+01 -6.51042E+01
  -6.46240E+01 -6.32759E+01 -6.29811E+01 -6.18750E+01 -6.17196E+01 -6.08741E+01 -6.08124E+01 -6.02543E+01 -6.02764E+01 -5.99732E+01
  -5.99596E+01 -5.96429E+01 -5.95590E+01 -5.92096E+01 -5.89909E+01 -5.83998E+01 -5.79725E+01 -5.69157E+01 -5.63833E+01 -5.50882E+01
  -5.45463E+01 -5.30897E+01 -5.26092E+01 -5.11130E+01 -5.07844E+01 -4.95029E+01 -4.93391E+01 -4.82785E+01 -4.82612E+01 -4.74670E+01
  -4.75754E+01 -4.70718E+01 -4.72658E+01 -4.70244E+01 -4.72675E+01 -4.72916E+01 -4.75093E+01 -4.76497E+01 -4.77569E+01 -4.78329E+01
  -4.77941E+01 -4.77220E+01 -4.75954E+01 -4.75185E+01 -4.73319E+01 -4.72136E+01 -4.69229E+01 -4.66145E+01 -4.62755E+01 -4.59645E+01
  -4.56340E+01 -4.53378E+01 -4.50176E+01 -4.47351E+01 -4.44185E+01 -4.41469E+01 -4.38330E+01 -4.35622E+01 -4.32645E+01 -4.29982E+01
  -4.27379E+01 -4.24711E+01 -4.22310E+01 -4.19628E+01 -4.17444E+01 -4.14845E+01 -4.12819E+01 -4.10192E+01 -4.08224E+01 -4.05543E+01
  -4.03661E+01 -4.01012E+01 -3.98830E+01 -3.96360E+01 -3.93758E+01 -3.91492E+01 -3.88350E+01 -3.86408E+01 -3.83660E+01 -3.82153E+01
  -3.80823E+01 -3.80224E+01 -3.79694E+01 -3.79551E+01 -3.79871E+01 -3.78046E+01 -3.78107E+01 -3.74413E+01 -3.74997E+01 -3.67744E+01
  -3.68045E+01 -3.58410E+01 -3.57664E+01 -3.48298E+01 -3.52849E+01 -3.39770E+01 -3.45174E+01 -3.30254E+01 -3.37961E+01 -3.22998E+01
  -3.33083E+01 -3.22489E+01 -3.34771E+01 -3.26261E+01 -3.36174E+01 -3.26775E+01 -3.28951E+01 -3.22527E+01 -3.15453E+01 -3.15278E+01
  -3.03907E+01 -3.13616E+01 -3.02326E+01 -3.18505E+01 -3.04258E+01 -3.20850E+01 -3.01563E+01 -3.13292E+01 -2.87259E+01 -2.96040E+01
  -2.74399E+01 -2.81923E+01 -2.67638E+01 -2.72691E+01 -2.66876E+01 -2.62340E+01 -2.61327E+01 -2.51662E+01 -2.52765E+01 -2.39725E+01
  -2.44574E+01 -2.28182E+01 -2.32584E+01 -2.19924E+01 -2.25261E+01 -2.19794E+01 -2.22978E+01 -2.27195E+01 -2.24900E+01 -2.34024E+01
  -2.27844E+01 -2.41519E+01 -2.33202E+01 -2.47240E+01 -2.28134E+01 -2.40126E+01 -2.15368E+01 -2.25863E+01 -1.99264E+01 -2.08937E+01
  -1.80240E+01 -1.85759E+01 -1.54075E+01 -1.55491E+01 -1.22975E+01 -1.25887E+01 -1.00513E+01 -1.06702E+01 -8.58644E+00 -9.39546E+00
  -7.84230E+00 -8.79142E+00 -7.86280E+00 -9.19173E+00 -8.73555E+00 -1.01069E+01 -1.00146E+01 -1.12822E+01 -1.15441E+01 -1.26690E+01
  -1.32253E+01 -1.40499E+01 -1.45611E+01 -1.49576E+01 -1.51923E+01 -1.53200E+01 -1.55136E+01 -1.55026E+01 -1.56356E+01 -1.54493E+01
  -1.52508E+01 -1.49774E+01 -1.47287E+01 -1.44414E+01 -1.41419E+01 -1.38736E+01 -1.35439E+01 -1.32254E+01 -1.28524E+01 -1.24995E+01
  -1.21043E+01 -1.17259E+01 -1.13148E+01 -1.08853E+01 -1.04315E+01 -9.95690E+00 -9.46151E+00 -8.94209E+00 -8.40621E+00 -7.84361E+00
  -7.27029E+00 -6.66381E+00 -6.03868E+00 -5.37759E+00 -4.68989E+00 -3.96348E+00 -3.20107E+00 -2.39140E+00 -1.52827E+00 -5.83109E-01
   5.01853E-01  1.70592E+00  2.59551E+00  3.79073E+00  4.45788E+00  5.65001E+00  6.08817E+00  7.26615E+00  7.19476E+00  8.58905E+00
   8.04387E+00  9.34867E+00  8.11709E+00  9.10147E+00  7.46570E+00  8.46857E+00  6.76663E+00  7.90673E+00  6.30342E+00  7.51966E+00
   6.12531E+00  7.04643E+00  5.78410E+00  6.35683E+00  5.26468E+00  5.54080E+00  4.81944E+00  4.91006E+00  4.56539E+00  4.49249E+00
   4.31591E+00  4.02233E+00  3.72707E+00  3.00254E+00  2.60468E+00  1.66899E+00  1.25265E+00  4.01096E-01 -1.80430E-01 -9.29041E-01
  -1.46451E+00 -2.20366E+00 -2.75499E+00 -3.46618E+00 -4.00213E+00 -4.42465E+00 -4.78825E+00 -5.11615E+00 -5.42138E+00 -5.71257E+00
  -5.99586E+00 -6.27583E+00 -6.55589E+00 -6.83853E+00 -7.12542E+00 -7.41759E+00 -7.71553E+00 -8.01919E+00 -8.32815E+00 -8.64156E+00
  -8.95830E+00 -9.27696E+00 -9.59593E+00 -9.91346E+00 -1.02277E+01 -1.05367E+01 -1.08387E+01 -1.11316E+01 -1.14138E+01 -1.16834E+01
  -1.19390E+01 -1.21789E+01 -1.24020E+01 -1.26070E+01 -1.27930E+01 -1.29591E+01 -1.31048E+01 -1.32297E+01 -1.33337E+01 -1.34171E+01
  -1.34801E+01 -1.35237E+01 -1.35490E+01 -1.35575E+01 -1.35512E+01 -1.35322E+01 -1.35033E+01 -1.34673E+01 -1.34276E+01 -1.33874E+01
  -1.33505E+01 -1.33202E+01 -1.33000E+01 -1.32930E+01 -1.33021E+01 -1.33296E+01 -1.33772E+01 -1.34459E+01 -1.35365E+01 -1.36493E+01
  -1.37838E+01 -1.39389E+01 -1.41128E+01 -1.43030E+01 -1.45066E+01 -1.47204E+01 -1.49407E+01 -1.51639E+01 -1.53865E+01 -1.56049E+01
  -1.58159E+01 -1.60165E+01 -1.62044E+01 -1.63772E+01 -1.65334E+01 -1.66717E+01 -1.67914E+01 -1.68919E+01 -1.69733E+01 -1.70358E+01
  -1.70799E+01 -1.71064E+01 -1.71161E+01 -1.71101E+01 -1.70895E+01 -1.70555E+01 -1.70092E+01 -1.69518E+01 -1.68847E+01 -1.68088E+01
  -1.67253E+01 -1.66354E+01 -1.65400E+01 -1.64401E+01 -1.63368E+01 -1.62307E+01 -1.61230E+01 -1.60143E+01 -1.59054E+01 -1.57970E+01
  -1.56899E+01 -1.55848E+01 -1.54823E+01 -1.53828E+01 -1.52865E+01 -1.51933E+01 -1.51033E+01 -1.50163E+01 -1.49324E+01 -1.48514E+01
  -1.47734E+01 -1.46982E+01 -1.46257E+01 -1.45559E+01 -1.44886E+01 -1.44237E+01 -1.43612E+01 -1.43009E+01 -1.42426E+01 -1.41863E+01
  -1.41318E+01 -1.40790E+01 -1.40277E+01 -1.39779E+01 -1.39292E+01 -1.38817E+01 -1.38352E+01 -1.37894E+01 -1.37443E+01 -1.36996E+01
  -1.36553E+01 -1.36111E+01 -1.35670E+01 -1.35226E+01 -1.34779E+01 -1.34327E+01 -1.33868E+01 -1.33399E+01 -1.32920E+01 -1.32428E+01
  -1.31922E+01 -1.31398E+01 -1.30855E+01 -1.30291E+01 -1.29703E+01 -1.29088E+01 -1.28443E+01 -1.27765E+01
 NY background values follow
    -1.984E+02   -1.965E+02   -1.945E+02   -1.926E+02   -1.907E+02   -1.887E+02   -1.868E+02   -1.849E+02   -1.829E+02   -1.810E+02
    -1.791E+02   -1.772E+02   -1.753E+02   -1.734E+02   -1.716E+02   -1.697E+02   -1.678E+02   -1.660E+02   -1.642E+02   -1.623E+02
    -1.605E+02   -1.587E+02   -1.569E+02   -1.552E+02   -1.534E+02   -1.517E+02   -1.499E+02   -1.482E+02   -1.465E+02   -1.448E+02
    -1.431E+02   -1.415E+02   -1.399E+02   -1.382E+02   -1.366E+02   -1.351E+02   -1.335E+02   -1.320E+02   -1.304E+02   -1.290E+02
    -1.275E+02   -1.260E+02   -1.246E+02   -1.232E+02   -1.218E+02   -1.204E+02   -1.191E+02   -1.178E+02   -1.165E+02   -1.152E+02
    -1.140E+02   -1.128E+02   -1.116E+02   -1.104E+02   -1.092E+02   -1.081E+02   -1.070E+02   -1.059E+02   -1.048E+02   -1.038E+02
    -1.027E+02   -1.017E+02   -1.007E+02   -9.971E+01   -9.874E+01   -9.779E+01   -9.685E+01   -9.593E+01   -9.502E+01   -9.413E+01
    -9.325E+01   -9.238E+01   -9.153E+01   -9.069E+01   -8.986E+01   -8.905E+01   -8.824E+01   -8.745E+01   -8.667E+01   -8.589E+01
    -8.513E+01   -8.437E+01   -8.363E+01   -8.289E+01   -8.216E+01   -8.143E+01   -8.072E+01   -8.001E+01   -7.930E+01   -7.860E+01
    -7.791E+01   -7.722E+01   -7.654E+01   -7.586E+01   -7.518E+01   -7.451E+01   -7.384E+01   -7.318E+01   -7.252E+01   -7.187E+01
    -7.122E+01   -7.057E+01   -6.993E+01   -6.930E+01   -6.867E+01   -6.804E+01   -6.742E+01   -6.680E+01   -6.619E+01   -6.558E+01
    -6.498E+01   -6.438E+01   -6.378E+01   -6.319E+01   -6.261E+01   -6.203E+01   -6.146E+01   -6.088E+01   -6.032E+01   -5.976E+01
    -5.920E+01   -5.865E+01   -5.811E+01   -5.756E+01   -5.703E+01   -5.650E+01   -5.597E+01   -5.545E+01   -5.493E+01   -5.442E+01
    -5.391E+01   -5.341E+01   -5.291E+01   -5.242E+01   -5.193E+01   -5.145E+01   -5.097E+01   -5.050E+01   -5.004E+01   -4.957E+01
    -4.912E+01   -4.867E+01   -4.822E+01   -4.778E+01   -4.734E+01   -4.691E+01   -4.649E+01   -4.607E+01   -4.565E+01   -4.524E+01
    -4.484E+01   -4.444E+01   -4.405E+01   -4.366E+01   -4.328E+01   -4.290E+01   -4.253E+01   -4.217E+01   -4.181E+01   -4.146E+01
    -4.111E+01   -4.077E+01   -4.043E+01   -4.010E+01   -3.978E+01   -3.946E+01   -3.915E+01   -3.884E+01   -3.854E+01   -3.825E+01
    -3.796E+01   -3.768E+01   -3.740E+01   -3.713E+01   -3.686E+01   -3.661E+01   -3.635E+01   -3.611E+01   -3.587E+01   -3.564E+01
    -3.541E+01   -3.519E+01   -3.498E+01   -3.477E+01   -3.457E+01   -3.437E+01   -3.418E+01   -3.400E+01   -3.382E+01   -3.365E+01
    -3.348E+01   -3.332E+01   -3.316E+01   -3.301E+01   -3.286E+01   -3.272E+01   -3.258E+01   -3.245E+01   -3.232E+01   -3.220E+01
    -3.208E+01   -3.197E+01   -3.186E+01   -3.175E+01   -3.164E+01   -3.154E+01   -3.145E+01   -3.136E+01   -3.127E+01   -3.118E+01
    -3.110E+01   -3.102E+01   -3.094E+01   -3.087E+01   -3.079E+01   -3.073E+01   -3.066E+01   -3.059E+01   -3.053E+01   -3.047E+01
    -3.041E+01   -3.036E+01   -3.030E+01   -3.025E+01   -3.020E+01   -3.015E+01   -3.010E+01   -3.005E+01   -3.000E+01   -2.996E+01
    -2.991E+01   -2.986E+01   -2.982E+01   -2.977E+01   -2.972E+01   -2.967E+01   -2.962E+01   -2.956E+01   -2.950E+01   -2.944E+01
    -2.938E+01   -2.931E+01   -2.924E+01   -2.917E+01   -2.909E+01   -2.900E+01   -2.891E+01   -2.882E+01   -2.872E+01   -2.861E+01
    -2.849E+01   -2.837E+01   -2.824E+01   -2.811E+01   -2.797E+01   -2.781E+01   -2.765E+01   -2.748E+01   -2.730E+01   -2.712E+01
    -2.692E+01   -2.671E+01   -2.649E+01   -2.626E+01   -2.602E+01   -2.577E+01   -2.550E+01   -2.523E+01   -2.494E+01   -2.463E+01
    -2.432E+01   -2.399E+01   -2.365E+01   -2.329E+01   -2.292E+01   -2.254E+01   -2.215E+01   -2.175E+01   -2.134E+01   -2.092E+01
    -2.049E+01   -2.005E+01   -1.961E+01   -1.916E+01   -1.870E+01   -1.825E+01   -1.778E+01   -1.732E+01   -1.685E+01   -1.638E+01
    -1.591E+01   -1.544E+01   -1.497E+01   -1.450E+01   -1.403E+01   -1.357E+01   -1.311E+01   -1.265E+01   -1.220E+01   -1.175E+01
    -1.131E+01   -1.088E+01   -1.045E+01   -1.004E+01   -9.629E+00   -9.231E+00   -8.844E+00   -8.468E+00   -8.105E+00   -7.754E+00
    -7.417E+00   -7.094E+00   -6.786E+00   -6.493E+00   -6.217E+00   -5.959E+00   -5.718E+00   -5.495E+00   -5.291E+00   -5.106E+00
    -4.938E+00   -4.788E+00   -4.655E+00   -4.538E+00   -4.439E+00   -4.356E+00   -4.288E+00   -4.236E+00   -4.200E+00   -4.178E+00
    -4.171E+00   -4.179E+00   -4.200E+00   -4.235E+00   -4.283E+00   -4.344E+00   -4.418E+00   -4.504E+00   -4.602E+00   -4.712E+00
    -4.833E+00   -4.966E+00   -5.109E+00   -5.262E+00   -5.425E+00   -5.598E+00   -5.781E+00   -5.973E+00   -6.173E+00   -6.382E+00
    -6.598E+00   -6.823E+00   -7.055E+00   -7.294E+00   -7.540E+00   -7.793E+00   -8.051E+00   -8.316E+00   -8.586E+00   -8.861E+00
    -9.141E+00   -9.425E+00   -9.714E+00   -1.001E+01   -1.030E+01   -1.060E+01   -1.090E+01   -1.121E+01   -1.151E+01   -1.182E+01
    -1.213E+01   -1.244E+01   -1.275E+01   -1.305E+01   -1.336E+01   -1.367E+01   -1.398E+01   -1.428E+01   -1.458E+01   -1.488E+01
    -1.518E+01   -1.547E+01   -1.576E+01   -1.605E+01   -1.633E+01   -1.660E+01   -1.687E+01   -1.714E+01   -1.739E+01   -1.765E+01
    -1.789E+01   -1.813E+01   -1.836E+01   -1.858E+01   -1.879E+01   -1.900E+01   -1.919E+01   -1.937E+01   -1.955E+01   -1.971E+01
    -1.987E+01   -2.001E+01   -2.014E+01   -2.026E+01   -2.036E+01   -2.045E+01   -2.053E+01   -2.060E+01   -2.065E+01   -2.069E+01
    -2.071E+01   -2.073E+01   -2.073E+01   -2.072E+01   -2.069E+01   -2.066E+01   -2.062E+01   -2.056E+01   -2.050E+01   -2.043E+01
    -2.035E+01   -2.026E+01   -2.016E+01   -2.006E+01   -1.995E+01   -1.983E+01   -1.971E+01   -1.958E+01   -1.944E+01   -1.930E+01
    -1.916E+01   -1.901E+01   -1.886E+01   -1.871E+01   -1.855E+01   -1.839E+01   -1.823E+01   -1.807E+01   -1.790E+01   -1.774E+01
    -1.757E+01   -1.741E+01   -1.725E+01   -1.709E+01   -1.693E+01   -1.677E+01   -1.661E+01   -1.646E+01   -1.631E+01   -1.616E+01
    -1.602E+01   -1.589E+01   -1.575E+01   -1.563E+01   -1.551E+01   -1.539E+01   -1.528E+01   -1.517E+01   -1.507E+01   -1.497E+01
    -1.487E+01   -1.478E+01   -1.470E+01   -1.461E+01   -1.453E+01   -1.446E+01   -1.438E+01   -1.431E+01   -1.425E+01   -1.418E+01
    -1.412E+01   -1.406E+01   -1.400E+01   -1.395E+01   -1.389E+01   -1.384E+01   -1.379E+01   -1.374E+01   -1.369E+01   -1.364E+01
    -1.359E+01   -1.355E+01   -1.350E+01   -1.346E+01   -1.341E+01   -1.336E+01   -1.332E+01   -1.327E+01   -1.323E+01   -1.318E+01
    -1.313E+01   -1.308E+01   -1.303E+01   -1.298E+01   -1.292E+01   -1.287E+01   -1.281E+01   -1.275E+01
 Ala      Conc. = 1.57E+03
