 LCModel (Version 6.3-1L) Copyright: S.W. Provencher.          Ref.: Magn. Reson. Med. 30:672-679 (1993).                
 Slice#1 Row#10 Col#8  K_02_press_1_raw_act
 36 lines in following concentration table = NCONC+1
    Conc.  %SD /Cr+PCr  Metabolite                                         
  166.939  67%   0.124 Ala                                                 
    0.000 999%   0.000 Asp                                                 
  848.387  15%   0.629 Cr                                                  
  500.921  25%   0.371 PCr                                                 
   13.800 999% 1.0E-02 GABA                                                
   90.280 160% 6.7E-02 Glc                                                 
  391.593  57%   0.290 Gln                                                 
 1.52E+03  18%   1.123 Glu                                                 
  306.861   8%   0.227 GPC                                                 
    0.000 999%   0.000 PCh                                                 
  263.679  30%   0.195 GSH                                                 
 1.48E+03  17%   1.096 Ins                                                 
   74.651 161% 5.5E-02 Lac                                                 
 2.14E+03   5%   1.588 NAA                                                 
  605.922  17%   0.449 NAAG                                                
    0.000 999%   0.000 Scyllo                                              
    0.000 999%   0.000 Tau                                                 
    0.000 999%   0.000 -CrCH2                                              
  306.861   8%   0.227 GPC+PCh                                             
 2.75E+03   4%   2.037 NAA+NAAG                                            
 1.35E+03   5%   1.000 Cr+PCr                                              
 1.91E+03  18%   1.413 Glu+Gln                                             
  183.176 191%   0.136 Lip13a                                              
    0.000 999%   0.000 Lip13b                                              
   54.907 188% 4.1E-02 Lip09                                               
 1.47E+03  14%   1.089 MM09                                                
   23.188 261% 1.7E-02 Lip20                                               
 1.32E+03  30%   0.975 MM20                                                
  483.490  42%   0.358 MM12                                                
    0.000 999%   0.000 MM14                                                
  603.032  36%   0.447 MM17                                                
  183.176 191%   0.136 Lip13a+Lip13b                                       
  666.665  45%   0.494 MM14+Lip13a+Lip13b+MM12                             
 1.52E+03  13%   1.130 MM09+Lip09                                          
 1.34E+03  30%   0.992 MM20+Lip20                                          
   6 lines in following misc. output table
  FWHM = 0.038 ppm    S/N =  10                                            
  Data shift = 0.015 ppm                                                   
  Ph:  25 deg       8.4 deg/ppm                                            
  alphaB,S = 5.3E+00,   2.2E+01                                            
   14 spline knots.   Ns = 6(1)                                            
  ( 9) 4 infls.   ( 9) 1 extrs.                                            
  498 points on ppm-axis = NY
      4.000000     3.992357     3.984714     3.977070     3.969427     3.961784     3.954141     3.946497     3.938854     3.931211
      3.923568     3.915925     3.908281     3.900638     3.892995     3.885352     3.877708     3.870065     3.862422     3.854779
      3.847136     3.839492     3.831849     3.824206     3.816563     3.808919     3.801276     3.793633     3.785990     3.778347
      3.770703     3.763060     3.755417     3.747774     3.740130     3.732487     3.724844     3.717201     3.709558     3.701914
      3.694271     3.686628     3.678985     3.671341     3.663698     3.656055     3.648412     3.640769     3.633125     3.625482
      3.617839     3.610196     3.602552     3.594909     3.587266     3.579623     3.571980     3.564336     3.556693     3.549050
      3.541407     3.533763     3.526120     3.518477     3.510834     3.503191     3.495547     3.487904     3.480261     3.472618
      3.464974     3.457331     3.449688     3.442045     3.434402     3.426758     3.419115     3.411472     3.403829     3.396185
      3.388542     3.380899     3.373256     3.365613     3.357969     3.350326     3.342683     3.335040     3.327396     3.319753
      3.312110     3.304467     3.296824     3.289180     3.281537     3.273894     3.266251     3.258607     3.250964     3.243321
      3.235678     3.228034     3.220391     3.212748     3.205105     3.197462     3.189818     3.182175     3.174532     3.166889
      3.159245     3.151602     3.143959     3.136316     3.128673     3.121029     3.113386     3.105743     3.098100     3.090456
      3.082813     3.075170     3.067527     3.059884     3.052240     3.044597     3.036954     3.029311     3.021667     3.014024
      3.006381     2.998738     2.991095     2.983451     2.975808     2.968165     2.960522     2.952878     2.945235     2.937592
      2.929949     2.922306     2.914662     2.907019     2.899376     2.891733     2.884089     2.876446     2.868803     2.861160
      2.853517     2.845873     2.838230     2.830587     2.822944     2.815300     2.807657     2.800014     2.792371     2.784728
      2.777084     2.769441     2.761798     2.754155     2.746511     2.738868     2.731225     2.723582     2.715939     2.708295
      2.700652     2.693009     2.685366     2.677722     2.670079     2.662436     2.654793     2.647150     2.639506     2.631863
      2.624220     2.616577     2.608933     2.601290     2.593647     2.586004     2.578361     2.570717     2.563074     2.555431
      2.547788     2.540144     2.532501     2.524858     2.517215     2.509572     2.501928     2.494285     2.486642     2.478999
      2.471355     2.463712     2.456069     2.448426     2.440783     2.433139     2.425496     2.417853     2.410210     2.402566
      2.394923     2.387280     2.379637     2.371994     2.364350     2.356707     2.349064     2.341421     2.333777     2.326134
      2.318491     2.310848     2.303205     2.295561     2.287918     2.280275     2.272632     2.264988     2.257345     2.249702
      2.242059     2.234416     2.226772     2.219129     2.211486     2.203843     2.196199     2.188556     2.180913     2.173270
      2.165627     2.157983     2.150340     2.142697     2.135054     2.127410     2.119767     2.112124     2.104481     2.096838
      2.089194     2.081551     2.073908     2.066265     2.058621     2.050978     2.043335     2.035692     2.028049     2.020405
      2.012762     2.005119     1.997476     1.989833     1.982190     1.974546     1.966903     1.959260     1.951617     1.943974
      1.936331     1.928688     1.921045     1.913402     1.905759     1.898115     1.890472     1.882829     1.875186     1.867543
      1.859900     1.852257     1.844614     1.836971     1.829327     1.821684     1.814041     1.806398     1.798755     1.791112
      1.783469     1.775826     1.768183     1.760540     1.752896     1.745253     1.737610     1.729967     1.722324     1.714681
      1.707038     1.699395     1.691752     1.684108     1.676465     1.668822     1.661179     1.653536     1.645893     1.638250
      1.630607     1.622964     1.615321     1.607677     1.600034     1.592391     1.584748     1.577105     1.569462     1.561819
      1.554176     1.546533     1.538890     1.531246     1.523603     1.515960     1.508317     1.500674     1.493031     1.485388
      1.477745     1.470102     1.462458     1.454815     1.447172     1.439529     1.431886     1.424243     1.416600     1.408957
      1.401314     1.393671     1.386027     1.378384     1.370741     1.363098     1.355455     1.347812     1.340169     1.332526
      1.324883     1.317240     1.309596     1.301953     1.294310     1.286667     1.279024     1.271381     1.263738     1.256095
      1.248452     1.240808     1.233165     1.225522     1.217879     1.210236     1.202593     1.194950     1.187307     1.179664
      1.172021     1.164377     1.156734     1.149091     1.141448     1.133805     1.126162     1.118519     1.110876     1.103233
      1.095590     1.087946     1.080303     1.072660     1.065017     1.057374     1.049731     1.042088     1.034445     1.026802
      1.019158     1.011515     1.003872     0.996229     0.988586     0.980943     0.973300     0.965657     0.958014     0.950371
      0.942727     0.935084     0.927441     0.919798     0.912155     0.904512     0.896869     0.889226     0.881583     0.873940
      0.866296     0.858653     0.851010     0.843367     0.835724     0.828081     0.820438     0.812795     0.805152     0.797508
      0.789865     0.782222     0.774579     0.766936     0.759293     0.751650     0.744007     0.736364     0.728721     0.721077
      0.713434     0.705791     0.698148     0.690505     0.682862     0.675219     0.667576     0.659933     0.652290     0.644646
      0.637003     0.629360     0.621717     0.614074     0.606431     0.598788     0.591145     0.583502     0.575858     0.568215
      0.560572     0.552929     0.545286     0.537643     0.530000     0.522357     0.514714     0.507071     0.499427     0.491784
      0.484141     0.476498     0.468855     0.461212     0.453569     0.445925     0.438282     0.430639     0.422996     0.415353
      0.407710     0.400067     0.392424     0.384780     0.377137     0.369494     0.361851     0.354208     0.346565     0.338922
      0.331278     0.323635     0.315992     0.308349     0.300706     0.293063     0.285420     0.277777     0.270133     0.262490
      0.254847     0.247204     0.239561     0.231918     0.224275     0.216631     0.208988     0.201345
 NY phased data points follow
   2.56016E+01  2.66474E+01  2.64521E+01  2.98601E+01  3.01095E+01  3.19514E+01  2.60095E+01  4.33698E+01  3.59249E+01  4.83870E+01
   5.37712E+01  3.90513E+01  4.11643E+01  4.54029E+01  3.45156E+01  3.36543E+01  3.08804E+01  2.24261E+01  2.90037E+01  2.73230E+01
   1.92028E+01  2.24391E+01  2.33934E+01  2.15014E+01  2.19847E+01  2.34218E+01  1.66065E+01  1.92364E+01  1.87734E+01  2.46807E+01
   2.24379E+01  2.25563E+01  2.19699E+01  3.08207E+01  2.55676E+01  2.21441E+01  1.97460E+01  2.41394E+01  2.12870E+01  2.00706E+01
   1.49786E+01  1.84215E+01  2.06999E+01  1.45961E+01  1.62400E+01  2.62661E+01  3.10111E+01  2.70261E+01  2.45362E+01  2.25037E+01
   2.17497E+01  1.54234E+01  2.15808E+01  2.05078E+01  1.63790E+01  1.81866E+01  2.08815E+01  2.39090E+01  2.22159E+01  2.53771E+01
   2.05011E+01  1.80058E+01  9.81712E+00  1.85829E+01  1.57999E+01  1.54586E+01  1.18414E+01  1.16537E+01  1.04416E+01  1.10824E+01
   4.62244E+00  8.25234E+00  1.34720E+01  1.51394E+01  1.64040E+01  1.35321E+01  6.02593E+00  8.74768E+00  6.75562E+00  1.11684E+01
   1.49027E+01  1.37606E+01  1.42117E+01  9.38047E+00  4.25171E+00  9.50407E+00  1.85245E+00  7.36009E+00  1.38325E+01  1.00032E+01
   6.69207E+00  1.22388E+01  1.36034E+01  8.94733E+00  1.25952E+01  1.50342E+01  1.59465E+01  8.83221E+00  1.42458E+01  1.83049E+01
   3.02021E+01  3.68740E+01  4.25970E+01  4.41060E+01  3.48869E+01  3.12859E+01  2.18291E+01  2.13034E+01  1.05626E+01  1.89739E+01
   1.42460E+01  7.51562E+00  1.32110E+01  1.00729E+01  4.90534E+00  5.87070E+00  1.43463E+01  1.01718E+01  1.52924E+01  1.11717E+01
   1.05134E+01  1.79752E+01  2.35847E+01  2.32388E+01  3.48515E+01  4.61124E+01  5.21693E+01  6.37586E+01  5.04081E+01  4.64076E+01
   3.37647E+01  2.56074E+01  2.09375E+01  1.29365E+01  1.06127E+01  8.84768E+00  1.45623E+01  1.13181E+01  1.04191E+01  1.07840E+01
   1.40748E+01  4.80101E+00  1.32392E+01  6.30481E+00  9.61690E+00  5.69308E-01  1.32927E+01  4.00098E+00  4.85271E+00 -1.00312E+00
   6.42087E+00  1.05999E+01  8.90177E-01 -2.97371E+00  3.78896E+00  7.14272E+00  4.54036E+00  5.07721E+00  9.57664E+00  1.23575E+01
   7.51572E+00  4.85249E-01  1.07025E+01  1.30453E+01  6.98709E+00  5.86244E+00  9.07619E+00 -4.59611E-01  4.15127E-01 -1.41669E+00
  -5.73991E+00 -5.51199E+00 -1.30154E+00 -6.15945E+00 -1.11571E+01 -3.10901E+00 -4.28033E+00 -3.23472E+00 -5.44423E+00 -5.67170E-01
  -7.81226E+00 -5.38388E+00 -1.66156E+00  4.55124E-01 -2.55995E+00  6.16006E+00  1.58332E+00  6.18946E+00  7.75103E+00  1.86979E+00
   4.10350E+00  5.26500E-01 -1.19940E+00  5.28872E+00  5.63135E+00 -2.36335E+00 -1.45076E+00 -1.06452E+00 -2.99858E-01 -1.18587E+01
   2.85844E+00 -1.42743E+00  2.58554E+00  8.50567E+00  5.44558E+00  6.87497E+00  6.60581E+00  4.46640E+00 -2.11881E+00  2.55659E-01
  -5.40156E-01  8.40648E+00  3.95159E+00  1.00259E+01  9.53231E+00  1.69535E+01  2.04635E+01  1.37755E+01  9.51436E+00  1.58688E+00
  -3.82581E+00 -2.94410E+00 -3.16299E+00 -2.98941E+00  6.35393E+00  3.85950E+00  3.03023E-01  6.87848E+00  9.17861E+00  1.19915E+01
   3.19697E+00  6.19921E+00  5.87484E+00  1.02375E+01  5.55294E+00  7.40908E+00  1.74287E+00  9.06492E+00  3.65681E+00 -4.82058E+00
   3.75949E+00  5.44820E+00  6.54076E-02  2.10078E+00  6.75814E+00  2.34135E+00  9.07078E+00  1.18613E+01  8.30098E+00  2.01359E+01
   1.06125E+01  1.82990E+01  2.94797E+01  2.85677E+01  3.71899E+01  3.78357E+01  4.29990E+01  5.67574E+01  6.97407E+01  9.61504E+01
   1.02947E+02  1.05135E+02  7.23858E+01  6.24408E+01  3.14859E+01  1.29788E+01  1.52730E+01  1.07530E+01  4.60049E+00  8.98621E+00
   4.19992E+00  7.41023E+00  5.18818E+00  1.15009E+01  1.15959E+01  5.36536E-01  4.46166E+00  3.66761E+00  8.96252E+00  5.43310E+00
   1.10306E+01  6.88996E+00 -3.96659E-02  1.70570E+00 -2.66218E-01  7.51331E+00  2.09330E+00  1.94108E+00  3.16119E+00  6.91404E+00
   2.73923E+00 -2.35110E+00  7.18132E+00  6.56743E-01  6.88419E+00  3.40672E+00  8.71088E+00  1.04551E+01  8.82675E+00  4.20750E+00
   3.86846E+00  8.41428E+00  2.17902E+00  1.90863E-01  5.21523E+00  5.65179E+00  6.26761E+00  8.52373E+00  5.74179E+00  2.83652E+00
   6.37862E+00  6.78652E+00  2.09419E+00  6.77909E+00  9.05058E+00  8.30165E+00 -1.92316E+00  8.63704E-01  3.15246E+00  4.23108E-01
  -2.18648E+00  1.29992E+00  6.46259E+00 -3.01868E+00  2.47237E+00  6.65989E+00 -6.22093E+00 -4.24073E+00  5.27869E+00 -2.05539E+00
   3.21000E+00 -5.07113E+00 -8.69199E+00 -1.14847E+00 -2.12468E+00  6.67630E+00 -1.64115E+00 -1.81312E+00 -1.82319E+00  5.64144E+00
  -1.53140E+00  8.16947E+00  3.16736E+00  5.48286E+00  1.35325E+00  7.69455E+00  8.63634E+00  4.23706E+00 -2.69977E+00  3.75327E+00
  -4.30038E+00  4.20678E+00  4.20800E+00  5.91288E+00 -1.38797E+00 -2.06635E+00  2.31547E+00  8.18595E-01  2.29384E+00  2.89699E+00
   8.52941E+00 -2.37694E+00 -6.75624E-01 -4.38693E+00  7.09538E+00  3.64434E+00 -4.69680E-01  3.71103E+00  1.41436E+00  4.14649E+00
   4.60376E+00  2.95934E+00 -6.69326E-03  7.44943E+00  1.12950E+00  8.93558E-01  5.94245E+00  4.81482E+00  3.51593E+00  4.80216E+00
   1.44001E+00  3.54975E+00  2.80998E+00  7.02512E+00 -3.97453E-01  3.19806E+00  7.57948E+00  2.18521E+00  1.84032E+00  9.55030E+00
   6.41478E+00  6.38235E+00 -4.33153E+00  7.83183E-01  2.23643E+00  1.00188E+01  6.25685E+00  1.28720E+01  8.20932E+00  7.54181E+00
   4.90468E+00  1.28018E+01  1.42531E+01  5.38007E+00  9.68124E+00  1.35089E+01  1.05552E+01  1.63039E+01  7.03396E+00  5.82428E+00
   1.03996E+01  1.36929E+01  2.39073E+00  1.98519E+00  5.60042E+00  1.03237E+01  8.84706E+00  1.24143E+01  5.81482E+00  1.42236E+01
   7.19943E+00  8.79383E-01  2.42840E+00  4.82428E+00  2.04688E+00  1.44832E+00  3.43012E+00  4.99043E+00 -4.29764E+00 -6.87624E+00
   2.13368E+00 -1.57731E+00 -1.65697E+00  3.94286E+00 -8.57839E-01  1.07891E+00  4.02817E+00 -4.50958E+00  1.47802E+00 -3.33652E+00
  -2.14288E+00 -9.89075E+00  2.59734E+00 -3.91907E-01  4.98965E-01  6.25812E+00 -2.39399E+00  7.89662E-02 -6.29821E+00 -2.28058E+00
  -2.15821E+00  7.06491E+00 -4.40896E+00  6.77084E+00  5.65227E+00  2.00291E-01  1.07548E+00 -2.58765E+00 -1.61362E+00  5.60223E+00
   2.03717E+00 -1.12444E+01 -4.67388E+00 -1.65449E+00 -4.46950E+00 -5.55109E+00 -3.94172E-02 -4.74757E+00  3.51015E-01 -1.41203E+00
  -3.30220E-01  2.83928E+00 -8.80031E+00  8.37314E-01  1.07031E+00  1.39339E+00 -3.56603E+00 -2.88750E+00 -1.48616E-01 -6.23637E+00
   1.16345E-01  5.14745E+00  4.52831E+00  2.43126E+00 -5.87014E+00  1.35030E+00  2.57712E-01 -2.93639E+00 -4.82678E+00 -5.82763E-01
   2.43137E+00 -3.41044E+00 -4.45891E+00  8.01484E-01 -3.67441E+00  5.09091E+00 -1.10674E+00 -6.91073E+00
 NY points of the fit to the data follow
   2.00752E+01  2.00693E+01  2.08275E+01  2.21417E+01  2.41557E+01  2.75479E+01  3.23211E+01  3.70646E+01  4.06089E+01  4.33792E+01
   4.56106E+01  4.63641E+01  4.37423E+01  3.85580E+01  3.30797E+01  2.76600E+01  2.27956E+01  2.06049E+01  2.01733E+01  1.93885E+01
   1.86065E+01  1.85402E+01  1.85454E+01  1.85607E+01  1.85369E+01  1.82527E+01  1.82313E+01  1.90616E+01  2.08093E+01  2.28915E+01
   2.45797E+01  2.56492E+01  2.59427E+01  2.47105E+01  2.24320E+01  2.02682E+01  1.80959E+01  1.61552E+01  1.52371E+01  1.52351E+01
   1.58688E+01  1.68549E+01  1.82359E+01  2.01447E+01  2.26316E+01  2.57017E+01  2.82618E+01  2.86374E+01  2.65190E+01  2.28938E+01
   1.89755E+01  1.57762E+01  1.40946E+01  1.38825E+01  1.41687E+01  1.45276E+01  1.52959E+01  1.64844E+01  1.77708E+01  1.85858E+01
   1.85066E+01  1.75770E+01  1.60887E+01  1.44551E+01  1.33608E+01  1.31085E+01  1.34837E+01  1.41487E+01  1.48849E+01  1.55628E+01
   1.61527E+01  1.64458E+01  1.63705E+01  1.59793E+01  1.54836E+01  1.49578E+01  1.44732E+01  1.41808E+01  1.39610E+01  1.36519E+01
   1.33129E+01  1.29046E+01  1.23983E+01  1.16540E+01  1.06060E+01  9.27486E+00  7.95796E+00  7.08618E+00  6.99388E+00  7.60995E+00
   8.76604E+00  1.00930E+01  1.12255E+01  1.20270E+01  1.24769E+01  1.25787E+01  1.26643E+01  1.38006E+01  1.60781E+01  2.05213E+01
   2.81592E+01  3.73938E+01  4.41831E+01  4.47574E+01  3.90859E+01  3.09888E+01  2.30649E+01  1.63982E+01  1.34156E+01  1.28329E+01
   1.13680E+01  9.99720E+00  9.75019E+00  9.74353E+00  9.77216E+00  9.81100E+00  9.86463E+00  9.94895E+00  1.01244E+01  1.05777E+01
   1.18609E+01  1.42963E+01  1.88508E+01  2.60237E+01  3.59176E+01  4.73871E+01  5.67908E+01  6.01518E+01  5.60696E+01  4.64043E+01
   3.51695E+01  2.58152E+01  1.90291E+01  1.48796E+01  1.22668E+01  9.57117E+00  7.63103E+00  7.21198E+00  7.59740E+00  8.32426E+00
   8.87603E+00  9.08023E+00  9.00545E+00  8.69491E+00  8.32973E+00  8.01124E+00  7.75895E+00  7.57731E+00  7.36237E+00  7.09707E+00
   6.80804E+00  6.49219E+00  6.21012E+00  6.07047E+00  6.14764E+00  6.32167E+00  6.42979E+00  6.31221E+00  5.74272E+00  4.82292E+00
   3.94800E+00  3.63312E+00  4.05760E+00  4.78019E+00  5.18745E+00  4.96391E+00  4.04913E+00  2.95215E+00  2.26138E+00  1.96886E+00
   1.96902E+00  1.90281E+00  1.42870E+00  6.23756E-01 -1.16709E-01 -5.38925E-01 -2.52710E-01  5.19154E-01  1.07710E+00  1.03893E+00
   7.74816E-01  6.33759E-01  7.85780E-01  1.30782E+00  1.76091E+00  2.12827E+00  2.77297E+00  3.94888E+00  5.77929E+00  7.65024E+00
   8.67334E+00  8.82339E+00  8.08294E+00  6.95968E+00  6.16277E+00  5.70292E+00  5.40908E+00  5.47982E+00  5.89124E+00  6.54693E+00
   7.46562E+00  8.57788E+00  9.69061E+00  1.03329E+01  9.89865E+00  8.42880E+00  6.09195E+00  3.22719E+00  5.72065E-01 -9.42628E-01
  -9.52011E-01  4.22612E-01  2.91074E+00  6.54256E+00  1.05644E+01  1.30929E+01  1.28389E+01  1.02535E+01  6.05093E+00  1.17575E+00
  -3.31669E+00 -5.86205E+00 -5.71416E+00 -3.37720E+00  2.67319E-01  4.10993E+00  7.08331E+00  8.69711E+00  8.71767E+00  7.97845E+00
   7.36546E+00  6.99547E+00  6.91907E+00  7.25383E+00  7.78786E+00  8.29440E+00  8.54156E+00  8.21003E+00  7.43507E+00  6.38610E+00
   5.27049E+00  4.28895E+00  4.10944E+00  4.94138E+00  6.30912E+00  7.50886E+00  8.30767E+00  8.67527E+00  8.64669E+00  9.04070E+00
   1.06335E+01  1.37037E+01  1.90791E+01  2.62258E+01  3.44239E+01  4.23494E+01  4.76484E+01  5.78282E+01  7.50815E+01  9.36778E+01
   1.02745E+02  9.67458E+01  7.77420E+01  5.66259E+01  3.63329E+01  2.23451E+01  1.86639E+01  1.59148E+01  1.01029E+01  7.55229E+00
   6.81070E+00  6.41762E+00  6.24703E+00  6.24022E+00  6.11601E+00  5.82821E+00  5.48617E+00  5.14258E+00  4.79675E+00  4.55681E+00
   4.44691E+00  4.38528E+00  4.33097E+00  4.28920E+00  4.23757E+00  4.17137E+00  4.06719E+00  3.97077E+00  3.95061E+00  4.00484E+00
   4.12446E+00  4.30172E+00  4.47944E+00  4.63423E+00  4.76053E+00  4.84196E+00  4.90316E+00  4.97444E+00  5.05672E+00  5.15208E+00
   5.25726E+00  5.35435E+00  5.43319E+00  5.47157E+00  5.46045E+00  5.41440E+00  5.33611E+00  5.22058E+00  5.07624E+00  4.90793E+00
   4.71885E+00  4.51344E+00  4.29797E+00  4.07848E+00  3.86099E+00  3.65085E+00  3.45379E+00  3.27684E+00  3.12823E+00  3.02004E+00
   2.97814E+00  3.04861E+00  3.17366E+00  3.36433E+00  3.61306E+00  3.66671E+00  3.22269E+00  2.18905E+00  8.35873E-01 -3.32735E-01
  -1.10727E+00 -1.51386E+00 -1.25751E+00 -4.18226E-01  6.70731E-01  1.78379E+00  2.60417E+00  2.92824E+00  2.93000E+00  2.66136E+00
   2.40427E+00  2.43219E+00  2.51415E+00  2.53735E+00  2.64911E+00  2.72534E+00  2.59908E+00  2.20701E+00  1.66649E+00  1.22009E+00
   9.41751E-01  8.64573E-01  1.11990E+00  1.64542E+00  2.21824E+00  2.72470E+00  3.05915E+00  3.19940E+00  3.19426E+00  3.08150E+00
   3.00808E+00  3.01069E+00  2.97472E+00  2.91003E+00  2.86086E+00  2.81417E+00  2.76285E+00  2.70476E+00  2.63969E+00  2.56820E+00
   2.49127E+00  2.41031E+00  2.32738E+00  2.24510E+00  2.16627E+00  2.09363E+00  2.02982E+00  1.97775E+00  1.94068E+00  1.92212E+00
   1.92547E+00  1.95393E+00  2.01062E+00  2.09888E+00  2.22223E+00  2.38402E+00  2.58708E+00  2.83358E+00  3.12513E+00  3.46274E+00
   3.84652E+00  4.27517E+00  4.74560E+00  5.25292E+00  5.79063E+00  6.35061E+00  6.92304E+00  7.49633E+00  8.05741E+00  8.59240E+00
   9.08733E+00  9.52870E+00  9.90383E+00  1.02013E+01  1.04118E+01  1.05286E+01  1.05480E+01  1.04696E+01  1.02959E+01  1.00320E+01
   9.68577E+00  9.26719E+00  8.78814E+00  8.26140E+00  7.69994E+00  7.11637E+00  6.52272E+00  5.93009E+00  5.34828E+00  4.78536E+00
   4.24751E+00  3.73919E+00  3.26348E+00  2.82223E+00  2.41612E+00  2.04459E+00  1.70620E+00  1.39899E+00  1.12083E+00  8.69508E-01
   6.42645E-01  4.37679E-01  2.52077E-01  8.35871E-02 -6.96718E-02 -2.09365E-01 -3.37125E-01 -4.54553E-01 -5.63054E-01 -6.63684E-01
  -7.57221E-01 -8.44386E-01 -9.25979E-01 -1.00280E+00 -1.07544E+00 -1.14426E+00 -1.20950E+00 -1.27147E+00 -1.33065E+00 -1.38743E+00
  -1.44204E+00 -1.49452E+00 -1.54494E+00 -1.59351E+00 -1.64056E+00 -1.68629E+00 -1.73072E+00 -1.77380E+00 -1.81558E+00 -1.85628E+00
  -1.89612E+00 -1.93517E+00 -1.97336E+00 -2.01061E+00 -2.04700E+00 -2.08275E+00 -2.11801E+00 -2.15274E+00 -2.18683E+00 -2.22025E+00
  -2.25313E+00 -2.28565E+00 -2.31787E+00 -2.34969E+00 -2.38098E+00 -2.41180E+00 -2.44231E+00 -2.47264E+00 -2.50277E+00 -2.53256E+00
  -2.56196E+00 -2.59105E+00 -2.62001E+00 -2.64891E+00 -2.67765E+00 -2.70609E+00 -2.73426E+00 -2.76229E+00 -2.79033E+00 -2.81836E+00
  -2.84626E+00 -2.87395E+00 -2.90150E+00 -2.92908E+00 -2.95678E+00 -2.98454E+00 -3.01221E+00 -3.03980E+00
 NY background values follow
     1.525E+01    1.519E+01    1.513E+01    1.507E+01    1.501E+01    1.495E+01    1.489E+01    1.482E+01    1.476E+01    1.470E+01
     1.464E+01    1.458E+01    1.452E+01    1.446E+01    1.440E+01    1.434E+01    1.428E+01    1.422E+01    1.416E+01    1.410E+01
     1.404E+01    1.398E+01    1.392E+01    1.386E+01    1.380E+01    1.374E+01    1.368E+01    1.362E+01    1.356E+01    1.350E+01
     1.344E+01    1.337E+01    1.331E+01    1.325E+01    1.319E+01    1.313E+01    1.307E+01    1.301E+01    1.295E+01    1.289E+01
     1.283E+01    1.277E+01    1.271E+01    1.265E+01    1.259E+01    1.253E+01    1.247E+01    1.241E+01    1.235E+01    1.229E+01
     1.223E+01    1.217E+01    1.211E+01    1.205E+01    1.199E+01    1.193E+01    1.187E+01    1.181E+01    1.175E+01    1.169E+01
     1.163E+01    1.157E+01    1.151E+01    1.145E+01    1.139E+01    1.133E+01    1.127E+01    1.121E+01    1.115E+01    1.109E+01
     1.103E+01    1.097E+01    1.091E+01    1.085E+01    1.079E+01    1.073E+01    1.068E+01    1.062E+01    1.056E+01    1.050E+01
     1.044E+01    1.038E+01    1.032E+01    1.026E+01    1.020E+01    1.015E+01    1.009E+01    1.003E+01    9.971E+00    9.912E+00
     9.854E+00    9.796E+00    9.738E+00    9.680E+00    9.622E+00    9.564E+00    9.506E+00    9.449E+00    9.391E+00    9.333E+00
     9.276E+00    9.219E+00    9.161E+00    9.104E+00    9.047E+00    8.990E+00    8.933E+00    8.876E+00    8.820E+00    8.763E+00
     8.706E+00    8.650E+00    8.594E+00    8.537E+00    8.481E+00    8.425E+00    8.369E+00    8.313E+00    8.258E+00    8.202E+00
     8.146E+00    8.091E+00    8.036E+00    7.980E+00    7.925E+00    7.870E+00    7.815E+00    7.761E+00    7.706E+00    7.651E+00
     7.597E+00    7.542E+00    7.488E+00    7.434E+00    7.380E+00    7.326E+00    7.272E+00    7.219E+00    7.165E+00    7.112E+00
     7.059E+00    7.005E+00    6.952E+00    6.899E+00    6.847E+00    6.794E+00    6.742E+00    6.689E+00    6.637E+00    6.585E+00
     6.533E+00    6.481E+00    6.429E+00    6.378E+00    6.326E+00    6.275E+00    6.224E+00    6.173E+00    6.122E+00    6.071E+00
     6.020E+00    5.970E+00    5.920E+00    5.869E+00    5.819E+00    5.769E+00    5.720E+00    5.670E+00    5.621E+00    5.572E+00
     5.522E+00    5.473E+00    5.425E+00    5.376E+00    5.328E+00    5.279E+00    5.231E+00    5.183E+00    5.135E+00    5.088E+00
     5.040E+00    4.993E+00    4.946E+00    4.899E+00    4.852E+00    4.805E+00    4.759E+00    4.712E+00    4.666E+00    4.620E+00
     4.574E+00    4.529E+00    4.483E+00    4.438E+00    4.393E+00    4.348E+00    4.303E+00    4.258E+00    4.214E+00    4.169E+00
     4.125E+00    4.081E+00    4.037E+00    3.994E+00    3.950E+00    3.907E+00    3.864E+00    3.821E+00    3.778E+00    3.735E+00
     3.692E+00    3.650E+00    3.608E+00    3.566E+00    3.524E+00    3.482E+00    3.440E+00    3.399E+00    3.358E+00    3.317E+00
     3.276E+00    3.235E+00    3.194E+00    3.154E+00    3.114E+00    3.073E+00    3.033E+00    2.994E+00    2.954E+00    2.914E+00
     2.875E+00    2.836E+00    2.797E+00    2.758E+00    2.719E+00    2.681E+00    2.642E+00    2.604E+00    2.566E+00    2.528E+00
     2.490E+00    2.452E+00    2.415E+00    2.377E+00    2.340E+00    2.303E+00    2.266E+00    2.229E+00    2.193E+00    2.156E+00
     2.120E+00    2.084E+00    2.048E+00    2.012E+00    1.976E+00    1.941E+00    1.905E+00    1.870E+00    1.835E+00    1.800E+00
     1.765E+00    1.730E+00    1.695E+00    1.661E+00    1.627E+00    1.593E+00    1.558E+00    1.525E+00    1.491E+00    1.457E+00
     1.424E+00    1.390E+00    1.357E+00    1.324E+00    1.291E+00    1.258E+00    1.226E+00    1.193E+00    1.161E+00    1.129E+00
     1.096E+00    1.065E+00    1.033E+00    1.001E+00    9.693E-01    9.379E-01    9.065E-01    8.753E-01    8.442E-01    8.133E-01
     7.824E-01    7.518E-01    7.212E-01    6.907E-01    6.604E-01    6.302E-01    6.002E-01    5.702E-01    5.404E-01    5.107E-01
     4.811E-01    4.517E-01    4.223E-01    3.931E-01    3.640E-01    3.350E-01    3.062E-01    2.774E-01    2.488E-01    2.203E-01
     1.919E-01    1.637E-01    1.355E-01    1.075E-01    7.957E-02    5.176E-02    2.407E-02   -3.514E-03   -3.098E-02   -5.834E-02
    -8.558E-02   -1.127E-01   -1.397E-01   -1.667E-01   -1.935E-01   -2.202E-01   -2.468E-01   -2.732E-01   -2.996E-01   -3.259E-01
    -3.521E-01   -3.782E-01   -4.041E-01   -4.300E-01   -4.558E-01   -4.814E-01   -5.070E-01   -5.325E-01   -5.579E-01   -5.831E-01
    -6.083E-01   -6.334E-01   -6.584E-01   -6.833E-01   -7.081E-01   -7.328E-01   -7.575E-01   -7.820E-01   -8.064E-01   -8.308E-01
    -8.551E-01   -8.793E-01   -9.034E-01   -9.274E-01   -9.513E-01   -9.751E-01   -9.989E-01   -1.023E+00   -1.046E+00   -1.070E+00
    -1.093E+00   -1.116E+00   -1.140E+00   -1.163E+00   -1.186E+00   -1.209E+00   -1.232E+00   -1.255E+00   -1.278E+00   -1.300E+00
    -1.323E+00   -1.346E+00   -1.368E+00   -1.391E+00   -1.413E+00   -1.435E+00   -1.458E+00   -1.480E+00   -1.502E+00   -1.524E+00
    -1.546E+00   -1.568E+00   -1.590E+00   -1.612E+00   -1.633E+00   -1.655E+00   -1.677E+00   -1.698E+00   -1.720E+00   -1.741E+00
    -1.762E+00   -1.784E+00   -1.805E+00   -1.826E+00   -1.847E+00   -1.868E+00   -1.889E+00   -1.910E+00   -1.931E+00   -1.952E+00
    -1.973E+00   -1.994E+00   -2.015E+00   -2.035E+00   -2.056E+00   -2.076E+00   -2.097E+00   -2.117E+00   -2.138E+00   -2.158E+00
    -2.179E+00   -2.199E+00   -2.219E+00   -2.239E+00   -2.260E+00   -2.280E+00   -2.300E+00   -2.320E+00   -2.340E+00   -2.360E+00
    -2.380E+00   -2.400E+00   -2.420E+00   -2.440E+00   -2.460E+00   -2.479E+00   -2.499E+00   -2.519E+00   -2.538E+00   -2.558E+00
    -2.578E+00   -2.597E+00   -2.617E+00   -2.636E+00   -2.656E+00   -2.675E+00   -2.695E+00   -2.714E+00   -2.734E+00   -2.753E+00
    -2.772E+00   -2.792E+00   -2.811E+00   -2.830E+00   -2.849E+00   -2.869E+00   -2.888E+00   -2.907E+00   -2.926E+00   -2.945E+00
    -2.964E+00   -2.984E+00   -3.003E+00   -3.022E+00   -3.041E+00   -3.060E+00   -3.079E+00   -3.098E+00   -3.117E+00   -3.136E+00
    -3.155E+00   -3.174E+00   -3.192E+00   -3.211E+00   -3.230E+00   -3.249E+00   -3.268E+00   -3.287E+00   -3.306E+00   -3.325E+00
    -3.343E+00   -3.362E+00   -3.381E+00   -3.400E+00   -3.418E+00   -3.437E+00   -3.456E+00   -3.475E+00   -3.493E+00   -3.512E+00
    -3.531E+00   -3.550E+00   -3.568E+00   -3.587E+00   -3.606E+00   -3.624E+00   -3.643E+00   -3.662E+00   -3.680E+00   -3.699E+00
    -3.718E+00   -3.736E+00   -3.755E+00   -3.773E+00   -3.792E+00   -3.811E+00   -3.829E+00   -3.848E+00
 Ala      Conc. = 1.67E+02
