 LCModel (Version 6.3-1L) Copyright: S.W. Provencher.          Ref.: Magn. Reson. Med. 30:672-679 (1993).                
 Slice#2 Row#4 Col#5  K_02_press_1_raw_act
 36 lines in following concentration table = NCONC+1
    Conc.  %SD /Cr+PCr  Metabolite                                         
  587.461  23%   0.248 Ala                                                 
    0.000 999%   0.000 Asp                                                 
 1.00E+03  25%   0.424 Cr                                                  
 1.36E+03  19%   0.576 PCr                                                 
    0.000 999%   0.000 GABA                                                
    0.000 999%   0.000 Glc                                                 
  935.430  28%   0.396 Gln                                                 
 2.24E+03  13%   0.946 Glu                                                 
  933.088   3%   0.395 GPC                                                 
    0.000 999%   0.000 PCh                                                 
  819.188  10%   0.347 GSH                                                 
 2.07E+03  16%   0.876 Ins                                                 
  283.745  69%   0.120 Lac                                                 
 3.50E+03   5%   1.479 NAA                                                 
  291.959  54%   0.123 NAAG                                                
  119.561  30% 5.1E-02 Scyllo                                              
    0.000 999%   0.000 Tau                                                 
    0.000 999%   0.000 -CrCH2                                              
  933.088   3%   0.395 GPC+PCh                                             
 3.79E+03   3%   1.602 NAA+NAAG                                            
 2.36E+03   3%   1.000 Cr+PCr                                              
 3.17E+03  13%   1.342 Glu+Gln                                             
    0.000 999%   0.000 Lip13a                                              
 1.11E+03  50%   0.469 Lip13b                                              
  238.732  74%   0.101 Lip09                                               
 1.79E+03  18%   0.759 MM09                                                
  174.203  60% 7.4E-02 Lip20                                               
 4.05E+03  13%   1.712 MM20                                                
  457.168  49%   0.193 MM12                                                
 4.67E+03  15%   1.977+MM14                                                
 2.36E+03  19%   0.997 MM17                                                
 1.11E+03  50%   0.469 Lip13a+Lip13b                                       
 6.24E+03  11%   2.640 MM14+Lip13a+Lip13b+MM12                             
 2.03E+03  15%   0.860 MM09+Lip09                                          
 4.22E+03  12%   1.785 MM20+Lip20                                          
   6 lines in following misc. output table
  FWHM = 0.046 ppm    S/N =  17                                            
  Data shift = 0.031 ppm                                                   
  Ph: -16 deg     -12.7 deg/ppm                                            
  alphaB,S = 7.1E-01,   8.9E+01                                            
   14 spline knots.   Ns = 7(1)                                            
  (10) 3 infls.   ( 3) 3 extrs.                                            
  498 points on ppm-axis = NY
      4.000000     3.992357     3.984714     3.977070     3.969427     3.961784     3.954141     3.946497     3.938854     3.931211
      3.923568     3.915925     3.908281     3.900638     3.892995     3.885352     3.877708     3.870065     3.862422     3.854779
      3.847136     3.839492     3.831849     3.824206     3.816563     3.808919     3.801276     3.793633     3.785990     3.778347
      3.770703     3.763060     3.755417     3.747774     3.740130     3.732487     3.724844     3.717201     3.709558     3.701914
      3.694271     3.686628     3.678985     3.671341     3.663698     3.656055     3.648412     3.640769     3.633125     3.625482
      3.617839     3.610196     3.602552     3.594909     3.587266     3.579623     3.571980     3.564336     3.556693     3.549050
      3.541407     3.533763     3.526120     3.518477     3.510834     3.503191     3.495547     3.487904     3.480261     3.472618
      3.464974     3.457331     3.449688     3.442045     3.434402     3.426758     3.419115     3.411472     3.403829     3.396185
      3.388542     3.380899     3.373256     3.365613     3.357969     3.350326     3.342683     3.335040     3.327396     3.319753
      3.312110     3.304467     3.296824     3.289180     3.281537     3.273894     3.266251     3.258607     3.250964     3.243321
      3.235678     3.228034     3.220391     3.212748     3.205105     3.197462     3.189818     3.182175     3.174532     3.166889
      3.159245     3.151602     3.143959     3.136316     3.128673     3.121029     3.113386     3.105743     3.098100     3.090456
      3.082813     3.075170     3.067527     3.059884     3.052240     3.044597     3.036954     3.029311     3.021667     3.014024
      3.006381     2.998738     2.991095     2.983451     2.975808     2.968165     2.960522     2.952878     2.945235     2.937592
      2.929949     2.922306     2.914662     2.907019     2.899376     2.891733     2.884089     2.876446     2.868803     2.861160
      2.853517     2.845873     2.838230     2.830587     2.822944     2.815300     2.807657     2.800014     2.792371     2.784728
      2.777084     2.769441     2.761798     2.754155     2.746511     2.738868     2.731225     2.723582     2.715939     2.708295
      2.700652     2.693009     2.685366     2.677722     2.670079     2.662436     2.654793     2.647150     2.639506     2.631863
      2.624220     2.616577     2.608933     2.601290     2.593647     2.586004     2.578361     2.570717     2.563074     2.555431
      2.547788     2.540144     2.532501     2.524858     2.517215     2.509572     2.501928     2.494285     2.486642     2.478999
      2.471355     2.463712     2.456069     2.448426     2.440783     2.433139     2.425496     2.417853     2.410210     2.402566
      2.394923     2.387280     2.379637     2.371994     2.364350     2.356707     2.349064     2.341421     2.333777     2.326134
      2.318491     2.310848     2.303205     2.295561     2.287918     2.280275     2.272632     2.264988     2.257345     2.249702
      2.242059     2.234416     2.226772     2.219129     2.211486     2.203843     2.196199     2.188556     2.180913     2.173270
      2.165627     2.157983     2.150340     2.142697     2.135054     2.127410     2.119767     2.112124     2.104481     2.096838
      2.089194     2.081551     2.073908     2.066265     2.058621     2.050978     2.043335     2.035692     2.028049     2.020405
      2.012762     2.005119     1.997476     1.989833     1.982190     1.974546     1.966903     1.959260     1.951617     1.943974
      1.936331     1.928688     1.921045     1.913402     1.905759     1.898115     1.890472     1.882829     1.875186     1.867543
      1.859900     1.852257     1.844614     1.836971     1.829327     1.821684     1.814041     1.806398     1.798755     1.791112
      1.783469     1.775826     1.768183     1.760540     1.752896     1.745253     1.737610     1.729967     1.722324     1.714681
      1.707038     1.699395     1.691752     1.684108     1.676465     1.668822     1.661179     1.653536     1.645893     1.638250
      1.630607     1.622964     1.615321     1.607677     1.600034     1.592391     1.584748     1.577105     1.569462     1.561819
      1.554176     1.546533     1.538890     1.531246     1.523603     1.515960     1.508317     1.500674     1.493031     1.485388
      1.477745     1.470102     1.462458     1.454815     1.447172     1.439529     1.431886     1.424243     1.416600     1.408957
      1.401314     1.393671     1.386027     1.378384     1.370741     1.363098     1.355455     1.347812     1.340169     1.332526
      1.324883     1.317240     1.309596     1.301953     1.294310     1.286667     1.279024     1.271381     1.263738     1.256095
      1.248452     1.240808     1.233165     1.225522     1.217879     1.210236     1.202593     1.194950     1.187307     1.179664
      1.172021     1.164377     1.156734     1.149091     1.141448     1.133805     1.126162     1.118519     1.110876     1.103233
      1.095590     1.087946     1.080303     1.072660     1.065017     1.057374     1.049731     1.042088     1.034445     1.026802
      1.019158     1.011515     1.003872     0.996229     0.988586     0.980943     0.973300     0.965657     0.958014     0.950371
      0.942727     0.935084     0.927441     0.919798     0.912155     0.904512     0.896869     0.889226     0.881583     0.873940
      0.866296     0.858653     0.851010     0.843367     0.835724     0.828081     0.820438     0.812795     0.805152     0.797508
      0.789865     0.782222     0.774579     0.766936     0.759293     0.751650     0.744007     0.736364     0.728721     0.721077
      0.713434     0.705791     0.698148     0.690505     0.682862     0.675219     0.667576     0.659933     0.652290     0.644646
      0.637003     0.629360     0.621717     0.614074     0.606431     0.598788     0.591145     0.583502     0.575858     0.568215
      0.560572     0.552929     0.545286     0.537643     0.530000     0.522357     0.514714     0.507071     0.499427     0.491784
      0.484141     0.476498     0.468855     0.461212     0.453569     0.445925     0.438282     0.430639     0.422996     0.415353
      0.407710     0.400067     0.392424     0.384780     0.377137     0.369494     0.361851     0.354208     0.346565     0.338922
      0.331278     0.323635     0.315992     0.308349     0.300706     0.293063     0.285420     0.277777     0.270133     0.262490
      0.254847     0.247204     0.239561     0.231918     0.224275     0.216631     0.208988     0.201345
 NY phased data points follow
  -3.38450E+00 -1.53015E+00  5.03587E+00  5.23110E+00  8.96507E+00  1.89062E+01  2.10310E+01  3.43837E+01  4.27718E+01  5.54316E+01
   5.48301E+01  5.53008E+01  5.00093E+01  3.76461E+01  2.90081E+01  2.10455E+01  1.74851E+01  4.57258E+00  1.21067E+01  3.98953E+00
   6.95328E+00  1.90892E+00  6.45838E+00  7.54999E+00  1.18997E+01  8.98091E+00  8.12671E+00  1.28390E+01  1.88624E+01  1.72652E+01
   2.17770E+01  1.81776E+01  2.23048E+01  1.36336E+01  1.68329E+01  1.24943E+01  1.10231E+01  1.08461E+01  1.58158E+01  1.21174E+01
   1.80975E+01  1.35914E+01  1.39725E+01  8.99625E+00  1.65732E+01  2.54240E+01  2.64766E+01  2.65114E+01  2.37610E+01  1.75838E+01
   1.77559E+01  1.52681E+01  1.15269E+01  6.40483E+00  5.25948E+00  9.15402E+00  1.12253E+01  9.98399E+00  1.18315E+01  1.47642E+01
   4.82957E+00  3.10465E+00  1.18919E+00  1.22014E+00 -3.72756E+00 -1.16314E+00 -9.73164E-01  3.60062E+00 -4.12845E+00 -3.73762E+00
   3.33935E+00 -1.51138E+00  6.77155E+00  5.44114E+00  5.19186E+00  1.95553E+00  4.38008E+00  3.66478E+00  2.10613E-01  6.63381E+00
   2.84928E+00  5.93238E+00  2.94751E+00  6.59981E+00  4.53688E+00  6.53373E+00  3.45722E+00  1.29950E+00  1.51033E+00  6.20456E+00
   7.37595E+00  8.77643E+00  8.93207E+00  7.91132E+00  1.17396E+01  1.56490E+01  1.93768E+01  1.73168E+01  2.81331E+01  3.98274E+01
   5.43983E+01  7.77805E+01  8.43586E+01  8.70934E+01  8.17541E+01  6.44101E+01  5.01470E+01  3.76021E+01  3.12847E+01  2.29420E+01
   1.16138E+01  1.73148E+01  1.47432E+01  1.08348E+01  3.23302E+00  1.13311E+01  1.09374E+01  1.87591E+01  1.03929E+01  1.41204E+01
   1.99420E+01  2.17737E+01  2.24580E+01  3.52523E+01  5.00885E+01  7.31123E+01  8.16096E+01  8.74168E+01  8.05187E+01  6.39426E+01
   5.69966E+01  4.14219E+01  3.44599E+01  2.62122E+01  1.69394E+01  1.46577E+01  5.73977E+00  5.92100E+00  1.02353E+01  1.00949E+01
   1.34207E+01  1.56994E+01  6.16620E+00  1.16165E+01  9.36679E+00  1.34881E+01  9.52488E+00  1.05240E+01  8.08995E+00  9.53608E+00
   9.21560E+00  8.94391E+00  7.59447E+00  5.91634E+00  6.23888E+00  4.30899E+00  8.52503E+00  1.19841E+01  1.25288E+01  2.08181E+00
   1.08355E+00  7.65200E-01 -1.89124E+00  1.29735E+00  8.24551E+00  3.77079E+00  7.95191E+00  4.69822E+00  2.55458E+00 -1.03435E+00
  -6.42193E+00 -6.52764E-01 -6.84050E+00 -1.18461E+01 -1.10435E+01 -1.37165E+01 -7.98994E+00 -8.64534E+00 -7.81035E+00 -9.77132E+00
  -1.06822E+01 -9.15383E+00 -6.41099E+00 -1.10625E+01 -1.07734E+01 -7.72194E+00 -5.68054E+00 -3.40143E+00 -2.30570E-01  9.19051E+00
   9.97048E+00  1.25074E+01  1.05196E+01  1.14925E+01  1.59514E+01  1.41910E+01  6.97854E+00  3.90233E+00  2.08626E+00  2.65304E-01
   5.83919E+00  1.12240E+01  1.57284E+01  1.04023E+01  1.31079E+01  6.42941E+00  8.04988E+00  8.30967E+00  1.42261E+00  9.74171E-01
   2.81989E+00  5.92399E-01  1.10113E+01  1.30132E+01  1.88883E+01  2.04312E+01  2.21034E+01  1.88326E+01  1.96963E+01  1.26520E+01
   9.31429E+00  2.23941E+00  2.14308E+00  5.31926E+00  4.70524E+00  8.72288E+00  1.89798E+01  1.86535E+01  1.79222E+01  2.02876E+01
   2.00602E+01  1.88356E+01  2.21950E+01  1.47393E+01  1.60137E+01  1.91185E+01  1.96486E+01  2.23376E+01  2.17116E+01  1.85324E+01
   1.54895E+01  1.41621E+01  1.32499E+01  1.68981E+01  2.43899E+01  1.92759E+01  2.30085E+01  2.91499E+01  3.13714E+01  3.18449E+01
   3.57398E+01  3.79979E+01  4.55785E+01  5.62394E+01  6.60214E+01  6.61604E+01  6.56399E+01  8.32612E+01  1.11597E+02  1.48960E+02
   1.53371E+02  1.38299E+02  1.26578E+02  9.75728E+01  8.25287E+01  6.94272E+01  5.09281E+01  4.02748E+01  3.20882E+01  3.19773E+01
   2.58537E+01  2.53494E+01  2.37043E+01  2.19936E+01  2.50756E+01  2.04985E+01  2.25506E+01  2.58524E+01  2.00225E+01  1.64122E+01
   2.33437E+01  1.96087E+01  1.94431E+01  1.86775E+01  1.57148E+01  1.83734E+01  2.14961E+01  2.48969E+01  2.53517E+01  2.45234E+01
   2.52037E+01  2.29572E+01  2.63201E+01  2.23900E+01  2.44005E+01  2.57232E+01  2.58595E+01  2.73453E+01  2.95686E+01  2.90797E+01
   2.93020E+01  2.83544E+01  2.85755E+01  2.88138E+01  2.95521E+01  3.42515E+01  2.90948E+01  2.67210E+01  3.03842E+01  2.97668E+01
   3.33895E+01  3.47673E+01  3.02638E+01  3.09937E+01  3.34336E+01  3.70450E+01  3.07460E+01  3.58322E+01  4.10497E+01  3.57437E+01
   3.45183E+01  3.74633E+01  3.91160E+01  3.81374E+01  3.62577E+01  3.99454E+01  3.73163E+01  3.79652E+01  3.99979E+01  3.86740E+01
   3.89061E+01  3.63927E+01  3.61605E+01  3.63647E+01  4.23820E+01  4.09454E+01  4.46329E+01  4.58617E+01  4.44683E+01  4.46435E+01
   4.96758E+01  5.11194E+01  4.61958E+01  4.81176E+01  5.21228E+01  4.61309E+01  4.11200E+01  3.99539E+01  3.54835E+01  4.09815E+01
   3.55351E+01  3.56630E+01  3.81740E+01  4.11916E+01  3.48751E+01  3.35890E+01  3.70061E+01  3.06135E+01  2.83332E+01  2.82945E+01
   2.47064E+01  2.74834E+01  2.43769E+01  2.23607E+01  2.38947E+01  1.77033E+01  2.36285E+01  1.43606E+01  2.02619E+01  1.68062E+01
   1.84477E+01  1.44623E+01  1.79748E+01  1.48139E+01  1.88572E+01  1.35598E+01  1.58400E+01  1.52837E+01  1.82967E+01  1.37522E+01
   1.47814E+01  1.83454E+01  1.65446E+01  1.56479E+01  1.34514E+01  1.77443E+01  1.68107E+01  1.87199E+01  1.95813E+01  2.11498E+01
   1.68272E+01  1.76655E+01  1.52341E+01  1.87452E+01  2.13957E+01  2.14608E+01  2.69337E+01  2.11218E+01  2.64267E+01  1.92492E+01
   2.46452E+01  2.65371E+01  2.76935E+01  2.38635E+01  2.55040E+01  2.40546E+01  2.12195E+01  2.80431E+01  2.78938E+01  2.29415E+01
   2.51358E+01  2.68922E+01  2.55324E+01  1.99707E+01  2.18881E+01  2.18070E+01  2.08220E+01  1.70218E+01  1.86575E+01  1.88610E+01
   1.64801E+01  1.48956E+01  1.86422E+01  2.09082E+01  1.48220E+01  1.56441E+01  1.20775E+01  1.22884E+01  1.68467E+01  1.32060E+01
   1.22120E+01  1.24940E+01  1.04702E+01  1.07165E+01  1.33179E+01  1.41128E+01  1.00594E+01  1.42157E+01  1.42754E+01  1.13240E+01
   1.81888E+01  1.53666E+01  9.59061E+00  1.34511E+01  1.91395E+01  1.08429E+01  1.27935E+01  1.26252E+01  1.45974E+01  1.52766E+01
   1.38256E+01  1.30484E+01  8.52145E+00  9.88426E+00  1.14291E+01  1.36136E+01  1.46660E+01  1.40901E+01  1.41282E+01  1.08475E+01
   1.56689E+01  1.19710E+01  9.54992E+00  8.94188E+00  1.41633E+01  1.32580E+01  1.16513E+01  1.74909E+01  1.13925E+01  1.60941E+01
   1.08833E+01  1.36916E+01  1.51211E+01  9.24448E+00  1.13017E+01  1.12465E+01  1.11525E+01  1.68071E+01  1.21341E+01  1.00557E+01
   1.13857E+01  1.15895E+01  1.59678E+01  8.22125E+00  9.52999E+00  1.46918E+01  1.54337E+01  1.51110E+01  9.76263E+00  1.23720E+01
   1.48941E+01  1.27312E+01  1.25750E+01  1.14885E+01  8.92182E+00  1.51972E+01  1.01326E+01  1.83120E+01
 NY points of the fit to the data follow
   3.46236E-01  9.99747E-01  4.00247E+00  7.39761E+00  1.08329E+01  1.48690E+01  2.18439E+01  3.25713E+01  4.41732E+01  5.24407E+01
   5.47349E+01  5.12427E+01  4.44003E+01  3.68298E+01  2.98826E+01  2.38272E+01  1.83477E+01  1.35336E+01  1.02484E+01  8.36410E+00
   7.41246E+00  6.54032E+00  6.64023E+00  8.05719E+00  8.36272E+00  7.71136E+00  8.02265E+00  1.09110E+01  1.56049E+01  1.98138E+01
   2.25369E+01  2.35751E+01  2.29707E+01  2.12440E+01  1.87843E+01  1.59638E+01  1.29393E+01  9.67174E+00  7.31690E+00  7.14655E+00
   8.29381E+00  9.25714E+00  9.94631E+00  1.17425E+01  1.52107E+01  1.91397E+01  2.17052E+01  2.19091E+01  2.00089E+01  1.68984E+01
   1.34755E+01  1.06817E+01  8.84073E+00  7.46724E+00  6.42289E+00  5.91359E+00  6.29076E+00  7.39537E+00  8.60195E+00  9.36789E+00
   9.31667E+00  8.39842E+00  6.96275E+00  5.53078E+00  4.70348E+00  4.42839E+00  4.41570E+00  4.65320E+00  5.22893E+00  6.04433E+00
   6.81302E+00  7.22345E+00  7.21295E+00  6.88912E+00  6.40846E+00  5.93021E+00  5.53389E+00  5.22318E+00  4.96078E+00  4.81662E+00
   5.03210E+00  4.91852E+00  4.64796E+00  4.74399E+00  5.27629E+00  5.85464E+00  5.95796E+00  5.44723E+00  4.72135E+00  4.12847E+00
   3.74582E+00  3.72041E+00  4.05791E+00  4.71949E+00  6.37285E+00  1.20029E+01  1.90191E+01  2.16889E+01  2.50975E+01  3.66122E+01
   5.66360E+01  7.72129E+01  8.87790E+01  8.83304E+01  7.89458E+01  6.53254E+01  5.16117E+01  3.97778E+01  2.97145E+01  2.10270E+01
   1.38043E+01  9.30620E+00  7.57873E+00  6.83423E+00  6.45721E+00  6.27699E+00  6.22497E+00  6.35916E+00  7.18763E+00  1.14807E+01
   1.91596E+01  2.29037E+01  2.53873E+01  3.42707E+01  5.18130E+01  7.20114E+01  8.53163E+01  8.70732E+01  7.93655E+01  6.70914E+01
   5.47556E+01  4.43776E+01  3.54271E+01  2.67624E+01  1.84573E+01  1.19894E+01  8.72408E+00  7.50970E+00  7.65037E+00  8.57141E+00
   9.62045E+00  1.03288E+01  1.06061E+01  1.04842E+01  1.00376E+01  9.45776E+00  8.84435E+00  8.16545E+00  7.49259E+00  6.89675E+00
   6.39298E+00  5.94210E+00  5.53071E+00  5.11335E+00  4.59726E+00  4.37643E+00  4.48785E+00  4.56014E+00  4.25773E+00  3.21903E+00
   2.08225E+00  1.69378E+00  2.12911E+00  2.82718E+00  3.13305E+00  2.79203E+00  2.00787E+00  1.07589E+00  1.90682E-01 -6.14668E-01
  -1.14605E+00 -1.32934E+00 -1.77099E+00 -2.76278E+00 -3.98058E+00 -4.52789E+00 -4.05924E+00 -3.25915E+00 -2.94505E+00 -3.20969E+00
  -3.67640E+00 -3.52927E+00 -2.79831E+00 -2.15002E+00 -1.84158E+00 -1.56206E+00 -7.05787E-01  1.21426E+00  3.93510E+00  6.67323E+00
   8.56036E+00  9.12218E+00  8.90498E+00  8.25589E+00  7.27326E+00  6.11926E+00  5.26944E+00  5.43246E+00  6.45156E+00  7.97440E+00
   9.75395E+00  1.16617E+01  1.32185E+01  1.39282E+01  1.39769E+01  1.27914E+01  9.96863E+00  6.61835E+00  4.05493E+00  3.22000E+00
   3.19965E+00  3.65973E+00  5.73198E+00  9.77597E+00  1.44066E+01  1.74568E+01  1.80672E+01  1.70335E+01  1.46436E+01  1.05697E+01
   5.91743E+00  2.36695E+00  1.19729E+00  2.61058E+00  5.55431E+00  9.33926E+00  1.32293E+01  1.62224E+01  1.77697E+01  1.82855E+01
   1.86416E+01  1.88154E+01  1.87039E+01  1.89126E+01  1.99248E+01  2.12974E+01  2.23985E+01  2.30805E+01  2.32650E+01  2.25877E+01
   2.09735E+01  1.93877E+01  1.88615E+01  1.96489E+01  2.12988E+01  2.33348E+01  2.55371E+01  2.74723E+01  2.91038E+01  3.07299E+01
   3.19259E+01  3.31664E+01  3.72132E+01  4.99687E+01  6.28000E+01  6.71178E+01  7.25212E+01  8.96104E+01  1.16996E+02  1.41534E+02
   1.50814E+02  1.43434E+02  1.25285E+02  1.03254E+02  8.29868E+01  6.64535E+01  5.27003E+01  4.08540E+01  3.10693E+01  2.56193E+01
   2.37323E+01  2.28730E+01  2.24863E+01  2.23353E+01  2.21994E+01  2.19960E+01  2.17567E+01  2.14756E+01  2.11621E+01  2.08591E+01
   2.06153E+01  2.04459E+01  2.03592E+01  2.03573E+01  2.04243E+01  2.05420E+01  2.06971E+01  2.08952E+01  2.11525E+01  2.14799E+01
   2.18801E+01  2.23518E+01  2.28848E+01  2.34735E+01  2.41043E+01  2.47621E+01  2.54373E+01  2.61233E+01  2.68164E+01  2.75103E+01
   2.81935E+01  2.88532E+01  2.94724E+01  3.00351E+01  3.05298E+01  3.09489E+01  3.12883E+01  3.15473E+01  3.17298E+01  3.18465E+01
   3.19102E+01  3.19361E+01  3.19428E+01  3.19519E+01  3.19879E+01  3.20771E+01  3.22472E+01  3.25285E+01  3.29606E+01  3.36123E+01
   3.46324E+01  3.58492E+01  3.64896E+01  3.71966E+01  3.86726E+01  4.04938E+01  4.15352E+01  4.09460E+01  3.91774E+01  3.77899E+01
   3.67815E+01  3.58223E+01  3.54566E+01  3.64190E+01  3.89167E+01  4.21896E+01  4.51742E+01  4.72877E+01  4.82291E+01  4.82998E+01
   4.79756E+01  4.71179E+01  4.59597E+01  4.49960E+01  4.42684E+01  4.35800E+01  4.24388E+01  4.08375E+01  3.94187E+01  3.81334E+01
   3.68750E+01  3.59236E+01  3.55505E+01  3.57119E+01  3.59505E+01  3.57702E+01  3.50036E+01  3.36002E+01  3.17298E+01  2.96915E+01
   2.76732E+01  2.57593E+01  2.39876E+01  2.24081E+01  2.11494E+01  2.01783E+01  1.94189E+01  1.88222E+01  1.83508E+01  1.79751E+01
   1.76721E+01  1.74248E+01  1.72210E+01  1.70527E+01  1.69149E+01  1.68052E+01  1.67229E+01  1.66681E+01  1.66416E+01  1.66449E+01
   1.66800E+01  1.67492E+01  1.68551E+01  1.70000E+01  1.71860E+01  1.74154E+01  1.76900E+01  1.80117E+01  1.83810E+01  1.87976E+01
   1.92603E+01  1.97663E+01  2.03116E+01  2.08906E+01  2.14956E+01  2.21168E+01  2.27429E+01  2.33614E+01  2.39584E+01  2.45192E+01
   2.50288E+01  2.54723E+01  2.58360E+01  2.61082E+01  2.62794E+01  2.63423E+01  2.62932E+01  2.61312E+01  2.58596E+01  2.54844E+01
   2.50148E+01  2.44623E+01  2.38401E+01  2.31630E+01  2.24462E+01  2.17052E+01  2.09546E+01  2.02077E+01  1.94761E+01  1.87700E+01
   1.80976E+01  1.74651E+01  1.68767E+01  1.63346E+01  1.58397E+01  1.53917E+01  1.49893E+01  1.46302E+01  1.43116E+01  1.40302E+01
   1.37827E+01  1.35660E+01  1.33769E+01  1.32125E+01  1.30695E+01  1.29455E+01  1.28381E+01  1.27455E+01  1.26657E+01  1.25972E+01
   1.25383E+01  1.24879E+01  1.24449E+01  1.24087E+01  1.23783E+01  1.23530E+01  1.23321E+01  1.23150E+01  1.23015E+01  1.22912E+01
   1.22838E+01  1.22786E+01  1.22755E+01  1.22744E+01  1.22750E+01  1.22774E+01  1.22811E+01  1.22860E+01  1.22921E+01  1.22993E+01
   1.23075E+01  1.23168E+01  1.23268E+01  1.23375E+01  1.23489E+01  1.23611E+01  1.23739E+01  1.23874E+01  1.24013E+01  1.24156E+01
   1.24305E+01  1.24459E+01  1.24619E+01  1.24782E+01  1.24948E+01  1.25117E+01  1.25291E+01  1.25469E+01  1.25652E+01  1.25836E+01
   1.26023E+01  1.26214E+01  1.26409E+01  1.26608E+01  1.26809E+01  1.27013E+01  1.27220E+01  1.27431E+01  1.27647E+01  1.27866E+01
   1.28089E+01  1.28315E+01  1.28544E+01  1.28780E+01  1.29021E+01  1.29266E+01  1.29517E+01  1.29773E+01
 NY background values follow
    -2.708E+00   -2.650E+00   -2.591E+00   -2.532E+00   -2.474E+00   -2.416E+00   -2.358E+00   -2.300E+00   -2.242E+00   -2.185E+00
    -2.127E+00   -2.070E+00   -2.013E+00   -1.956E+00   -1.899E+00   -1.843E+00   -1.786E+00   -1.730E+00   -1.674E+00   -1.618E+00
    -1.562E+00   -1.506E+00   -1.451E+00   -1.395E+00   -1.340E+00   -1.285E+00   -1.230E+00   -1.175E+00   -1.121E+00   -1.066E+00
    -1.012E+00   -9.575E-01   -9.035E-01   -8.496E-01   -7.958E-01   -7.423E-01   -6.888E-01   -6.355E-01   -5.824E-01   -5.294E-01
    -4.765E-01   -4.238E-01   -3.713E-01   -3.189E-01   -2.666E-01   -2.145E-01   -1.625E-01   -1.107E-01   -5.906E-02   -7.551E-03
     4.381E-02    9.500E-02    1.460E-01    1.969E-01    2.476E-01    2.982E-01    3.485E-01    3.987E-01    4.487E-01    4.986E-01
     5.482E-01    5.977E-01    6.470E-01    6.961E-01    7.450E-01    7.937E-01    8.422E-01    8.905E-01    9.386E-01    9.865E-01
     1.034E+00    1.082E+00    1.129E+00    1.176E+00    1.223E+00    1.270E+00    1.316E+00    1.362E+00    1.408E+00    1.454E+00
     1.499E+00    1.545E+00    1.590E+00    1.634E+00    1.679E+00    1.723E+00    1.767E+00    1.811E+00    1.855E+00    1.898E+00
     1.941E+00    1.984E+00    2.026E+00    2.068E+00    2.110E+00    2.152E+00    2.193E+00    2.233E+00    2.273E+00    2.313E+00
     2.352E+00    2.391E+00    2.429E+00    2.466E+00    2.503E+00    2.539E+00    2.574E+00    2.609E+00    2.643E+00    2.676E+00
     2.708E+00    2.739E+00    2.770E+00    2.799E+00    2.828E+00    2.855E+00    2.882E+00    2.907E+00    2.932E+00    2.955E+00
     2.977E+00    2.998E+00    3.018E+00    3.037E+00    3.054E+00    3.070E+00    3.085E+00    3.098E+00    3.110E+00    3.121E+00
     3.130E+00    3.137E+00    3.143E+00    3.148E+00    3.151E+00    3.152E+00    3.152E+00    3.150E+00    3.147E+00    3.142E+00
     3.137E+00    3.129E+00    3.121E+00    3.112E+00    3.102E+00    3.092E+00    3.081E+00    3.069E+00    3.057E+00    3.045E+00
     3.032E+00    3.019E+00    3.007E+00    2.995E+00    2.983E+00    2.971E+00    2.960E+00    2.949E+00    2.940E+00    2.931E+00
     2.923E+00    2.916E+00    2.910E+00    2.905E+00    2.902E+00    2.901E+00    2.901E+00    2.902E+00    2.906E+00    2.911E+00
     2.919E+00    2.929E+00    2.941E+00    2.955E+00    2.972E+00    2.991E+00    3.014E+00    3.039E+00    3.067E+00    3.098E+00
     3.132E+00    3.169E+00    3.210E+00    3.254E+00    3.301E+00    3.352E+00    3.405E+00    3.462E+00    3.521E+00    3.583E+00
     3.648E+00    3.716E+00    3.787E+00    3.860E+00    3.936E+00    4.014E+00    4.095E+00    4.178E+00    4.264E+00    4.351E+00
     4.441E+00    4.533E+00    4.627E+00    4.723E+00    4.821E+00    4.921E+00    5.022E+00    5.126E+00    5.231E+00    5.337E+00
     5.445E+00    5.555E+00    5.666E+00    5.778E+00    5.892E+00    6.007E+00    6.123E+00    6.240E+00    6.358E+00    6.477E+00
     6.597E+00    6.718E+00    6.839E+00    6.961E+00    7.084E+00    7.208E+00    7.332E+00    7.456E+00    7.581E+00    7.706E+00
     7.832E+00    7.957E+00    8.083E+00    8.209E+00    8.336E+00    8.462E+00    8.588E+00    8.714E+00    8.841E+00    8.967E+00
     9.093E+00    9.218E+00    9.344E+00    9.469E+00    9.594E+00    9.718E+00    9.842E+00    9.965E+00    1.009E+01    1.021E+01
     1.033E+01    1.045E+01    1.057E+01    1.069E+01    1.081E+01    1.093E+01    1.105E+01    1.116E+01    1.128E+01    1.139E+01
     1.150E+01    1.161E+01    1.173E+01    1.183E+01    1.194E+01    1.205E+01    1.215E+01    1.226E+01    1.236E+01    1.246E+01
     1.256E+01    1.266E+01    1.275E+01    1.285E+01    1.294E+01    1.303E+01    1.312E+01    1.320E+01    1.329E+01    1.337E+01
     1.346E+01    1.353E+01    1.361E+01    1.369E+01    1.376E+01    1.384E+01    1.391E+01    1.397E+01    1.404E+01    1.411E+01
     1.417E+01    1.423E+01    1.429E+01    1.435E+01    1.440E+01    1.445E+01    1.450E+01    1.455E+01    1.460E+01    1.464E+01
     1.468E+01    1.472E+01    1.476E+01    1.480E+01    1.483E+01    1.486E+01    1.489E+01    1.492E+01    1.494E+01    1.497E+01
     1.499E+01    1.500E+01    1.502E+01    1.503E+01    1.504E+01    1.505E+01    1.506E+01    1.506E+01    1.506E+01    1.506E+01
     1.506E+01    1.505E+01    1.504E+01    1.503E+01    1.502E+01    1.501E+01    1.499E+01    1.497E+01    1.495E+01    1.493E+01
     1.491E+01    1.488E+01    1.486E+01    1.483E+01    1.480E+01    1.477E+01    1.474E+01    1.471E+01    1.467E+01    1.464E+01
     1.460E+01    1.456E+01    1.452E+01    1.448E+01    1.444E+01    1.440E+01    1.436E+01    1.431E+01    1.427E+01    1.422E+01
     1.418E+01    1.413E+01    1.409E+01    1.404E+01    1.399E+01    1.395E+01    1.390E+01    1.385E+01    1.380E+01    1.376E+01
     1.371E+01    1.366E+01    1.361E+01    1.357E+01    1.352E+01    1.347E+01    1.342E+01    1.338E+01    1.333E+01    1.329E+01
     1.324E+01    1.319E+01    1.315E+01    1.311E+01    1.306E+01    1.302E+01    1.298E+01    1.293E+01    1.289E+01    1.285E+01
     1.281E+01    1.277E+01    1.273E+01    1.269E+01    1.266E+01    1.262E+01    1.258E+01    1.255E+01    1.252E+01    1.248E+01
     1.245E+01    1.242E+01    1.239E+01    1.236E+01    1.233E+01    1.231E+01    1.228E+01    1.226E+01    1.224E+01    1.221E+01
     1.219E+01    1.217E+01    1.216E+01    1.214E+01    1.213E+01    1.211E+01    1.210E+01    1.209E+01    1.208E+01    1.208E+01
     1.207E+01    1.207E+01    1.206E+01    1.206E+01    1.206E+01    1.206E+01    1.207E+01    1.207E+01    1.207E+01    1.208E+01
     1.209E+01    1.209E+01    1.210E+01    1.211E+01    1.213E+01    1.214E+01    1.215E+01    1.216E+01    1.218E+01    1.219E+01
     1.221E+01    1.223E+01    1.224E+01    1.226E+01    1.228E+01    1.230E+01    1.232E+01    1.234E+01    1.236E+01    1.238E+01
     1.240E+01    1.242E+01    1.245E+01    1.247E+01    1.249E+01    1.251E+01    1.254E+01    1.256E+01    1.258E+01    1.261E+01
     1.263E+01    1.265E+01    1.268E+01    1.270E+01    1.272E+01    1.274E+01    1.277E+01    1.279E+01    1.281E+01    1.283E+01
     1.286E+01    1.288E+01    1.290E+01    1.292E+01    1.295E+01    1.297E+01    1.299E+01    1.301E+01    1.304E+01    1.306E+01
     1.308E+01    1.310E+01    1.312E+01    1.315E+01    1.317E+01    1.319E+01    1.321E+01    1.323E+01    1.325E+01    1.328E+01
     1.330E+01    1.332E+01    1.334E+01    1.336E+01    1.339E+01    1.341E+01    1.343E+01    1.345E+01    1.347E+01    1.349E+01
     1.352E+01    1.354E+01    1.356E+01    1.358E+01    1.360E+01    1.363E+01    1.365E+01    1.367E+01
 Ala      Conc. = 5.87E+02
