 LCModel (Version 6.3-1L) Copyright: S.W. Provencher.          Ref.: Magn. Reson. Med. 30:672-679 (1993).                
 Slice#2 Row#9 Col#10  K_02_press_1_raw_act
 36 lines in following concentration table = NCONC+1
    Conc.  %SD /Cr+PCr  Metabolite                                         
  404.590  24%   0.221 Ala                                                 
    0.000 999%   0.000 Asp                                                 
  806.770  25%   0.441 Cr                                                  
 1.02E+03  21%   0.559 PCr                                                 
    0.000 999%   0.000 GABA                                                
    0.000 999%   0.000 Glc                                                 
  340.634  56%   0.186 Gln                                                 
 1.72E+03  13%   0.940 Glu                                                 
  808.322   3%   0.442 GPC                                                 
    0.000 999%   0.000 PCh                                                 
  497.343  15%   0.272 GSH                                                 
 1.29E+03  20%   0.708 Ins                                                 
   75.569 135% 4.1E-02 Lac                                                 
 2.92E+03   4%   1.599 NAA                                                 
 1.10E+03   9%   0.604 NAAG                                                
   91.647  33% 5.0E-02 Scyllo                                              
    0.000 999%   0.000 Tau                                                 
  472.084  26%   0.258 -CrCH2                                              
  808.322   3%   0.442 GPC+PCh                                             
 4.03E+03   2%   2.203 NAA+NAAG                                            
 1.83E+03   4%   1.000 Cr+PCr                                              
 2.06E+03  14%   1.127 Glu+Gln                                             
    0.000 999%   0.000 Lip13a                                              
  125.472 108% 6.9E-02 Lip13b                                              
   32.738 133% 1.8E-02 Lip09                                               
 1.66E+03  17%   0.908 MM09                                                
   19.694 133% 1.1E-02 Lip20                                               
 3.08E+03  17%   1.682 MM20                                                
  405.017  47%   0.221 MM12                                                
  782.693  49%   0.428 MM14                                                
 1.25E+03  25%   0.682 MM17                                                
  125.472 108% 6.9E-02 Lip13a+Lip13b                                       
 1.31E+03  37%   0.718 MM14+Lip13a+Lip13b+MM12                             
 1.69E+03  17%   0.926 MM09+Lip09                                          
 3.10E+03  16%   1.693 MM20+Lip20                                          
   6 lines in following misc. output table
  FWHM = 0.031 ppm    S/N =  18                                            
  Data shift = 0.008 ppm                                                   
  Ph: -38 deg     -15.3 deg/ppm                                            
  alphaB,S = 4.2E-01,   5.1E+01                                            
   14 spline knots.   Ns = 5(1)                                            
  ( 5) 3 infls.   ( 3) 3 extrs.                                            
  498 points on ppm-axis = NY
      4.000000     3.992357     3.984714     3.977070     3.969427     3.961784     3.954141     3.946497     3.938854     3.931211
      3.923568     3.915925     3.908281     3.900638     3.892995     3.885352     3.877708     3.870065     3.862422     3.854779
      3.847136     3.839492     3.831849     3.824206     3.816563     3.808919     3.801276     3.793633     3.785990     3.778347
      3.770703     3.763060     3.755417     3.747774     3.740130     3.732487     3.724844     3.717201     3.709558     3.701914
      3.694271     3.686628     3.678985     3.671341     3.663698     3.656055     3.648412     3.640769     3.633125     3.625482
      3.617839     3.610196     3.602552     3.594909     3.587266     3.579623     3.571980     3.564336     3.556693     3.549050
      3.541407     3.533763     3.526120     3.518477     3.510834     3.503191     3.495547     3.487904     3.480261     3.472618
      3.464974     3.457331     3.449688     3.442045     3.434402     3.426758     3.419115     3.411472     3.403829     3.396185
      3.388542     3.380899     3.373256     3.365613     3.357969     3.350326     3.342683     3.335040     3.327396     3.319753
      3.312110     3.304467     3.296824     3.289180     3.281537     3.273894     3.266251     3.258607     3.250964     3.243321
      3.235678     3.228034     3.220391     3.212748     3.205105     3.197462     3.189818     3.182175     3.174532     3.166889
      3.159245     3.151602     3.143959     3.136316     3.128673     3.121029     3.113386     3.105743     3.098100     3.090456
      3.082813     3.075170     3.067527     3.059884     3.052240     3.044597     3.036954     3.029311     3.021667     3.014024
      3.006381     2.998738     2.991095     2.983451     2.975808     2.968165     2.960522     2.952878     2.945235     2.937592
      2.929949     2.922306     2.914662     2.907019     2.899376     2.891733     2.884089     2.876446     2.868803     2.861160
      2.853517     2.845873     2.838230     2.830587     2.822944     2.815300     2.807657     2.800014     2.792371     2.784728
      2.777084     2.769441     2.761798     2.754155     2.746511     2.738868     2.731225     2.723582     2.715939     2.708295
      2.700652     2.693009     2.685366     2.677722     2.670079     2.662436     2.654793     2.647150     2.639506     2.631863
      2.624220     2.616577     2.608933     2.601290     2.593647     2.586004     2.578361     2.570717     2.563074     2.555431
      2.547788     2.540144     2.532501     2.524858     2.517215     2.509572     2.501928     2.494285     2.486642     2.478999
      2.471355     2.463712     2.456069     2.448426     2.440783     2.433139     2.425496     2.417853     2.410210     2.402566
      2.394923     2.387280     2.379637     2.371994     2.364350     2.356707     2.349064     2.341421     2.333777     2.326134
      2.318491     2.310848     2.303205     2.295561     2.287918     2.280275     2.272632     2.264988     2.257345     2.249702
      2.242059     2.234416     2.226772     2.219129     2.211486     2.203843     2.196199     2.188556     2.180913     2.173270
      2.165627     2.157983     2.150340     2.142697     2.135054     2.127410     2.119767     2.112124     2.104481     2.096838
      2.089194     2.081551     2.073908     2.066265     2.058621     2.050978     2.043335     2.035692     2.028049     2.020405
      2.012762     2.005119     1.997476     1.989833     1.982190     1.974546     1.966903     1.959260     1.951617     1.943974
      1.936331     1.928688     1.921045     1.913402     1.905759     1.898115     1.890472     1.882829     1.875186     1.867543
      1.859900     1.852257     1.844614     1.836971     1.829327     1.821684     1.814041     1.806398     1.798755     1.791112
      1.783469     1.775826     1.768183     1.760540     1.752896     1.745253     1.737610     1.729967     1.722324     1.714681
      1.707038     1.699395     1.691752     1.684108     1.676465     1.668822     1.661179     1.653536     1.645893     1.638250
      1.630607     1.622964     1.615321     1.607677     1.600034     1.592391     1.584748     1.577105     1.569462     1.561819
      1.554176     1.546533     1.538890     1.531246     1.523603     1.515960     1.508317     1.500674     1.493031     1.485388
      1.477745     1.470102     1.462458     1.454815     1.447172     1.439529     1.431886     1.424243     1.416600     1.408957
      1.401314     1.393671     1.386027     1.378384     1.370741     1.363098     1.355455     1.347812     1.340169     1.332526
      1.324883     1.317240     1.309596     1.301953     1.294310     1.286667     1.279024     1.271381     1.263738     1.256095
      1.248452     1.240808     1.233165     1.225522     1.217879     1.210236     1.202593     1.194950     1.187307     1.179664
      1.172021     1.164377     1.156734     1.149091     1.141448     1.133805     1.126162     1.118519     1.110876     1.103233
      1.095590     1.087946     1.080303     1.072660     1.065017     1.057374     1.049731     1.042088     1.034445     1.026802
      1.019158     1.011515     1.003872     0.996229     0.988586     0.980943     0.973300     0.965657     0.958014     0.950371
      0.942727     0.935084     0.927441     0.919798     0.912155     0.904512     0.896869     0.889226     0.881583     0.873940
      0.866296     0.858653     0.851010     0.843367     0.835724     0.828081     0.820438     0.812795     0.805152     0.797508
      0.789865     0.782222     0.774579     0.766936     0.759293     0.751650     0.744007     0.736364     0.728721     0.721077
      0.713434     0.705791     0.698148     0.690505     0.682862     0.675219     0.667576     0.659933     0.652290     0.644646
      0.637003     0.629360     0.621717     0.614074     0.606431     0.598788     0.591145     0.583502     0.575858     0.568215
      0.560572     0.552929     0.545286     0.537643     0.530000     0.522357     0.514714     0.507071     0.499427     0.491784
      0.484141     0.476498     0.468855     0.461212     0.453569     0.445925     0.438282     0.430639     0.422996     0.415353
      0.407710     0.400067     0.392424     0.384780     0.377137     0.369494     0.361851     0.354208     0.346565     0.338922
      0.331278     0.323635     0.315992     0.308349     0.300706     0.293063     0.285420     0.277777     0.270133     0.262490
      0.254847     0.247204     0.239561     0.231918     0.224275     0.216631     0.208988     0.201345
 NY phased data points follow
  -1.40964E+01 -1.19685E+01 -1.45075E+01 -1.27926E+01 -1.03590E+01 -1.02111E+01 -1.25529E+00  4.05600E+00  1.16513E+01  1.96632E+01
   2.54807E+01  2.84352E+01  2.69724E+01  1.78239E+01  9.72250E+00 -2.86505E-01 -5.02645E+00 -9.55264E+00 -1.01697E+01 -1.02210E+01
  -7.14047E+00 -7.67069E+00 -9.58651E+00 -3.62122E+00 -2.51682E+00 -2.66743E+00 -1.51394E+00 -1.69895E+00  3.30965E-01 -1.98609E+00
   3.30956E+00  2.91995E+00  3.39974E+00  5.51678E+00  4.61414E+00  4.06036E-01  5.90396E-01  7.30123E-01  5.29482E+00  3.96115E+00
   6.14402E-01  2.48239E+00  3.17662E+00  4.61268E+00  4.45641E+00  1.13196E+01  1.10542E+01  1.75949E+01  1.87706E+01  1.51078E+01
   1.01522E+01  6.55055E+00  2.07105E+00  5.57368E+00  7.44837E+00  3.68561E+00  3.90284E+00  4.09392E+00  7.66466E+00  1.87826E+00
   7.47873E-01 -6.75817E-01 -7.83498E+00 -8.13609E+00 -1.09283E+01 -8.02229E+00 -1.07066E+01 -1.35052E+01 -8.39170E+00 -7.05098E+00
  -8.71972E+00 -4.09791E+00 -5.02017E+00 -4.51528E+00 -2.76488E+00 -2.44221E+00 -1.21373E+00 -1.69228E+00 -3.42681E+00 -2.25788E+00
  -2.68111E-01 -1.68395E+00  1.23073E+00  1.77168E+00 -2.34931E-01  1.77052E+00  6.78016E-01  2.96567E+00  3.51601E+00  4.55169E+00
   5.98590E+00  8.28049E+00  1.21336E+01  4.96028E+00  1.03579E+01  9.45114E+00  1.42642E+01  1.68296E+01  1.71337E+01  2.17836E+01
   3.63791E+01  6.34711E+01  8.98624E+01  1.03564E+02  9.09639E+01  6.92527E+01  4.71125E+01  3.27941E+01  2.07521E+01  1.10310E+01
   1.07531E+01  7.07417E+00  7.13318E+00  2.01739E+00  7.33999E+00  2.17098E+00  7.18139E+00  7.40091E+00  1.01877E+01  9.94785E+00
   9.48975E+00  1.41320E+01  1.74454E+01  1.28247E+01  2.47706E+01  5.01620E+01  7.25822E+01  8.77632E+01  8.34005E+01  6.52191E+01
   4.49294E+01  3.76405E+01  2.28094E+01  1.71386E+01  8.89932E+00  6.39993E+00  1.69804E+00  2.77352E+00  5.22132E+00  3.40079E+00
   2.67019E+00  8.57773E+00  7.20022E+00  1.08455E+01  4.34509E+00  9.14459E+00  7.70274E+00  8.39747E+00  6.19097E+00  3.97515E+00
   5.52157E+00  6.69807E+00  4.78323E+00  5.30096E+00  5.10166E+00  6.13348E+00  2.72313E+00  5.79950E+00  6.41096E+00  1.00967E+01
   1.03780E+01  6.35471E+00 -3.05643E+00 -4.15217E+00 -1.03746E+00  6.08344E+00  4.50685E+00  2.18361E+00 -5.53867E+00 -5.18792E+00
  -9.70895E+00 -1.26357E+01 -7.03846E+00 -1.01963E+01 -1.14450E+01 -2.10548E+01 -2.43439E+01 -1.82330E+01 -9.69483E+00 -6.22976E+00
  -5.79076E+00 -1.03328E+01 -7.83883E+00 -1.37074E+01 -6.62537E+00 -7.40170E+00 -8.62860E+00 -8.76079E+00 -6.00916E+00  2.91870E-02
   9.92624E+00  9.64187E+00  8.05631E+00  7.83952E+00  6.90869E+00  6.11831E+00  3.64598E+00 -2.12051E+00 -2.65577E+00 -5.55749E-01
  -1.36601E+00  2.41577E+00  5.87677E+00  1.07615E+01  1.65468E+01  1.51951E+01  7.43919E+00  4.15268E+00  5.68873E+00  5.03538E+00
   6.44852E+00  5.66751E+00  7.92470E+00  1.58651E+01  1.79920E+01  2.35109E+01  2.56386E+01  2.78448E+01  2.19455E+01  1.71721E+01
   1.22099E+01  2.05921E+00  5.28072E-01  3.46281E+00  8.40682E+00  1.21518E+01  1.90469E+01  2.20076E+01  2.25805E+01  2.30004E+01
   2.43049E+01  1.94171E+01  1.73719E+01  1.59998E+01  1.68958E+01  1.98496E+01  1.85128E+01  1.54389E+01  2.21800E+01  2.11121E+01
   1.53993E+01  1.51075E+01  7.80571E+00  9.15929E+00  1.32584E+01  1.75464E+01  2.18998E+01  2.41281E+01  2.55267E+01  3.37970E+01
   2.78102E+01  2.50026E+01  2.60314E+01  3.49253E+01  6.71563E+01  8.76263E+01  9.36789E+01  8.16439E+01  9.35031E+01  1.34368E+02
   1.71971E+02  1.74408E+02  1.37123E+02  1.01348E+02  7.41260E+01  5.07731E+01  3.23227E+01  2.53608E+01  2.17676E+01  2.05310E+01
   1.47558E+01  2.03089E+01  2.24406E+01  2.16881E+01  2.11088E+01  1.39315E+01  2.10003E+01  1.80460E+01  2.21809E+01  2.08136E+01
   2.20832E+01  2.11694E+01  2.04894E+01  2.09845E+01  1.66997E+01  1.73971E+01  1.24711E+01  1.67691E+01  1.83493E+01  1.88461E+01
   2.22875E+01  1.99390E+01  1.81503E+01  1.77466E+01  2.16439E+01  1.50234E+01  1.65231E+01  1.52150E+01  1.68693E+01  2.14688E+01
   1.69458E+01  1.95111E+01  1.85256E+01  1.68760E+01  2.23825E+01  2.22624E+01  1.83663E+01  2.35020E+01  2.46191E+01  2.06470E+01
   2.82358E+01  2.70239E+01  2.39671E+01  2.75614E+01  2.60480E+01  2.96686E+01  2.52744E+01  2.59615E+01  2.27945E+01  2.40991E+01
   2.57519E+01  2.46575E+01  2.12029E+01  2.08015E+01  1.57631E+01  1.69343E+01  1.48624E+01  1.64304E+01  1.64128E+01  1.19124E+01
   1.35999E+01  6.73077E+00  9.20491E+00  9.72704E+00  1.63958E+01  1.91889E+01  2.40591E+01  2.07381E+01  2.71800E+01  2.47566E+01
   2.20615E+01  2.11205E+01  1.75410E+01  1.74992E+01  1.73913E+01  2.03687E+01  2.23616E+01  2.03414E+01  1.78338E+01  1.79547E+01
   1.25276E+01  1.91595E+01  1.63384E+01  1.77567E+01  1.87038E+01  1.99685E+01  1.90519E+01  1.77433E+01  1.80331E+01  1.82171E+01
   1.43435E+01  1.64276E+01  1.26763E+01  1.43211E+01  1.64129E+01  1.46649E+01  1.32001E+01  9.52720E+00  1.71567E+01  1.25123E+01
   1.65839E+01  1.72640E+01  1.66600E+01  1.59846E+01  1.37896E+01  1.55760E+01  1.60749E+01  1.44032E+01  1.53794E+01  1.31822E+01
   1.12408E+01  1.39337E+01  1.52581E+01  1.59221E+01  1.44365E+01  1.22501E+01  1.99619E+01  1.27601E+01  1.64003E+01  1.72807E+01
   1.47522E+01  1.69186E+01  1.82572E+01  2.11071E+01  2.25451E+01  2.37809E+01  2.40104E+01  2.64737E+01  2.61508E+01  2.56632E+01
   2.12063E+01  1.97706E+01  2.24546E+01  2.23399E+01  2.60079E+01  2.45554E+01  2.18940E+01  2.69543E+01  2.31321E+01  2.69157E+01
   3.04743E+01  2.55786E+01  2.63219E+01  2.89847E+01  2.55476E+01  2.03217E+01  2.28587E+01  1.99629E+01  2.18981E+01  2.42440E+01
   1.78001E+01  1.93764E+01  1.86116E+01  1.55228E+01  2.18801E+01  1.59322E+01  1.91720E+01  1.39367E+01  1.41051E+01  1.63318E+01
   1.36902E+01  1.32547E+01  1.55642E+01  1.61128E+01  1.58520E+01  1.67894E+01  1.62043E+01  1.37306E+01  1.65002E+01  2.27964E+01
   1.74881E+01  1.71842E+01  1.31822E+01  1.48995E+01  1.92326E+01  1.44354E+01  1.78529E+01  1.79140E+01  1.52309E+01  1.45396E+01
   1.41174E+01  1.29830E+01  1.35453E+01  1.56556E+01  1.37910E+01  1.44880E+01  1.47298E+01  1.80539E+01  1.91420E+01  1.49913E+01
   1.65332E+01  1.77682E+01  1.58481E+01  2.03271E+01  1.34553E+01  1.30506E+01  1.60800E+01  1.39716E+01  1.84145E+01  1.21809E+01
   1.39723E+01  1.57572E+01  1.54791E+01  1.66377E+01  1.41321E+01  1.39322E+01  1.30495E+01  1.39827E+01  1.55336E+01  1.71602E+01
   1.52617E+01  1.49635E+01  1.66861E+01  1.03267E+01  1.55349E+01  1.21384E+01  1.50233E+01  1.61394E+01  1.36373E+01  1.54997E+01
   1.42490E+01  1.36563E+01  1.47302E+01  1.65487E+01  1.04647E+01  8.14357E+00  1.55710E+01  1.50107E+01
 NY points of the fit to the data follow
  -1.30240E+01 -1.29923E+01 -1.24775E+01 -1.12188E+01 -8.99241E+00 -6.53605E+00 -2.23914E+00  3.75003E+00  1.11583E+01  1.98547E+01
   2.68922E+01  2.87327E+01  2.44825E+01  1.66316E+01  8.98907E+00  3.39449E+00 -4.69292E-01 -3.40520E+00 -5.03789E+00 -5.58660E+00
  -5.57791E+00 -5.54310E+00 -5.59604E+00 -5.76518E+00 -5.38158E+00 -4.81816E+00 -5.76295E+00 -5.91430E+00 -2.83794E+00  2.25693E+00
   6.31838E+00  7.90608E+00  8.31934E+00  8.20273E+00  6.77750E+00  3.76399E+00  3.94977E-01 -1.84392E+00 -3.31338E+00 -4.40063E+00
  -4.31925E+00 -2.72172E+00 -7.13895E-01  6.13860E-01  2.08519E+00  5.10709E+00  9.10087E+00  1.17829E+01  1.14644E+01  8.77316E+00
   5.40057E+00  2.29645E+00 -2.45186E-01 -1.84560E+00 -2.24213E+00 -2.01498E+00 -1.56913E+00 -7.65891E-01  5.09253E-01  1.95039E+00
   2.76915E+00  2.48435E+00  1.33016E+00 -1.91318E-01 -1.50859E+00 -2.27241E+00 -2.19798E+00 -1.52166E+00 -7.15605E-01  1.51128E-01
   1.08981E+00  1.91800E+00  2.29679E+00  2.11615E+00  1.66140E+00  1.25001E+00  1.00293E+00  8.48300E-01  7.93878E-01  8.55287E-01
   9.69000E-01  1.12614E+00  1.53841E+00  1.72990E+00  2.01776E+00  3.11490E+00  4.51088E+00  5.07765E+00  4.37210E+00  3.06779E+00
   2.15970E+00  2.05913E+00  2.34794E+00  2.84156E+00  3.70456E+00  4.68893E+00  5.98056E+00  9.84727E+00  1.55643E+01  2.04352E+01
   3.52782E+01  6.40644E+01  9.29329E+01  1.03996E+02  9.25368E+01  6.96723E+01  4.81576E+01  3.14776E+01  1.81804E+01  9.35937E+00
   6.00935E+00  4.95729E+00  4.56089E+00  4.41721E+00  4.37906E+00  4.40387E+00  4.50308E+00  4.63748E+00  4.78651E+00  5.04993E+00
   5.74231E+00  8.34176E+00  1.41632E+01  1.77324E+01  2.61472E+01  4.74806E+01  7.37304E+01  8.84462E+01  8.33311E+01  6.52444E+01
   4.66221E+01  3.29499E+01  2.24655E+01  1.41179E+01  9.44429E+00  6.40156E+00  4.07954E+00  2.89706E+00  2.87405E+00  3.87234E+00
   5.45198E+00  6.84547E+00  7.44316E+00  7.25887E+00  6.64385E+00  5.89568E+00  5.24664E+00  4.74645E+00  4.35700E+00  3.98522E+00
   3.66793E+00  3.27000E+00  2.63778E+00  1.97745E+00  1.59749E+00  1.72305E+00  2.16802E+00  2.88866E+00  3.10013E+00  2.03175E+00
   1.67470E-01 -1.67727E+00 -2.02344E+00 -6.21909E-01  9.33069E-01  1.27831E+00  3.47596E-01 -1.30844E+00 -2.87171E+00 -3.72463E+00
  -3.89154E+00 -3.64605E+00 -3.33694E+00 -3.61120E+00 -5.12155E+00 -6.84865E+00 -7.43395E+00 -6.16176E+00 -4.09025E+00 -3.37883E+00
  -4.34077E+00 -5.22518E+00 -4.89134E+00 -3.37951E+00 -2.16226E+00 -2.08958E+00 -2.02602E+00 -4.95159E-01  2.46709E+00  6.06184E+00
   9.15814E+00  1.07913E+01  1.07566E+01  9.26295E+00  7.56635E+00  6.21675E+00  5.13772E+00  4.45862E+00  4.71248E+00  6.03327E+00
   7.42873E+00  8.85127E+00  1.06426E+01  1.26178E+01  1.39455E+01  1.33391E+01  1.13014E+01  8.34175E+00  4.78179E+00  2.08498E+00
   8.42552E-01  1.12915E+00  2.19438E+00  4.89420E+00  1.03821E+01  1.67745E+01  2.05055E+01  1.95742E+01  1.56236E+01  1.10419E+01
   5.89210E+00  1.86339E-01 -3.57605E+00 -2.77402E+00  2.08712E+00  8.07822E+00  1.29039E+01  1.62914E+01  1.84705E+01  1.89166E+01
   1.76108E+01  1.59514E+01  1.55932E+01  1.66405E+01  1.82431E+01  1.98645E+01  2.11975E+01  2.18333E+01  2.11748E+01  1.94398E+01
   1.72008E+01  1.51298E+01  1.40819E+01  1.49500E+01  1.76131E+01  2.07971E+01  2.32951E+01  2.47793E+01  2.53741E+01  2.55198E+01
   2.72047E+01  2.92571E+01  3.16866E+01  4.15682E+01  5.97547E+01  8.22011E+01  9.23535E+01  8.74901E+01  9.93819E+01  1.35893E+02
   1.69175E+02  1.70504E+02  1.41100E+02  1.04111E+02  7.51355E+01  5.34493E+01  3.53019E+01  2.47127E+01  2.19006E+01  2.07682E+01
   2.00675E+01  1.96321E+01  1.95295E+01  1.96561E+01  1.96901E+01  1.93141E+01  1.86175E+01  1.79698E+01  1.75469E+01  1.71661E+01
   1.68561E+01  1.67708E+01  1.68977E+01  1.70229E+01  1.69984E+01  1.68413E+01  1.66796E+01  1.65020E+01  1.62737E+01  1.61265E+01
   1.62091E+01  1.65017E+01  1.68868E+01  1.72375E+01  1.75506E+01  1.78697E+01  1.81523E+01  1.83831E+01  1.86524E+01  1.90474E+01
   1.95748E+01  2.01785E+01  2.08019E+01  2.14191E+01  2.20134E+01  2.25522E+01  2.30163E+01  2.34048E+01  2.37099E+01  2.39276E+01
   2.40563E+01  2.40918E+01  2.40318E+01  2.38808E+01  2.36528E+01  2.33656E+01  2.30387E+01  2.26907E+01  2.23462E+01  2.20386E+01
   2.18201E+01  2.17945E+01  2.19856E+01  2.19179E+01  2.23012E+01  2.34015E+01  2.37740E+01  2.20523E+01  1.84953E+01  1.47677E+01
   1.25658E+01  1.13463E+01  1.03608E+01  1.08432E+01  1.37307E+01  1.77530E+01  2.08841E+01  2.21694E+01  2.21176E+01  2.16053E+01
   2.09104E+01  2.00346E+01  1.93491E+01  1.89326E+01  1.87099E+01  1.87404E+01  1.87819E+01  1.85113E+01  1.78808E+01  1.71708E+01
   1.67448E+01  1.65306E+01  1.64156E+01  1.65918E+01  1.71777E+01  1.79001E+01  1.83559E+01  1.84038E+01  1.81738E+01  1.78347E+01
   1.74419E+01  1.70134E+01  1.66338E+01  1.63307E+01  1.60837E+01  1.58834E+01  1.57232E+01  1.55949E+01  1.54913E+01  1.54059E+01
   1.53358E+01  1.52779E+01  1.52306E+01  1.51917E+01  1.51616E+01  1.51416E+01  1.51350E+01  1.51439E+01  1.51703E+01  1.52154E+01
   1.52826E+01  1.53752E+01  1.54977E+01  1.56526E+01  1.58428E+01  1.60704E+01  1.63394E+01  1.66532E+01  1.70149E+01  1.74252E+01
   1.78843E+01  1.83910E+01  1.89444E+01  1.95413E+01  2.01763E+01  2.08404E+01  2.15235E+01  2.22138E+01  2.28990E+01  2.35643E+01
   2.41942E+01  2.47713E+01  2.52805E+01  2.57077E+01  2.60419E+01  2.62731E+01  2.63945E+01  2.64017E+01  2.62960E+01  2.60815E+01
   2.57670E+01  2.53618E+01  2.48785E+01  2.43304E+01  2.37339E+01  2.31049E+01  2.24591E+01  2.18096E+01  2.11687E+01  2.05467E+01
   1.99533E+01  1.93955E+01  1.88783E+01  1.84031E+01  1.79711E+01  1.75821E+01  1.72358E+01  1.69299E+01  1.66617E+01  1.64269E+01
   1.62226E+01  1.60456E+01  1.58939E+01  1.57641E+01  1.56531E+01  1.55575E+01  1.54756E+01  1.54059E+01  1.53475E+01  1.52979E+01
   1.52557E+01  1.52191E+01  1.51881E+01  1.51619E+01  1.51406E+01  1.51223E+01  1.51064E+01  1.50921E+01  1.50801E+01  1.50701E+01
   1.50618E+01  1.50540E+01  1.50464E+01  1.50389E+01  1.50324E+01  1.50264E+01  1.50209E+01  1.50147E+01  1.50083E+01  1.50015E+01
   1.49955E+01  1.49894E+01  1.49831E+01  1.49758E+01  1.49681E+01  1.49603E+01  1.49530E+01  1.49453E+01  1.49371E+01  1.49278E+01
   1.49184E+01  1.49089E+01  1.48998E+01  1.48901E+01  1.48797E+01  1.48685E+01  1.48575E+01  1.48466E+01  1.48358E+01  1.48243E+01
   1.48122E+01  1.47995E+01  1.47874E+01  1.47754E+01  1.47634E+01  1.47506E+01  1.47374E+01  1.47242E+01  1.47116E+01  1.46991E+01
   1.46866E+01  1.46733E+01  1.46600E+01  1.46470E+01  1.46349E+01  1.46227E+01  1.46104E+01  1.45977E+01
 NY background values follow
    -1.707E+01   -1.684E+01   -1.661E+01   -1.638E+01   -1.615E+01   -1.593E+01   -1.570E+01   -1.547E+01   -1.524E+01   -1.502E+01
    -1.479E+01   -1.456E+01   -1.434E+01   -1.411E+01   -1.388E+01   -1.366E+01   -1.343E+01   -1.321E+01   -1.299E+01   -1.277E+01
    -1.254E+01   -1.232E+01   -1.210E+01   -1.188E+01   -1.167E+01   -1.145E+01   -1.123E+01   -1.102E+01   -1.080E+01   -1.059E+01
    -1.038E+01   -1.017E+01   -9.956E+00   -9.747E+00   -9.540E+00   -9.334E+00   -9.130E+00   -8.927E+00   -8.725E+00   -8.525E+00
    -8.327E+00   -8.130E+00   -7.935E+00   -7.741E+00   -7.549E+00   -7.359E+00   -7.171E+00   -6.984E+00   -6.799E+00   -6.616E+00
    -6.435E+00   -6.256E+00   -6.078E+00   -5.902E+00   -5.728E+00   -5.556E+00   -5.385E+00   -5.217E+00   -5.049E+00   -4.884E+00
    -4.720E+00   -4.559E+00   -4.398E+00   -4.240E+00   -4.083E+00   -3.928E+00   -3.774E+00   -3.623E+00   -3.473E+00   -3.324E+00
    -3.177E+00   -3.032E+00   -2.889E+00   -2.747E+00   -2.607E+00   -2.468E+00   -2.331E+00   -2.196E+00   -2.062E+00   -1.930E+00
    -1.800E+00   -1.671E+00   -1.544E+00   -1.418E+00   -1.294E+00   -1.171E+00   -1.051E+00   -9.311E-01   -8.132E-01   -6.969E-01
    -5.821E-01   -4.689E-01   -3.572E-01   -2.472E-01   -1.387E-01   -3.205E-02    7.290E-02    1.760E-01    2.773E-01    3.767E-01
     4.742E-01    5.697E-01    6.631E-01    7.545E-01    8.437E-01    9.307E-01    1.016E+00    1.098E+00    1.178E+00    1.256E+00
     1.332E+00    1.404E+00    1.475E+00    1.543E+00    1.608E+00    1.671E+00    1.731E+00    1.788E+00    1.842E+00    1.894E+00
     1.942E+00    1.988E+00    2.031E+00    2.070E+00    2.107E+00    2.140E+00    2.171E+00    2.198E+00    2.222E+00    2.242E+00
     2.259E+00    2.273E+00    2.283E+00    2.290E+00    2.293E+00    2.293E+00    2.289E+00    2.281E+00    2.270E+00    2.256E+00
     2.239E+00    2.219E+00    2.197E+00    2.172E+00    2.146E+00    2.117E+00    2.088E+00    2.056E+00    2.024E+00    1.991E+00
     1.957E+00    1.922E+00    1.887E+00    1.853E+00    1.818E+00    1.784E+00    1.750E+00    1.718E+00    1.686E+00    1.656E+00
     1.627E+00    1.600E+00    1.575E+00    1.552E+00    1.531E+00    1.513E+00    1.498E+00    1.486E+00    1.478E+00    1.472E+00
     1.471E+00    1.473E+00    1.480E+00    1.491E+00    1.507E+00    1.527E+00    1.553E+00    1.584E+00    1.620E+00    1.662E+00
     1.710E+00    1.764E+00    1.825E+00    1.891E+00    1.964E+00    2.042E+00    2.125E+00    2.214E+00    2.308E+00    2.407E+00
     2.511E+00    2.619E+00    2.732E+00    2.848E+00    2.969E+00    3.093E+00    3.221E+00    3.353E+00    3.487E+00    3.625E+00
     3.765E+00    3.908E+00    4.053E+00    4.201E+00    4.350E+00    4.501E+00    4.654E+00    4.809E+00    4.964E+00    5.121E+00
     5.279E+00    5.437E+00    5.596E+00    5.754E+00    5.913E+00    6.072E+00    6.231E+00    6.389E+00    6.546E+00    6.703E+00
     6.858E+00    7.013E+00    7.165E+00    7.316E+00    7.465E+00    7.613E+00    7.757E+00    7.900E+00    8.040E+00    8.178E+00
     8.313E+00    8.446E+00    8.577E+00    8.705E+00    8.831E+00    8.955E+00    9.076E+00    9.195E+00    9.312E+00    9.427E+00
     9.539E+00    9.649E+00    9.757E+00    9.863E+00    9.967E+00    1.007E+01    1.017E+01    1.027E+01    1.036E+01    1.045E+01
     1.054E+01    1.063E+01    1.072E+01    1.081E+01    1.089E+01    1.097E+01    1.105E+01    1.112E+01    1.120E+01    1.127E+01
     1.134E+01    1.141E+01    1.148E+01    1.155E+01    1.161E+01    1.167E+01    1.173E+01    1.179E+01    1.185E+01    1.190E+01
     1.195E+01    1.200E+01    1.205E+01    1.210E+01    1.215E+01    1.219E+01    1.223E+01    1.227E+01    1.231E+01    1.235E+01
     1.239E+01    1.242E+01    1.245E+01    1.249E+01    1.251E+01    1.254E+01    1.257E+01    1.259E+01    1.262E+01    1.264E+01
     1.266E+01    1.268E+01    1.270E+01    1.271E+01    1.273E+01    1.274E+01    1.275E+01    1.276E+01    1.277E+01    1.278E+01
     1.279E+01    1.279E+01    1.280E+01    1.280E+01    1.280E+01    1.280E+01    1.280E+01    1.280E+01    1.279E+01    1.279E+01
     1.278E+01    1.277E+01    1.277E+01    1.276E+01    1.275E+01    1.273E+01    1.272E+01    1.271E+01    1.269E+01    1.268E+01
     1.266E+01    1.264E+01    1.262E+01    1.260E+01    1.258E+01    1.256E+01    1.254E+01    1.252E+01    1.250E+01    1.247E+01
     1.245E+01    1.243E+01    1.240E+01    1.238E+01    1.235E+01    1.233E+01    1.230E+01    1.228E+01    1.225E+01    1.223E+01
     1.220E+01    1.218E+01    1.216E+01    1.213E+01    1.211E+01    1.209E+01    1.206E+01    1.204E+01    1.202E+01    1.200E+01
     1.198E+01    1.196E+01    1.194E+01    1.192E+01    1.190E+01    1.189E+01    1.187E+01    1.186E+01    1.185E+01    1.183E+01
     1.182E+01    1.181E+01    1.180E+01    1.180E+01    1.179E+01    1.179E+01    1.178E+01    1.178E+01    1.178E+01    1.178E+01
     1.178E+01    1.179E+01    1.179E+01    1.180E+01    1.180E+01    1.181E+01    1.182E+01    1.183E+01    1.184E+01    1.185E+01
     1.187E+01    1.188E+01    1.189E+01    1.191E+01    1.193E+01    1.195E+01    1.197E+01    1.199E+01    1.201E+01    1.203E+01
     1.205E+01    1.207E+01    1.210E+01    1.212E+01    1.215E+01    1.218E+01    1.221E+01    1.223E+01    1.226E+01    1.229E+01
     1.232E+01    1.236E+01    1.239E+01    1.242E+01    1.246E+01    1.249E+01    1.253E+01    1.256E+01    1.260E+01    1.263E+01
     1.267E+01    1.271E+01    1.275E+01    1.279E+01    1.283E+01    1.287E+01    1.291E+01    1.295E+01    1.299E+01    1.303E+01
     1.307E+01    1.311E+01    1.315E+01    1.319E+01    1.323E+01    1.327E+01    1.331E+01    1.335E+01    1.339E+01    1.343E+01
     1.347E+01    1.351E+01    1.355E+01    1.358E+01    1.362E+01    1.366E+01    1.369E+01    1.373E+01    1.377E+01    1.380E+01
     1.383E+01    1.387E+01    1.390E+01    1.393E+01    1.396E+01    1.399E+01    1.402E+01    1.404E+01    1.407E+01    1.409E+01
     1.412E+01    1.414E+01    1.416E+01    1.418E+01    1.420E+01    1.422E+01    1.423E+01    1.425E+01    1.426E+01    1.427E+01
     1.428E+01    1.429E+01    1.430E+01    1.431E+01    1.432E+01    1.433E+01    1.433E+01    1.434E+01    1.434E+01    1.434E+01
     1.434E+01    1.435E+01    1.435E+01    1.435E+01    1.435E+01    1.434E+01    1.434E+01    1.434E+01    1.434E+01    1.433E+01
     1.433E+01    1.433E+01    1.432E+01    1.431E+01    1.431E+01    1.430E+01    1.430E+01    1.429E+01    1.428E+01    1.428E+01
     1.427E+01    1.426E+01    1.426E+01    1.425E+01    1.424E+01    1.423E+01    1.422E+01    1.422E+01
 Ala      Conc. = 4.05E+02
