 LCModel (Version 6.3-1L) Copyright: S.W. Provencher.          Ref.: Magn. Reson. Med. 30:672-679 (1993).                
 Slice#2 Row#4 Col#7  K_02_press_1_raw_act
 36 lines in following concentration table = NCONC+1
    Conc.  %SD /Cr+PCr  Metabolite                                         
  173.172  97% 5.8E-02 Ala                                                 
    0.000 999%   0.000 Asp                                                 
 2.46E+03  13%   0.829 Cr                                                  
  508.147  64%   0.171 PCr                                                 
    0.000 999%   0.000 GABA                                                
    0.000 999%   0.000 Glc                                                 
 1.16E+03  30%   0.390 Gln                                                 
 2.85E+03  14%   0.959 Glu                                                 
  953.762   4%   0.321 GPC                                                 
    0.000 999%   0.000 PCh                                                 
 1.04E+03  11%   0.351 GSH                                                 
 3.01E+03  13%   1.014 Ins                                                 
  130.609 138% 4.4E-02 Lac                                                 
 3.24E+03   6%   1.092 NAA                                                 
  443.107  47%   0.149 NAAG                                                
   15.837 255% 5.3E-03 Scyllo                                              
    0.000 999%   0.000 Tau                                                 
    0.000 999%   0.000 -CrCH2                                              
  953.762   4%   0.321 GPC+PCh                                             
 3.69E+03   4%   1.241 NAA+NAAG                                            
 2.97E+03   3%   1.000 Cr+PCr                                              
 4.01E+03  14%   1.349 Glu+Gln                                             
 1.64E+04  11%   5.514 Lip13a                                              
    0.000 999%   0.000 Lip13b                                              
 5.15E+03  15%   1.733 Lip09                                               
  766.260 103%   0.258 MM09                                                
 2.05E+03  27%   0.691 Lip20                                               
 4.87E+03  15%   1.639 MM20                                                
    0.000 999%   0.000 MM12                                                
 2.48E+03  38%   0.835 MM14                                                
 1.74E+03  28%   0.587 MM17                                                
 1.64E+04  11%   5.514 Lip13a+Lip13b                                       
 1.89E+04   8%   6.349 MM14+Lip13a+Lip13b+MM12                             
 5.91E+03  11%   1.991 MM09+Lip09                                          
 6.92E+03   9%   2.331 MM20+Lip20                                          
   6 lines in following misc. output table
  FWHM = 0.054 ppm    S/N =  13                                            
  Data shift = 0.008 ppm                                                   
  Ph:  13 deg       4.6 deg/ppm                                            
  alphaB,S = 1.6E+00,   5.1E+01                                            
   14 spline knots.   Ns = 7(1)                                            
  (12) 3 infls.   ( 5) 1 extrs.                                            
  498 points on ppm-axis = NY
      4.000000     3.992357     3.984714     3.977070     3.969427     3.961784     3.954141     3.946497     3.938854     3.931211
      3.923568     3.915925     3.908281     3.900638     3.892995     3.885352     3.877708     3.870065     3.862422     3.854779
      3.847136     3.839492     3.831849     3.824206     3.816563     3.808919     3.801276     3.793633     3.785990     3.778347
      3.770703     3.763060     3.755417     3.747774     3.740130     3.732487     3.724844     3.717201     3.709558     3.701914
      3.694271     3.686628     3.678985     3.671341     3.663698     3.656055     3.648412     3.640769     3.633125     3.625482
      3.617839     3.610196     3.602552     3.594909     3.587266     3.579623     3.571980     3.564336     3.556693     3.549050
      3.541407     3.533763     3.526120     3.518477     3.510834     3.503191     3.495547     3.487904     3.480261     3.472618
      3.464974     3.457331     3.449688     3.442045     3.434402     3.426758     3.419115     3.411472     3.403829     3.396185
      3.388542     3.380899     3.373256     3.365613     3.357969     3.350326     3.342683     3.335040     3.327396     3.319753
      3.312110     3.304467     3.296824     3.289180     3.281537     3.273894     3.266251     3.258607     3.250964     3.243321
      3.235678     3.228034     3.220391     3.212748     3.205105     3.197462     3.189818     3.182175     3.174532     3.166889
      3.159245     3.151602     3.143959     3.136316     3.128673     3.121029     3.113386     3.105743     3.098100     3.090456
      3.082813     3.075170     3.067527     3.059884     3.052240     3.044597     3.036954     3.029311     3.021667     3.014024
      3.006381     2.998738     2.991095     2.983451     2.975808     2.968165     2.960522     2.952878     2.945235     2.937592
      2.929949     2.922306     2.914662     2.907019     2.899376     2.891733     2.884089     2.876446     2.868803     2.861160
      2.853517     2.845873     2.838230     2.830587     2.822944     2.815300     2.807657     2.800014     2.792371     2.784728
      2.777084     2.769441     2.761798     2.754155     2.746511     2.738868     2.731225     2.723582     2.715939     2.708295
      2.700652     2.693009     2.685366     2.677722     2.670079     2.662436     2.654793     2.647150     2.639506     2.631863
      2.624220     2.616577     2.608933     2.601290     2.593647     2.586004     2.578361     2.570717     2.563074     2.555431
      2.547788     2.540144     2.532501     2.524858     2.517215     2.509572     2.501928     2.494285     2.486642     2.478999
      2.471355     2.463712     2.456069     2.448426     2.440783     2.433139     2.425496     2.417853     2.410210     2.402566
      2.394923     2.387280     2.379637     2.371994     2.364350     2.356707     2.349064     2.341421     2.333777     2.326134
      2.318491     2.310848     2.303205     2.295561     2.287918     2.280275     2.272632     2.264988     2.257345     2.249702
      2.242059     2.234416     2.226772     2.219129     2.211486     2.203843     2.196199     2.188556     2.180913     2.173270
      2.165627     2.157983     2.150340     2.142697     2.135054     2.127410     2.119767     2.112124     2.104481     2.096838
      2.089194     2.081551     2.073908     2.066265     2.058621     2.050978     2.043335     2.035692     2.028049     2.020405
      2.012762     2.005119     1.997476     1.989833     1.982190     1.974546     1.966903     1.959260     1.951617     1.943974
      1.936331     1.928688     1.921045     1.913402     1.905759     1.898115     1.890472     1.882829     1.875186     1.867543
      1.859900     1.852257     1.844614     1.836971     1.829327     1.821684     1.814041     1.806398     1.798755     1.791112
      1.783469     1.775826     1.768183     1.760540     1.752896     1.745253     1.737610     1.729967     1.722324     1.714681
      1.707038     1.699395     1.691752     1.684108     1.676465     1.668822     1.661179     1.653536     1.645893     1.638250
      1.630607     1.622964     1.615321     1.607677     1.600034     1.592391     1.584748     1.577105     1.569462     1.561819
      1.554176     1.546533     1.538890     1.531246     1.523603     1.515960     1.508317     1.500674     1.493031     1.485388
      1.477745     1.470102     1.462458     1.454815     1.447172     1.439529     1.431886     1.424243     1.416600     1.408957
      1.401314     1.393671     1.386027     1.378384     1.370741     1.363098     1.355455     1.347812     1.340169     1.332526
      1.324883     1.317240     1.309596     1.301953     1.294310     1.286667     1.279024     1.271381     1.263738     1.256095
      1.248452     1.240808     1.233165     1.225522     1.217879     1.210236     1.202593     1.194950     1.187307     1.179664
      1.172021     1.164377     1.156734     1.149091     1.141448     1.133805     1.126162     1.118519     1.110876     1.103233
      1.095590     1.087946     1.080303     1.072660     1.065017     1.057374     1.049731     1.042088     1.034445     1.026802
      1.019158     1.011515     1.003872     0.996229     0.988586     0.980943     0.973300     0.965657     0.958014     0.950371
      0.942727     0.935084     0.927441     0.919798     0.912155     0.904512     0.896869     0.889226     0.881583     0.873940
      0.866296     0.858653     0.851010     0.843367     0.835724     0.828081     0.820438     0.812795     0.805152     0.797508
      0.789865     0.782222     0.774579     0.766936     0.759293     0.751650     0.744007     0.736364     0.728721     0.721077
      0.713434     0.705791     0.698148     0.690505     0.682862     0.675219     0.667576     0.659933     0.652290     0.644646
      0.637003     0.629360     0.621717     0.614074     0.606431     0.598788     0.591145     0.583502     0.575858     0.568215
      0.560572     0.552929     0.545286     0.537643     0.530000     0.522357     0.514714     0.507071     0.499427     0.491784
      0.484141     0.476498     0.468855     0.461212     0.453569     0.445925     0.438282     0.430639     0.422996     0.415353
      0.407710     0.400067     0.392424     0.384780     0.377137     0.369494     0.361851     0.354208     0.346565     0.338922
      0.331278     0.323635     0.315992     0.308349     0.300706     0.293063     0.285420     0.277777     0.270133     0.262490
      0.254847     0.247204     0.239561     0.231918     0.224275     0.216631     0.208988     0.201345
 NY phased data points follow
   4.64433E+01  4.37122E+01  4.22370E+01  4.41269E+01  4.76092E+01  5.19355E+01  6.09881E+01  8.01331E+01  8.53924E+01  1.00716E+02
   1.06426E+02  1.10356E+02  1.00265E+02  1.04326E+02  8.96932E+01  7.37479E+01  6.74364E+01  6.27861E+01  5.44249E+01  3.94896E+01
   4.04097E+01  4.92862E+01  4.39307E+01  4.80099E+01  4.82158E+01  5.02285E+01  5.07456E+01  5.40169E+01  5.23339E+01  6.24318E+01
   6.01343E+01  5.95887E+01  6.18585E+01  5.43757E+01  5.64036E+01  4.35000E+01  4.51322E+01  4.57657E+01  4.58920E+01  4.51799E+01
   4.72912E+01  5.12861E+01  5.47172E+01  4.51923E+01  4.75475E+01  5.43015E+01  5.26773E+01  6.38486E+01  5.76297E+01  5.31897E+01
   4.98222E+01  4.33002E+01  3.95618E+01  3.88708E+01  3.81347E+01  4.06060E+01  4.27351E+01  4.38656E+01  4.14625E+01  4.05477E+01
   3.80775E+01  3.90229E+01  3.07953E+01  2.45172E+01  2.10268E+01  2.45482E+01  2.36583E+01  1.23478E+01  2.12430E+01  2.97393E+01
   1.77308E+01  2.04253E+01  2.07626E+01  2.00022E+01  2.49957E+01  2.39615E+01  2.65565E+01  2.96167E+01  2.49268E+01  2.47105E+01
   1.90396E+01  1.43312E+01  2.12031E+01  1.67124E+01  1.72826E+01  1.32180E+01  2.02152E+01  1.55691E+01  2.09324E+01  1.55548E+01
   1.99472E+01  2.20195E+01  2.40840E+01  2.31318E+01  2.42722E+01  2.07925E+01  3.35121E+01  2.58307E+01  3.49586E+01  4.15974E+01
   5.06839E+01  8.19365E+01  9.70352E+01  1.09483E+02  1.06815E+02  8.96952E+01  8.21838E+01  5.79600E+01  4.68077E+01  3.33818E+01
   3.80575E+01  3.17717E+01  2.60653E+01  2.83068E+01  2.20199E+01  2.00817E+01  2.47592E+01  2.44443E+01  1.96431E+01  2.81820E+01
   2.93562E+01  3.84828E+01  3.82264E+01  4.37637E+01  6.56901E+01  8.20414E+01  1.02521E+02  1.09992E+02  1.12437E+02  1.01785E+02
   8.25736E+01  7.09014E+01  5.48718E+01  4.24728E+01  3.21185E+01  1.85863E+01  1.48054E+01  1.68389E+01  2.09204E+01  1.68564E+01
   1.02820E+01  2.07028E+01  1.19350E+01  1.58302E+01  1.38403E+01  1.16667E+01  1.78837E+01  1.89052E+01  1.72780E+01  1.38117E+01
   1.62278E+01  9.38846E+00  1.60137E+01  9.78881E+00  1.43059E+01  9.59541E+00  9.38725E+00  1.43170E+01  7.68495E+00  1.00494E+01
   1.02650E+01  5.61284E+00 -4.60725E+00  4.18934E+00  5.10817E+00  5.92897E+00  8.90378E+00  7.24731E+00  4.17921E+00  2.28923E+00
   3.66526E+00 -2.59188E+00 -4.86964E+00 -4.21965E+00 -7.50408E+00 -1.11775E+01 -9.29791E+00 -7.93312E+00 -5.64092E+00 -4.78640E+00
  -8.20172E+00 -7.04225E+00 -1.28934E+01 -1.45171E+01 -1.12811E+01 -9.58672E+00 -4.26494E+00 -9.57434E-01 -3.51227E+00 -3.89950E+00
   5.94436E+00  5.94748E-01  1.41188E+01  1.15615E+01  6.80076E+00  1.19193E+01  2.08655E+00  2.45702E+00  4.49801E+00 -2.64105E+00
   1.24961E+00  4.36684E+00  4.86832E+00  3.88414E+00  1.05272E+01  1.20632E+01  9.72003E+00  1.23972E+00 -7.23988E+00 -3.12999E+00
  -3.77281E+00 -2.07849E+00  1.86450E+00  1.85784E+01  1.87642E+01  2.34105E+01  2.53979E+01  2.21758E+01  1.43077E+01  7.45689E+00
   1.43355E-02 -3.49090E+00 -9.20743E-01  9.54268E-01  5.51732E+00  1.23914E+01  1.24900E+01  1.34304E+01  1.86826E+01  1.56800E+01
   1.36908E+01  2.09420E+01  1.67857E+01  1.24041E+01  1.18252E+01  1.70149E+01  1.63454E+01  1.55677E+01  1.50142E+01  1.66650E+01
   1.13319E+01  1.07053E+01  1.46972E+01  1.35765E+01  1.73399E+01  2.21641E+01  2.60269E+01  2.03202E+01  3.39662E+01  3.25468E+01
   3.84498E+01  4.53382E+01  5.02141E+01  5.65953E+01  4.98778E+01  5.82855E+01  7.95372E+01  9.87205E+01  1.17206E+02  1.35983E+02
   1.44085E+02  1.31275E+02  1.19212E+02  9.40566E+01  7.04755E+01  5.21172E+01  3.15207E+01  1.82485E+01  1.89391E+01  8.96173E+00
   8.17620E+00  8.17947E+00  1.22828E+01  1.80586E+01  1.43114E+01  1.15390E+01  8.71576E+00  6.94304E+00 -7.18689E-01  4.54708E+00
   6.43978E+00  4.56042E+00  1.09001E+01  3.09743E+00  1.06176E+01  2.67935E+00  2.49922E+00  5.03899E+00  3.93740E+00  3.77388E+00
   9.50488E+00  2.70727E+00  1.53506E+00  1.07677E+00  1.02007E+01  5.45120E+00  7.68803E+00  1.03036E+01  1.37590E+00  1.52509E+01
   6.99615E+00  9.92305E+00  1.08950E+01  8.23273E-01  1.08247E+01  1.32341E+01  1.28339E+01  1.95503E+01  1.58156E+01  2.17168E+01
   2.07844E+01  1.61411E+01  1.71139E+01  2.05637E+01  2.40436E+01  2.37262E+01  1.88006E+01  2.90445E+01  2.32714E+01  2.49575E+01
   1.75557E+01  1.92729E+01  2.17061E+01  2.15174E+01  2.42309E+01  2.58227E+01  2.26237E+01  2.95124E+01  2.76049E+01  2.52215E+01
   2.67693E+01  2.67289E+01  2.72789E+01  3.06955E+01  2.87782E+01  3.61487E+01  3.50222E+01  3.08204E+01  3.59932E+01  3.82567E+01
   4.11098E+01  3.79920E+01  4.63869E+01  4.27627E+01  5.34651E+01  5.45162E+01  4.99754E+01  5.53447E+01  5.19265E+01  5.03892E+01
   4.60851E+01  4.53864E+01  4.61923E+01  4.87738E+01  4.68739E+01  5.08215E+01  4.77144E+01  4.67507E+01  3.84705E+01  3.90922E+01
   4.48422E+01  4.71781E+01  4.76732E+01  4.90731E+01  4.60456E+01  4.06978E+01  3.70145E+01  4.10575E+01  4.36776E+01  4.13652E+01
   3.91942E+01  4.17248E+01  4.13524E+01  3.67925E+01  4.15004E+01  3.77150E+01  3.31652E+01  3.37356E+01  3.27615E+01  3.74761E+01
   3.77313E+01  4.21522E+01  3.66917E+01  2.97080E+01  3.48559E+01  3.51103E+01  4.47937E+01  3.08539E+01  3.00261E+01  3.60529E+01
   3.47709E+01  3.53814E+01  3.45745E+01  3.58828E+01  4.05245E+01  3.81386E+01  3.31697E+01  3.13324E+01  3.67611E+01  3.60381E+01
   4.19499E+01  3.66148E+01  4.19616E+01  3.92763E+01  3.90044E+01  3.84111E+01  3.74554E+01  2.73333E+01  3.52051E+01  3.69654E+01
   3.38640E+01  3.69213E+01  3.41918E+01  2.42956E+01  3.04989E+01  2.56184E+01  3.00284E+01  2.87283E+01  2.23597E+01  2.05576E+01
   2.39861E+01  1.87997E+01  2.57752E+01  1.96919E+01  1.13075E+01  1.42684E+01  1.40801E+01  1.58847E+01  1.96126E+01  1.25798E+01
   1.47346E+01  1.39018E+01  1.30462E+01  8.19572E+00  1.14753E+01  9.98113E+00  7.73017E+00  1.45907E+01  1.42770E+01  1.04783E+01
   8.39347E+00  1.64315E+01  9.83042E+00  1.93942E+01  1.33969E+01  1.07469E+01  1.01834E+01  1.35914E+01  1.26180E+01  1.21573E+01
   1.04252E+01  9.56018E+00  9.79768E+00  1.72757E+01  8.37469E+00  1.12303E+01  7.41540E+00  8.42122E+00  1.20714E+01  1.43322E+01
   9.36326E+00  1.07952E+01  2.87162E+00  9.07981E+00  1.13334E+01  4.28579E+00  3.56549E+00  1.18448E+01  4.39926E+00  6.57910E+00
   1.15118E+01  1.23940E+01  1.28614E+01  8.35950E+00  9.41752E+00  1.05930E+01  1.34492E+01  9.30686E+00  5.71216E+00  9.78003E+00
   6.67379E+00  4.61068E+00  3.59613E+00  1.02188E+01  3.89267E+00  9.15161E+00  7.78380E+00 -1.89624E+00  8.47422E+00  1.30450E+01
   7.79218E+00  8.52657E+00  8.19489E+00  5.12810E+00  8.32081E+00  1.03014E+01  5.97473E+00  6.36406E+00
 NY points of the fit to the data follow
   4.70681E+01  4.64101E+01  4.70632E+01  4.86467E+01  5.22621E+01  5.78703E+01  6.31828E+01  7.10250E+01  8.23493E+01  9.46102E+01
   1.04127E+02  1.08083E+02  1.05310E+02  9.71693E+01  8.62269E+01  7.50009E+01  6.53937E+01  5.78166E+01  5.23986E+01  4.81866E+01
   4.49518E+01  4.33448E+01  4.31543E+01  4.37673E+01  4.32692E+01  4.33605E+01  4.54582E+01  4.97223E+01  5.50311E+01  6.02006E+01
   6.39065E+01  6.48786E+01  6.28874E+01  5.88006E+01  5.33397E+01  4.76601E+01  4.30806E+01  3.95711E+01  3.70975E+01  3.68712E+01
   3.83703E+01  4.00101E+01  4.16662E+01  4.47195E+01  4.92547E+01  5.36308E+01  5.63948E+01  5.64696E+01  5.37176E+01  4.91362E+01
   4.37660E+01  3.89164E+01  3.55529E+01  3.35349E+01  3.24391E+01  3.20859E+01  3.27933E+01  3.43749E+01  3.59430E+01  3.67730E+01
   3.66007E+01  3.52973E+01  3.32419E+01  3.09801E+01  2.92875E+01  2.84356E+01  2.82090E+01  2.85226E+01  2.93206E+01  3.02803E+01
   3.10805E+01  3.14767E+01  3.13266E+01  3.07225E+01  2.98168E+01  2.88089E+01  2.78935E+01  2.71172E+01  2.64791E+01  2.57455E+01
   2.49367E+01  2.41166E+01  2.32532E+01  2.21186E+01  2.05395E+01  1.86557E+01  1.68715E+01  1.55948E+01  1.51136E+01  1.56037E+01
   1.67213E+01  1.82515E+01  1.99368E+01  2.14569E+01  2.26253E+01  2.39442E+01  2.80726E+01  3.33498E+01  3.62468E+01  4.37583E+01
   5.90421E+01  7.85641E+01  9.62277E+01  1.06525E+02  1.06207E+02  9.64268E+01  8.08394E+01  6.38049E+01  4.90199E+01  3.76767E+01
   2.95503E+01  2.30828E+01  1.86688E+01  1.74104E+01  1.72157E+01  1.72718E+01  1.74380E+01  1.77580E+01  1.84088E+01  2.01856E+01
   2.58786E+01  3.25464E+01  3.74993E+01  4.77090E+01  6.54094E+01  8.64846E+01  1.04774E+02  1.14617E+02  1.13093E+02  1.02266E+02
   8.61123E+01  6.87448E+01  5.33586E+01  4.06243E+01  3.03064E+01  2.13483E+01  1.51715E+01  1.31427E+01  1.32933E+01  1.44992E+01
   1.59722E+01  1.71114E+01  1.76752E+01  1.76863E+01  1.72101E+01  1.64824E+01  1.57050E+01  1.48858E+01  1.41270E+01  1.34519E+01
   1.28141E+01  1.22414E+01  1.17374E+01  1.12389E+01  1.07754E+01  1.06277E+01  1.05195E+01  1.01952E+01  9.57235E+00  8.56181E+00
   7.73163E+00  7.40630E+00  7.44156E+00  7.49348E+00  7.30523E+00  6.69203E+00  5.69262E+00  4.50113E+00  3.33622E+00  2.33301E+00
   1.66257E+00  1.08284E+00  1.67031E-01 -9.75240E-01 -1.95908E+00 -2.38985E+00 -2.39465E+00 -2.27885E+00 -2.36711E+00 -2.64082E+00
  -3.01000E+00 -3.07108E+00 -3.03185E+00 -2.96595E+00 -2.68413E+00 -2.04510E+00 -8.33666E-01  1.17658E+00  3.84933E+00  6.45381E+00
   8.14119E+00  8.51370E+00  7.98484E+00  6.55173E+00  4.53770E+00  2.55130E+00  1.26447E+00  1.15635E+00  2.27934E+00  4.40916E+00
   7.01577E+00  9.75791E+00  1.16962E+01  1.22303E+01  1.17862E+01  9.77406E+00  6.13063E+00  2.05422E+00 -1.31583E+00 -2.95374E+00
  -3.20429E+00 -1.28245E+00  3.10992E+00  8.88109E+00  1.40507E+01  1.70168E+01  1.73521E+01  1.53517E+01  1.09672E+01  4.68995E+00
  -1.03264E+00 -4.52821E+00 -5.07599E+00 -2.77264E+00  1.27463E+00  6.41541E+00  1.13741E+01  1.48162E+01  1.63297E+01  1.65314E+01
   1.64531E+01  1.61216E+01  1.56941E+01  1.59747E+01  1.72843E+01  1.87438E+01  1.98293E+01  2.05001E+01  2.03578E+01  1.92022E+01
   1.73954E+01  1.59186E+01  1.54527E+01  1.63405E+01  1.83885E+01  2.09968E+01  2.36985E+01  2.59568E+01  2.78181E+01  2.97171E+01
   3.12505E+01  3.32581E+01  3.83230E+01  4.96111E+01  5.83232E+01  6.55257E+01  7.90216E+01  9.91242E+01  1.20109E+02  1.35671E+02
   1.40573E+02  1.32959E+02  1.15828E+02  9.36776E+01  7.18991E+01  5.38906E+01  4.03730E+01  2.99458E+01  2.08492E+01  1.56294E+01
   1.34506E+01  1.21673E+01  1.13121E+01  1.07194E+01  1.01869E+01  9.59925E+00  8.94534E+00  8.22067E+00  7.47461E+00  6.78867E+00
   6.20837E+00  5.72953E+00  5.35616E+00  5.08599E+00  4.88968E+00  4.74317E+00  4.61823E+00  4.51976E+00  4.47906E+00  4.51307E+00
   4.62557E+00  4.82047E+00  5.09239E+00  5.44095E+00  5.85055E+00  6.31066E+00  6.82499E+00  7.39823E+00  8.03943E+00  8.75547E+00
   9.54279E+00  1.03957E+01  1.12998E+01  1.22347E+01  1.31803E+01  1.41184E+01  1.50325E+01  1.59075E+01  1.67269E+01  1.74804E+01
   1.81606E+01  1.87617E+01  1.92832E+01  1.97285E+01  2.01060E+01  2.04288E+01  2.07145E+01  2.09846E+01  2.12663E+01  2.15994E+01
   2.20385E+01  2.24837E+01  2.29263E+01  2.35827E+01  2.43835E+01  2.51203E+01  2.56389E+01  2.58934E+01  2.60489E+01  2.63159E+01
   2.66400E+01  2.72247E+01  2.82888E+01  2.98475E+01  3.17654E+01  3.38277E+01  3.58516E+01  3.76871E+01  3.92169E+01  4.04901E+01
   4.16442E+01  4.26701E+01  4.35891E+01  4.45462E+01  4.54861E+01  4.63189E+01  4.68920E+01  4.71475E+01  4.72240E+01  4.71836E+01
   4.70549E+01  4.70513E+01  4.73222E+01  4.78424E+01  4.84904E+01  4.90910E+01  4.95218E+01  4.97089E+01  4.95832E+01  4.91997E+01
   4.86440E+01  4.79781E+01  4.72349E+01  4.63976E+01  4.55069E+01  4.46100E+01  4.36943E+01  4.27585E+01  4.18090E+01  4.08551E+01
   3.99075E+01  3.89771E+01  3.80750E+01  3.72114E+01  3.63964E+01  3.56392E+01  3.49484E+01  3.43316E+01  3.37954E+01  3.33450E+01
   3.29850E+01  3.27184E+01  3.25476E+01  3.24732E+01  3.24943E+01  3.26088E+01  3.28127E+01  3.31007E+01  3.34656E+01  3.38984E+01
   3.43880E+01  3.49215E+01  3.54846E+01  3.60614E+01  3.66350E+01  3.71870E+01  3.76990E+01  3.81527E+01  3.85303E+01  3.88155E+01
   3.89938E+01  3.90528E+01  3.89832E+01  3.87788E+01  3.84373E+01  3.79596E+01  3.73501E+01  3.66164E+01  3.57689E+01  3.48209E+01
   3.37872E+01  3.26838E+01  3.15274E+01  3.03345E+01  2.91212E+01  2.79027E+01  2.66928E+01  2.55034E+01  2.43448E+01  2.32252E+01
   2.21512E+01  2.11277E+01  2.01579E+01  1.92434E+01  1.83848E+01  1.75815E+01  1.68324E+01  1.61357E+01  1.54890E+01  1.48897E+01
   1.43349E+01  1.38218E+01  1.33477E+01  1.29099E+01  1.25056E+01  1.21321E+01  1.17872E+01  1.14687E+01  1.11745E+01  1.09027E+01
   1.06515E+01  1.04193E+01  1.02046E+01  1.00061E+01  9.82262E+00  9.65301E+00  9.49613E+00  9.35104E+00  9.21693E+00  9.09309E+00
   8.97879E+00  8.87330E+00  8.77595E+00  8.68623E+00  8.60371E+00  8.52797E+00  8.45854E+00  8.39494E+00  8.33678E+00  8.28379E+00
   8.23572E+00  8.19229E+00  8.15318E+00  8.11806E+00  8.08674E+00  8.05908E+00  8.03491E+00  8.01402E+00  7.99617E+00  7.98115E+00
   7.96887E+00  7.95926E+00  7.95222E+00  7.94755E+00  7.94508E+00  7.94470E+00  7.94638E+00  7.95007E+00  7.95566E+00  7.96299E+00
   7.97193E+00  7.98246E+00  7.99456E+00  8.00821E+00  8.02328E+00  8.03965E+00  8.05724E+00  8.07606E+00  8.09614E+00  8.11739E+00
   8.13971E+00  8.16299E+00  8.18723E+00  8.21246E+00  8.23867E+00  8.26578E+00  8.29369E+00  8.32234E+00
 NY background values follow
     3.606E+01    3.584E+01    3.562E+01    3.540E+01    3.519E+01    3.497E+01    3.475E+01    3.454E+01    3.432E+01    3.410E+01
     3.388E+01    3.367E+01    3.345E+01    3.323E+01    3.301E+01    3.280E+01    3.258E+01    3.236E+01    3.214E+01    3.193E+01
     3.171E+01    3.149E+01    3.127E+01    3.105E+01    3.084E+01    3.062E+01    3.040E+01    3.018E+01    2.997E+01    2.975E+01
     2.953E+01    2.931E+01    2.910E+01    2.888E+01    2.866E+01    2.844E+01    2.823E+01    2.801E+01    2.779E+01    2.757E+01
     2.736E+01    2.714E+01    2.692E+01    2.671E+01    2.649E+01    2.627E+01    2.606E+01    2.584E+01    2.562E+01    2.541E+01
     2.519E+01    2.497E+01    2.476E+01    2.454E+01    2.433E+01    2.411E+01    2.390E+01    2.368E+01    2.347E+01    2.325E+01
     2.304E+01    2.282E+01    2.261E+01    2.240E+01    2.218E+01    2.197E+01    2.176E+01    2.154E+01    2.133E+01    2.112E+01
     2.091E+01    2.070E+01    2.049E+01    2.028E+01    2.007E+01    1.986E+01    1.965E+01    1.944E+01    1.923E+01    1.902E+01
     1.882E+01    1.861E+01    1.840E+01    1.820E+01    1.799E+01    1.779E+01    1.758E+01    1.738E+01    1.718E+01    1.697E+01
     1.677E+01    1.657E+01    1.637E+01    1.617E+01    1.597E+01    1.577E+01    1.557E+01    1.537E+01    1.518E+01    1.498E+01
     1.478E+01    1.459E+01    1.439E+01    1.420E+01    1.401E+01    1.381E+01    1.362E+01    1.343E+01    1.324E+01    1.305E+01
     1.286E+01    1.267E+01    1.248E+01    1.230E+01    1.211E+01    1.192E+01    1.174E+01    1.155E+01    1.137E+01    1.119E+01
     1.101E+01    1.082E+01    1.064E+01    1.046E+01    1.028E+01    1.011E+01    9.928E+00    9.752E+00    9.575E+00    9.400E+00
     9.226E+00    9.052E+00    8.879E+00    8.707E+00    8.535E+00    8.365E+00    8.195E+00    8.026E+00    7.858E+00    7.691E+00
     7.524E+00    7.359E+00    7.194E+00    7.031E+00    6.868E+00    6.706E+00    6.545E+00    6.385E+00    6.226E+00    6.068E+00
     5.910E+00    5.754E+00    5.599E+00    5.445E+00    5.292E+00    5.139E+00    4.988E+00    4.838E+00    4.689E+00    4.541E+00
     4.394E+00    4.248E+00    4.104E+00    3.960E+00    3.818E+00    3.676E+00    3.536E+00    3.397E+00    3.259E+00    3.123E+00
     2.987E+00    2.853E+00    2.720E+00    2.588E+00    2.457E+00    2.328E+00    2.200E+00    2.073E+00    1.947E+00    1.823E+00
     1.700E+00    1.578E+00    1.458E+00    1.339E+00    1.221E+00    1.105E+00    9.896E-01    8.758E-01    7.632E-01    6.519E-01
     5.419E-01    4.332E-01    3.257E-01    2.195E-01    1.146E-01    1.090E-02   -9.154E-02   -1.927E-01   -2.927E-01   -3.915E-01
    -4.890E-01   -5.852E-01   -6.803E-01   -7.742E-01   -8.668E-01   -9.583E-01   -1.049E+00   -1.138E+00   -1.225E+00   -1.312E+00
    -1.398E+00   -1.482E+00   -1.565E+00   -1.647E+00   -1.728E+00   -1.808E+00   -1.886E+00   -1.964E+00   -2.040E+00   -2.115E+00
    -2.189E+00   -2.262E+00   -2.334E+00   -2.405E+00   -2.474E+00   -2.543E+00   -2.610E+00   -2.677E+00   -2.742E+00   -2.806E+00
    -2.869E+00   -2.931E+00   -2.992E+00   -3.052E+00   -3.110E+00   -3.168E+00   -3.225E+00   -3.280E+00   -3.335E+00   -3.388E+00
    -3.440E+00   -3.492E+00   -3.542E+00   -3.591E+00   -3.639E+00   -3.686E+00   -3.732E+00   -3.777E+00   -3.820E+00   -3.863E+00
    -3.905E+00   -3.946E+00   -3.985E+00   -4.024E+00   -4.061E+00   -4.098E+00   -4.133E+00   -4.168E+00   -4.201E+00   -4.233E+00
    -4.264E+00   -4.295E+00   -4.324E+00   -4.352E+00   -4.379E+00   -4.405E+00   -4.430E+00   -4.454E+00   -4.478E+00   -4.500E+00
    -4.521E+00   -4.541E+00   -4.559E+00   -4.577E+00   -4.594E+00   -4.610E+00   -4.625E+00   -4.639E+00   -4.652E+00   -4.664E+00
    -4.675E+00   -4.685E+00   -4.695E+00   -4.703E+00   -4.710E+00   -4.716E+00   -4.722E+00   -4.726E+00   -4.730E+00   -4.732E+00
    -4.734E+00   -4.735E+00   -4.734E+00   -4.733E+00   -4.732E+00   -4.729E+00   -4.725E+00   -4.721E+00   -4.715E+00   -4.709E+00
    -4.702E+00   -4.694E+00   -4.685E+00   -4.676E+00   -4.665E+00   -4.654E+00   -4.642E+00   -4.629E+00   -4.615E+00   -4.601E+00
    -4.585E+00   -4.569E+00   -4.553E+00   -4.535E+00   -4.517E+00   -4.497E+00   -4.478E+00   -4.457E+00   -4.436E+00   -4.413E+00
    -4.391E+00   -4.367E+00   -4.343E+00   -4.318E+00   -4.292E+00   -4.266E+00   -4.239E+00   -4.211E+00   -4.182E+00   -4.153E+00
    -4.123E+00   -4.093E+00   -4.062E+00   -4.030E+00   -3.998E+00   -3.965E+00   -3.931E+00   -3.897E+00   -3.862E+00   -3.827E+00
    -3.791E+00   -3.754E+00   -3.717E+00   -3.679E+00   -3.641E+00   -3.602E+00   -3.562E+00   -3.522E+00   -3.482E+00   -3.440E+00
    -3.399E+00   -3.357E+00   -3.314E+00   -3.271E+00   -3.227E+00   -3.183E+00   -3.138E+00   -3.093E+00   -3.047E+00   -3.001E+00
    -2.955E+00   -2.908E+00   -2.860E+00   -2.812E+00   -2.764E+00   -2.715E+00   -2.666E+00   -2.616E+00   -2.566E+00   -2.515E+00
    -2.465E+00   -2.413E+00   -2.362E+00   -2.309E+00   -2.257E+00   -2.204E+00   -2.151E+00   -2.097E+00   -2.043E+00   -1.989E+00
    -1.934E+00   -1.879E+00   -1.824E+00   -1.768E+00   -1.712E+00   -1.656E+00   -1.600E+00   -1.543E+00   -1.485E+00   -1.428E+00
    -1.370E+00   -1.312E+00   -1.253E+00   -1.195E+00   -1.136E+00   -1.076E+00   -1.017E+00   -9.572E-01   -8.972E-01   -8.370E-01
    -7.765E-01   -7.158E-01   -6.548E-01   -5.937E-01   -5.323E-01   -4.707E-01   -4.089E-01   -3.469E-01   -2.847E-01   -2.223E-01
    -1.597E-01   -9.699E-02   -3.407E-02    2.902E-02    9.228E-02    1.557E-01    2.193E-01    2.830E-01    3.468E-01    4.108E-01
     4.750E-01    5.392E-01    6.036E-01    6.681E-01    7.327E-01    7.974E-01    8.622E-01    9.271E-01    9.921E-01    1.057E+00
     1.122E+00    1.188E+00    1.253E+00    1.318E+00    1.384E+00    1.449E+00    1.515E+00    1.580E+00    1.646E+00    1.712E+00
     1.777E+00    1.843E+00    1.909E+00    1.975E+00    2.040E+00    2.106E+00    2.172E+00    2.238E+00    2.303E+00    2.369E+00
     2.435E+00    2.501E+00    2.566E+00    2.632E+00    2.697E+00    2.763E+00    2.828E+00    2.894E+00    2.959E+00    3.025E+00
     3.090E+00    3.156E+00    3.221E+00    3.286E+00    3.351E+00    3.417E+00    3.482E+00    3.547E+00    3.612E+00    3.677E+00
     3.742E+00    3.807E+00    3.872E+00    3.937E+00    4.002E+00    4.067E+00    4.132E+00    4.197E+00    4.262E+00    4.327E+00
     4.392E+00    4.457E+00    4.522E+00    4.587E+00    4.651E+00    4.716E+00    4.781E+00    4.846E+00    4.910E+00    4.975E+00
     5.040E+00    5.105E+00    5.169E+00    5.234E+00    5.299E+00    5.363E+00    5.428E+00    5.493E+00
 Ala      Conc. = 1.73E+02
