 LCModel (Version 6.3-1L) Copyright: S.W. Provencher.          Ref.: Magn. Reson. Med. 30:672-679 (1993).                
 Slice#3 Row#6 Col#11  K_02_press_1_raw_act
 36 lines in following concentration table = NCONC+1
    Conc.  %SD /Cr+PCr  Metabolite                                         
   23.647 421% 1.4E-02 Ala                                                 
    0.000 999%   0.000 Asp                                                 
  521.214  48%   0.302 Cr                                                  
 1.20E+03  22%   0.698 PCr                                                 
    0.000 999%   0.000 GABA                                                
    0.000 999%   0.000 Glc                                                 
  823.009  26%   0.477 Gln                                                 
 1.89E+03  13%   1.098 Glu                                                 
  479.217   5%   0.278 GPC                                                 
    0.000 999%   0.000 PCh                                                 
  396.786  18%   0.230 GSH                                                 
 1.06E+03  22%   0.614 Ins                                                 
   30.240 353% 1.8E-02 Lac                                                 
 2.64E+03   5%   1.533 NAA                                                 
   84.125 172% 4.9E-02 NAAG                                                
   29.407  88% 1.7E-02 Scyllo                                              
    0.000 999%   0.000 Tau                                                 
  760.318  15%   0.441 -CrCH2                                              
  479.217   5%   0.278 GPC+PCh                                             
 2.73E+03   3%   1.582 NAA+NAAG                                            
 1.73E+03   4%   1.000 Cr+PCr                                              
 2.72E+03  12%   1.575 Glu+Gln                                             
    0.000 999%   0.000 Lip13a                                              
    0.000 999%   0.000 Lip13b                                              
    0.000 999%   0.000 Lip09                                               
 2.65E+03  10%   1.536 MM09                                                
    0.000 999%   0.000 Lip20                                               
 4.27E+03  10%   2.473 MM20                                                
 1.16E+03  20%   0.672 MM12                                                
    0.000 999%   0.000 MM14                                                
  770.645  29%   0.447 MM17                                                
    0.000 999%   0.000 Lip13a+Lip13b                                       
 1.16E+03  20%   0.672 MM14+Lip13a+Lip13b+MM12                             
 2.65E+03  10%   1.536 MM09+Lip09                                          
 4.27E+03  10%   2.473 MM20+Lip20                                          
   6 lines in following misc. output table
  FWHM = 0.046 ppm    S/N =  15                                            
  Data shift = 0.000 ppm                                                   
  Ph:  -2 deg      -5.5 deg/ppm                                            
  alphaB,S = 1.1E+00,   5.2E+01                                            
   14 spline knots.   Ns = 6(1)                                            
  (10) 5 infls.   ( 5) 1 extrs.                                            
  498 points on ppm-axis = NY
      4.000000     3.992357     3.984714     3.977070     3.969427     3.961784     3.954141     3.946497     3.938854     3.931211
      3.923568     3.915925     3.908281     3.900638     3.892995     3.885352     3.877708     3.870065     3.862422     3.854779
      3.847136     3.839492     3.831849     3.824206     3.816563     3.808919     3.801276     3.793633     3.785990     3.778347
      3.770703     3.763060     3.755417     3.747774     3.740130     3.732487     3.724844     3.717201     3.709558     3.701914
      3.694271     3.686628     3.678985     3.671341     3.663698     3.656055     3.648412     3.640769     3.633125     3.625482
      3.617839     3.610196     3.602552     3.594909     3.587266     3.579623     3.571980     3.564336     3.556693     3.549050
      3.541407     3.533763     3.526120     3.518477     3.510834     3.503191     3.495547     3.487904     3.480261     3.472618
      3.464974     3.457331     3.449688     3.442045     3.434402     3.426758     3.419115     3.411472     3.403829     3.396185
      3.388542     3.380899     3.373256     3.365613     3.357969     3.350326     3.342683     3.335040     3.327396     3.319753
      3.312110     3.304467     3.296824     3.289180     3.281537     3.273894     3.266251     3.258607     3.250964     3.243321
      3.235678     3.228034     3.220391     3.212748     3.205105     3.197462     3.189818     3.182175     3.174532     3.166889
      3.159245     3.151602     3.143959     3.136316     3.128673     3.121029     3.113386     3.105743     3.098100     3.090456
      3.082813     3.075170     3.067527     3.059884     3.052240     3.044597     3.036954     3.029311     3.021667     3.014024
      3.006381     2.998738     2.991095     2.983451     2.975808     2.968165     2.960522     2.952878     2.945235     2.937592
      2.929949     2.922306     2.914662     2.907019     2.899376     2.891733     2.884089     2.876446     2.868803     2.861160
      2.853517     2.845873     2.838230     2.830587     2.822944     2.815300     2.807657     2.800014     2.792371     2.784728
      2.777084     2.769441     2.761798     2.754155     2.746511     2.738868     2.731225     2.723582     2.715939     2.708295
      2.700652     2.693009     2.685366     2.677722     2.670079     2.662436     2.654793     2.647150     2.639506     2.631863
      2.624220     2.616577     2.608933     2.601290     2.593647     2.586004     2.578361     2.570717     2.563074     2.555431
      2.547788     2.540144     2.532501     2.524858     2.517215     2.509572     2.501928     2.494285     2.486642     2.478999
      2.471355     2.463712     2.456069     2.448426     2.440783     2.433139     2.425496     2.417853     2.410210     2.402566
      2.394923     2.387280     2.379637     2.371994     2.364350     2.356707     2.349064     2.341421     2.333777     2.326134
      2.318491     2.310848     2.303205     2.295561     2.287918     2.280275     2.272632     2.264988     2.257345     2.249702
      2.242059     2.234416     2.226772     2.219129     2.211486     2.203843     2.196199     2.188556     2.180913     2.173270
      2.165627     2.157983     2.150340     2.142697     2.135054     2.127410     2.119767     2.112124     2.104481     2.096838
      2.089194     2.081551     2.073908     2.066265     2.058621     2.050978     2.043335     2.035692     2.028049     2.020405
      2.012762     2.005119     1.997476     1.989833     1.982190     1.974546     1.966903     1.959260     1.951617     1.943974
      1.936331     1.928688     1.921045     1.913402     1.905759     1.898115     1.890472     1.882829     1.875186     1.867543
      1.859900     1.852257     1.844614     1.836971     1.829327     1.821684     1.814041     1.806398     1.798755     1.791112
      1.783469     1.775826     1.768183     1.760540     1.752896     1.745253     1.737610     1.729967     1.722324     1.714681
      1.707038     1.699395     1.691752     1.684108     1.676465     1.668822     1.661179     1.653536     1.645893     1.638250
      1.630607     1.622964     1.615321     1.607677     1.600034     1.592391     1.584748     1.577105     1.569462     1.561819
      1.554176     1.546533     1.538890     1.531246     1.523603     1.515960     1.508317     1.500674     1.493031     1.485388
      1.477745     1.470102     1.462458     1.454815     1.447172     1.439529     1.431886     1.424243     1.416600     1.408957
      1.401314     1.393671     1.386027     1.378384     1.370741     1.363098     1.355455     1.347812     1.340169     1.332526
      1.324883     1.317240     1.309596     1.301953     1.294310     1.286667     1.279024     1.271381     1.263738     1.256095
      1.248452     1.240808     1.233165     1.225522     1.217879     1.210236     1.202593     1.194950     1.187307     1.179664
      1.172021     1.164377     1.156734     1.149091     1.141448     1.133805     1.126162     1.118519     1.110876     1.103233
      1.095590     1.087946     1.080303     1.072660     1.065017     1.057374     1.049731     1.042088     1.034445     1.026802
      1.019158     1.011515     1.003872     0.996229     0.988586     0.980943     0.973300     0.965657     0.958014     0.950371
      0.942727     0.935084     0.927441     0.919798     0.912155     0.904512     0.896869     0.889226     0.881583     0.873940
      0.866296     0.858653     0.851010     0.843367     0.835724     0.828081     0.820438     0.812795     0.805152     0.797508
      0.789865     0.782222     0.774579     0.766936     0.759293     0.751650     0.744007     0.736364     0.728721     0.721077
      0.713434     0.705791     0.698148     0.690505     0.682862     0.675219     0.667576     0.659933     0.652290     0.644646
      0.637003     0.629360     0.621717     0.614074     0.606431     0.598788     0.591145     0.583502     0.575858     0.568215
      0.560572     0.552929     0.545286     0.537643     0.530000     0.522357     0.514714     0.507071     0.499427     0.491784
      0.484141     0.476498     0.468855     0.461212     0.453569     0.445925     0.438282     0.430639     0.422996     0.415353
      0.407710     0.400067     0.392424     0.384780     0.377137     0.369494     0.361851     0.354208     0.346565     0.338922
      0.331278     0.323635     0.315992     0.308349     0.300706     0.293063     0.285420     0.277777     0.270133     0.262490
      0.254847     0.247204     0.239561     0.231918     0.224275     0.216631     0.208988     0.201345
 NY phased data points follow
   1.57114E+01  1.58925E+01  1.95507E+01  1.77564E+01  1.83225E+01  2.34875E+01  2.01552E+01  2.97513E+01  3.07810E+01  3.48801E+01
   3.68329E+01  3.96642E+01  3.47290E+01  3.32263E+01  2.92362E+01  2.77131E+01  2.10063E+01  1.54661E+01  1.83804E+01  1.84352E+01
   1.62571E+01  1.93595E+01  2.04295E+01  1.98699E+01  1.83048E+01  1.46666E+01  1.82242E+01  1.80220E+01  2.07310E+01  1.87968E+01
   2.05169E+01  2.54840E+01  2.41023E+01  2.24001E+01  1.92585E+01  1.66629E+01  1.73788E+01  1.77898E+01  1.53989E+01  1.80094E+01
   1.89850E+01  1.77654E+01  1.92936E+01  1.62131E+01  1.89656E+01  2.38463E+01  2.34997E+01  2.87551E+01  2.54551E+01  2.61473E+01
   2.29589E+01  2.05444E+01  1.43625E+01  1.72801E+01  1.71477E+01  1.62864E+01  1.96516E+01  1.73118E+01  1.51572E+01  1.13507E+01
   1.07212E+01  5.79046E+00  7.04855E+00  1.11198E+01  8.83249E+00  5.76427E+00  6.63910E+00  5.25758E+00  6.37438E+00  4.21169E+00
   4.58210E+00  5.99560E+00  8.29983E+00  9.45043E+00  7.56581E+00  5.68783E+00  7.43690E+00  7.92992E+00  7.10227E+00  5.01852E+00
   5.47913E+00  2.71552E+00  5.57468E+00  7.92525E+00  7.35045E+00  7.01895E+00  2.99007E+00  6.30736E+00  1.07982E+01  7.91358E+00
   9.33445E+00  6.16378E+00  1.12127E+01  8.85179E+00  1.44690E+01  1.11696E+01  1.30394E+01  1.62258E+01  1.83340E+01  2.14626E+01
   3.05285E+01  4.12749E+01  4.96822E+01  5.25766E+01  4.86462E+01  4.40575E+01  3.95231E+01  2.58012E+01  2.12186E+01  1.64004E+01
   9.32482E+00  9.23383E+00  1.00108E+01  1.36964E+01  9.33158E+00  9.15919E+00  1.45030E+01  1.18758E+01  1.03622E+01  8.45092E+00
   1.01344E+01  1.97637E+01  1.86366E+01  2.50400E+01  3.77183E+01  5.18970E+01  6.33416E+01  7.19245E+01  6.40611E+01  5.56185E+01
   4.55140E+01  3.26171E+01  2.61045E+01  1.86308E+01  1.62052E+01  1.48225E+01  9.61453E+00  8.71899E+00  6.10295E+00  1.24479E+01
   1.17627E+01  8.59102E+00  7.65290E+00  1.31280E+01  5.43070E+00  7.37718E+00  9.68265E+00  6.92823E+00  6.91967E+00  4.73786E+00
   4.79200E+00  5.06174E+00  2.18586E+00  5.86293E+00  2.60258E+00  3.93639E+00  6.04752E+00  3.64053E+00  3.27802E+00  4.88646E+00
   1.66450E+00  1.48532E+00  2.49355E+00 -1.81526E+00 -2.48175E-01 -2.27362E+00 -4.38166E+00 -2.54013E+00 -3.22292E+00 -8.98520E+00
  -7.84564E+00 -6.52165E+00 -1.22729E+01 -1.27591E+01 -1.63199E+01 -1.82304E+01 -1.72394E+01 -1.40763E+01 -1.10496E+01 -1.04388E+01
  -8.31019E+00 -7.87730E+00 -6.84460E+00 -5.31873E+00 -1.00151E+01 -7.03529E+00 -9.23567E+00 -8.45084E+00 -8.24971E+00 -7.02276E+00
   1.43883E+00 -5.00733E-01  2.98571E+00 -8.10782E-03  2.80403E+00  2.98140E-01 -2.47186E+00 -3.92605E+00 -4.71292E+00 -6.22512E+00
  -7.96492E+00 -2.82128E-01  3.50675E+00  3.44739E+00  3.69883E+00  1.42082E+00  4.03938E+00 -1.25230E+00 -5.04361E+00 -4.56016E+00
  -3.22731E+00  4.07717E+00  6.72377E+00  1.41304E+01  1.59671E+01  2.00810E+01  1.59564E+01  1.60535E+01  1.41607E+01  6.84712E+00
  -1.12986E+00 -4.75479E+00 -5.02662E+00 -2.55474E+00  1.40791E+00  3.62733E+00  1.07142E+01  1.08789E+01  1.03531E+01  8.56194E+00
   4.97070E+00  1.37714E+01  1.07595E+01  9.30594E+00  1.09943E+01  8.03414E+00  5.60856E+00  4.33541E+00  5.61479E+00  6.87217E+00
   7.51649E+00  9.77089E-01 -7.76116E-01  3.87152E+00  7.80759E+00  9.14107E+00  1.10745E+01  1.01974E+01  1.40217E+01  1.34230E+01
   1.80860E+01  1.76137E+01  1.94045E+01  2.72970E+01  3.33947E+01  3.19941E+01  4.36572E+01  5.84716E+01  8.52897E+01  1.06174E+02
   1.10918E+02  1.05163E+02  8.96523E+01  6.75779E+01  4.79079E+01  2.91702E+01  2.33435E+01  1.37410E+01  1.22449E+01  5.76457E+00
   8.31319E+00  7.75074E+00  4.04280E+00  3.93623E+00  4.51786E+00  5.30680E+00  8.89446E-01  5.03034E+00  6.97039E-01  7.13314E-01
   3.87347E+00  8.88689E-01 -1.91078E-02  2.37522E-01  1.81707E+00  1.19017E+00  1.69979E-01 -7.38196E-01 -2.42626E+00  3.61881E+00
  -3.17946E-01 -4.24874E+00 -2.56603E+00 -1.33930E+00  4.13185E-01 -3.19982E+00 -3.71752E-02 -9.28213E-02 -1.03763E+00  2.38499E-02
  -5.05521E-01 -2.75169E-02  2.49468E+00  1.86271E+00  2.44197E+00  5.34468E+00  4.17747E+00  6.90935E+00  6.08021E+00  3.61090E+00
   2.85216E+00 -9.14238E-01  6.65004E+00  3.55409E+00  5.34447E+00  3.99938E+00  1.99615E+00  2.40662E+00  5.74650E+00  5.14019E+00
   5.84522E+00  1.00559E+00 -7.29858E-01  3.31865E+00  1.44968E+00  4.74628E-01  2.48340E-01  1.21581E+00  2.76175E+00 -1.60885E-01
   8.36001E-01 -3.22874E+00 -5.92285E-01  8.03265E-01  5.35693E-01  1.75280E+00  9.09252E-02  2.59030E-01  1.19970E+00  2.02638E+00
  -2.11993E+00 -2.64716E+00 -6.53428E-01 -2.61041E+00 -1.65947E+00 -1.55516E-01  2.11229E+00  9.39996E-01 -2.98417E+00 -6.37095E+00
   2.57926E+00 -3.43665E+00  1.46873E+00  4.03662E+00  3.87439E+00  4.35099E+00  3.60107E+00  3.92699E+00  4.23139E+00  2.08438E+00
   7.92741E+00  7.40588E+00  7.50693E+00  5.41094E+00  5.91241E+00  8.45522E+00  1.36033E+01  9.90062E+00  1.15897E+01  1.03222E+01
   7.87487E+00  4.80525E+00  8.47127E+00  9.15115E+00  8.83290E+00  3.96555E+00  6.24168E+00  5.00619E+00  8.99543E+00  7.78742E+00
   6.51143E+00  9.27389E+00  9.94862E+00  6.90775E+00  7.59875E+00  9.13238E+00  1.06391E+01  1.11564E+01  1.01110E+01  9.64354E+00
   1.03062E+01  1.22370E+01  1.32282E+01  1.21331E+01  1.46149E+01  1.43973E+01  1.45861E+01  1.39720E+01  1.36654E+01  1.43075E+01
   1.57561E+01  1.29563E+01  1.62923E+01  1.56247E+01  1.68293E+01  1.33120E+01  1.73790E+01  1.54680E+01  1.73381E+01  1.62355E+01
   1.84698E+01  2.02890E+01  1.81159E+01  1.88988E+01  1.49286E+01  1.18980E+01  9.80327E+00  1.30775E+01  1.26536E+01  9.25957E+00
   1.34823E+01  1.24688E+01  1.00758E+01  1.04245E+01  9.59424E+00  1.26632E+01  9.24529E+00  8.75447E+00  7.74649E+00  8.34195E+00
   3.75651E+00  1.12312E+01  1.15292E+01  7.25038E+00  8.73974E+00  6.68084E+00  7.28723E+00  9.76438E+00  1.05633E+01  4.16250E+00
   4.99339E+00  7.91827E+00  4.54484E+00  7.86455E+00  8.05687E+00  5.86715E+00  6.84448E+00  5.16953E+00  5.12789E+00  4.76815E+00
   8.11397E+00  6.95018E+00  5.69192E+00  6.64590E+00  8.62509E+00  7.73575E+00  7.84447E+00  6.67821E+00  6.19617E+00  1.10670E+01
   4.30047E+00  6.74369E+00  4.96409E+00  8.74109E+00  7.59012E+00  7.14439E+00  7.31699E+00  4.69687E+00  5.55154E+00  5.29081E+00
   5.04032E+00  4.90897E+00  4.66349E+00  4.47148E+00  5.79652E+00  1.88084E+00  7.77864E+00  6.40957E+00  4.89331E+00  7.09615E+00
   3.63665E+00  7.95238E+00  6.93362E+00  4.98928E+00  3.03729E+00  5.43688E+00  7.02177E+00  5.86487E+00  7.23083E+00  6.98740E+00
   4.48694E+00  4.50821E+00  8.03149E+00  7.62190E+00  6.57737E+00  2.94622E+00  3.60863E+00  7.47901E+00
 NY points of the fit to the data follow
   1.68161E+01  1.65409E+01  1.67170E+01  1.75171E+01  1.88974E+01  2.09264E+01  2.39881E+01  2.75386E+01  3.16262E+01  3.55819E+01
   3.80999E+01  3.82852E+01  3.61543E+01  3.26277E+01  2.88006E+01  2.53419E+01  2.25269E+01  2.05666E+01  1.92078E+01  1.81934E+01
   1.77036E+01  1.73455E+01  1.67360E+01  1.63820E+01  1.64019E+01  1.59759E+01  1.58824E+01  1.71117E+01  1.98402E+01  2.30175E+01
   2.56071E+01  2.71944E+01  2.72510E+01  2.54021E+01  2.23439E+01  1.90645E+01  1.61680E+01  1.41391E+01  1.33255E+01  1.33585E+01
   1.40871E+01  1.52043E+01  1.63176E+01  1.72382E+01  1.83926E+01  2.00451E+01  2.16209E+01  2.22502E+01  2.17593E+01  2.02721E+01
   1.80885E+01  1.57723E+01  1.38726E+01  1.26677E+01  1.19889E+01  1.16616E+01  1.17905E+01  1.22490E+01  1.28736E+01  1.33881E+01
   1.35332E+01  1.32300E+01  1.24910E+01  1.15037E+01  1.05734E+01  9.97175E+00  9.78492E+00  9.85030E+00  1.00975E+01  1.04669E+01
   1.08841E+01  1.11643E+01  1.11957E+01  1.10097E+01  1.06702E+01  1.02613E+01  9.85799E+00  9.54198E+00  9.31083E+00  9.11023E+00
   9.01420E+00  8.90601E+00  8.71748E+00  8.58865E+00  8.49817E+00  8.20923E+00  7.60300E+00  6.84842E+00  6.22051E+00  5.85806E+00
   5.85642E+00  6.19309E+00  6.69808E+00  7.22612E+00  7.73764E+00  8.30381E+00  9.60371E+00  1.32180E+01  1.67540E+01  2.10777E+01
   2.97257E+01  4.14265E+01  5.11699E+01  5.48816E+01  5.22392E+01  4.51534E+01  3.56326E+01  2.61067E+01  1.89925E+01  1.42544E+01
   1.02255E+01  7.90531E+00  7.23924E+00  7.02277E+00  6.95128E+00  6.96486E+00  7.03288E+00  7.14967E+00  7.37898E+00  7.93158E+00
   9.80401E+00  1.49488E+01  2.00843E+01  2.60990E+01  3.73416E+01  5.21951E+01  6.43925E+01  6.90259E+01  6.57119E+01  5.68015E+01
   4.50367E+01  3.33980E+01  2.45405E+01  1.82012E+01  1.22542E+01  8.24143E+00  6.43921E+00  5.56135E+00  5.42957E+00  5.84451E+00
   6.37909E+00  6.74678E+00  6.86576E+00  6.67240E+00  6.22872E+00  5.68876E+00  5.14043E+00  4.65814E+00  4.20976E+00  3.78301E+00
   3.43560E+00  3.11826E+00  2.82084E+00  2.58332E+00  2.34183E+00  2.01605E+00  1.83174E+00  1.57405E+00  1.06034E+00  3.96180E-01
  -3.11636E-01 -5.03625E-01 -1.15244E-01  3.98782E-01  6.11632E-01  3.49957E-01 -3.19815E-01 -1.13574E+00 -1.88610E+00 -2.59626E+00
  -3.23662E+00 -3.67703E+00 -4.11768E+00 -4.71931E+00 -5.37411E+00 -5.74504E+00 -5.44725E+00 -4.90416E+00 -4.61869E+00 -4.65267E+00
  -4.81365E+00 -5.00394E+00 -4.88732E+00 -4.69054E+00 -4.65905E+00 -4.46376E+00 -3.68808E+00 -2.30500E+00 -4.98080E-01  1.23569E+00
   2.52038E+00  3.04631E+00  2.65170E+00  1.98155E+00  1.27561E+00  4.28932E-01 -2.81417E-01 -3.58742E-01  3.88427E-01  1.65033E+00
   3.28565E+00  5.01400E+00  6.48262E+00  6.93054E+00  6.08159E+00  4.47768E+00  1.65343E+00 -1.98721E+00 -4.91212E+00 -6.28896E+00
  -5.77340E+00 -4.25553E+00 -1.31209E+00  3.15220E+00  7.69530E+00  1.03920E+01  1.04307E+01  8.31700E+00  4.63449E+00 -9.63828E-02
  -4.96396E+00 -8.19549E+00 -8.74387E+00 -6.99333E+00 -3.44374E+00  6.54835E-01  4.35147E+00  7.00601E+00  8.20452E+00  8.26153E+00
   7.80787E+00  7.29369E+00  6.86146E+00  6.77598E+00  7.30528E+00  8.53324E+00  9.78331E+00  1.06117E+01  1.10916E+01  1.09094E+01
   9.85076E+00  8.50294E+00  7.88444E+00  8.18132E+00  9.08031E+00  1.04150E+01  1.19497E+01  1.32937E+01  1.40727E+01  1.45885E+01
   1.52435E+01  1.60252E+01  1.71320E+01  2.04375E+01  2.96586E+01  3.74320E+01  4.53578E+01  6.20525E+01  8.53045E+01  1.04288E+02
   1.10645E+02  1.04343E+02  8.92848E+01  6.91748E+01  4.90354E+01  3.42585E+01  2.44119E+01  1.53601E+01  9.92730E+00  7.96469E+00
   6.81964E+00  6.03020E+00  5.59444E+00  5.35254E+00  5.09027E+00  4.78416E+00  4.41514E+00  3.95403E+00  3.43004E+00  2.91296E+00
   2.43302E+00  2.01307E+00  1.67008E+00  1.39983E+00  1.18202E+00  9.87609E-01  8.03669E-01  6.42615E-01  5.10244E-01  4.04608E-01
   3.33927E-01  3.04099E-01  3.14127E-01  3.59665E-01  4.39335E-01  5.52975E-01  6.95191E-01  8.67661E-01  1.07166E+00  1.30713E+00
   1.57168E+00  1.86127E+00  2.16674E+00  2.47879E+00  2.78601E+00  3.08020E+00  3.35148E+00  3.59079E+00  3.78979E+00  3.94366E+00
   4.04595E+00  4.09442E+00  4.08623E+00  4.02234E+00  3.90468E+00  3.73939E+00  3.53247E+00  3.29283E+00  3.02844E+00  2.75064E+00
   2.47202E+00  2.20755E+00  1.93875E+00  1.68042E+00  1.45863E+00  1.24626E+00  1.00237E+00  7.20297E-01  4.27276E-01  1.77880E-01
  -1.24862E-02 -1.53553E-01 -2.08450E-01 -1.60858E-01 -4.27542E-02  1.12651E-01  2.64945E-01  3.89562E-01  4.85981E-01  5.64233E-01
   6.51451E-01  7.78071E-01  9.05777E-01  1.04005E+00  1.22931E+00  1.43240E+00  1.58587E+00  1.67120E+00  1.72485E+00  1.82337E+00
   1.96860E+00  2.17123E+00  2.48873E+00  2.92875E+00  3.43231E+00  3.95233E+00  4.44780E+00  4.88727E+00  5.26595E+00  5.59460E+00
   5.89925E+00  6.19257E+00  6.45314E+00  6.68886E+00  6.90455E+00  7.09074E+00  7.24127E+00  7.35495E+00  7.43067E+00  7.47100E+00
   7.47847E+00  7.45885E+00  7.41701E+00  7.36026E+00  7.29464E+00  7.22855E+00  7.16888E+00  7.12416E+00  7.10057E+00  7.10541E+00
   7.14361E+00  7.22143E+00  7.34265E+00  7.51188E+00  7.73085E+00  8.00210E+00  8.32557E+00  8.70226E+00  9.13031E+00  9.60840E+00
   1.01320E+01  1.06973E+01  1.12975E+01  1.19265E+01  1.25750E+01  1.32342E+01  1.38922E+01  1.45384E+01  1.51599E+01  1.57453E+01
   1.62817E+01  1.67582E+01  1.71629E+01  1.74877E+01  1.77245E+01  1.78688E+01  1.79167E+01  1.78684E+01  1.77247E+01  1.74908E+01
   1.71724E+01  1.67787E+01  1.63183E+01  1.58026E+01  1.52423E+01  1.46498E+01  1.40359E+01  1.34122E+01  1.27874E+01  1.21714E+01
   1.15708E+01  1.09931E+01  1.04423E+01  9.92287E+00  9.43629E+00  8.98481E+00  8.56817E+00  8.18710E+00  7.83978E+00  7.52556E+00
   7.24171E+00  6.98727E+00  6.75942E+00  6.55703E+00  6.37702E+00  6.21811E+00  6.07745E+00  5.95427E+00  5.84614E+00  5.75245E+00
   5.67078E+00  5.60066E+00  5.54011E+00  5.48917E+00  5.44613E+00  5.41100E+00  5.38202E+00  5.35938E+00  5.34173E+00  5.32960E+00
   5.32165E+00  5.31825E+00  5.31802E+00  5.32154E+00  5.32778E+00  5.33748E+00  5.34945E+00  5.36423E+00  5.38067E+00  5.39955E+00
   5.42000E+00  5.44278E+00  5.46678E+00  5.49263E+00  5.51936E+00  5.54786E+00  5.57728E+00  5.60837E+00  5.64005E+00  5.67305E+00
   5.70648E+00  5.74132E+00  5.77668E+00  5.81330E+00  5.85014E+00  5.88800E+00  5.92607E+00  5.96533E+00  6.00484E+00  6.04531E+00
   6.08575E+00  6.12706E+00  6.16848E+00  6.21091E+00  6.25340E+00  6.29667E+00  6.33978E+00  6.38370E+00  6.42767E+00  6.47253E+00
   6.51730E+00  6.56273E+00  6.60796E+00  6.65400E+00  6.70005E+00  6.74691E+00  6.79358E+00  6.84087E+00
 NY background values follow
     1.354E+01    1.345E+01    1.337E+01    1.328E+01    1.320E+01    1.311E+01    1.303E+01    1.295E+01    1.286E+01    1.278E+01
     1.269E+01    1.261E+01    1.252E+01    1.244E+01    1.235E+01    1.227E+01    1.218E+01    1.210E+01    1.201E+01    1.193E+01
     1.185E+01    1.176E+01    1.168E+01    1.159E+01    1.151E+01    1.142E+01    1.134E+01    1.125E+01    1.117E+01    1.108E+01
     1.100E+01    1.091E+01    1.083E+01    1.074E+01    1.066E+01    1.058E+01    1.049E+01    1.041E+01    1.032E+01    1.024E+01
     1.015E+01    1.007E+01    9.984E+00    9.900E+00    9.815E+00    9.731E+00    9.646E+00    9.562E+00    9.478E+00    9.393E+00
     9.309E+00    9.225E+00    9.141E+00    9.056E+00    8.972E+00    8.888E+00    8.804E+00    8.720E+00    8.636E+00    8.552E+00
     8.468E+00    8.384E+00    8.300E+00    8.216E+00    8.133E+00    8.049E+00    7.965E+00    7.882E+00    7.798E+00    7.715E+00
     7.632E+00    7.549E+00    7.465E+00    7.382E+00    7.299E+00    7.216E+00    7.134E+00    7.051E+00    6.968E+00    6.886E+00
     6.803E+00    6.721E+00    6.638E+00    6.556E+00    6.474E+00    6.392E+00    6.310E+00    6.229E+00    6.147E+00    6.065E+00
     5.984E+00    5.903E+00    5.822E+00    5.740E+00    5.660E+00    5.579E+00    5.498E+00    5.418E+00    5.337E+00    5.257E+00
     5.177E+00    5.097E+00    5.017E+00    4.937E+00    4.857E+00    4.778E+00    4.698E+00    4.619E+00    4.540E+00    4.461E+00
     4.382E+00    4.304E+00    4.225E+00    4.147E+00    4.069E+00    3.990E+00    3.912E+00    3.835E+00    3.757E+00    3.680E+00
     3.602E+00    3.525E+00    3.448E+00    3.371E+00    3.294E+00    3.218E+00    3.141E+00    3.065E+00    2.989E+00    2.913E+00
     2.837E+00    2.762E+00    2.686E+00    2.611E+00    2.536E+00    2.461E+00    2.386E+00    2.311E+00    2.237E+00    2.163E+00
     2.089E+00    2.015E+00    1.941E+00    1.868E+00    1.795E+00    1.722E+00    1.650E+00    1.577E+00    1.505E+00    1.434E+00
     1.363E+00    1.292E+00    1.221E+00    1.151E+00    1.081E+00    1.012E+00    9.426E-01    8.740E-01    8.058E-01    7.380E-01
     6.707E-01    6.039E-01    5.375E-01    4.717E-01    4.063E-01    3.414E-01    2.771E-01    2.133E-01    1.500E-01    8.733E-02
     2.520E-02   -3.635E-02   -9.730E-02   -1.576E-01   -2.174E-01   -2.765E-01   -3.349E-01   -3.927E-01   -4.498E-01   -5.063E-01
    -5.620E-01   -6.171E-01   -6.714E-01   -7.251E-01   -7.780E-01   -8.302E-01   -8.818E-01   -9.327E-01   -9.828E-01   -1.032E+00
    -1.081E+00   -1.129E+00   -1.177E+00   -1.224E+00   -1.270E+00   -1.315E+00   -1.360E+00   -1.404E+00   -1.448E+00   -1.491E+00
    -1.533E+00   -1.575E+00   -1.616E+00   -1.657E+00   -1.697E+00   -1.736E+00   -1.775E+00   -1.813E+00   -1.850E+00   -1.887E+00
    -1.923E+00   -1.959E+00   -1.994E+00   -2.029E+00   -2.063E+00   -2.097E+00   -2.130E+00   -2.162E+00   -2.194E+00   -2.225E+00
    -2.256E+00   -2.286E+00   -2.316E+00   -2.345E+00   -2.374E+00   -2.402E+00   -2.430E+00   -2.457E+00   -2.484E+00   -2.510E+00
    -2.536E+00   -2.561E+00   -2.585E+00   -2.610E+00   -2.633E+00   -2.656E+00   -2.679E+00   -2.701E+00   -2.722E+00   -2.743E+00
    -2.764E+00   -2.784E+00   -2.803E+00   -2.822E+00   -2.840E+00   -2.857E+00   -2.874E+00   -2.891E+00   -2.907E+00   -2.922E+00
    -2.937E+00   -2.951E+00   -2.965E+00   -2.978E+00   -2.990E+00   -3.002E+00   -3.013E+00   -3.024E+00   -3.034E+00   -3.044E+00
    -3.052E+00   -3.061E+00   -3.068E+00   -3.075E+00   -3.082E+00   -3.087E+00   -3.092E+00   -3.097E+00   -3.101E+00   -3.104E+00
    -3.107E+00   -3.109E+00   -3.110E+00   -3.110E+00   -3.110E+00   -3.110E+00   -3.109E+00   -3.107E+00   -3.104E+00   -3.101E+00
    -3.097E+00   -3.093E+00   -3.088E+00   -3.082E+00   -3.076E+00   -3.069E+00   -3.061E+00   -3.053E+00   -3.044E+00   -3.035E+00
    -3.025E+00   -3.014E+00   -3.003E+00   -2.991E+00   -2.979E+00   -2.966E+00   -2.952E+00   -2.938E+00   -2.924E+00   -2.908E+00
    -2.892E+00   -2.876E+00   -2.859E+00   -2.841E+00   -2.823E+00   -2.804E+00   -2.785E+00   -2.765E+00   -2.744E+00   -2.723E+00
    -2.702E+00   -2.680E+00   -2.657E+00   -2.634E+00   -2.610E+00   -2.586E+00   -2.561E+00   -2.535E+00   -2.509E+00   -2.483E+00
    -2.456E+00   -2.428E+00   -2.400E+00   -2.372E+00   -2.342E+00   -2.313E+00   -2.283E+00   -2.252E+00   -2.221E+00   -2.189E+00
    -2.157E+00   -2.125E+00   -2.092E+00   -2.058E+00   -2.024E+00   -1.990E+00   -1.955E+00   -1.920E+00   -1.884E+00   -1.848E+00
    -1.811E+00   -1.774E+00   -1.736E+00   -1.698E+00   -1.660E+00   -1.621E+00   -1.582E+00   -1.542E+00   -1.502E+00   -1.462E+00
    -1.421E+00   -1.380E+00   -1.338E+00   -1.296E+00   -1.254E+00   -1.211E+00   -1.168E+00   -1.125E+00   -1.081E+00   -1.037E+00
    -9.920E-01   -9.471E-01   -9.019E-01   -8.564E-01   -8.105E-01   -7.642E-01   -7.177E-01   -6.708E-01   -6.237E-01   -5.762E-01
    -5.284E-01   -4.804E-01   -4.320E-01   -3.834E-01   -3.345E-01   -2.853E-01   -2.358E-01   -1.861E-01   -1.361E-01   -8.588E-02
    -3.540E-02    1.533E-02    6.628E-02    1.175E-01    1.689E-01    2.205E-01    2.724E-01    3.244E-01    3.767E-01    4.292E-01
     4.818E-01    5.347E-01    5.877E-01    6.409E-01    6.943E-01    7.478E-01    8.016E-01    8.554E-01    9.095E-01    9.636E-01
     1.018E+00    1.072E+00    1.127E+00    1.182E+00    1.236E+00    1.291E+00    1.346E+00    1.402E+00    1.457E+00    1.512E+00
     1.568E+00    1.623E+00    1.679E+00    1.734E+00    1.790E+00    1.846E+00    1.902E+00    1.958E+00    2.014E+00    2.070E+00
     2.126E+00    2.182E+00    2.239E+00    2.295E+00    2.351E+00    2.408E+00    2.464E+00    2.520E+00    2.577E+00    2.633E+00
     2.690E+00    2.746E+00    2.803E+00    2.859E+00    2.916E+00    2.973E+00    3.029E+00    3.086E+00    3.142E+00    3.199E+00
     3.255E+00    3.311E+00    3.368E+00    3.424E+00    3.481E+00    3.537E+00    3.593E+00    3.649E+00    3.706E+00    3.762E+00
     3.818E+00    3.874E+00    3.930E+00    3.986E+00    4.041E+00    4.097E+00    4.153E+00    4.209E+00    4.264E+00    4.320E+00
     4.375E+00    4.430E+00    4.486E+00    4.541E+00    4.596E+00    4.652E+00    4.707E+00    4.762E+00    4.817E+00    4.872E+00
     4.927E+00    4.982E+00    5.037E+00    5.092E+00    5.147E+00    5.202E+00    5.256E+00    5.311E+00    5.366E+00    5.421E+00
     5.475E+00    5.530E+00    5.585E+00    5.639E+00    5.694E+00    5.749E+00    5.803E+00    5.858E+00    5.913E+00    5.967E+00
     6.022E+00    6.077E+00    6.131E+00    6.186E+00    6.240E+00    6.295E+00    6.350E+00    6.404E+00
 Ala      Conc. = 2.36E+01
