 LCModel (Version 6.3-1L) Copyright: S.W. Provencher.          Ref.: Magn. Reson. Med. 30:672-679 (1993).                
 Slice#3 Row#11 Col#14  K_02_press_1_raw_act
 36 lines in following concentration table = NCONC+1
    Conc.  %SD /Cr+PCr  Metabolite                                         
    0.000 999%   0.000 Ala                                                 
    3.677  83%   0.241 Asp                                                 
   12.788  57%   0.839 Cr                                                  
    2.448 257%   0.161 PCr                                                 
    2.301  80%   0.151 GABA                                                
    2.262  82%   0.148 Glc                                                 
    6.016 184%   0.395 Gln                                                 
   10.549 124%   0.692 Glu                                                 
    4.843  47%   0.318 GPC                                                 
    0.000 999%   0.000 PCh                                                 
    4.678 104%   0.307 GSH                                                 
   14.724 108%   0.966 Ins                                                 
    0.000 999%   0.000 Lac                                                 
   34.461  34%   2.262 NAA                                                 
   12.995  42%   0.853 NAAG                                                
    0.704  86% 4.6E-02 Scyllo                                              
    3.538  86%   0.232 Tau                                                 
    1.597 156%   0.105 -CrCH2                                              
    4.843  47%   0.318 GPC+PCh                                             
   47.456  31%   3.115 NAA+NAAG                                            
   15.236  44%   1.000 Cr+PCr                                              
   16.565  96%   1.087 Glu+Gln                                             
 2.40E+04  15% 1.6E+03 Lip13a                                              
  100.407 105%   6.590 Lip13b                                              
 6.06E+03  15% 397.724 Lip09                                               
 4.45E+03  20% 291.812 MM09                                                
    0.000 999%   0.000 Lip20                                               
    0.000 999%   0.000 MM20                                                
 3.35E+03  27% 220.132 MM12                                                
 6.69E+03  21% 438.882 MM14                                                
 2.32E+03  21% 152.585 MM17                                                
 2.41E+04  14% 1.6E+03 Lip13a+Lip13b                                       
 3.41E+04   7% 2.2E+03 MM14+Lip13a+Lip13b+MM12                             
 1.05E+04  10% 689.536 MM09+Lip09                                          
    0.000 999%   0.000 MM20+Lip20                                          
   6 lines in following misc. output table
  FWHM = 0.023 ppm    S/N =  40                                            
  Data shift = 0.015 ppm                                                   
  Ph:  87 deg       8.6 deg/ppm                                            
  alphaB,S = 8.5E+01,   2.1E+00                                            
   14 spline knots.   Ns = 5(1)                                            
  ( 6) 4 infls.   ( 3) 3 extrs.                                            
  498 points on ppm-axis = NY
      4.000000     3.992357     3.984714     3.977070     3.969427     3.961784     3.954141     3.946497     3.938854     3.931211
      3.923568     3.915925     3.908281     3.900638     3.892995     3.885352     3.877708     3.870065     3.862422     3.854779
      3.847136     3.839492     3.831849     3.824206     3.816563     3.808919     3.801276     3.793633     3.785990     3.778347
      3.770703     3.763060     3.755417     3.747774     3.740130     3.732487     3.724844     3.717201     3.709558     3.701914
      3.694271     3.686628     3.678985     3.671341     3.663698     3.656055     3.648412     3.640769     3.633125     3.625482
      3.617839     3.610196     3.602552     3.594909     3.587266     3.579623     3.571980     3.564336     3.556693     3.549050
      3.541407     3.533763     3.526120     3.518477     3.510834     3.503191     3.495547     3.487904     3.480261     3.472618
      3.464974     3.457331     3.449688     3.442045     3.434402     3.426758     3.419115     3.411472     3.403829     3.396185
      3.388542     3.380899     3.373256     3.365613     3.357969     3.350326     3.342683     3.335040     3.327396     3.319753
      3.312110     3.304467     3.296824     3.289180     3.281537     3.273894     3.266251     3.258607     3.250964     3.243321
      3.235678     3.228034     3.220391     3.212748     3.205105     3.197462     3.189818     3.182175     3.174532     3.166889
      3.159245     3.151602     3.143959     3.136316     3.128673     3.121029     3.113386     3.105743     3.098100     3.090456
      3.082813     3.075170     3.067527     3.059884     3.052240     3.044597     3.036954     3.029311     3.021667     3.014024
      3.006381     2.998738     2.991095     2.983451     2.975808     2.968165     2.960522     2.952878     2.945235     2.937592
      2.929949     2.922306     2.914662     2.907019     2.899376     2.891733     2.884089     2.876446     2.868803     2.861160
      2.853517     2.845873     2.838230     2.830587     2.822944     2.815300     2.807657     2.800014     2.792371     2.784728
      2.777084     2.769441     2.761798     2.754155     2.746511     2.738868     2.731225     2.723582     2.715939     2.708295
      2.700652     2.693009     2.685366     2.677722     2.670079     2.662436     2.654793     2.647150     2.639506     2.631863
      2.624220     2.616577     2.608933     2.601290     2.593647     2.586004     2.578361     2.570717     2.563074     2.555431
      2.547788     2.540144     2.532501     2.524858     2.517215     2.509572     2.501928     2.494285     2.486642     2.478999
      2.471355     2.463712     2.456069     2.448426     2.440783     2.433139     2.425496     2.417853     2.410210     2.402566
      2.394923     2.387280     2.379637     2.371994     2.364350     2.356707     2.349064     2.341421     2.333777     2.326134
      2.318491     2.310848     2.303205     2.295561     2.287918     2.280275     2.272632     2.264988     2.257345     2.249702
      2.242059     2.234416     2.226772     2.219129     2.211486     2.203843     2.196199     2.188556     2.180913     2.173270
      2.165627     2.157983     2.150340     2.142697     2.135054     2.127410     2.119767     2.112124     2.104481     2.096838
      2.089194     2.081551     2.073908     2.066265     2.058621     2.050978     2.043335     2.035692     2.028049     2.020405
      2.012762     2.005119     1.997476     1.989833     1.982190     1.974546     1.966903     1.959260     1.951617     1.943974
      1.936331     1.928688     1.921045     1.913402     1.905759     1.898115     1.890472     1.882829     1.875186     1.867543
      1.859900     1.852257     1.844614     1.836971     1.829327     1.821684     1.814041     1.806398     1.798755     1.791112
      1.783469     1.775826     1.768183     1.760540     1.752896     1.745253     1.737610     1.729967     1.722324     1.714681
      1.707038     1.699395     1.691752     1.684108     1.676465     1.668822     1.661179     1.653536     1.645893     1.638250
      1.630607     1.622964     1.615321     1.607677     1.600034     1.592391     1.584748     1.577105     1.569462     1.561819
      1.554176     1.546533     1.538890     1.531246     1.523603     1.515960     1.508317     1.500674     1.493031     1.485388
      1.477745     1.470102     1.462458     1.454815     1.447172     1.439529     1.431886     1.424243     1.416600     1.408957
      1.401314     1.393671     1.386027     1.378384     1.370741     1.363098     1.355455     1.347812     1.340169     1.332526
      1.324883     1.317240     1.309596     1.301953     1.294310     1.286667     1.279024     1.271381     1.263738     1.256095
      1.248452     1.240808     1.233165     1.225522     1.217879     1.210236     1.202593     1.194950     1.187307     1.179664
      1.172021     1.164377     1.156734     1.149091     1.141448     1.133805     1.126162     1.118519     1.110876     1.103233
      1.095590     1.087946     1.080303     1.072660     1.065017     1.057374     1.049731     1.042088     1.034445     1.026802
      1.019158     1.011515     1.003872     0.996229     0.988586     0.980943     0.973300     0.965657     0.958014     0.950371
      0.942727     0.935084     0.927441     0.919798     0.912155     0.904512     0.896869     0.889226     0.881583     0.873940
      0.866296     0.858653     0.851010     0.843367     0.835724     0.828081     0.820438     0.812795     0.805152     0.797508
      0.789865     0.782222     0.774579     0.766936     0.759293     0.751650     0.744007     0.736364     0.728721     0.721077
      0.713434     0.705791     0.698148     0.690505     0.682862     0.675219     0.667576     0.659933     0.652290     0.644646
      0.637003     0.629360     0.621717     0.614074     0.606431     0.598788     0.591145     0.583502     0.575858     0.568215
      0.560572     0.552929     0.545286     0.537643     0.530000     0.522357     0.514714     0.507071     0.499427     0.491784
      0.484141     0.476498     0.468855     0.461212     0.453569     0.445925     0.438282     0.430639     0.422996     0.415353
      0.407710     0.400067     0.392424     0.384780     0.377137     0.369494     0.361851     0.354208     0.346565     0.338922
      0.331278     0.323635     0.315992     0.308349     0.300706     0.293063     0.285420     0.277777     0.270133     0.262490
      0.254847     0.247204     0.239561     0.231918     0.224275     0.216631     0.208988     0.201345
 NY phased data points follow
   6.54208E+00  8.37431E+00  6.48521E+00  5.50128E+00  5.09907E+00  6.32756E+00  5.92511E+00  5.68458E+00  6.25952E+00  6.17201E+00
   7.56011E+00  6.88301E+00  7.32085E+00  8.85172E+00  6.93197E+00  6.83308E+00  6.24497E+00  5.34968E+00  5.17693E+00  6.42623E+00
   5.22450E+00  5.97343E+00  6.72119E+00  6.62082E+00  6.39753E+00  7.33120E+00  6.01021E+00  5.42261E+00  6.23510E+00  5.89951E+00
   7.94853E+00  7.91056E+00  5.08487E+00  6.61676E+00  7.35980E+00  7.99789E+00  6.31909E+00  6.23478E+00  6.31611E+00  4.94725E+00
   4.20244E+00  6.43524E+00  7.56750E+00  5.26557E+00  5.75404E+00  6.12233E+00  6.73460E+00  6.17955E+00  4.90350E+00  5.94921E+00
   5.59661E+00  6.85440E+00  5.46562E+00  4.62945E+00  4.55153E+00  4.76914E+00  6.94586E+00  4.62973E+00  7.84210E+00  6.51052E+00
   5.43675E+00  5.71181E+00  5.80755E+00  5.55444E+00  5.69603E+00  5.70468E+00  4.86407E+00  5.92718E+00  6.11687E+00  6.88942E+00
   5.42544E+00  6.84468E+00  6.39005E+00  5.40631E+00  6.37862E+00  5.19689E+00  5.10867E+00  6.27839E+00  4.53312E+00  4.12623E+00
   6.67169E+00  5.34866E+00  4.26528E+00  5.71551E+00  5.46336E+00  4.64039E+00  6.14955E+00  4.01558E+00  4.68754E+00  6.40311E+00
   4.59183E+00  4.52807E+00  5.72372E+00  4.57096E+00  4.72274E+00  3.90634E+00  4.91588E+00  5.42162E+00  4.66370E+00  3.19854E+00
   3.74012E+00  4.67095E+00  7.96490E+00  7.04618E+00  5.77863E+00  6.26769E+00  4.27760E+00  5.23209E+00  5.29841E+00  4.70214E+00
   3.77791E+00  4.56057E+00  3.56324E+00  4.55669E+00  3.77750E+00  4.69290E+00  5.83930E+00  5.73188E+00  3.82114E+00  4.86172E+00
   4.83612E+00  3.93796E+00  3.83504E+00  4.06496E+00  4.49965E+00  6.04461E+00  6.12231E+00  8.41003E+00  6.58645E+00  6.18808E+00
   5.92228E+00  6.19486E+00  5.80834E+00  4.93761E+00  3.95980E+00  3.75277E+00  4.62010E+00  4.95726E+00  4.26890E+00  4.71954E+00
   5.53052E+00  4.52291E+00  6.20088E+00  5.58249E+00  6.09618E+00  6.21124E+00  6.18366E+00  4.24701E+00  5.36602E+00  4.74669E+00
   4.92024E+00  5.96624E+00  5.81070E+00  4.64707E+00  4.47383E+00  5.84106E+00  4.67744E+00  4.89396E+00  3.93286E+00  5.50380E+00
   5.77619E+00  5.01740E+00  6.73455E+00  6.36976E+00  6.12139E+00  5.51675E+00  7.03039E+00  6.34250E+00  5.69159E+00  4.55232E+00
   4.84930E+00  7.05077E+00  5.53386E+00  6.06634E+00  5.38227E+00  4.20247E+00  3.79781E+00  5.85261E+00  5.35574E+00  4.26601E+00
   5.93471E+00  6.45723E+00  4.45122E+00  5.83944E+00  5.18308E+00  6.27149E+00  5.05746E+00  4.43917E+00  4.92797E+00  5.23634E+00
   6.95502E+00  5.56808E+00  6.48726E+00  5.16357E+00  5.47949E+00  5.83312E+00  4.55004E+00  6.07964E+00  6.43037E+00  3.75987E+00
   4.97629E+00  4.00929E+00  3.90900E+00  5.49625E+00  4.88794E+00  5.34836E+00  5.65676E+00  6.28118E+00  4.27607E+00  5.70237E+00
   5.44260E+00  5.15278E+00  5.93969E+00  3.82951E+00  5.96974E+00  5.78913E+00  6.66883E+00  5.88657E+00  4.71100E+00  4.03081E+00
   6.51155E+00  4.51115E+00  6.02650E+00  5.66811E+00  4.80052E+00  4.47815E+00  5.52839E+00  6.30519E+00  6.07876E+00  6.36633E+00
   7.19856E+00  5.33873E+00  5.22242E+00  5.57707E+00  6.25153E+00  7.53044E+00  6.01252E+00  4.69075E+00  5.97225E+00  6.71440E+00
   6.18991E+00  5.87862E+00  7.03200E+00  6.66063E+00  4.80919E+00  6.39198E+00  5.39094E+00  5.65769E+00  7.25236E+00  5.11045E+00
   7.00207E+00  7.86124E+00  6.55417E+00  6.56881E+00  6.27280E+00  9.34403E+00  8.54196E+00  5.73228E+00  7.68689E+00  1.03513E+01
   1.44625E+01  1.16382E+01  1.11506E+01  1.03045E+01  6.28857E+00  7.51150E+00  8.98892E+00  8.42182E+00  9.43778E+00  8.39468E+00
   1.02998E+01  7.73948E+00  1.06995E+01  1.06332E+01  1.12491E+01  1.27409E+01  9.71632E+00  1.29187E+01  1.36042E+01  1.27490E+01
   1.46185E+01  1.38397E+01  1.51919E+01  1.39522E+01  1.55561E+01  1.62005E+01  1.51996E+01  1.60297E+01  1.83320E+01  1.59087E+01
   1.85373E+01  1.82083E+01  1.79977E+01  2.05152E+01  2.08494E+01  2.05224E+01  2.10876E+01  2.26783E+01  2.25467E+01  2.19771E+01
   2.09869E+01  2.53702E+01  2.42521E+01  2.40789E+01  2.59213E+01  2.54114E+01  2.65957E+01  2.80588E+01  2.79767E+01  2.91593E+01
   2.97767E+01  3.23981E+01  3.31032E+01  3.27084E+01  3.50468E+01  3.48395E+01  3.63803E+01  3.96263E+01  3.96830E+01  3.97208E+01
   4.25229E+01  4.20165E+01  4.71724E+01  4.63120E+01  4.81137E+01  4.87061E+01  5.30373E+01  5.45471E+01  5.73632E+01  5.94890E+01
   6.23095E+01  6.28644E+01  6.74509E+01  6.81243E+01  7.02395E+01  6.99106E+01  7.17309E+01  7.03077E+01  7.08910E+01  7.16633E+01
   7.31500E+01  7.51220E+01  7.51702E+01  7.70674E+01  7.71197E+01  7.69387E+01  7.82557E+01  7.99032E+01  8.14078E+01  8.14441E+01
   8.09622E+01  8.36808E+01  8.44840E+01  8.54723E+01  8.59920E+01  8.70727E+01  8.69020E+01  8.82785E+01  8.87865E+01  8.80077E+01
   9.07435E+01  8.81122E+01  9.02152E+01  9.09879E+01  9.04817E+01  8.74349E+01  8.77284E+01  8.79033E+01  8.65117E+01  8.59748E+01
   8.46747E+01  8.48950E+01  8.29420E+01  8.44511E+01  8.30605E+01  8.12930E+01  8.04595E+01  7.83244E+01  7.75093E+01  7.49950E+01
   7.55103E+01  7.38856E+01  7.20815E+01  6.98592E+01  7.16834E+01  6.78791E+01  6.71824E+01  6.48818E+01  6.27269E+01  6.04620E+01
   5.97361E+01  5.86103E+01  5.63984E+01  5.56492E+01  5.40102E+01  5.01233E+01  4.91219E+01  4.94063E+01  4.70266E+01  4.55113E+01
   4.28566E+01  4.21549E+01  4.12124E+01  3.85885E+01  3.83834E+01  3.55097E+01  3.57530E+01  3.49806E+01  3.28200E+01  3.31306E+01
   3.10149E+01  3.11676E+01  2.84489E+01  2.74430E+01  2.59640E+01  2.59142E+01  2.50903E+01  2.35830E+01  2.18541E+01  2.03023E+01
   1.99049E+01  2.08008E+01  1.87730E+01  1.93185E+01  1.69820E+01  1.67242E+01  1.53663E+01  1.44694E+01  1.54847E+01  1.42804E+01
   1.28168E+01  1.30198E+01  1.27567E+01  1.22449E+01  1.21958E+01  1.03693E+01  1.05202E+01  9.57913E+00  9.71377E+00  7.28857E+00
   7.04172E+00  6.97059E+00  6.06314E+00  8.16316E+00  6.02463E+00  5.30741E+00  5.72175E+00  6.39492E+00  5.62398E+00  4.00855E+00
   3.68967E+00  3.30728E+00  3.75840E+00  3.56397E+00  2.49857E+00  1.51757E+00  2.74112E+00  2.53423E+00  2.44231E+00  2.75652E+00
   2.03533E+00  1.23855E+00  8.02327E-01  1.41886E+00  1.42267E+00  9.81028E-02 -1.71154E-01  2.48949E-01  3.49381E-01  5.63948E-01
   5.61294E-01 -1.42678E+00 -2.00032E-01 -9.39943E-01 -8.31219E-01 -1.67189E+00 -1.44676E+00 -1.53805E+00 -2.30972E-02 -1.94886E+00
  -1.59456E+00 -1.42757E+00 -1.30831E+00 -2.19190E+00 -4.06987E+00 -1.28229E+00 -2.63147E+00 -1.40283E+00 -2.06474E+00 -1.05131E+00
  -9.57117E-01 -2.98308E+00 -3.63441E+00 -3.75475E+00 -2.93673E+00 -1.93155E+00 -2.35399E+00 -2.93124E+00
 NY points of the fit to the data follow
   6.45927E+00  6.44389E+00  6.43390E+00  6.42801E+00  6.42754E+00  6.40621E+00  6.30781E+00  6.06158E+00  5.96514E+00  6.45921E+00
   7.31970E+00  7.75490E+00  7.45117E+00  6.91057E+00  6.47341E+00  6.20591E+00  6.16373E+00  6.20410E+00  6.19180E+00  6.16366E+00
   6.18576E+00  6.22696E+00  6.24318E+00  6.23968E+00  6.22591E+00  6.13071E+00  5.92173E+00  5.83452E+00  6.04614E+00  6.39572E+00
   6.58688E+00  6.60000E+00  6.53199E+00  6.35129E+00  6.14654E+00  6.02511E+00  5.97721E+00  5.96376E+00  5.95778E+00  5.95005E+00
   5.94814E+00  5.95939E+00  5.92543E+00  5.81370E+00  5.78919E+00  5.99763E+00  6.29903E+00  6.44462E+00  6.35908E+00  6.14690E+00
   5.92601E+00  5.77290E+00  5.71989E+00  5.74168E+00  5.77868E+00  5.77372E+00  5.74152E+00  5.75012E+00  5.82978E+00  5.92419E+00
   5.96598E+00  5.93161E+00  5.82863E+00  5.71212E+00  5.64308E+00  5.63167E+00  5.66399E+00  5.69414E+00  5.69378E+00  5.68202E+00
   5.68924E+00  5.69733E+00  5.67633E+00  5.68078E+00  5.73019E+00  5.75506E+00  5.72034E+00  5.65526E+00  5.57807E+00  5.51356E+00
   5.49800E+00  5.51108E+00  5.50853E+00  5.53824E+00  5.63839E+00  5.71725E+00  5.66146E+00  5.51146E+00  5.39195E+00  5.34852E+00
   5.37616E+00  5.43579E+00  5.46016E+00  5.44143E+00  5.40980E+00  5.37893E+00  5.35069E+00  5.26961E+00  4.95029E+00  4.42725E+00
   4.60845E+00  5.88273E+00  7.26215E+00  7.50768E+00  6.82052E+00  6.02017E+00  5.31983E+00  4.98162E+00  5.02672E+00  5.15583E+00
   5.20038E+00  5.20353E+00  5.20225E+00  5.20059E+00  5.19727E+00  5.19500E+00  5.19697E+00  5.19054E+00  5.16625E+00  5.13354E+00
   5.09535E+00  5.00677E+00  4.73564E+00  4.22165E+00  4.14749E+00  5.20115E+00  6.77845E+00  7.48149E+00  6.99134E+00  6.13222E+00
   5.35075E+00  4.89567E+00  4.90808E+00  5.07290E+00  5.08734E+00  4.98160E+00  4.86821E+00  4.80608E+00  4.83816E+00  4.93836E+00
   5.03243E+00  5.07870E+00  5.07081E+00  5.04389E+00  5.03135E+00  5.02426E+00  5.01147E+00  4.99649E+00  4.98663E+00  4.98068E+00
   4.98681E+00  4.99490E+00  4.97034E+00  4.91453E+00  4.87295E+00  4.88396E+00  4.95973E+00  5.07318E+00  5.11418E+00  5.00216E+00
   4.81748E+00  4.71174E+00  4.76072E+00  4.91284E+00  5.05527E+00  5.08297E+00  5.02284E+00  4.93758E+00  4.84241E+00  4.79748E+00
   4.84469E+00  4.94749E+00  5.03642E+00  5.02651E+00  4.87449E+00  4.71035E+00  4.71855E+00  4.89459E+00  5.03989E+00  5.03595E+00
   4.90827E+00  4.79514E+00  4.82238E+00  4.95315E+00  5.01832E+00  4.93907E+00  4.83428E+00  4.84064E+00  4.95931E+00  5.12453E+00
   5.28897E+00  5.36239E+00  5.30159E+00  5.19565E+00  5.15706E+00  5.14316E+00  5.08258E+00  5.00813E+00  5.00253E+00  5.05060E+00
   5.09006E+00  5.17432E+00  5.32132E+00  5.46642E+00  5.54688E+00  5.56465E+00  5.53026E+00  5.40367E+00  5.20896E+00  5.06656E+00
   5.03343E+00  5.03550E+00  5.02876E+00  5.15676E+00  5.44214E+00  5.70637E+00  5.81791E+00  5.79182E+00  5.72634E+00  5.62641E+00
   5.46363E+00  5.29769E+00  5.26442E+00  5.40744E+00  5.62607E+00  5.80967E+00  5.93626E+00  6.01306E+00  6.02493E+00  5.96078E+00
   5.85056E+00  5.79108E+00  5.84843E+00  5.96914E+00  6.09179E+00  6.20835E+00  6.32423E+00  6.41543E+00  6.46250E+00  6.49560E+00
   6.48274E+00  6.39472E+00  6.31880E+00  6.37392E+00  6.53087E+00  6.70423E+00  6.86082E+00  6.96449E+00  6.99564E+00  6.98018E+00
   6.94205E+00  6.76189E+00  6.37221E+00  6.44674E+00  7.46190E+00  8.49048E+00  7.85571E+00  6.60442E+00  7.69109E+00  1.09202E+01
   1.32223E+01  1.29249E+01  1.14185E+01  9.80508E+00  8.53104E+00  8.27798E+00  8.71504E+00  9.11276E+00  9.32203E+00  9.50779E+00
   9.71577E+00  9.95315E+00  1.02250E+01  1.05314E+01  1.08463E+01  1.11441E+01  1.14297E+01  1.17296E+01  1.20576E+01  1.24094E+01
   1.27874E+01  1.32008E+01  1.36458E+01  1.41124E+01  1.45987E+01  1.51058E+01  1.56283E+01  1.61630E+01  1.67089E+01  1.72665E+01
   1.78459E+01  1.84520E+01  1.90698E+01  1.96845E+01  2.02955E+01  2.09014E+01  2.14961E+01  2.20764E+01  2.26446E+01  2.32075E+01
   2.37668E+01  2.43206E+01  2.48703E+01  2.54177E+01  2.59662E+01  2.65236E+01  2.70993E+01  2.77021E+01  2.83421E+01  2.90295E+01
   2.97751E+01  3.05891E+01  3.14810E+01  3.24600E+01  3.35340E+01  3.47094E+01  3.59906E+01  3.73794E+01  3.88753E+01  4.04750E+01
   4.21723E+01  4.39583E+01  4.58211E+01  4.77462E+01  4.97171E+01  5.17155E+01  5.37217E+01  5.57155E+01  5.76766E+01  5.95857E+01
   6.14249E+01  6.31786E+01  6.48342E+01  6.63819E+01  6.78158E+01  6.91339E+01  7.03381E+01  7.14339E+01  7.24305E+01  7.33397E+01
   7.41761E+01  7.49564E+01  7.56983E+01  7.64206E+01  7.71416E+01  7.78785E+01  7.86462E+01  7.94564E+01  8.03156E+01  8.12239E+01
   8.21742E+01  8.31520E+01  8.41362E+01  8.51014E+01  8.60198E+01  8.68650E+01  8.76145E+01  8.82517E+01  8.87667E+01  8.91556E+01
   8.94189E+01  8.95595E+01  8.95805E+01  8.94844E+01  8.92728E+01  8.89465E+01  8.85064E+01  8.79549E+01  8.72966E+01  8.65387E+01
   8.56912E+01  8.47661E+01  8.37764E+01  8.27355E+01  8.16560E+01  8.05486E+01  7.94213E+01  7.82793E+01  7.71241E+01  7.59542E+01
   7.47653E+01  7.35509E+01  7.23031E+01  7.10135E+01  6.96739E+01  6.82777E+01  6.68204E+01  6.52999E+01  6.37176E+01  6.20775E+01
   6.03866E+01  5.86548E+01  5.68940E+01  5.51173E+01  5.33385E+01  5.15715E+01  4.98291E+01  4.81230E+01  4.64630E+01  4.48568E+01
   4.33097E+01  4.18246E+01  4.04024E+01  3.90421E+01  3.77410E+01  3.64950E+01  3.52993E+01  3.41482E+01  3.30363E+01  3.19580E+01
   3.09081E+01  2.98820E+01  2.88756E+01  2.78857E+01  2.69099E+01  2.59464E+01  2.49943E+01  2.40531E+01  2.31230E+01  2.22047E+01
   2.12992E+01  2.04078E+01  1.95317E+01  1.86725E+01  1.78315E+01  1.70103E+01  1.62101E+01  1.54321E+01  1.46771E+01  1.39460E+01
   1.32393E+01  1.25574E+01  1.19006E+01  1.12688E+01  1.06618E+01  1.00794E+01  9.52115E+00  8.98653E+00  8.47495E+00  7.98568E+00
   7.51794E+00  7.07094E+00  6.64393E+00  6.23609E+00  5.84657E+00  5.47451E+00  5.11906E+00  4.77944E+00  4.45491E+00  4.14473E+00
   3.84812E+00  3.56435E+00  3.29275E+00  3.03271E+00  2.78365E+00  2.54499E+00  2.31612E+00  2.09651E+00  1.88568E+00  1.68320E+00
   1.48865E+00  1.30160E+00  1.12159E+00  9.48274E-01  7.81324E-01  6.20450E-01  4.65345E-01  3.15670E-01  1.71127E-01  3.14701E-02
  -1.03497E-01 -2.33986E-01 -3.60236E-01 -4.82493E-01 -6.00958E-01 -7.15784E-01 -8.27098E-01 -9.35065E-01 -1.03987E+00 -1.14170E+00
  -1.24068E+00 -1.33689E+00 -1.43043E+00 -1.52143E+00 -1.61005E+00 -1.69641E+00 -1.78058E+00 -1.86261E+00 -1.94258E+00 -2.02060E+00
  -2.09681E+00 -2.17126E+00 -2.24400E+00 -2.31506E+00 -2.38451E+00 -2.45246E+00 -2.51900E+00 -2.58416E+00
 NY background values follow
     1.448E+00    1.433E+00    1.418E+00    1.404E+00    1.389E+00    1.374E+00    1.360E+00    1.345E+00    1.330E+00    1.315E+00
     1.301E+00    1.286E+00    1.271E+00    1.256E+00    1.241E+00    1.227E+00    1.212E+00    1.197E+00    1.182E+00    1.167E+00
     1.152E+00    1.137E+00    1.122E+00    1.107E+00    1.093E+00    1.078E+00    1.063E+00    1.048E+00    1.033E+00    1.018E+00
     1.003E+00    9.875E-01    9.724E-01    9.573E-01    9.422E-01    9.271E-01    9.120E-01    8.969E-01    8.817E-01    8.666E-01
     8.514E-01    8.362E-01    8.210E-01    8.058E-01    7.906E-01    7.754E-01    7.601E-01    7.449E-01    7.296E-01    7.143E-01
     6.990E-01    6.837E-01    6.683E-01    6.530E-01    6.377E-01    6.223E-01    6.069E-01    5.915E-01    5.761E-01    5.607E-01
     5.453E-01    5.299E-01    5.144E-01    4.989E-01    4.835E-01    4.680E-01    4.525E-01    4.370E-01    4.215E-01    4.059E-01
     3.904E-01    3.748E-01    3.592E-01    3.437E-01    3.281E-01    3.125E-01    2.969E-01    2.812E-01    2.656E-01    2.499E-01
     2.343E-01    2.186E-01    2.029E-01    1.872E-01    1.715E-01    1.558E-01    1.401E-01    1.243E-01    1.086E-01    9.282E-02
     7.704E-02    6.126E-02    4.547E-02    2.966E-02    1.384E-02   -1.982E-03   -1.782E-02   -3.367E-02   -4.953E-02   -6.539E-02
    -8.127E-02   -9.716E-02   -1.131E-01   -1.290E-01   -1.449E-01   -1.608E-01   -1.768E-01   -1.927E-01   -2.087E-01   -2.247E-01
    -2.406E-01   -2.566E-01   -2.726E-01   -2.886E-01   -3.047E-01   -3.207E-01   -3.367E-01   -3.528E-01   -3.689E-01   -3.849E-01
    -4.010E-01   -4.171E-01   -4.332E-01   -4.493E-01   -4.654E-01   -4.816E-01   -4.977E-01   -5.139E-01   -5.300E-01   -5.462E-01
    -5.624E-01   -5.786E-01   -5.948E-01   -6.110E-01   -6.272E-01   -6.434E-01   -6.596E-01   -6.759E-01   -6.921E-01   -7.084E-01
    -7.247E-01   -7.409E-01   -7.572E-01   -7.735E-01   -7.898E-01   -8.062E-01   -8.225E-01   -8.388E-01   -8.552E-01   -8.715E-01
    -8.879E-01   -9.042E-01   -9.206E-01   -9.370E-01   -9.534E-01   -9.698E-01   -9.862E-01   -1.003E+00   -1.019E+00   -1.035E+00
    -1.052E+00   -1.068E+00   -1.085E+00   -1.101E+00   -1.118E+00   -1.134E+00   -1.151E+00   -1.167E+00   -1.184E+00   -1.200E+00
    -1.217E+00   -1.233E+00   -1.250E+00   -1.266E+00   -1.283E+00   -1.300E+00   -1.316E+00   -1.333E+00   -1.349E+00   -1.366E+00
    -1.383E+00   -1.399E+00   -1.416E+00   -1.432E+00   -1.449E+00   -1.466E+00   -1.482E+00   -1.499E+00   -1.516E+00   -1.532E+00
    -1.549E+00   -1.566E+00   -1.582E+00   -1.599E+00   -1.616E+00   -1.632E+00   -1.649E+00   -1.666E+00   -1.683E+00   -1.699E+00
    -1.716E+00   -1.733E+00   -1.750E+00   -1.766E+00   -1.783E+00   -1.800E+00   -1.817E+00   -1.833E+00   -1.850E+00   -1.867E+00
    -1.884E+00   -1.901E+00   -1.917E+00   -1.934E+00   -1.951E+00   -1.968E+00   -1.985E+00   -2.002E+00   -2.019E+00   -2.035E+00
    -2.052E+00   -2.069E+00   -2.086E+00   -2.103E+00   -2.120E+00   -2.137E+00   -2.154E+00   -2.170E+00   -2.187E+00   -2.204E+00
    -2.221E+00   -2.238E+00   -2.255E+00   -2.272E+00   -2.289E+00   -2.306E+00   -2.323E+00   -2.340E+00   -2.357E+00   -2.374E+00
    -2.391E+00   -2.408E+00   -2.425E+00   -2.441E+00   -2.458E+00   -2.475E+00   -2.492E+00   -2.509E+00   -2.526E+00   -2.543E+00
    -2.560E+00   -2.577E+00   -2.594E+00   -2.611E+00   -2.629E+00   -2.646E+00   -2.663E+00   -2.680E+00   -2.697E+00   -2.714E+00
    -2.731E+00   -2.748E+00   -2.765E+00   -2.782E+00   -2.799E+00   -2.816E+00   -2.833E+00   -2.850E+00   -2.867E+00   -2.884E+00
    -2.901E+00   -2.918E+00   -2.935E+00   -2.953E+00   -2.970E+00   -2.987E+00   -3.004E+00   -3.021E+00   -3.038E+00   -3.055E+00
    -3.072E+00   -3.089E+00   -3.106E+00   -3.124E+00   -3.141E+00   -3.158E+00   -3.175E+00   -3.192E+00   -3.209E+00   -3.226E+00
    -3.243E+00   -3.261E+00   -3.278E+00   -3.295E+00   -3.312E+00   -3.329E+00   -3.346E+00   -3.363E+00   -3.381E+00   -3.398E+00
    -3.415E+00   -3.432E+00   -3.449E+00   -3.466E+00   -3.483E+00   -3.501E+00   -3.518E+00   -3.535E+00   -3.552E+00   -3.569E+00
    -3.586E+00   -3.604E+00   -3.621E+00   -3.638E+00   -3.655E+00   -3.672E+00   -3.689E+00   -3.707E+00   -3.724E+00   -3.741E+00
    -3.758E+00   -3.775E+00   -3.792E+00   -3.810E+00   -3.827E+00   -3.844E+00   -3.861E+00   -3.878E+00   -3.896E+00   -3.913E+00
    -3.930E+00   -3.947E+00   -3.964E+00   -3.981E+00   -3.999E+00   -4.016E+00   -4.033E+00   -4.050E+00   -4.067E+00   -4.084E+00
    -4.102E+00   -4.119E+00   -4.136E+00   -4.153E+00   -4.170E+00   -4.188E+00   -4.205E+00   -4.222E+00   -4.239E+00   -4.256E+00
    -4.273E+00   -4.291E+00   -4.308E+00   -4.325E+00   -4.342E+00   -4.359E+00   -4.376E+00   -4.394E+00   -4.411E+00   -4.428E+00
    -4.445E+00   -4.462E+00   -4.479E+00   -4.497E+00   -4.514E+00   -4.531E+00   -4.548E+00   -4.565E+00   -4.582E+00   -4.600E+00
    -4.617E+00   -4.634E+00   -4.651E+00   -4.668E+00   -4.685E+00   -4.702E+00   -4.720E+00   -4.737E+00   -4.754E+00   -4.771E+00
    -4.788E+00   -4.805E+00   -4.822E+00   -4.840E+00   -4.857E+00   -4.874E+00   -4.891E+00   -4.908E+00   -4.925E+00   -4.942E+00
    -4.959E+00   -4.977E+00   -4.994E+00   -5.011E+00   -5.028E+00   -5.045E+00   -5.062E+00   -5.079E+00   -5.096E+00   -5.113E+00
    -5.130E+00   -5.147E+00   -5.165E+00   -5.182E+00   -5.199E+00   -5.216E+00   -5.233E+00   -5.250E+00   -5.267E+00   -5.284E+00
    -5.301E+00   -5.318E+00   -5.335E+00   -5.352E+00   -5.369E+00   -5.386E+00   -5.403E+00   -5.420E+00   -5.437E+00   -5.454E+00
    -5.471E+00   -5.488E+00   -5.505E+00   -5.522E+00   -5.539E+00   -5.556E+00   -5.573E+00   -5.590E+00   -5.607E+00   -5.624E+00
    -5.641E+00   -5.658E+00   -5.675E+00   -5.692E+00   -5.709E+00   -5.726E+00   -5.743E+00   -5.760E+00   -5.777E+00   -5.794E+00
    -5.811E+00   -5.828E+00   -5.845E+00   -5.861E+00   -5.878E+00   -5.895E+00   -5.912E+00   -5.929E+00   -5.946E+00   -5.963E+00
    -5.980E+00   -5.997E+00   -6.013E+00   -6.030E+00   -6.047E+00   -6.064E+00   -6.081E+00   -6.098E+00   -6.114E+00   -6.131E+00
    -6.148E+00   -6.165E+00   -6.182E+00   -6.199E+00   -6.215E+00   -6.232E+00   -6.249E+00   -6.266E+00   -6.282E+00   -6.299E+00
    -6.316E+00   -6.333E+00   -6.349E+00   -6.366E+00   -6.383E+00   -6.400E+00   -6.416E+00   -6.433E+00   -6.450E+00   -6.466E+00
    -6.483E+00   -6.500E+00   -6.517E+00   -6.533E+00   -6.550E+00   -6.567E+00   -6.583E+00   -6.600E+00   -6.616E+00   -6.633E+00
    -6.650E+00   -6.666E+00   -6.683E+00   -6.699E+00   -6.716E+00   -6.733E+00   -6.749E+00   -6.766E+00
 Asp      Conc. = 3.68E+00
