 LCModel (Version 6.3-1L) Copyright: S.W. Provencher.          Ref.: Magn. Reson. Med. 30:672-679 (1993).                
 Slice#2 Row#9 Col#1  K_02_press_1_raw_act
 36 lines in following concentration table = NCONC+1
    Conc.  %SD /Cr+PCr  Metabolite                                         
    0.000 999%   0.000 Ala                                                 
   12.790 115%   0.146 Asp                                                 
   27.848 112%   0.317 Cr                                                  
   59.928  57%   0.683 PCr                                                 
    7.500 117% 8.5E-02 GABA                                                
    8.488 104% 9.7E-02 Glc                                                 
   44.544 112%   0.507 Gln                                                 
  101.032  55%   1.151 Glu                                                 
   35.930  18%   0.409 GPC                                                 
    0.000 999%   0.000 PCh                                                 
    0.000 999%   0.000 GSH                                                 
   35.684 187%   0.407 Ins                                                 
    0.000 999%   0.000 Lac                                                 
  103.164  19%   1.175 NAA                                                 
    3.714 514% 4.2E-02 NAAG                                                
    4.252  67% 4.8E-02 Scyllo                                              
   11.617 125%   0.132 Tau                                                 
    0.533 999% 6.1E-03 -CrCH2                                              
   35.930  18%   0.409 GPC+PCh                                             
  106.878  22%   1.218 NAA+NAAG                                            
   87.777  20%   1.000 Cr+PCr                                              
  145.576  48%   1.658 Glu+Gln                                             
  375.632  75%   4.279 Lip13a                                              
    1.775 999% 2.0E-02 Lip13b                                              
   99.799  69%   1.137 Lip09                                               
    8.153 392% 9.3E-02 MM09                                                
   66.712  66%   0.760 Lip20                                               
    0.000 999%   0.000 MM20                                                
    3.659 481% 4.2E-02 MM12                                                
    0.000 999%   0.000 MM14                                                
   27.223 156%   0.310 MM17                                                
  377.407  56%   4.300 Lip13a+Lip13b                                       
  381.066  55%   4.341 MM14+Lip13a+Lip13b+MM12                             
  107.952  67%   1.230 MM09+Lip09                                          
   66.712  66%   0.760 MM20+Lip20                                          
   6 lines in following misc. output table
  FWHM = 0.031 ppm    S/N =   2                                            
  Data shift = 0.015 ppm                                                   
  Ph:  92 deg       3.2 deg/ppm                                            
  alphaB,S = 5.6E-01,   1.9E+01                                            
   14 spline knots.   Ns = 5(1)                                            
   2 inflections.     1 extrema                                            
  498 points on ppm-axis = NY
      4.000000     3.992357     3.984714     3.977070     3.969427     3.961784     3.954141     3.946497     3.938854     3.931211
      3.923568     3.915925     3.908281     3.900638     3.892995     3.885352     3.877708     3.870065     3.862422     3.854779
      3.847136     3.839492     3.831849     3.824206     3.816563     3.808919     3.801276     3.793633     3.785990     3.778347
      3.770703     3.763060     3.755417     3.747774     3.740130     3.732487     3.724844     3.717201     3.709558     3.701914
      3.694271     3.686628     3.678985     3.671341     3.663698     3.656055     3.648412     3.640769     3.633125     3.625482
      3.617839     3.610196     3.602552     3.594909     3.587266     3.579623     3.571980     3.564336     3.556693     3.549050
      3.541407     3.533763     3.526120     3.518477     3.510834     3.503191     3.495547     3.487904     3.480261     3.472618
      3.464974     3.457331     3.449688     3.442045     3.434402     3.426758     3.419115     3.411472     3.403829     3.396185
      3.388542     3.380899     3.373256     3.365613     3.357969     3.350326     3.342683     3.335040     3.327396     3.319753
      3.312110     3.304467     3.296824     3.289180     3.281537     3.273894     3.266251     3.258607     3.250964     3.243321
      3.235678     3.228034     3.220391     3.212748     3.205105     3.197462     3.189818     3.182175     3.174532     3.166889
      3.159245     3.151602     3.143959     3.136316     3.128673     3.121029     3.113386     3.105743     3.098100     3.090456
      3.082813     3.075170     3.067527     3.059884     3.052240     3.044597     3.036954     3.029311     3.021667     3.014024
      3.006381     2.998738     2.991095     2.983451     2.975808     2.968165     2.960522     2.952878     2.945235     2.937592
      2.929949     2.922306     2.914662     2.907019     2.899376     2.891733     2.884089     2.876446     2.868803     2.861160
      2.853517     2.845873     2.838230     2.830587     2.822944     2.815300     2.807657     2.800014     2.792371     2.784728
      2.777084     2.769441     2.761798     2.754155     2.746511     2.738868     2.731225     2.723582     2.715939     2.708295
      2.700652     2.693009     2.685366     2.677722     2.670079     2.662436     2.654793     2.647150     2.639506     2.631863
      2.624220     2.616577     2.608933     2.601290     2.593647     2.586004     2.578361     2.570717     2.563074     2.555431
      2.547788     2.540144     2.532501     2.524858     2.517215     2.509572     2.501928     2.494285     2.486642     2.478999
      2.471355     2.463712     2.456069     2.448426     2.440783     2.433139     2.425496     2.417853     2.410210     2.402566
      2.394923     2.387280     2.379637     2.371994     2.364350     2.356707     2.349064     2.341421     2.333777     2.326134
      2.318491     2.310848     2.303205     2.295561     2.287918     2.280275     2.272632     2.264988     2.257345     2.249702
      2.242059     2.234416     2.226772     2.219129     2.211486     2.203843     2.196199     2.188556     2.180913     2.173270
      2.165627     2.157983     2.150340     2.142697     2.135054     2.127410     2.119767     2.112124     2.104481     2.096838
      2.089194     2.081551     2.073908     2.066265     2.058621     2.050978     2.043335     2.035692     2.028049     2.020405
      2.012762     2.005119     1.997476     1.989833     1.982190     1.974546     1.966903     1.959260     1.951617     1.943974
      1.936331     1.928688     1.921045     1.913402     1.905759     1.898115     1.890472     1.882829     1.875186     1.867543
      1.859900     1.852257     1.844614     1.836971     1.829327     1.821684     1.814041     1.806398     1.798755     1.791112
      1.783469     1.775826     1.768183     1.760540     1.752896     1.745253     1.737610     1.729967     1.722324     1.714681
      1.707038     1.699395     1.691752     1.684108     1.676465     1.668822     1.661179     1.653536     1.645893     1.638250
      1.630607     1.622964     1.615321     1.607677     1.600034     1.592391     1.584748     1.577105     1.569462     1.561819
      1.554176     1.546533     1.538890     1.531246     1.523603     1.515960     1.508317     1.500674     1.493031     1.485388
      1.477745     1.470102     1.462458     1.454815     1.447172     1.439529     1.431886     1.424243     1.416600     1.408957
      1.401314     1.393671     1.386027     1.378384     1.370741     1.363098     1.355455     1.347812     1.340169     1.332526
      1.324883     1.317240     1.309596     1.301953     1.294310     1.286667     1.279024     1.271381     1.263738     1.256095
      1.248452     1.240808     1.233165     1.225522     1.217879     1.210236     1.202593     1.194950     1.187307     1.179664
      1.172021     1.164377     1.156734     1.149091     1.141448     1.133805     1.126162     1.118519     1.110876     1.103233
      1.095590     1.087946     1.080303     1.072660     1.065017     1.057374     1.049731     1.042088     1.034445     1.026802
      1.019158     1.011515     1.003872     0.996229     0.988586     0.980943     0.973300     0.965657     0.958014     0.950371
      0.942727     0.935084     0.927441     0.919798     0.912155     0.904512     0.896869     0.889226     0.881583     0.873940
      0.866296     0.858653     0.851010     0.843367     0.835724     0.828081     0.820438     0.812795     0.805152     0.797508
      0.789865     0.782222     0.774579     0.766936     0.759293     0.751650     0.744007     0.736364     0.728721     0.721077
      0.713434     0.705791     0.698148     0.690505     0.682862     0.675219     0.667576     0.659933     0.652290     0.644646
      0.637003     0.629360     0.621717     0.614074     0.606431     0.598788     0.591145     0.583502     0.575858     0.568215
      0.560572     0.552929     0.545286     0.537643     0.530000     0.522357     0.514714     0.507071     0.499427     0.491784
      0.484141     0.476498     0.468855     0.461212     0.453569     0.445925     0.438282     0.430639     0.422996     0.415353
      0.407710     0.400067     0.392424     0.384780     0.377137     0.369494     0.361851     0.354208     0.346565     0.338922
      0.331278     0.323635     0.315992     0.308349     0.300706     0.293063     0.285420     0.277777     0.270133     0.262490
      0.254847     0.247204     0.239561     0.231918     0.224275     0.216631     0.208988     0.201345
 NY phased data points follow
   1.51971E+02  1.54009E+02  1.49785E+02  1.47079E+02  1.46478E+02  1.45405E+02  1.42575E+02  1.42710E+02  1.41436E+02  1.39743E+02
   1.39404E+02  1.37970E+02  1.37166E+02  1.34761E+02  1.33389E+02  1.31186E+02  1.31241E+02  1.26928E+02  1.27006E+02  1.25396E+02
   1.26112E+02  1.23706E+02  1.22245E+02  1.21960E+02  1.19276E+02  1.20984E+02  1.19488E+02  1.19614E+02  1.17847E+02  1.17028E+02
   1.14431E+02  1.14762E+02  1.14996E+02  1.17152E+02  1.13611E+02  1.12099E+02  1.12270E+02  1.10021E+02  1.09506E+02  1.10805E+02
   1.09863E+02  1.06339E+02  1.06919E+02  1.05886E+02  1.04387E+02  1.04523E+02  1.04702E+02  1.04989E+02  1.03426E+02  1.00354E+02
   1.01412E+02  1.01583E+02  9.84176E+01  9.81525E+01  9.67082E+01  9.60048E+01  9.78413E+01  9.68102E+01  9.59432E+01  9.32366E+01
   9.31533E+01  9.22204E+01  9.05114E+01  8.97735E+01  8.86844E+01  8.78780E+01  8.79072E+01  8.87829E+01  8.63849E+01  8.52585E+01
   8.62023E+01  8.56533E+01  8.54460E+01  8.55061E+01  8.30482E+01  8.30271E+01  8.53294E+01  8.53341E+01  8.20873E+01  8.12095E+01
   8.17801E+01  8.06267E+01  8.07978E+01  8.21900E+01  7.99344E+01  7.96342E+01  8.03047E+01  7.81059E+01  7.90942E+01  7.95199E+01
   7.69426E+01  7.74564E+01  7.66615E+01  7.59008E+01  7.33179E+01  7.50975E+01  7.51492E+01  7.29841E+01  7.45446E+01  7.32574E+01
   7.37904E+01  7.39455E+01  8.00575E+01  7.75120E+01  7.57074E+01  7.29289E+01  7.14322E+01  7.09598E+01  7.01130E+01  6.84884E+01
   6.98734E+01  6.98684E+01  7.08013E+01  6.74757E+01  6.66556E+01  6.70637E+01  6.64734E+01  6.75248E+01  6.55444E+01  6.81206E+01
   6.73514E+01  6.61647E+01  6.72808E+01  6.69299E+01  6.77604E+01  6.60302E+01  6.83325E+01  7.05850E+01  6.72190E+01  6.59129E+01
   6.35072E+01  6.36910E+01  6.50411E+01  6.10908E+01  6.32821E+01  5.87802E+01  6.43519E+01  6.05989E+01  6.16675E+01  5.98559E+01
   6.17401E+01  5.96156E+01  5.89978E+01  5.72334E+01  6.06861E+01  6.07505E+01  5.90549E+01  5.90505E+01  5.73457E+01  5.75437E+01
   5.84185E+01  5.77102E+01  5.80505E+01  5.91387E+01  6.03209E+01  6.06480E+01  5.70792E+01  5.71604E+01  5.98496E+01  6.09834E+01
   5.81264E+01  5.72143E+01  5.80432E+01  5.93635E+01  5.73080E+01  5.63082E+01  5.57792E+01  5.77594E+01  5.75631E+01  5.80545E+01
   5.59789E+01  5.31107E+01  5.75598E+01  5.72568E+01  5.36470E+01  5.47936E+01  5.26082E+01  5.42943E+01  5.35748E+01  5.02569E+01
   5.09485E+01  5.21666E+01  5.03460E+01  5.01616E+01  5.03925E+01  5.08911E+01  5.05331E+01  4.85803E+01  5.20459E+01  5.26569E+01
   5.25236E+01  5.24229E+01  4.99834E+01  4.96313E+01  4.99331E+01  5.03033E+01  4.88381E+01  5.00401E+01  4.63368E+01  4.76770E+01
   4.98178E+01  4.96228E+01  5.00588E+01  4.99864E+01  4.60619E+01  4.87463E+01  5.01793E+01  4.89159E+01  4.83452E+01  4.73353E+01
   4.67343E+01  4.68144E+01  4.72481E+01  4.84064E+01  4.77054E+01  4.79259E+01  4.91937E+01  4.89869E+01  4.74134E+01  4.78491E+01
   4.42922E+01  4.50453E+01  4.65370E+01  4.44240E+01  4.63184E+01  4.61607E+01  4.74302E+01  4.51443E+01  4.60296E+01  4.73585E+01
   4.66283E+01  4.54970E+01  4.40271E+01  4.52929E+01  4.51964E+01  4.37394E+01  4.37617E+01  4.32664E+01  4.27122E+01  4.50983E+01
   4.20402E+01  4.36247E+01  4.03820E+01  4.12990E+01  4.41797E+01  4.02336E+01  4.17174E+01  4.10159E+01  4.15212E+01  4.34888E+01
   4.05947E+01  3.99523E+01  4.22753E+01  4.02891E+01  4.19990E+01  4.14941E+01  4.33404E+01  4.11045E+01  4.24234E+01  4.60405E+01
   4.69444E+01  4.39294E+01  4.11921E+01  4.21793E+01  3.69696E+01  3.90585E+01  3.58579E+01  3.76659E+01  4.00920E+01  3.80947E+01
   3.95037E+01  3.62608E+01  3.76128E+01  3.71912E+01  3.83465E+01  3.66585E+01  3.86175E+01  3.78371E+01  3.98885E+01  3.90000E+01
   3.69675E+01  3.71354E+01  3.55185E+01  3.54265E+01  3.74042E+01  3.39119E+01  3.32967E+01  3.58224E+01  3.74104E+01  3.54290E+01
   3.49484E+01  3.71917E+01  3.59693E+01  3.52607E+01  3.36165E+01  3.41053E+01  3.31418E+01  3.35620E+01  3.56889E+01  3.19368E+01
   3.23954E+01  3.54438E+01  3.69049E+01  3.36551E+01  3.37791E+01  3.37104E+01  3.28814E+01  3.35518E+01  3.29105E+01  3.44219E+01
   3.18948E+01  3.33157E+01  3.42100E+01  3.39787E+01  3.46635E+01  3.04766E+01  3.15123E+01  3.23463E+01  3.46306E+01  3.11474E+01
   3.09010E+01  2.93626E+01  3.23408E+01  3.35438E+01  3.00956E+01  3.10352E+01  2.92285E+01  2.99637E+01  3.11905E+01  2.97217E+01
   3.05820E+01  2.92733E+01  3.05847E+01  3.17266E+01  2.93914E+01  3.06923E+01  2.96384E+01  2.92914E+01  2.85899E+01  2.98318E+01
   2.86154E+01  2.94421E+01  2.72209E+01  2.95732E+01  2.78365E+01  2.96679E+01  2.82988E+01  3.02575E+01  2.79197E+01  3.18627E+01
   3.00147E+01  3.07841E+01  2.94017E+01  2.86617E+01  3.18344E+01  3.00308E+01  2.98951E+01  2.82319E+01  2.81879E+01  2.97123E+01
   2.83796E+01  2.99862E+01  2.79837E+01  2.91309E+01  2.91192E+01  2.88437E+01  2.88524E+01  2.90594E+01  3.04983E+01  3.02587E+01
   2.95761E+01  2.71555E+01  2.85016E+01  2.64417E+01  2.96901E+01  2.63450E+01  2.80969E+01  2.64082E+01  2.75613E+01  2.49200E+01
   2.68148E+01  2.60679E+01  2.63153E+01  2.66880E+01  2.59632E+01  2.79542E+01  2.76730E+01  2.72015E+01  2.61171E+01  2.63542E+01
   2.58821E+01  2.67467E+01  2.62971E+01  2.58924E+01  2.58864E+01  2.75241E+01  2.50667E+01  2.59641E+01  2.84763E+01  2.51298E+01
   2.43529E+01  2.50735E+01  2.66471E+01  2.52580E+01  2.71982E+01  2.62570E+01  2.43491E+01  2.57291E+01  2.60862E+01  2.40681E+01
   2.36998E+01  2.37176E+01  2.52983E+01  2.53301E+01  2.51841E+01  2.51239E+01  2.71568E+01  2.35426E+01  2.43871E+01  2.43413E+01
   2.31508E+01  2.26313E+01  2.45728E+01  2.40515E+01  2.57849E+01  2.40200E+01  2.09420E+01  2.11265E+01  2.24181E+01  2.34685E+01
   2.18825E+01  2.13726E+01  2.43724E+01  2.19999E+01  2.44068E+01  2.35179E+01  2.31616E+01  2.40598E+01  2.39978E+01  2.21080E+01
   2.20723E+01  2.12314E+01  2.24248E+01  2.18837E+01  2.19012E+01  1.99039E+01  2.01843E+01  2.01786E+01  2.15734E+01  2.16441E+01
   2.22658E+01  2.36126E+01  2.22692E+01  2.16446E+01  2.00915E+01  1.99559E+01  2.01472E+01  2.18203E+01  1.83020E+01  2.08842E+01
   2.11678E+01  2.04735E+01  1.84194E+01  1.94811E+01  1.87494E+01  1.94781E+01  2.30718E+01  1.93320E+01  2.06752E+01  1.84276E+01
   1.94549E+01  2.13624E+01  1.85096E+01  1.93679E+01  1.81133E+01  1.89124E+01  1.82797E+01  1.95345E+01  1.67404E+01  1.77964E+01
   1.80285E+01  1.62947E+01  1.85533E+01  1.77877E+01  1.79085E+01  1.98672E+01  1.44735E+01  1.71920E+01  1.59870E+01  1.68359E+01
   1.65926E+01  1.72490E+01  1.51002E+01  1.67783E+01  1.47938E+01  1.80243E+01  1.68762E+01  1.58941E+01
 NY points of the fit to the data follow
   1.47526E+02  1.46485E+02  1.45481E+02  1.44537E+02  1.43728E+02  1.43016E+02  1.42446E+02  1.42053E+02  1.41591E+02  1.40759E+02
   1.39492E+02  1.37914E+02  1.36203E+02  1.34563E+02  1.33160E+02  1.32007E+02  1.30945E+02  1.29919E+02  1.28902E+02  1.27871E+02
   1.26870E+02  1.25909E+02  1.24967E+02  1.24006E+02  1.23007E+02  1.21954E+02  1.20844E+02  1.19736E+02  1.18728E+02  1.17880E+02
   1.17201E+02  1.16610E+02  1.15957E+02  1.15106E+02  1.14032E+02  1.12841E+02  1.11665E+02  1.10621E+02  1.09774E+02  1.09059E+02
   1.08365E+02  1.07649E+02  1.06896E+02  1.06099E+02  1.05292E+02  1.04536E+02  1.03816E+02  1.03053E+02  1.02224E+02  1.01353E+02
   1.00471E+02  9.96110E+01  9.88038E+01  9.80470E+01  9.73250E+01  9.66237E+01  9.59357E+01  9.52605E+01  9.46027E+01  9.39542E+01
   9.32943E+01  9.26106E+01  9.19089E+01  9.12090E+01  9.05385E+01  8.99096E+01  8.93129E+01  8.87342E+01  8.81585E+01  8.75793E+01
   8.70098E+01  8.64574E+01  8.59122E+01  8.53714E+01  8.48352E+01  8.42916E+01  8.37243E+01  8.31428E+01  8.25700E+01  8.20220E+01
   8.15148E+01  8.10631E+01  8.06438E+01  8.02319E+01  7.98369E+01  7.94334E+01  7.89568E+01  7.83906E+01  7.77943E+01  7.72394E+01
   7.67571E+01  7.63368E+01  7.59445E+01  7.55430E+01  7.51349E+01  7.47439E+01  7.43900E+01  7.41451E+01  7.42264E+01  7.45638E+01
   7.51972E+01  7.62860E+01  7.73065E+01  7.72604E+01  7.58265E+01  7.36737E+01  7.16681E+01  7.03048E+01  6.96520E+01  6.94804E+01
   6.93031E+01  6.89953E+01  6.86697E+01  6.83468E+01  6.80299E+01  6.77164E+01  6.74077E+01  6.71045E+01  6.68062E+01  6.65189E+01
   6.62598E+01  6.61047E+01  6.62204E+01  6.65601E+01  6.71743E+01  6.81309E+01  6.89533E+01  6.88702E+01  6.76942E+01  6.59816E+01
   6.44094E+01  6.33521E+01  6.28523E+01  6.27124E+01  6.25665E+01  6.23383E+01  6.21008E+01  6.18663E+01  6.16348E+01  6.14040E+01
   6.11695E+01  6.09334E+01  6.07035E+01  6.04841E+01  6.02750E+01  6.00677E+01  5.98508E+01  5.96226E+01  5.93909E+01  5.91654E+01
   5.89494E+01  5.87408E+01  5.85358E+01  5.83307E+01  5.81256E+01  5.79190E+01  5.77036E+01  5.74799E+01  5.72424E+01  5.69897E+01
   5.67482E+01  5.65465E+01  5.63974E+01  5.62781E+01  5.61399E+01  5.59472E+01  5.57070E+01  5.54535E+01  5.52180E+01  5.50061E+01
   5.48088E+01  5.46099E+01  5.43986E+01  5.41846E+01  5.39672E+01  5.37614E+01  5.35907E+01  5.34564E+01  5.33188E+01  5.31400E+01
   5.29295E+01  5.27244E+01  5.25464E+01  5.23994E+01  5.22565E+01  5.20872E+01  5.19143E+01  5.17750E+01  5.16704E+01  5.15610E+01
   5.14157E+01  5.12302E+01  5.10194E+01  5.08070E+01  5.06196E+01  5.04522E+01  5.02841E+01  5.01102E+01  4.99474E+01  4.98234E+01
   4.97526E+01  4.97240E+01  4.96891E+01  4.95926E+01  4.94007E+01  4.90825E+01  4.86653E+01  4.82104E+01  4.77527E+01  4.73748E+01
   4.71875E+01  4.72374E+01  4.74490E+01  4.77122E+01  4.79614E+01  4.80766E+01  4.79014E+01  4.74210E+01  4.67664E+01  4.61029E+01
   4.55478E+01  4.51505E+01  4.49957E+01  4.51085E+01  4.53770E+01  4.56313E+01  4.57338E+01  4.56502E+01  4.54209E+01  4.51257E+01
   4.48414E+01  4.45931E+01  4.43821E+01  4.42044E+01  4.40318E+01  4.38606E+01  4.37230E+01  4.36342E+01  4.35458E+01  4.34254E+01
   4.32450E+01  4.29838E+01  4.26743E+01  4.24122E+01  4.22375E+01  4.21089E+01  4.19873E+01  4.18553E+01  4.17010E+01  4.15171E+01
   4.13510E+01  4.12400E+01  4.11795E+01  4.11433E+01  4.11427E+01  4.13483E+01  4.17703E+01  4.23865E+01  4.34759E+01  4.48078E+01
   4.54277E+01  4.46952E+01  4.30029E+01  4.11778E+01  3.98034E+01  3.90821E+01  3.89163E+01  3.88823E+01  3.87124E+01  3.85158E+01
   3.83306E+01  3.81633E+01  3.80188E+01  3.78989E+01  3.77819E+01  3.76485E+01  3.74914E+01  3.73159E+01  3.71310E+01  3.69468E+01
   3.67707E+01  3.66060E+01  3.64528E+01  3.63083E+01  3.61693E+01  3.60327E+01  3.58951E+01  3.57548E+01  3.56140E+01  3.54740E+01
   3.53354E+01  3.51987E+01  3.50640E+01  3.49305E+01  3.47980E+01  3.46671E+01  3.45379E+01  3.44099E+01  3.42829E+01  3.41570E+01
   3.40317E+01  3.39070E+01  3.37826E+01  3.36582E+01  3.35333E+01  3.34078E+01  3.32818E+01  3.31554E+01  3.30287E+01  3.29020E+01
   3.27753E+01  3.26488E+01  3.25226E+01  3.23969E+01  3.22719E+01  3.21479E+01  3.20251E+01  3.19038E+01  3.17840E+01  3.16659E+01
   3.15497E+01  3.14357E+01  3.13239E+01  3.12145E+01  3.11075E+01  3.10032E+01  3.09017E+01  3.08032E+01  3.07079E+01  3.06160E+01
   3.05276E+01  3.04432E+01  3.03630E+01  3.02873E+01  3.02163E+01  3.01505E+01  3.00901E+01  3.00355E+01  2.99869E+01  2.99444E+01
   2.99080E+01  2.98779E+01  2.98537E+01  2.98353E+01  2.98221E+01  2.98134E+01  2.98084E+01  2.98060E+01  2.98049E+01  2.98039E+01
   2.98013E+01  2.97954E+01  2.97845E+01  2.97670E+01  2.97412E+01  2.97059E+01  2.96598E+01  2.96022E+01  2.95328E+01  2.94517E+01
   2.93591E+01  2.92560E+01  2.91433E+01  2.90222E+01  2.88941E+01  2.87605E+01  2.86228E+01  2.84824E+01  2.83407E+01  2.81990E+01
   2.80585E+01  2.79203E+01  2.77851E+01  2.76537E+01  2.75267E+01  2.74045E+01  2.72874E+01  2.71756E+01  2.70691E+01  2.69680E+01
   2.68721E+01  2.67814E+01  2.66958E+01  2.66151E+01  2.65392E+01  2.64679E+01  2.64010E+01  2.63385E+01  2.62802E+01  2.62259E+01
   2.61754E+01  2.61284E+01  2.60847E+01  2.60439E+01  2.60056E+01  2.59693E+01  2.59344E+01  2.59002E+01  2.58660E+01  2.58312E+01
   2.57949E+01  2.57562E+01  2.57145E+01  2.56690E+01  2.56191E+01  2.55643E+01  2.55041E+01  2.54384E+01  2.53669E+01  2.52898E+01
   2.52073E+01  2.51198E+01  2.50276E+01  2.49313E+01  2.48316E+01  2.47290E+01  2.46242E+01  2.45179E+01  2.44104E+01  2.43025E+01
   2.41945E+01  2.40869E+01  2.39799E+01  2.38737E+01  2.37685E+01  2.36644E+01  2.35614E+01  2.34595E+01  2.33587E+01  2.32589E+01
   2.31600E+01  2.30619E+01  2.29644E+01  2.28676E+01  2.27712E+01  2.26751E+01  2.25793E+01  2.24836E+01  2.23881E+01  2.22925E+01
   2.21968E+01  2.21010E+01  2.20050E+01  2.19088E+01  2.18123E+01  2.17154E+01  2.16182E+01  2.15205E+01  2.14225E+01  2.13240E+01
   2.12250E+01  2.11255E+01  2.10256E+01  2.09250E+01  2.08240E+01  2.07225E+01  2.06204E+01  2.05178E+01  2.04147E+01  2.03110E+01
   2.02069E+01  2.01023E+01  1.99972E+01  1.98916E+01  1.97855E+01  1.96790E+01  1.95720E+01  1.94646E+01  1.93567E+01  1.92484E+01
   1.91397E+01  1.90306E+01  1.89211E+01  1.88113E+01  1.87010E+01  1.85904E+01  1.84794E+01  1.83681E+01  1.82565E+01  1.81445E+01
   1.80322E+01  1.79197E+01  1.78069E+01  1.76938E+01  1.75804E+01  1.74668E+01  1.73530E+01  1.72389E+01  1.71247E+01  1.70102E+01
   1.68956E+01  1.67807E+01  1.66657E+01  1.65506E+01  1.64354E+01  1.63200E+01  1.62045E+01  1.60888E+01
 NY background values follow
     1.474E+02    1.463E+02    1.452E+02    1.442E+02    1.431E+02    1.421E+02    1.410E+02    1.399E+02    1.389E+02    1.378E+02
     1.368E+02    1.358E+02    1.347E+02    1.337E+02    1.327E+02    1.317E+02    1.306E+02    1.296E+02    1.286E+02    1.276E+02
     1.266E+02    1.256E+02    1.246E+02    1.237E+02    1.227E+02    1.217E+02    1.208E+02    1.198E+02    1.189E+02    1.179E+02
     1.170E+02    1.161E+02    1.152E+02    1.142E+02    1.133E+02    1.124E+02    1.116E+02    1.107E+02    1.098E+02    1.090E+02
     1.081E+02    1.073E+02    1.064E+02    1.056E+02    1.048E+02    1.040E+02    1.032E+02    1.024E+02    1.016E+02    1.009E+02
     1.001E+02    9.935E+01    9.861E+01    9.788E+01    9.716E+01    9.645E+01    9.575E+01    9.506E+01    9.437E+01    9.370E+01
     9.303E+01    9.238E+01    9.173E+01    9.109E+01    9.046E+01    8.983E+01    8.922E+01    8.861E+01    8.801E+01    8.742E+01
     8.684E+01    8.627E+01    8.570E+01    8.514E+01    8.459E+01    8.405E+01    8.351E+01    8.298E+01    8.246E+01    8.195E+01
     8.144E+01    8.094E+01    8.045E+01    7.996E+01    7.949E+01    7.902E+01    7.855E+01    7.809E+01    7.764E+01    7.720E+01
     7.676E+01    7.633E+01    7.590E+01    7.548E+01    7.507E+01    7.466E+01    7.426E+01    7.387E+01    7.348E+01    7.310E+01
     7.272E+01    7.234E+01    7.198E+01    7.162E+01    7.126E+01    7.091E+01    7.056E+01    7.022E+01    6.988E+01    6.955E+01
     6.922E+01    6.890E+01    6.858E+01    6.827E+01    6.796E+01    6.765E+01    6.735E+01    6.705E+01    6.676E+01    6.647E+01
     6.618E+01    6.590E+01    6.562E+01    6.534E+01    6.507E+01    6.480E+01    6.453E+01    6.427E+01    6.401E+01    6.375E+01
     6.349E+01    6.324E+01    6.299E+01    6.274E+01    6.250E+01    6.226E+01    6.202E+01    6.178E+01    6.154E+01    6.131E+01
     6.107E+01    6.084E+01    6.061E+01    6.039E+01    6.016E+01    5.994E+01    5.972E+01    5.950E+01    5.928E+01    5.907E+01
     5.885E+01    5.864E+01    5.843E+01    5.822E+01    5.801E+01    5.780E+01    5.760E+01    5.740E+01    5.719E+01    5.699E+01
     5.679E+01    5.660E+01    5.640E+01    5.620E+01    5.601E+01    5.582E+01    5.563E+01    5.543E+01    5.525E+01    5.506E+01
     5.487E+01    5.468E+01    5.450E+01    5.431E+01    5.413E+01    5.395E+01    5.376E+01    5.358E+01    5.340E+01    5.322E+01
     5.304E+01    5.286E+01    5.269E+01    5.251E+01    5.233E+01    5.216E+01    5.198E+01    5.181E+01    5.163E+01    5.146E+01
     5.128E+01    5.111E+01    5.094E+01    5.077E+01    5.060E+01    5.043E+01    5.025E+01    5.008E+01    4.991E+01    4.975E+01
     4.958E+01    4.941E+01    4.924E+01    4.907E+01    4.890E+01    4.874E+01    4.857E+01    4.840E+01    4.823E+01    4.807E+01
     4.790E+01    4.773E+01    4.757E+01    4.740E+01    4.724E+01    4.707E+01    4.690E+01    4.674E+01    4.657E+01    4.641E+01
     4.624E+01    4.608E+01    4.591E+01    4.574E+01    4.558E+01    4.541E+01    4.525E+01    4.508E+01    4.491E+01    4.475E+01
     4.458E+01    4.442E+01    4.425E+01    4.408E+01    4.392E+01    4.375E+01    4.359E+01    4.342E+01    4.325E+01    4.309E+01
     4.292E+01    4.276E+01    4.259E+01    4.243E+01    4.226E+01    4.210E+01    4.193E+01    4.177E+01    4.160E+01    4.144E+01
     4.128E+01    4.111E+01    4.095E+01    4.079E+01    4.062E+01    4.046E+01    4.030E+01    4.014E+01    3.998E+01    3.982E+01
     3.966E+01    3.950E+01    3.934E+01    3.918E+01    3.903E+01    3.887E+01    3.871E+01    3.856E+01    3.840E+01    3.825E+01
     3.809E+01    3.794E+01    3.779E+01    3.763E+01    3.748E+01    3.733E+01    3.718E+01    3.703E+01    3.688E+01    3.674E+01
     3.659E+01    3.644E+01    3.630E+01    3.615E+01    3.601E+01    3.586E+01    3.572E+01    3.558E+01    3.544E+01    3.530E+01
     3.516E+01    3.502E+01    3.488E+01    3.474E+01    3.461E+01    3.447E+01    3.433E+01    3.420E+01    3.407E+01    3.393E+01
     3.380E+01    3.367E+01    3.354E+01    3.341E+01    3.328E+01    3.316E+01    3.303E+01    3.290E+01    3.278E+01    3.265E+01
     3.253E+01    3.241E+01    3.229E+01    3.217E+01    3.205E+01    3.193E+01    3.181E+01    3.169E+01    3.158E+01    3.146E+01
     3.135E+01    3.124E+01    3.112E+01    3.101E+01    3.090E+01    3.079E+01    3.068E+01    3.058E+01    3.047E+01    3.036E+01
     3.026E+01    3.015E+01    3.005E+01    2.995E+01    2.985E+01    2.975E+01    2.965E+01    2.955E+01    2.945E+01    2.936E+01
     2.926E+01    2.917E+01    2.908E+01    2.898E+01    2.889E+01    2.880E+01    2.871E+01    2.862E+01    2.853E+01    2.845E+01
     2.836E+01    2.828E+01    2.819E+01    2.811E+01    2.803E+01    2.795E+01    2.787E+01    2.779E+01    2.771E+01    2.763E+01
     2.756E+01    2.748E+01    2.741E+01    2.734E+01    2.726E+01    2.719E+01    2.712E+01    2.705E+01    2.698E+01    2.692E+01
     2.685E+01    2.678E+01    2.672E+01    2.665E+01    2.658E+01    2.652E+01    2.646E+01    2.639E+01    2.633E+01    2.627E+01
     2.620E+01    2.614E+01    2.608E+01    2.602E+01    2.596E+01    2.590E+01    2.584E+01    2.578E+01    2.571E+01    2.565E+01
     2.559E+01    2.553E+01    2.547E+01    2.541E+01    2.535E+01    2.529E+01    2.523E+01    2.516E+01    2.510E+01    2.504E+01
     2.498E+01    2.491E+01    2.485E+01    2.479E+01    2.472E+01    2.466E+01    2.459E+01    2.452E+01    2.446E+01    2.439E+01
     2.432E+01    2.425E+01    2.418E+01    2.411E+01    2.404E+01    2.397E+01    2.390E+01    2.383E+01    2.375E+01    2.368E+01
     2.360E+01    2.353E+01    2.345E+01    2.338E+01    2.330E+01    2.322E+01    2.314E+01    2.306E+01    2.298E+01    2.290E+01
     2.282E+01    2.274E+01    2.266E+01    2.257E+01    2.249E+01    2.240E+01    2.232E+01    2.223E+01    2.215E+01    2.206E+01
     2.197E+01    2.188E+01    2.179E+01    2.170E+01    2.161E+01    2.152E+01    2.143E+01    2.133E+01    2.124E+01    2.115E+01
     2.105E+01    2.096E+01    2.086E+01    2.076E+01    2.066E+01    2.057E+01    2.047E+01    2.037E+01    2.027E+01    2.016E+01
     2.006E+01    1.996E+01    1.986E+01    1.975E+01    1.965E+01    1.955E+01    1.944E+01    1.934E+01    1.923E+01    1.912E+01
     1.902E+01    1.891E+01    1.880E+01    1.869E+01    1.858E+01    1.847E+01    1.837E+01    1.826E+01    1.814E+01    1.803E+01
     1.792E+01    1.781E+01    1.770E+01    1.759E+01    1.748E+01    1.736E+01    1.725E+01    1.714E+01    1.703E+01    1.691E+01
     1.680E+01    1.668E+01    1.657E+01    1.646E+01    1.634E+01    1.623E+01    1.611E+01    1.600E+01
 Asp      Conc. = 1.28E+01
