 LCModel (Version 6.3-1L) Copyright: S.W. Provencher.          Ref.: Magn. Reson. Med. 30:672-679 (1993).                
 Slice#1 Row#14 Col#12  K_02_press_1_raw_act
 36 lines in following concentration table = NCONC+1
    Conc.  %SD /Cr+PCr  Metabolite                                         
  379.426  45%   8.072 Ala                                                 
    3.787 122% 8.1E-02 Asp                                                 
    0.000 999%   0.000 Cr                                                  
   47.004  48%   1.000 PCr                                                 
    2.232 124% 4.7E-02 GABA                                                
    2.223 125% 4.7E-02 Glc                                                 
  606.722  41%  12.908 Gln                                                 
  178.529 162%   3.798 Glu                                                 
    9.524  94%   0.203 GPC                                                 
    0.000 999%   0.000 PCh                                                 
   24.711 195%   0.526 GSH                                                 
  140.953  71%   2.999 Ins                                                 
  471.753  37%  10.036 Lac                                                 
    0.000 999%   0.000 NAA                                                 
    0.000 999%   0.000 NAAG                                                
    0.714 129% 1.5E-02 Scyllo                                              
    3.572 128% 7.6E-02 Tau                                                 
    1.945 553% 4.1E-02 -CrCH2                                              
    9.524  94%   0.203 GPC+PCh                                             
    0.000 999%   0.000 NAA+NAAG                                            
   47.004  48%   1.000 Cr+PCr                                              
  785.252  57%  16.706 Glu+Gln                                             
    0.000 999%   0.000 Lip13a                                              
    0.000 999%   0.000 Lip13b                                              
    0.000 999%   0.000 Lip09                                               
  252.453  15%   5.371 MM09                                                
    0.000 999%   0.000 Lip20                                               
  205.513  30%   4.372 MM20                                                
   76.943  33%   1.637 MM12                                                
  440.670  17%   9.375 MM14                                                
  242.666  17%   5.163 MM17                                                
    0.000 999%   0.000 Lip13a+Lip13b                                       
  517.612  16%  11.012 MM14+Lip13a+Lip13b+MM12                             
  252.453  15%   5.371 MM09+Lip09                                          
  205.513  30%   4.372 MM20+Lip20                                          
   6 lines in following misc. output table
  FWHM = 0.168 ppm    S/N =   2                                            
  Data shift = 0.115 ppm                                                   
  Ph: -83 deg      27.6 deg/ppm                                            
  alphaB,S = 8.5E+01,   2.0E+02                                            
   13 spline knots.   Ns = 9(2)                                            
   2 inflections.     1 extrema                                            
  498 points on ppm-axis = NY
      4.000000     3.992357     3.984714     3.977070     3.969427     3.961784     3.954141     3.946497     3.938854     3.931211
      3.923568     3.915925     3.908281     3.900638     3.892995     3.885352     3.877708     3.870065     3.862422     3.854779
      3.847136     3.839492     3.831849     3.824206     3.816563     3.808919     3.801276     3.793633     3.785990     3.778347
      3.770703     3.763060     3.755417     3.747774     3.740130     3.732487     3.724844     3.717201     3.709558     3.701914
      3.694271     3.686628     3.678985     3.671341     3.663698     3.656055     3.648412     3.640769     3.633125     3.625482
      3.617839     3.610196     3.602552     3.594909     3.587266     3.579623     3.571980     3.564336     3.556693     3.549050
      3.541407     3.533763     3.526120     3.518477     3.510834     3.503191     3.495547     3.487904     3.480261     3.472618
      3.464974     3.457331     3.449688     3.442045     3.434402     3.426758     3.419115     3.411472     3.403829     3.396185
      3.388542     3.380899     3.373256     3.365613     3.357969     3.350326     3.342683     3.335040     3.327396     3.319753
      3.312110     3.304467     3.296824     3.289180     3.281537     3.273894     3.266251     3.258607     3.250964     3.243321
      3.235678     3.228034     3.220391     3.212748     3.205105     3.197462     3.189818     3.182175     3.174532     3.166889
      3.159245     3.151602     3.143959     3.136316     3.128673     3.121029     3.113386     3.105743     3.098100     3.090456
      3.082813     3.075170     3.067527     3.059884     3.052240     3.044597     3.036954     3.029311     3.021667     3.014024
      3.006381     2.998738     2.991095     2.983451     2.975808     2.968165     2.960522     2.952878     2.945235     2.937592
      2.929949     2.922306     2.914662     2.907019     2.899376     2.891733     2.884089     2.876446     2.868803     2.861160
      2.853517     2.845873     2.838230     2.830587     2.822944     2.815300     2.807657     2.800014     2.792371     2.784728
      2.777084     2.769441     2.761798     2.754155     2.746511     2.738868     2.731225     2.723582     2.715939     2.708295
      2.700652     2.693009     2.685366     2.677722     2.670079     2.662436     2.654793     2.647150     2.639506     2.631863
      2.624220     2.616577     2.608933     2.601290     2.593647     2.586004     2.578361     2.570717     2.563074     2.555431
      2.547788     2.540144     2.532501     2.524858     2.517215     2.509572     2.501928     2.494285     2.486642     2.478999
      2.471355     2.463712     2.456069     2.448426     2.440783     2.433139     2.425496     2.417853     2.410210     2.402566
      2.394923     2.387280     2.379637     2.371994     2.364350     2.356707     2.349064     2.341421     2.333777     2.326134
      2.318491     2.310848     2.303205     2.295561     2.287918     2.280275     2.272632     2.264988     2.257345     2.249702
      2.242059     2.234416     2.226772     2.219129     2.211486     2.203843     2.196199     2.188556     2.180913     2.173270
      2.165627     2.157983     2.150340     2.142697     2.135054     2.127410     2.119767     2.112124     2.104481     2.096838
      2.089194     2.081551     2.073908     2.066265     2.058621     2.050978     2.043335     2.035692     2.028049     2.020405
      2.012762     2.005119     1.997476     1.989833     1.982190     1.974546     1.966903     1.959260     1.951617     1.943974
      1.936331     1.928688     1.921045     1.913402     1.905759     1.898115     1.890472     1.882829     1.875186     1.867543
      1.859900     1.852257     1.844614     1.836971     1.829327     1.821684     1.814041     1.806398     1.798755     1.791112
      1.783469     1.775826     1.768183     1.760540     1.752896     1.745253     1.737610     1.729967     1.722324     1.714681
      1.707038     1.699395     1.691752     1.684108     1.676465     1.668822     1.661179     1.653536     1.645893     1.638250
      1.630607     1.622964     1.615321     1.607677     1.600034     1.592391     1.584748     1.577105     1.569462     1.561819
      1.554176     1.546533     1.538890     1.531246     1.523603     1.515960     1.508317     1.500674     1.493031     1.485388
      1.477745     1.470102     1.462458     1.454815     1.447172     1.439529     1.431886     1.424243     1.416600     1.408957
      1.401314     1.393671     1.386027     1.378384     1.370741     1.363098     1.355455     1.347812     1.340169     1.332526
      1.324883     1.317240     1.309596     1.301953     1.294310     1.286667     1.279024     1.271381     1.263738     1.256095
      1.248452     1.240808     1.233165     1.225522     1.217879     1.210236     1.202593     1.194950     1.187307     1.179664
      1.172021     1.164377     1.156734     1.149091     1.141448     1.133805     1.126162     1.118519     1.110876     1.103233
      1.095590     1.087946     1.080303     1.072660     1.065017     1.057374     1.049731     1.042088     1.034445     1.026802
      1.019158     1.011515     1.003872     0.996229     0.988586     0.980943     0.973300     0.965657     0.958014     0.950371
      0.942727     0.935084     0.927441     0.919798     0.912155     0.904512     0.896869     0.889226     0.881583     0.873940
      0.866296     0.858653     0.851010     0.843367     0.835724     0.828081     0.820438     0.812795     0.805152     0.797508
      0.789865     0.782222     0.774579     0.766936     0.759293     0.751650     0.744007     0.736364     0.728721     0.721077
      0.713434     0.705791     0.698148     0.690505     0.682862     0.675219     0.667576     0.659933     0.652290     0.644646
      0.637003     0.629360     0.621717     0.614074     0.606431     0.598788     0.591145     0.583502     0.575858     0.568215
      0.560572     0.552929     0.545286     0.537643     0.530000     0.522357     0.514714     0.507071     0.499427     0.491784
      0.484141     0.476498     0.468855     0.461212     0.453569     0.445925     0.438282     0.430639     0.422996     0.415353
      0.407710     0.400067     0.392424     0.384780     0.377137     0.369494     0.361851     0.354208     0.346565     0.338922
      0.331278     0.323635     0.315992     0.308349     0.300706     0.293063     0.285420     0.277777     0.270133     0.262490
      0.254847     0.247204     0.239561     0.231918     0.224275     0.216631     0.208988     0.201345
 NY phased data points follow
  -9.07090E-01  1.02640E+00  8.67689E-01  9.03624E-01  8.04908E-01  1.58182E+00  2.01408E+00  2.07665E-01  1.43018E+00  1.01774E+00
   1.61240E+00  1.24468E+00  1.72982E-01  3.18285E-02  1.10007E+00  1.07602E+00  8.76684E-01 -3.54348E-01  7.68716E-01 -4.26486E-01
   2.54688E+00 -5.72880E-01  8.62504E-01  3.26263E-01  6.88983E-01  2.43468E+00  3.13603E-01 -7.06383E-02 -5.53087E-01  5.98653E-01
  -1.05101E+00  2.00418E+00  2.03052E+00  1.34077E+00  6.91936E-01  9.04643E-01  8.25659E-01  1.79717E+00  2.78568E-01  6.97934E-02
   9.00195E-01  8.68169E-01  8.79495E-01  1.25959E+00  2.46213E-01  1.47570E+00  1.06524E+00  1.23383E+00  2.10505E+00 -2.00616E-01
   9.39448E-01  5.42836E-01  1.80502E+00  4.96282E-01  2.54796E-01 -1.32945E+00 -9.74699E-01  9.53743E-01  1.19748E-01  4.77244E-01
  -8.88461E-01 -1.32607E+00  1.03348E+00  3.60061E-01 -6.75099E-01 -3.74707E-01  6.72597E-01  6.03634E-01  7.65017E-01  1.10147E+00
   7.73617E-01 -6.90338E-01 -8.09569E-01 -7.87011E-01  7.49502E-01  1.10644E+00 -6.82689E-02  7.04786E-01  1.35010E+00 -6.48441E-01
  -1.40359E+00  9.47660E-01  6.77364E-01 -5.85438E-01 -7.61513E-01 -2.17042E-01  5.59558E-02 -1.07033E+00 -4.06947E-01  5.65474E-01
   8.45147E-02 -7.73674E-01  1.99339E-01 -8.85131E-01  5.39093E-01  5.64016E-01 -9.13655E-01 -6.92574E-01  2.68424E-01  5.13938E-01
   3.20126E-01  9.45145E-01  7.02186E-01  1.29691E+00  6.93742E-01  7.47626E-02 -4.88591E-01  8.42712E-01  8.98201E-01 -1.99912E-01
   6.45466E-01 -1.61323E+00 -3.05445E-01 -1.88476E+00  6.73173E-02  6.38660E-03  7.85721E-01  8.36761E-01  1.12129E+00  7.56628E-01
   1.07468E+00  1.69231E+00  1.46951E+00 -5.10360E-01  1.30447E-02  4.58211E-01  4.94927E-01  1.72631E+00 -4.06641E-01 -1.82772E-01
  -1.22601E-01 -1.53454E-01  1.29286E+00  4.19241E-01  1.05733E-01  5.21318E-01 -6.00714E-01  1.57356E+00 -2.08207E-01 -3.48711E-01
  -3.46463E-01 -8.72080E-01  6.75257E-01  8.47999E-01 -4.10166E-02 -1.75148E-01  1.75390E+00 -9.26691E-01  8.61745E-01 -6.30829E-02
  -5.33439E-01  7.14662E-01 -1.71405E+00 -9.94003E-01  1.23587E+00  1.82249E+00  4.98897E-01 -9.34925E-01 -2.35053E-01 -7.14118E-01
   7.16150E-01 -2.19870E+00 -7.68206E-01  7.01188E-01  2.32655E-01 -1.32730E-01 -8.95348E-01  6.43966E-01 -3.10406E-01 -8.24491E-01
   1.26038E-01  6.23513E-01  7.80814E-01 -8.84871E-01 -3.74047E-01 -5.96804E-01 -1.40796E-01  5.09862E-01  7.30160E-01  6.21995E-01
   3.19242E-01  3.77312E-01 -6.84003E-02  2.99164E-01 -2.50843E-01 -7.65179E-01  6.06811E-01 -1.90450E+00 -1.05392E+00 -4.83767E-01
  -1.73535E+00  3.33529E-02  3.99525E-01  8.93774E-01  6.37741E-01  4.65568E-01  2.67954E-02 -1.31864E+00  1.02243E-01 -5.25223E-03
  -3.27432E-01 -2.50290E-01 -5.64561E-01  8.94816E-03  2.33891E-01  9.34962E-01 -1.61584E-01  5.53632E-01  5.41966E-01 -1.13835E+00
  -8.05497E-01 -7.72508E-01 -4.55035E-01  6.55217E-01  9.01738E-01 -1.14657E-01 -1.25342E-01  1.38522E-01 -9.67261E-01  3.62615E-01
   1.47563E+00 -1.48156E+00  4.50680E-01  1.92685E+00  7.57994E-01  2.49708E+00 -8.86983E-01  1.83734E-01  9.63859E-01  1.93774E+00
  -2.80378E-01  1.12486E+00 -1.72119E-01  1.87981E+00 -8.32254E-02  1.11295E-01  1.80676E+00  3.69457E-01  2.67741E-01 -5.48662E-01
   3.77895E-01  8.95642E-01  7.44783E-01  5.65581E-01 -1.46301E+00 -1.89740E+00 -6.71605E-01 -1.92332E-01 -1.96454E-01  1.41388E+00
   7.95984E-01  1.92555E+00 -7.55348E-01 -3.92197E-01 -2.88187E-02  1.31036E+00  1.10912E+00  1.30165E+00  1.76476E+00  1.22934E+00
   1.14614E+00  8.39610E-01  4.82481E-01  4.48257E-01  1.01778E-01  4.06873E-01 -7.37175E-01  1.36932E+00  2.40877E-01  2.42749E-01
   7.05959E-01  9.96084E-01  9.91104E-01  5.00812E-01 -2.79827E-01  4.68750E-01 -1.59315E+00  7.98891E-01 -2.17943E-01  7.56979E-01
  -1.31266E+00 -1.33153E+00 -4.84712E-03  3.78731E-01 -9.43290E-01  5.25217E-01 -1.31548E+00 -3.46813E-01  2.65487E+00  2.31461E-01
   5.79255E-01  3.00963E+00  1.03418E+00  1.89656E+00  1.12335E+00  1.21401E+00  1.85705E+00  2.14319E+00  3.74673E+00  1.72435E+00
   3.90167E+00  2.90138E+00  2.30268E+00  4.15334E+00  4.03180E+00  3.76953E+00  2.58976E+00  1.61791E+00  4.32620E+00  2.13924E+00
   2.09184E+00  2.65637E-01  4.12267E+00  2.66336E+00  3.25810E+00  2.94601E+00  4.10049E+00  4.31318E+00  2.91583E+00  4.96019E+00
   4.95775E+00  4.58692E+00  3.78232E+00  2.62152E+00  4.15310E+00  4.64943E+00  4.55066E+00  2.81519E+00  4.90844E+00  2.72391E+00
   3.99322E+00  3.31590E+00  5.24833E+00  4.99718E+00  5.24237E+00  4.29438E+00  4.58275E+00  3.40489E+00  3.51794E+00  3.11754E+00
   2.59297E+00  1.69013E+00  1.94629E+00  1.47641E+00  2.58988E+00  2.86332E+00  1.97021E+00  8.69295E-01  1.79340E+00  1.98723E+00
   2.47046E+00  7.91339E-01 -6.95697E-02  2.92988E+00  1.62519E+00  4.64073E-01 -3.87281E-01  1.84318E+00 -3.14781E-01  5.81548E-02
   8.88696E-01  2.02458E+00  6.50347E-01  4.81145E-01  2.11987E+00  2.95721E+00  1.80060E+00  2.12101E+00  1.21022E+00  1.63838E+00
   2.65222E+00  1.23809E+00  6.55355E-01  8.22862E-01  1.66568E+00  1.36700E+00  2.45666E+00  9.98039E-01  1.58223E+00  5.98324E-01
  -4.27811E-01 -8.66254E-01  2.85966E+00  1.84790E+00  3.91029E-01  2.44967E+00  1.79114E+00  3.28737E+00  1.57184E+00  2.21745E+00
   1.53379E+00  1.85404E+00  2.79508E+00  2.17057E+00  1.32630E+00  5.45280E-01  2.65599E+00  1.93195E+00  2.31170E+00  6.53957E-01
   1.11923E+00  7.05201E-01  1.27880E+00  1.38371E+00  5.88618E-01  9.93859E-01  3.28766E-01  1.36898E+00  1.45073E+00 -7.93294E-01
   1.71978E+00  2.29930E+00  1.21525E+00 -9.74400E-01  1.66992E+00  1.31516E+00  8.42074E-01 -5.41555E-01  2.18451E+00  5.48792E-01
   3.96032E-01  1.26608E+00 -1.59723E-01 -6.06956E-01  1.26870E-02 -2.54118E-01 -3.02933E-02 -5.28270E-01  8.40635E-01 -1.45867E+00
  -3.40198E-01  2.67293E-01  8.81031E-02  2.31664E-01 -7.29304E-01  1.40321E-01  5.68823E-01  3.81372E-01  5.45377E-01  3.81151E-01
  -5.06714E-01  1.10408E-01  1.90056E+00  8.45639E-01  1.37769E+00 -7.06317E-01  8.29600E-01 -2.66126E-01  1.08587E+00  1.15496E+00
  -1.87375E-01 -1.70319E-01  1.31271E+00 -1.55912E+00  2.15830E+00 -2.80740E-01  1.53975E+00  4.38875E-01  1.50806E+00 -7.72596E-01
  -9.77513E-01 -6.53130E-01 -6.32170E-01  3.68564E-01  5.55825E-01  8.26307E-02 -1.01149E+00 -6.65967E-01 -4.38686E-01 -2.04482E+00
   7.60073E-01  1.11017E+00  9.63368E-01 -1.40033E-01  1.50793E+00 -4.43243E-01 -1.98585E+00  2.55121E-01 -1.09781E-01  9.96772E-02
   1.34868E-01 -2.22322E+00 -3.01617E-01 -9.11003E-01  4.43254E-01  7.80653E-01  2.23610E-01 -3.90136E-01 -1.69902E+00  1.47670E-01
  -1.83717E+00 -9.96980E-01  8.91972E-01 -1.60130E+00 -4.88718E-01 -5.07673E-01 -1.69831E-01 -1.16391E+00
 NY points of the fit to the data follow
   4.99136E-01  6.85242E-01  5.64732E-01  7.02647E-01  5.88677E-01  6.88504E-01  5.85977E-01  6.64174E-01  5.90240E-01  6.61561E-01
   6.15203E-01  6.72825E-01  6.41771E-01  6.77257E-01  6.59911E-01  6.57032E-01  6.67988E-01  6.25629E-01  6.91771E-01  6.08795E-01
   7.31037E-01  6.10229E-01  7.75168E-01  6.16199E-01  8.01527E-01  6.07463E-01  8.09578E-01  6.03362E-01  8.22648E-01  6.18981E-01
   8.48690E-01  6.55743E-01  8.70010E-01  6.73965E-01  8.63162E-01  6.75075E-01  8.47519E-01  6.87229E-01  8.50420E-01  7.22300E-01
   8.56919E-01  7.52793E-01  8.39412E-01  7.52492E-01  7.86157E-01  7.17445E-01  7.18549E-01  6.68698E-01  6.50789E-01  6.02138E-01
   5.84573E-01  5.43752E-01  5.35233E-01  5.03681E-01  5.07406E-01  4.78098E-01  4.78942E-01  4.42569E-01  4.34799E-01  3.90221E-01
   3.79740E-01  3.39879E-01  3.36646E-01  3.00572E-01  3.06389E-01  2.78238E-01  2.91773E-01  2.67916E-01  2.84945E-01  2.62207E-01
   2.78441E-01  2.48784E-01  2.56536E-01  2.19410E-01  2.20740E-01  1.79178E-01  1.77671E-01  1.34626E-01  1.34548E-01  9.13002E-02
   9.35602E-02  5.12646E-02  5.57863E-02  1.41848E-02  2.00709E-02 -1.67189E-02 -8.75840E-03 -3.13173E-02 -2.03680E-02 -2.10324E-02
  -9.72203E-03  1.13345E-02  1.75006E-02  5.39759E-02  5.16975E-02  9.78813E-02  8.54572E-02  1.38518E-01  1.17725E-01  1.75944E-01
   1.47837E-01  2.07569E-01  1.70719E-01  2.24207E-01  1.79822E-01  2.24618E-01  1.76162E-01  2.13837E-01  1.68840E-01  2.08127E-01
   1.71367E-01  2.21501E-01  1.94534E-01  2.62384E-01  2.40722E-01  3.27419E-01  3.04220E-01  4.06335E-01  3.75757E-01  4.87968E-01
   4.45524E-01  5.62441E-01  5.06165E-01  6.22594E-01  5.53803E-01  6.67422E-01  5.83171E-01  6.78686E-01  5.85662E-01  6.60994E-01
   5.66598E-01  6.22403E-01  5.31557E-01  5.69305E-01  4.80780E-01  4.95018E-01  4.09729E-01  3.97097E-01  3.20443E-01  2.84718E-01
   2.23557E-01  1.74981E-01  1.31883E-01  8.12534E-02  5.56819E-02  1.18193E-02 -2.23016E-04 -3.45072E-02 -3.56323E-02 -5.62366E-02
  -5.65728E-02 -7.36301E-02 -7.59832E-02 -9.01743E-02 -9.48674E-02 -1.05805E-01 -1.12052E-01 -1.20598E-01 -1.27826E-01 -1.33843E-01
  -1.40764E-01 -1.44378E-01 -1.49988E-01 -1.51855E-01 -1.56121E-01 -1.57253E-01 -1.60663E-01 -1.61563E-01 -1.64132E-01 -1.65111E-01
  -1.66738E-01 -1.67810E-01 -1.68186E-01 -1.69138E-01 -1.67568E-01 -1.68474E-01 -1.66725E-01 -1.68800E-01 -1.74318E-01 -1.80725E-01
  -2.03980E-01 -2.17729E-01 -2.63785E-01 -2.79839E-01 -3.38493E-01 -3.42146E-01 -3.93748E-01 -3.65230E-01 -3.95826E-01 -3.25179E-01
  -3.40209E-01 -2.41870E-01 -2.76456E-01 -1.74848E-01 -2.63115E-01 -1.71386E-01 -3.21304E-01 -2.26081E-01 -4.11620E-01 -2.91979E-01
  -4.74926E-01 -3.26018E-01 -4.84345E-01 -3.16241E-01 -4.39359E-01 -2.70930E-01 -3.60367E-01 -1.99367E-01 -2.57079E-01 -1.03384E-01
  -1.26416E-01  8.48958E-03  1.50139E-03  1.06278E-01  1.03413E-01  1.76659E-01  1.75678E-01  2.38359E-01  2.59291E-01  3.26157E-01
   3.73172E-01  4.49189E-01  5.03429E-01  5.90955E-01  6.22164E-01  7.13280E-01  7.00613E-01  7.85172E-01  7.28595E-01  7.85919E-01
   7.05881E-01  7.20164E-01  6.30102E-01  6.15799E-01  5.60864E-01  5.23581E-01  5.15395E-01  4.59651E-01  4.97867E-01  4.21415E-01
   4.91379E-01  3.90984E-01  4.87052E-01  3.77936E-01  5.02653E-01  3.93692E-01  5.53589E-01  4.42863E-01  6.20337E-01  4.91489E-01
   6.65423E-01  5.18781E-01  6.75330E-01  5.30630E-01  6.65228E-01  5.49303E-01  6.66782E-01  5.87184E-01  6.80045E-01  6.37091E-01
   7.11446E-01  6.82456E-01  7.32060E-01  7.02092E-01  7.22240E-01  6.74422E-01  6.78209E-01  6.28229E-01  6.23495E-01  5.83850E-01
   5.77954E-01  5.51734E-01  5.44386E-01  5.32208E-01  5.23002E-01  5.18247E-01  5.07480E-01  5.06353E-01  4.96885E-01  4.99111E-01
   4.96814E-01  5.05320E-01  5.17151E-01  5.38643E-01  5.68216E-01  6.07320E-01  6.58796E-01  7.20320E-01  7.97185E-01  8.85982E-01
   9.90887E-01  1.10815E+00  1.24000E+00  1.38213E+00  1.53431E+00  1.69208E+00  1.85272E+00  2.01127E+00  2.16384E+00  2.30589E+00
   2.43354E+00  2.54369E+00  2.63385E+00  2.70333E+00  2.75240E+00  2.78327E+00  2.79966E+00  2.80741E+00  2.81534E+00  2.83664E+00
   2.86630E+00  2.92361E+00  2.99605E+00  3.07144E+00  3.18979E+00  3.22523E+00  3.37556E+00  3.31762E+00  3.50961E+00  3.34256E+00
   3.61773E+00  3.34721E+00  3.75583E+00  3.38530E+00  3.94507E+00  3.46218E+00  4.14290E+00  3.53296E+00  4.30532E+00  3.62339E+00
   4.44489E+00  3.74179E+00  4.54726E+00  3.83915E+00  4.54132E+00  3.77565E+00  4.27817E+00  3.47410E+00  3.76722E+00  3.03944E+00
   3.16881E+00  2.65737E+00  2.68385E+00  2.44433E+00  2.36255E+00  2.35518E+00  2.11902E+00  2.25663E+00  1.87705E+00  2.13540E+00
   1.64789E+00  1.97205E+00  1.43420E+00  1.82680E+00  1.27636E+00  1.65266E+00  1.12231E+00  1.46164E+00  1.03555E+00  1.34375E+00
   1.03337E+00  1.34697E+00  1.14624E+00  1.43751E+00  1.30848E+00  1.52239E+00  1.41833E+00  1.51620E+00  1.42297E+00  1.43185E+00
   1.31917E+00  1.24536E+00  1.14541E+00  1.05636E+00  9.84589E-01  9.08169E-01  8.71729E-01  8.57669E-01  8.58132E-01  8.70249E-01
   8.92463E-01  9.23975E-01  9.64025E-01  1.01207E+00  1.06733E+00  1.12902E+00  1.19604E+00  1.26722E+00  1.34099E+00  1.41578E+00
   1.48964E+00  1.56069E+00  1.62678E+00  1.68596E+00  1.73618E+00  1.77577E+00  1.80312E+00  1.81714E+00  1.81694E+00  1.80228E+00
   1.77317E+00  1.73026E+00  1.67442E+00  1.60710E+00  1.52982E+00  1.44455E+00  1.35315E+00  1.25773E+00  1.16017E+00  1.06237E+00
   9.65915E-01  8.72312E-01  7.82645E-01  6.97912E-01  6.18673E-01  5.45419E-01  4.78251E-01  4.17256E-01  3.62197E-01  3.12893E-01
   2.68905E-01  2.29912E-01  1.95394E-01  1.64993E-01  1.38192E-01  1.14662E-01  9.39342E-02  7.57394E-02  5.96778E-02  4.55525E-02
   3.30323E-02  2.19847E-02  1.21378E-02  3.41422E-03 -4.40958E-03 -1.13672E-02 -1.76469E-02 -2.32504E-02 -2.83408E-02 -3.28944E-02
  -3.70559E-02 -4.07833E-02 -4.42092E-02 -4.72792E-02 -5.01170E-02 -5.26578E-02 -5.50181E-02 -5.71265E-02 -5.90953E-02 -6.08484E-02
  -6.24936E-02 -6.39511E-02 -6.53248E-02 -6.65334E-02 -6.76781E-02 -6.86768E-02 -6.96272E-02 -7.04463E-02 -7.12292E-02 -7.18933E-02
  -7.25318E-02 -7.30622E-02 -7.35749E-02 -7.39873E-02 -7.43886E-02 -7.46969E-02 -7.50004E-02 -7.52164E-02 -7.54319E-02 -7.55641E-02
  -7.56994E-02 -7.57557E-02 -7.58186E-02 -7.58050E-02 -7.58001E-02 -7.57203E-02 -7.56515E-02 -7.55096E-02 -7.53801E-02 -7.51776E-02
  -7.49878E-02 -7.47247E-02 -7.44746E-02 -7.41505E-02 -7.38382E-02 -7.34498E-02 -7.30705E-02 -7.26124E-02 -7.21601E-02 -7.16245E-02
  -7.10890E-02 -7.04630E-02 -6.98285E-02 -6.90933E-02 -6.83373E-02 -6.74643E-02 -6.65496E-02 -6.54913E-02
 NY background values follow
    -1.292E-01   -1.290E-01   -1.288E-01   -1.286E-01   -1.284E-01   -1.282E-01   -1.280E-01   -1.278E-01   -1.276E-01   -1.274E-01
    -1.272E-01   -1.270E-01   -1.268E-01   -1.266E-01   -1.264E-01   -1.262E-01   -1.260E-01   -1.258E-01   -1.256E-01   -1.254E-01
    -1.252E-01   -1.250E-01   -1.248E-01   -1.246E-01   -1.244E-01   -1.242E-01   -1.240E-01   -1.238E-01   -1.236E-01   -1.234E-01
    -1.232E-01   -1.230E-01   -1.228E-01   -1.226E-01   -1.223E-01   -1.221E-01   -1.219E-01   -1.217E-01   -1.215E-01   -1.213E-01
    -1.211E-01   -1.209E-01   -1.207E-01   -1.205E-01   -1.203E-01   -1.201E-01   -1.199E-01   -1.197E-01   -1.195E-01   -1.193E-01
    -1.191E-01   -1.189E-01   -1.187E-01   -1.185E-01   -1.183E-01   -1.181E-01   -1.179E-01   -1.177E-01   -1.175E-01   -1.173E-01
    -1.171E-01   -1.169E-01   -1.167E-01   -1.165E-01   -1.163E-01   -1.161E-01   -1.159E-01   -1.157E-01   -1.155E-01   -1.153E-01
    -1.151E-01   -1.149E-01   -1.146E-01   -1.144E-01   -1.142E-01   -1.140E-01   -1.138E-01   -1.136E-01   -1.134E-01   -1.132E-01
    -1.130E-01   -1.128E-01   -1.126E-01   -1.124E-01   -1.122E-01   -1.120E-01   -1.118E-01   -1.116E-01   -1.114E-01   -1.112E-01
    -1.110E-01   -1.108E-01   -1.106E-01   -1.104E-01   -1.102E-01   -1.100E-01   -1.098E-01   -1.096E-01   -1.094E-01   -1.092E-01
    -1.090E-01   -1.088E-01   -1.086E-01   -1.084E-01   -1.082E-01   -1.079E-01   -1.077E-01   -1.075E-01   -1.073E-01   -1.071E-01
    -1.069E-01   -1.067E-01   -1.065E-01   -1.063E-01   -1.061E-01   -1.059E-01   -1.057E-01   -1.055E-01   -1.053E-01   -1.051E-01
    -1.049E-01   -1.047E-01   -1.045E-01   -1.043E-01   -1.041E-01   -1.039E-01   -1.037E-01   -1.035E-01   -1.033E-01   -1.031E-01
    -1.029E-01   -1.027E-01   -1.025E-01   -1.023E-01   -1.021E-01   -1.018E-01   -1.016E-01   -1.014E-01   -1.012E-01   -1.010E-01
    -1.008E-01   -1.006E-01   -1.004E-01   -1.002E-01   -1.000E-01   -9.981E-02   -9.961E-02   -9.941E-02   -9.920E-02   -9.900E-02
    -9.879E-02   -9.859E-02   -9.839E-02   -9.818E-02   -9.798E-02   -9.778E-02   -9.757E-02   -9.737E-02   -9.717E-02   -9.696E-02
    -9.676E-02   -9.655E-02   -9.635E-02   -9.615E-02   -9.594E-02   -9.574E-02   -9.554E-02   -9.533E-02   -9.513E-02   -9.492E-02
    -9.472E-02   -9.452E-02   -9.431E-02   -9.411E-02   -9.391E-02   -9.370E-02   -9.350E-02   -9.329E-02   -9.309E-02   -9.289E-02
    -9.268E-02   -9.248E-02   -9.227E-02   -9.207E-02   -9.187E-02   -9.166E-02   -9.146E-02   -9.126E-02   -9.105E-02   -9.085E-02
    -9.064E-02   -9.044E-02   -9.024E-02   -9.003E-02   -8.983E-02   -8.962E-02   -8.942E-02   -8.922E-02   -8.901E-02   -8.881E-02
    -8.860E-02   -8.840E-02   -8.820E-02   -8.799E-02   -8.779E-02   -8.758E-02   -8.738E-02   -8.718E-02   -8.697E-02   -8.677E-02
    -8.657E-02   -8.636E-02   -8.616E-02   -8.595E-02   -8.575E-02   -8.555E-02   -8.534E-02   -8.514E-02   -8.493E-02   -8.473E-02
    -8.453E-02   -8.432E-02   -8.412E-02   -8.391E-02   -8.371E-02   -8.351E-02   -8.330E-02   -8.310E-02   -8.289E-02   -8.269E-02
    -8.249E-02   -8.228E-02   -8.208E-02   -8.187E-02   -8.167E-02   -8.147E-02   -8.126E-02   -8.106E-02   -8.085E-02   -8.065E-02
    -8.044E-02   -8.024E-02   -8.004E-02   -7.983E-02   -7.963E-02   -7.942E-02   -7.922E-02   -7.902E-02   -7.881E-02   -7.861E-02
    -7.840E-02   -7.820E-02   -7.800E-02   -7.779E-02   -7.759E-02   -7.738E-02   -7.718E-02   -7.698E-02   -7.677E-02   -7.657E-02
    -7.636E-02   -7.616E-02   -7.596E-02   -7.575E-02   -7.555E-02   -7.534E-02   -7.514E-02   -7.493E-02   -7.473E-02   -7.453E-02
    -7.432E-02   -7.412E-02   -7.391E-02   -7.371E-02   -7.351E-02   -7.330E-02   -7.310E-02   -7.289E-02   -7.269E-02   -7.249E-02
    -7.228E-02   -7.208E-02   -7.187E-02   -7.167E-02   -7.147E-02   -7.126E-02   -7.106E-02   -7.085E-02   -7.065E-02   -7.045E-02
    -7.024E-02   -7.004E-02   -6.983E-02   -6.963E-02   -6.942E-02   -6.922E-02   -6.902E-02   -6.881E-02   -6.861E-02   -6.840E-02
    -6.820E-02   -6.800E-02   -6.779E-02   -6.759E-02   -6.738E-02   -6.718E-02   -6.698E-02   -6.677E-02   -6.657E-02   -6.636E-02
    -6.616E-02   -6.596E-02   -6.575E-02   -6.555E-02   -6.534E-02   -6.514E-02   -6.494E-02   -6.473E-02   -6.453E-02   -6.432E-02
    -6.412E-02   -6.392E-02   -6.371E-02   -6.351E-02   -6.330E-02   -6.310E-02   -6.290E-02   -6.269E-02   -6.249E-02   -6.228E-02
    -6.208E-02   -6.188E-02   -6.167E-02   -6.147E-02   -6.126E-02   -6.106E-02   -6.086E-02   -6.065E-02   -6.045E-02   -6.024E-02
    -6.004E-02   -5.984E-02   -5.963E-02   -5.943E-02   -5.923E-02   -5.902E-02   -5.882E-02   -5.861E-02   -5.841E-02   -5.821E-02
    -5.800E-02   -5.780E-02   -5.759E-02   -5.739E-02   -5.719E-02   -5.698E-02   -5.678E-02   -5.658E-02   -5.637E-02   -5.617E-02
    -5.596E-02   -5.576E-02   -5.556E-02   -5.535E-02   -5.515E-02   -5.495E-02   -5.474E-02   -5.454E-02   -5.433E-02   -5.413E-02
    -5.393E-02   -5.372E-02   -5.352E-02   -5.332E-02   -5.311E-02   -5.291E-02   -5.270E-02   -5.250E-02   -5.230E-02   -5.209E-02
    -5.189E-02   -5.169E-02   -5.148E-02   -5.128E-02   -5.108E-02   -5.087E-02   -5.067E-02   -5.046E-02   -5.026E-02   -5.006E-02
    -4.985E-02   -4.965E-02   -4.945E-02   -4.924E-02   -4.904E-02   -4.884E-02   -4.863E-02   -4.843E-02   -4.823E-02   -4.802E-02
    -4.782E-02   -4.762E-02   -4.741E-02   -4.721E-02   -4.701E-02   -4.680E-02   -4.660E-02   -4.640E-02   -4.619E-02   -4.599E-02
    -4.579E-02   -4.558E-02   -4.538E-02   -4.518E-02   -4.497E-02   -4.477E-02   -4.457E-02   -4.436E-02   -4.416E-02   -4.396E-02
    -4.375E-02   -4.355E-02   -4.335E-02   -4.314E-02   -4.294E-02   -4.274E-02   -4.253E-02   -4.233E-02   -4.213E-02   -4.192E-02
    -4.172E-02   -4.152E-02   -4.131E-02   -4.111E-02   -4.091E-02   -4.071E-02   -4.050E-02   -4.030E-02   -4.010E-02   -3.989E-02
    -3.969E-02   -3.949E-02   -3.928E-02   -3.908E-02   -3.888E-02   -3.868E-02   -3.847E-02   -3.827E-02   -3.807E-02   -3.786E-02
    -3.766E-02   -3.746E-02   -3.726E-02   -3.705E-02   -3.685E-02   -3.665E-02   -3.644E-02   -3.624E-02   -3.604E-02   -3.584E-02
    -3.563E-02   -3.543E-02   -3.523E-02   -3.502E-02   -3.482E-02   -3.462E-02   -3.442E-02   -3.421E-02   -3.401E-02   -3.381E-02
    -3.361E-02   -3.340E-02   -3.320E-02   -3.300E-02   -3.280E-02   -3.259E-02   -3.239E-02   -3.219E-02   -3.199E-02   -3.178E-02
    -3.158E-02   -3.138E-02   -3.118E-02   -3.097E-02   -3.077E-02   -3.057E-02   -3.037E-02   -3.016E-02   -2.996E-02   -2.976E-02
    -2.956E-02   -2.935E-02   -2.915E-02   -2.895E-02   -2.875E-02   -2.855E-02   -2.834E-02   -2.814E-02
 Ala      Conc. = 3.79E+02
