 LCModel (Version 6.3-1L) Copyright: S.W. Provencher.          Ref.: Magn. Reson. Med. 30:672-679 (1993).                
 Slice#2 Row#7 Col#9  K_02_press_1_raw_act
 36 lines in following concentration table = NCONC+1
    Conc.  %SD /Cr+PCr  Metabolite                                         
    0.000 999%   0.000 Ala                                                 
    0.000 999%   0.000 Asp                                                 
  403.367  70%   0.213 Cr                                                  
 1.49E+03  20%   0.787 PCr                                                 
    0.000 999%   0.000 GABA                                                
    0.000 999%   0.000 Glc                                                 
  355.819  75%   0.188 Gln                                                 
 1.73E+03  17%   0.911 Glu                                                 
  812.467   4%   0.429 GPC                                                 
    0.000 999%   0.000 PCh                                                 
  393.342  24%   0.208 GSH                                                 
 1.56E+03  22%   0.822 Ins                                                 
    0.000 999%   0.000 Lac                                                 
 2.75E+03   5%   1.449 NAA                                                 
  916.944  14%   0.484 NAAG                                                
   84.775  45% 4.5E-02 Scyllo                                              
   67.224 431% 3.5E-02 Tau                                                 
  466.390  35%   0.246 -CrCH2                                              
  812.467   4%   0.429 GPC+PCh                                             
 3.66E+03   4%   1.933 NAA+NAAG                                            
 1.90E+03   5%   1.000 Cr+PCr                                              
 2.08E+03  19%   1.099 Glu+Gln                                             
    0.000 999%   0.000 Lip13a                                              
  601.881  28%   0.318 Lip13b                                              
   65.179 346% 3.4E-02 Lip09                                               
 1.93E+03  19%   1.016 MM09                                                
  119.630 134% 6.3E-02 Lip20                                               
 3.90E+03  16%   2.056 MM20                                                
  658.862  40%   0.348 MM12                                                
    0.000 999%   0.000 MM14                                                
 2.04E+03  21%   1.075 MM17                                                
  601.881  28%   0.318 Lip13a+Lip13b                                       
 1.26E+03  21%   0.665 MM14+Lip13a+Lip13b+MM12                             
 1.99E+03  17%   1.051 MM09+Lip09                                          
 4.02E+03  15%   2.119 MM20+Lip20                                          
   6 lines in following misc. output table
  FWHM = 0.038 ppm    S/N =  12                                            
  Data shift = 0.008 ppm                                                   
  Ph: -39 deg      -5.2 deg/ppm                                            
  alphaB,S = 1.3E+00,   7.2E+01                                            
   14 spline knots.   Ns = 6(1)                                            
  ( 5) 2 infls.   ( 3) 1 extrs.                                            
  498 points on ppm-axis = NY
      4.000000     3.992357     3.984714     3.977070     3.969427     3.961784     3.954141     3.946497     3.938854     3.931211
      3.923568     3.915925     3.908281     3.900638     3.892995     3.885352     3.877708     3.870065     3.862422     3.854779
      3.847136     3.839492     3.831849     3.824206     3.816563     3.808919     3.801276     3.793633     3.785990     3.778347
      3.770703     3.763060     3.755417     3.747774     3.740130     3.732487     3.724844     3.717201     3.709558     3.701914
      3.694271     3.686628     3.678985     3.671341     3.663698     3.656055     3.648412     3.640769     3.633125     3.625482
      3.617839     3.610196     3.602552     3.594909     3.587266     3.579623     3.571980     3.564336     3.556693     3.549050
      3.541407     3.533763     3.526120     3.518477     3.510834     3.503191     3.495547     3.487904     3.480261     3.472618
      3.464974     3.457331     3.449688     3.442045     3.434402     3.426758     3.419115     3.411472     3.403829     3.396185
      3.388542     3.380899     3.373256     3.365613     3.357969     3.350326     3.342683     3.335040     3.327396     3.319753
      3.312110     3.304467     3.296824     3.289180     3.281537     3.273894     3.266251     3.258607     3.250964     3.243321
      3.235678     3.228034     3.220391     3.212748     3.205105     3.197462     3.189818     3.182175     3.174532     3.166889
      3.159245     3.151602     3.143959     3.136316     3.128673     3.121029     3.113386     3.105743     3.098100     3.090456
      3.082813     3.075170     3.067527     3.059884     3.052240     3.044597     3.036954     3.029311     3.021667     3.014024
      3.006381     2.998738     2.991095     2.983451     2.975808     2.968165     2.960522     2.952878     2.945235     2.937592
      2.929949     2.922306     2.914662     2.907019     2.899376     2.891733     2.884089     2.876446     2.868803     2.861160
      2.853517     2.845873     2.838230     2.830587     2.822944     2.815300     2.807657     2.800014     2.792371     2.784728
      2.777084     2.769441     2.761798     2.754155     2.746511     2.738868     2.731225     2.723582     2.715939     2.708295
      2.700652     2.693009     2.685366     2.677722     2.670079     2.662436     2.654793     2.647150     2.639506     2.631863
      2.624220     2.616577     2.608933     2.601290     2.593647     2.586004     2.578361     2.570717     2.563074     2.555431
      2.547788     2.540144     2.532501     2.524858     2.517215     2.509572     2.501928     2.494285     2.486642     2.478999
      2.471355     2.463712     2.456069     2.448426     2.440783     2.433139     2.425496     2.417853     2.410210     2.402566
      2.394923     2.387280     2.379637     2.371994     2.364350     2.356707     2.349064     2.341421     2.333777     2.326134
      2.318491     2.310848     2.303205     2.295561     2.287918     2.280275     2.272632     2.264988     2.257345     2.249702
      2.242059     2.234416     2.226772     2.219129     2.211486     2.203843     2.196199     2.188556     2.180913     2.173270
      2.165627     2.157983     2.150340     2.142697     2.135054     2.127410     2.119767     2.112124     2.104481     2.096838
      2.089194     2.081551     2.073908     2.066265     2.058621     2.050978     2.043335     2.035692     2.028049     2.020405
      2.012762     2.005119     1.997476     1.989833     1.982190     1.974546     1.966903     1.959260     1.951617     1.943974
      1.936331     1.928688     1.921045     1.913402     1.905759     1.898115     1.890472     1.882829     1.875186     1.867543
      1.859900     1.852257     1.844614     1.836971     1.829327     1.821684     1.814041     1.806398     1.798755     1.791112
      1.783469     1.775826     1.768183     1.760540     1.752896     1.745253     1.737610     1.729967     1.722324     1.714681
      1.707038     1.699395     1.691752     1.684108     1.676465     1.668822     1.661179     1.653536     1.645893     1.638250
      1.630607     1.622964     1.615321     1.607677     1.600034     1.592391     1.584748     1.577105     1.569462     1.561819
      1.554176     1.546533     1.538890     1.531246     1.523603     1.515960     1.508317     1.500674     1.493031     1.485388
      1.477745     1.470102     1.462458     1.454815     1.447172     1.439529     1.431886     1.424243     1.416600     1.408957
      1.401314     1.393671     1.386027     1.378384     1.370741     1.363098     1.355455     1.347812     1.340169     1.332526
      1.324883     1.317240     1.309596     1.301953     1.294310     1.286667     1.279024     1.271381     1.263738     1.256095
      1.248452     1.240808     1.233165     1.225522     1.217879     1.210236     1.202593     1.194950     1.187307     1.179664
      1.172021     1.164377     1.156734     1.149091     1.141448     1.133805     1.126162     1.118519     1.110876     1.103233
      1.095590     1.087946     1.080303     1.072660     1.065017     1.057374     1.049731     1.042088     1.034445     1.026802
      1.019158     1.011515     1.003872     0.996229     0.988586     0.980943     0.973300     0.965657     0.958014     0.950371
      0.942727     0.935084     0.927441     0.919798     0.912155     0.904512     0.896869     0.889226     0.881583     0.873940
      0.866296     0.858653     0.851010     0.843367     0.835724     0.828081     0.820438     0.812795     0.805152     0.797508
      0.789865     0.782222     0.774579     0.766936     0.759293     0.751650     0.744007     0.736364     0.728721     0.721077
      0.713434     0.705791     0.698148     0.690505     0.682862     0.675219     0.667576     0.659933     0.652290     0.644646
      0.637003     0.629360     0.621717     0.614074     0.606431     0.598788     0.591145     0.583502     0.575858     0.568215
      0.560572     0.552929     0.545286     0.537643     0.530000     0.522357     0.514714     0.507071     0.499427     0.491784
      0.484141     0.476498     0.468855     0.461212     0.453569     0.445925     0.438282     0.430639     0.422996     0.415353
      0.407710     0.400067     0.392424     0.384780     0.377137     0.369494     0.361851     0.354208     0.346565     0.338922
      0.331278     0.323635     0.315992     0.308349     0.300706     0.293063     0.285420     0.277777     0.270133     0.262490
      0.254847     0.247204     0.239561     0.231918     0.224275     0.216631     0.208988     0.201345
 NY phased data points follow
  -7.69378E+01 -7.18710E+01 -7.49545E+01 -7.67405E+01 -6.61965E+01 -5.65118E+01 -5.13296E+01 -4.41784E+01 -3.46752E+01 -2.06492E+01
  -1.68055E+01 -1.97216E+01 -3.11776E+01 -3.72360E+01 -5.11804E+01 -5.86910E+01 -5.88260E+01 -6.10440E+01 -5.26767E+01 -5.98352E+01
  -5.37571E+01 -5.98559E+01 -5.70519E+01 -4.95310E+01 -5.65143E+01 -4.60062E+01 -5.36732E+01 -5.44892E+01 -5.10817E+01 -4.08688E+01
  -4.77309E+01 -4.23263E+01 -4.26870E+01 -4.28853E+01 -5.13207E+01 -4.41815E+01 -5.11686E+01 -4.59956E+01 -4.70315E+01 -4.47191E+01
  -4.41465E+01 -3.20180E+01 -4.21117E+01 -4.22286E+01 -3.27581E+01 -3.04406E+01 -2.84869E+01 -2.57307E+01 -2.82974E+01 -3.22729E+01
  -2.87983E+01 -3.91896E+01 -3.68067E+01 -3.48935E+01 -4.01451E+01 -3.63746E+01 -3.43946E+01 -3.08437E+01 -3.87688E+01 -3.92243E+01
  -3.84002E+01 -4.46959E+01 -4.77915E+01 -4.07647E+01 -4.64463E+01 -4.75136E+01 -4.66713E+01 -4.54109E+01 -4.30819E+01 -5.20439E+01
  -3.91343E+01 -3.92855E+01 -4.59201E+01 -3.56162E+01 -3.74451E+01 -4.18995E+01 -3.50909E+01 -3.66312E+01 -3.52319E+01 -3.57747E+01
  -4.09993E+01 -3.38487E+01 -3.45306E+01 -3.55684E+01 -3.53862E+01 -3.38999E+01 -3.42629E+01 -3.42767E+01 -3.56020E+01 -2.76674E+01
  -2.56643E+01 -2.92494E+01 -2.04267E+01 -2.65280E+01 -2.53958E+01 -1.64670E+01 -2.09390E+01 -1.56344E+01 -1.35567E+01  6.73823E+00
   1.92342E+01  4.09824E+01  5.56124E+01  5.88520E+01  4.85696E+01  2.19209E+01  7.93211E+00 -5.65608E-01 -1.69882E+01 -1.73420E+01
  -2.21032E+01 -1.79272E+01 -2.84408E+01 -2.32749E+01 -2.95237E+01 -2.91253E+01 -2.15042E+01 -3.08704E+01 -2.49735E+01 -1.21732E+01
  -1.69793E+01 -1.65733E+01 -1.35221E+01 -7.67419E+00  8.04975E+00  2.87601E+01  4.84717E+01  5.68662E+01  4.47879E+01  3.06993E+01
   1.46363E+01  2.69808E+00 -4.17650E+00 -1.61625E+01 -9.49552E+00 -1.23744E+01 -2.29863E+01 -1.92218E+01 -1.96859E+01 -1.75273E+01
  -2.23593E+01 -1.77313E+01 -2.39678E+01 -2.11336E+01 -2.06133E+01 -2.44111E+01 -1.77612E+01 -1.60922E+01 -2.33243E+01 -1.67397E+01
  -1.93033E+01 -1.91649E+01 -2.23588E+01 -2.10960E+01 -2.62724E+01 -2.41568E+01 -2.18050E+01 -1.66350E+01 -1.57221E+01 -1.86931E+01
  -1.54411E+01 -2.47115E+01 -2.76740E+01 -2.16459E+01 -1.77796E+01 -1.72234E+01 -1.13482E+01 -1.85576E+01 -2.76871E+01 -2.49987E+01
  -3.29322E+01 -2.96864E+01 -2.95592E+01 -3.17343E+01 -3.71748E+01 -4.61915E+01 -3.99603E+01 -3.10479E+01 -3.86793E+01 -2.33990E+01
  -2.68800E+01 -3.03622E+01 -3.25303E+01 -3.17221E+01 -2.66971E+01 -2.65298E+01 -2.80407E+01 -2.51388E+01 -1.86349E+01 -8.93384E+00
  -8.84854E+00 -5.93515E+00 -1.11506E+01 -1.73148E+01 -7.86604E+00 -1.19511E+01 -1.11873E+01 -1.37620E+01 -2.27558E+01 -1.95571E+01
  -2.06552E+01 -1.84711E+01 -8.51704E+00 -1.29747E+01 -1.36847E+01 -1.10410E+01 -1.20180E+01 -1.60812E+01 -1.47217E+01 -1.89655E+01
  -2.42177E+01 -2.00504E+01 -1.20304E+01 -6.42341E+00 -6.23406E+00  6.04168E+00  3.97003E+00 -1.27638E+00 -3.04720E+00 -7.66730E+00
  -1.24395E+01 -1.85101E+01 -1.41337E+01 -1.43243E+01 -1.20886E+01 -2.93147E+00 -1.66448E+00  5.87153E+00  2.87685E+00  5.66767E+00
   5.55384E+00 -1.12568E+00  3.93078E+00  3.10258E+00 -4.88045E-01 -3.23367E+00 -2.83702E+00  5.87651E+00  3.84446E+00 -3.32999E+00
  -7.23559E+00 -1.38268E+01 -1.07485E+01 -3.92085E+00 -1.59064E+00  5.88850E+00  6.46935E+00  1.35873E+01  1.01670E+01  1.47038E+01
   1.95144E+01  1.58478E+01  2.41053E+01  3.99110E+01  5.72245E+01  6.42680E+01  5.87960E+01  6.10264E+01  9.70119E+01  1.28989E+02
   1.35113E+02  1.13890E+02  8.70968E+01  6.36875E+01  3.99892E+01  2.69860E+01  1.43585E+01  2.78159E+00  9.98313E+00  4.41636E+00
   2.38869E+00  1.30846E+00  7.19874E+00  3.28699E-01  3.02230E+00  5.51561E+00  8.77142E+00  4.14481E+00 -6.24029E+00 -1.84306E+00
  -1.67654E+00 -5.09676E+00 -1.12252E+00 -7.91779E+00 -1.10369E+01 -4.62071E+00 -3.03642E+00  2.31296E+00 -4.48970E-01 -8.19460E-01
   2.90713E+00  9.16388E+00  9.74528E+00  1.73785E+00  9.77840E+00 -1.89752E+00 -2.94087E+00  4.83604E-01  2.93757E+00 -1.07202E+00
   4.47583E+00  4.75583E+00 -2.11317E+00  8.93993E-01  1.72157E+00  1.84626E+00  4.54563E+00  3.08430E+00  9.64169E+00  4.16750E+00
   1.30372E+01  8.60480E+00  1.02514E+01  7.93200E+00  1.09793E+01 -6.22100E-02  6.54542E+00  1.05556E+01  7.69915E+00  8.94341E+00
   6.12437E+00  7.44492E+00  3.96043E+00  1.62774E+01  1.51109E+01  1.24028E+01  1.86660E+01  1.88612E+01  1.81362E+01  1.29932E+01
   9.91709E+00  9.49180E+00  7.20133E+00  2.58456E+00  5.64825E+00  4.06911E-01  2.65585E+00 -4.19492E+00 -4.62680E+00 -1.06687E+01
  -6.55661E+00 -2.91779E+00 -1.32128E+01  3.26452E+00  1.49786E+00 -8.72882E-01  2.69756E+00 -2.10130E+00 -1.39966E+00 -3.64427E-01
  -1.48126E+00  3.37970E+00  7.09685E+00  9.85572E-01  5.10567E+00  5.82425E+00  2.86654E+00  4.07633E+00  8.39930E+00  1.37167E+01
   6.99517E+00  2.04236E+01  1.55868E+01  2.09991E+01  1.99611E+01  1.24478E+01  7.45685E+00  4.95575E+00  1.08310E+01  8.15994E+00
   7.53046E+00  7.58019E+00  7.08776E+00  9.58950E+00  4.63856E+00  9.66684E+00  7.52487E-02  4.26615E+00  8.53039E+00  9.22686E+00
   9.06641E-01  4.74300E+00  1.46180E+01  5.79080E+00  4.03168E+00  9.97217E+00  8.92765E+00  1.21132E+01  1.53135E+01  1.08310E+01
   1.24214E+01  1.38747E+01  1.49909E+01  1.70359E+01  7.14898E+00  1.15543E+01  7.75871E+00  1.26383E+01  8.36566E+00  1.66880E+01
   1.17818E+01  1.30688E+01  1.12832E+01  7.07908E+00  1.18818E+01  1.74290E+01  1.81349E+01  2.23549E+01  1.75120E+01  2.06050E+01
   9.56196E+00  1.28227E+01  1.42394E+01  1.19114E+01  1.03943E+01  1.50150E+01  1.02929E+01  1.91179E+01  6.89914E+00  1.03642E+01
   1.16339E+01  1.20582E+01  1.02686E+01  6.94762E+00  9.17569E+00  6.33601E+00  7.89944E+00  6.06561E+00  6.70641E+00  7.07551E+00
   4.97531E+00  3.10666E+00  5.85610E+00  9.23680E+00  5.95248E-02  4.41701E+00  2.27428E+00  5.88714E+00  7.35409E+00  4.95496E+00
  -4.26699E+00  2.92784E+00  5.85674E+00  4.81773E+00  6.19770E+00  7.65197E+00  6.18828E+00  4.40886E+00  5.45431E+00  4.90586E+00
   5.55410E+00  9.49462E+00  5.76788E+00  5.57649E+00  6.73204E+00  5.79462E+00  6.98338E+00  4.56183E+00  1.06858E+01  2.64517E+00
   3.41242E-01  4.58732E+00 -3.07022E+00  9.39657E+00  3.90137E+00  8.66930E+00  5.05497E+00  6.12915E+00  7.81110E+00  7.05078E+00
   6.75366E+00  9.68972E+00  1.63123E+00  8.22335E+00  3.73552E+00  5.43313E+00  4.35910E+00  7.65905E+00  5.27951E+00  7.39378E+00
   8.71962E+00  2.61093E+00  7.80887E+00  7.66331E+00  7.77700E+00  7.98988E+00  8.99919E+00  7.40354E+00  6.67039E+00  1.06881E+01
   2.89668E+00  4.39093E+00  5.34357E-01  1.41494E+00  6.68057E+00  6.99799E+00  5.14924E+00  1.13505E+01
 NY points of the fit to the data follow
  -6.69267E+01 -6.65427E+01 -6.59367E+01 -6.44690E+01 -6.11795E+01 -5.76183E+01 -5.25596E+01 -4.35499E+01 -3.17205E+01 -2.22758E+01
  -1.97292E+01 -2.40808E+01 -3.18329E+01 -3.93992E+01 -4.52428E+01 -4.93533E+01 -5.21433E+01 -5.40177E+01 -5.50099E+01 -5.54505E+01
  -5.55755E+01 -5.55942E+01 -5.57358E+01 -5.57700E+01 -5.52836E+01 -5.48012E+01 -5.42258E+01 -5.23887E+01 -4.89410E+01 -4.49322E+01
  -4.18533E+01 -4.02138E+01 -3.99492E+01 -4.09673E+01 -4.28942E+01 -4.52801E+01 -4.75134E+01 -4.90506E+01 -4.97166E+01 -4.94770E+01
  -4.81873E+01 -4.60981E+01 -4.38883E+01 -4.14774E+01 -3.81390E+01 -3.42051E+01 -3.13462E+01 -3.10415E+01 -3.31672E+01 -3.64228E+01
  -3.95642E+01 -4.20114E+01 -4.35703E+01 -4.41530E+01 -4.39766E+01 -4.32603E+01 -4.20739E+01 -4.05414E+01 -3.89721E+01 -3.79315E+01
  -3.78382E+01 -3.86294E+01 -3.98830E+01 -4.10078E+01 -4.16075E+01 -4.14885E+01 -4.07649E+01 -3.97723E+01 -3.86904E+01 -3.75676E+01
  -3.65458E+01 -3.58840E+01 -3.56569E+01 -3.57142E+01 -3.58635E+01 -3.59947E+01 -3.60939E+01 -3.61442E+01 -3.61077E+01 -3.59282E+01
  -3.55283E+01 -3.49325E+01 -3.43633E+01 -3.36095E+01 -3.26328E+01 -3.19810E+01 -3.21740E+01 -3.30586E+01 -3.39515E+01 -3.42936E+01
  -3.39356E+01 -3.31784E+01 -3.22757E+01 -3.13310E+01 -3.04411E+01 -2.94570E+01 -2.71313E+01 -2.12819E+01 -1.33800E+01 -8.34642E-01
   2.00717E+01  4.42861E+01  5.99773E+01  5.94346E+01  4.52248E+01  2.58368E+01  8.17797E+00 -5.41331E+00 -1.51115E+01 -2.14150E+01
  -2.50433E+01 -2.64664E+01 -2.67789E+01 -2.67643E+01 -2.66267E+01 -2.64147E+01 -2.61426E+01 -2.58212E+01 -2.54136E+01 -2.47849E+01
  -2.34260E+01 -1.95362E+01 -1.30280E+01 -4.72485E+00  9.44277E+00  2.96851E+01  4.77995E+01  5.42394E+01  4.69493E+01  3.17088E+01
   1.59254E+01  3.38714E+00 -5.90022E+00 -1.28092E+01 -1.78552E+01 -2.11555E+01 -2.26657E+01 -2.30526E+01 -2.26134E+01 -2.16475E+01
  -2.05872E+01 -1.98328E+01 -1.95446E+01 -1.96477E+01 -1.99622E+01 -2.03127E+01 -2.06028E+01 -2.08330E+01 -2.10471E+01 -2.12570E+01
  -2.14953E+01 -2.18081E+01 -2.21022E+01 -2.22149E+01 -2.20345E+01 -2.16780E+01 -2.13030E+01 -2.11896E+01 -2.17069E+01 -2.27080E+01
  -2.36976E+01 -2.40339E+01 -2.33986E+01 -2.23514E+01 -2.17835E+01 -2.20767E+01 -2.30196E+01 -2.40526E+01 -2.46957E+01 -2.48833E+01
  -2.48402E+01 -2.48865E+01 -2.51601E+01 -2.58629E+01 -2.67160E+01 -2.71011E+01 -2.65781E+01 -2.54034E+01 -2.45433E+01 -2.45117E+01
  -2.47930E+01 -2.46559E+01 -2.38747E+01 -2.28819E+01 -2.22863E+01 -2.18643E+01 -2.07951E+01 -1.87423E+01 -1.60575E+01 -1.34896E+01
  -1.17815E+01 -1.12058E+01 -1.16986E+01 -1.26480E+01 -1.35369E+01 -1.42795E+01 -1.48175E+01 -1.48994E+01 -1.42850E+01 -1.31974E+01
  -1.18230E+01 -1.02365E+01 -8.68660E+00 -7.59277E+00 -7.69010E+00 -9.04937E+00 -1.13533E+01 -1.42125E+01 -1.67725E+01 -1.82413E+01
  -1.82445E+01 -1.69347E+01 -1.43314E+01 -1.01166E+01 -5.17841E+00 -1.61400E+00 -1.18380E+00 -3.79841E+00 -8.02092E+00 -1.27180E+01
  -1.73176E+01 -2.05541E+01 -2.08550E+01 -1.79461E+01 -1.31829E+01 -8.40018E+00 -4.73210E+00 -2.36657E+00 -1.28305E+00 -1.36958E+00
  -2.08827E+00 -2.52897E+00 -2.14103E+00 -1.12349E+00  1.08090E-01  1.27186E+00  2.14509E+00  2.30360E+00  1.65425E+00  4.46385E-01
  -8.14236E-01 -1.52759E+00 -1.08001E+00  6.48425E-01  3.06047E+00  5.37975E+00  7.13951E+00  8.23476E+00  8.93918E+00  1.04436E+01
   1.32003E+01  1.72365E+01  2.47168E+01  3.58821E+01  4.91478E+01  6.07953E+01  6.67747E+01  7.71943E+01  9.88175E+01  1.21851E+02
   1.29823E+02  1.17014E+02  9.13979E+01  6.46588E+01  4.31694E+01  2.72769E+01  1.60714E+01  8.84074E+00  4.76084E+00  3.21687E+00
   2.48877E+00  2.08979E+00  1.92621E+00  1.81017E+00  1.52580E+00  1.04642E+00  5.13084E-01  5.34264E-02 -3.34735E-01 -6.39206E-01
  -8.23268E-01 -8.91526E-01 -9.12136E-01 -9.63743E-01 -1.08548E+00 -1.24529E+00 -1.41518E+00 -1.58346E+00 -1.69801E+00 -1.69778E+00
  -1.57250E+00 -1.37144E+00 -1.16815E+00 -9.93502E-01 -8.38032E-01 -7.01943E-01 -5.73834E-01 -4.13360E-01 -1.74679E-01  1.65166E-01
   5.99629E-01  1.10701E+00  1.67095E+00  2.28127E+00  2.93039E+00  3.61250E+00  4.32345E+00  5.05721E+00  5.80755E+00  6.56193E+00
   7.30460E+00  8.01745E+00  8.68340E+00  9.28589E+00  9.80974E+00  1.02400E+01  1.05643E+01  1.07733E+01  1.08630E+01  1.08324E+01
   1.06844E+01  1.04248E+01  1.00635E+01  9.61403E+00  9.09284E+00  8.51690E+00  7.90350E+00  7.26896E+00  6.62979E+00  6.00113E+00
   5.39668E+00  4.82669E+00  4.29899E+00  3.81869E+00  3.38988E+00  3.01463E+00  2.69355E+00  2.42479E+00  2.20578E+00  2.03336E+00
   1.90536E+00  1.81960E+00  1.77473E+00  1.76993E+00  1.80736E+00  1.89261E+00  2.03655E+00  2.25440E+00  2.56617E+00  2.99457E+00
   3.56352E+00  4.29238E+00  5.18990E+00  6.24575E+00  7.42558E+00  8.66847E+00  9.89135E+00  1.09970E+01  1.18882E+01  1.24827E+01
   1.27289E+01  1.26152E+01  1.21730E+01  1.14692E+01  1.05938E+01  9.64289E+00  8.70456E+00  7.84750E+00  7.11630E+00  6.53028E+00
   6.08837E+00  5.77498E+00  5.56821E+00  5.44510E+00  5.38611E+00  5.37572E+00  5.40345E+00  5.46277E+00  5.55141E+00  5.66962E+00
   5.81966E+00  6.00386E+00  6.22492E+00  6.48509E+00  6.78713E+00  7.13316E+00  7.52483E+00  7.96209E+00  8.44403E+00  8.96831E+00
   9.53199E+00  1.01304E+01  1.07571E+01  1.14038E+01  1.20604E+01  1.27157E+01  1.33580E+01  1.39743E+01  1.45512E+01  1.50747E+01
   1.55322E+01  1.59122E+01  1.62054E+01  1.64042E+01  1.65036E+01  1.65009E+01  1.63969E+01  1.61955E+01  1.59035E+01  1.55292E+01
   1.50832E+01  1.45771E+01  1.40241E+01  1.34374E+01  1.28304E+01  1.22149E+01  1.16019E+01  1.10011E+01  1.04210E+01  9.86846E+00
   9.34858E+00  8.86434E+00  8.41772E+00  8.00942E+00  7.63964E+00  7.30731E+00  7.01073E+00  6.74727E+00  6.51456E+00  6.31007E+00
   6.13165E+00  5.97660E+00  5.84244E+00  5.72649E+00  5.62685E+00  5.54174E+00  5.46982E+00  5.40932E+00  5.35879E+00  5.31677E+00
   5.28256E+00  5.25537E+00  5.23467E+00  5.21939E+00  5.20887E+00  5.20243E+00  5.20000E+00  5.20126E+00  5.20595E+00  5.21336E+00
   5.22321E+00  5.23525E+00  5.24967E+00  5.26625E+00  5.28480E+00  5.30478E+00  5.32615E+00  5.34885E+00  5.37313E+00  5.39872E+00
   5.42545E+00  5.45290E+00  5.48123E+00  5.51047E+00  5.54084E+00  5.57201E+00  5.60381E+00  5.63598E+00  5.66880E+00  5.70231E+00
   5.73663E+00  5.77137E+00  5.80646E+00  5.84177E+00  5.87764E+00  5.91405E+00  5.95103E+00  5.98817E+00  6.02549E+00  6.06298E+00
   6.10098E+00  6.13939E+00  6.17815E+00  6.21689E+00  6.25577E+00  6.29483E+00  6.33438E+00  6.37420E+00  6.41419E+00  6.45409E+00
   6.49414E+00  6.53442E+00  6.57515E+00  6.61602E+00  6.65695E+00  6.69780E+00  6.73889E+00  6.78028E+00
 NY background values follow
    -7.108E+01   -7.064E+01   -7.019E+01   -6.974E+01   -6.930E+01   -6.885E+01   -6.840E+01   -6.796E+01   -6.751E+01   -6.706E+01
    -6.662E+01   -6.617E+01   -6.573E+01   -6.528E+01   -6.484E+01   -6.440E+01   -6.395E+01   -6.351E+01   -6.307E+01   -6.263E+01
    -6.219E+01   -6.175E+01   -6.131E+01   -6.087E+01   -6.044E+01   -6.000E+01   -5.957E+01   -5.913E+01   -5.870E+01   -5.827E+01
    -5.784E+01   -5.742E+01   -5.699E+01   -5.656E+01   -5.614E+01   -5.572E+01   -5.530E+01   -5.488E+01   -5.446E+01   -5.405E+01
    -5.363E+01   -5.322E+01   -5.281E+01   -5.240E+01   -5.200E+01   -5.159E+01   -5.119E+01   -5.079E+01   -5.039E+01   -5.000E+01
    -4.961E+01   -4.922E+01   -4.883E+01   -4.844E+01   -4.806E+01   -4.767E+01   -4.729E+01   -4.692E+01   -4.654E+01   -4.617E+01
    -4.580E+01   -4.543E+01   -4.506E+01   -4.470E+01   -4.434E+01   -4.398E+01   -4.362E+01   -4.327E+01   -4.292E+01   -4.257E+01
    -4.222E+01   -4.188E+01   -4.154E+01   -4.120E+01   -4.087E+01   -4.053E+01   -4.020E+01   -3.987E+01   -3.955E+01   -3.923E+01
    -3.891E+01   -3.859E+01   -3.828E+01   -3.796E+01   -3.765E+01   -3.735E+01   -3.705E+01   -3.675E+01   -3.645E+01   -3.615E+01
    -3.586E+01   -3.557E+01   -3.529E+01   -3.500E+01   -3.472E+01   -3.445E+01   -3.417E+01   -3.390E+01   -3.363E+01   -3.337E+01
    -3.311E+01   -3.285E+01   -3.259E+01   -3.233E+01   -3.208E+01   -3.183E+01   -3.159E+01   -3.134E+01   -3.110E+01   -3.087E+01
    -3.063E+01   -3.040E+01   -3.017E+01   -2.994E+01   -2.972E+01   -2.949E+01   -2.928E+01   -2.906E+01   -2.884E+01   -2.863E+01
    -2.842E+01   -2.822E+01   -2.801E+01   -2.781E+01   -2.762E+01   -2.742E+01   -2.723E+01   -2.704E+01   -2.685E+01   -2.666E+01
    -2.648E+01   -2.630E+01   -2.612E+01   -2.594E+01   -2.577E+01   -2.560E+01   -2.543E+01   -2.526E+01   -2.510E+01   -2.494E+01
    -2.478E+01   -2.462E+01   -2.446E+01   -2.431E+01   -2.416E+01   -2.401E+01   -2.386E+01   -2.371E+01   -2.357E+01   -2.342E+01
    -2.328E+01   -2.314E+01   -2.300E+01   -2.286E+01   -2.272E+01   -2.259E+01   -2.245E+01   -2.232E+01   -2.218E+01   -2.205E+01
    -2.192E+01   -2.179E+01   -2.166E+01   -2.152E+01   -2.139E+01   -2.126E+01   -2.113E+01   -2.100E+01   -2.087E+01   -2.074E+01
    -2.061E+01   -2.048E+01   -2.035E+01   -2.022E+01   -2.009E+01   -1.996E+01   -1.983E+01   -1.969E+01   -1.956E+01   -1.943E+01
    -1.929E+01   -1.915E+01   -1.902E+01   -1.888E+01   -1.874E+01   -1.860E+01   -1.846E+01   -1.832E+01   -1.818E+01   -1.803E+01
    -1.789E+01   -1.775E+01   -1.760E+01   -1.746E+01   -1.731E+01   -1.716E+01   -1.702E+01   -1.687E+01   -1.672E+01   -1.657E+01
    -1.643E+01   -1.628E+01   -1.613E+01   -1.598E+01   -1.583E+01   -1.568E+01   -1.553E+01   -1.538E+01   -1.523E+01   -1.508E+01
    -1.494E+01   -1.479E+01   -1.464E+01   -1.449E+01   -1.434E+01   -1.419E+01   -1.404E+01   -1.390E+01   -1.375E+01   -1.360E+01
    -1.345E+01   -1.331E+01   -1.316E+01   -1.302E+01   -1.287E+01   -1.273E+01   -1.259E+01   -1.244E+01   -1.230E+01   -1.216E+01
    -1.202E+01   -1.188E+01   -1.174E+01   -1.160E+01   -1.147E+01   -1.133E+01   -1.119E+01   -1.106E+01   -1.092E+01   -1.079E+01
    -1.066E+01   -1.052E+01   -1.039E+01   -1.026E+01   -1.013E+01   -1.000E+01   -9.874E+00   -9.746E+00   -9.619E+00   -9.493E+00
    -9.367E+00   -9.243E+00   -9.119E+00   -8.996E+00   -8.873E+00   -8.752E+00   -8.631E+00   -8.511E+00   -8.392E+00   -8.274E+00
    -8.157E+00   -8.040E+00   -7.925E+00   -7.810E+00   -7.696E+00   -7.583E+00   -7.470E+00   -7.359E+00   -7.248E+00   -7.139E+00
    -7.030E+00   -6.922E+00   -6.815E+00   -6.709E+00   -6.603E+00   -6.499E+00   -6.395E+00   -6.292E+00   -6.191E+00   -6.089E+00
    -5.989E+00   -5.890E+00   -5.791E+00   -5.694E+00   -5.597E+00   -5.501E+00   -5.405E+00   -5.311E+00   -5.217E+00   -5.124E+00
    -5.032E+00   -4.941E+00   -4.851E+00   -4.761E+00   -4.672E+00   -4.584E+00   -4.496E+00   -4.410E+00   -4.324E+00   -4.239E+00
    -4.154E+00   -4.071E+00   -3.988E+00   -3.906E+00   -3.824E+00   -3.744E+00   -3.664E+00   -3.584E+00   -3.506E+00   -3.428E+00
    -3.351E+00   -3.274E+00   -3.198E+00   -3.123E+00   -3.049E+00   -2.975E+00   -2.902E+00   -2.830E+00   -2.758E+00   -2.687E+00
    -2.616E+00   -2.547E+00   -2.477E+00   -2.409E+00   -2.341E+00   -2.273E+00   -2.206E+00   -2.140E+00   -2.074E+00   -2.008E+00
    -1.943E+00   -1.879E+00   -1.815E+00   -1.752E+00   -1.689E+00   -1.626E+00   -1.564E+00   -1.502E+00   -1.440E+00   -1.379E+00
    -1.319E+00   -1.258E+00   -1.198E+00   -1.139E+00   -1.079E+00   -1.020E+00   -9.617E-01   -9.032E-01   -8.450E-01   -7.870E-01
    -7.292E-01   -6.717E-01   -6.144E-01   -5.572E-01   -5.003E-01   -4.435E-01   -3.868E-01   -3.303E-01   -2.740E-01   -2.177E-01
    -1.615E-01   -1.055E-01   -4.945E-02    6.481E-03    6.234E-02    1.181E-01    1.738E-01    2.295E-01    2.850E-01    3.405E-01
     3.958E-01    4.511E-01    5.063E-01    5.614E-01    6.164E-01    6.712E-01    7.260E-01    7.807E-01    8.352E-01    8.896E-01
     9.439E-01    9.981E-01    1.052E+00    1.106E+00    1.160E+00    1.214E+00    1.267E+00    1.320E+00    1.374E+00    1.427E+00
     1.480E+00    1.532E+00    1.585E+00    1.638E+00    1.690E+00    1.742E+00    1.794E+00    1.846E+00    1.897E+00    1.949E+00
     2.000E+00    2.051E+00    2.102E+00    2.153E+00    2.203E+00    2.254E+00    2.304E+00    2.354E+00    2.403E+00    2.453E+00
     2.502E+00    2.551E+00    2.600E+00    2.649E+00    2.698E+00    2.746E+00    2.794E+00    2.842E+00    2.890E+00    2.938E+00
     2.986E+00    3.033E+00    3.081E+00    3.128E+00    3.175E+00    3.222E+00    3.269E+00    3.316E+00    3.363E+00    3.410E+00
     3.456E+00    3.503E+00    3.549E+00    3.595E+00    3.642E+00    3.688E+00    3.734E+00    3.780E+00    3.826E+00    3.872E+00
     3.918E+00    3.964E+00    4.010E+00    4.056E+00    4.102E+00    4.148E+00    4.193E+00    4.239E+00    4.285E+00    4.331E+00
     4.377E+00    4.423E+00    4.469E+00    4.515E+00    4.561E+00    4.607E+00    4.653E+00    4.699E+00    4.745E+00    4.791E+00
     4.837E+00    4.883E+00    4.930E+00    4.976E+00    5.022E+00    5.068E+00    5.114E+00    5.160E+00    5.207E+00    5.253E+00
     5.299E+00    5.345E+00    5.391E+00    5.437E+00    5.483E+00    5.530E+00    5.576E+00    5.622E+00    5.668E+00    5.714E+00
     5.760E+00    5.806E+00    5.852E+00    5.898E+00    5.943E+00    5.989E+00    6.035E+00    6.081E+00    6.127E+00    6.172E+00
     6.218E+00    6.263E+00    6.309E+00    6.354E+00    6.400E+00    6.445E+00    6.490E+00    6.536E+00
 Cr       Conc. = 4.03E+02
