 LCModel (Version 6.3-1L) Copyright: S.W. Provencher.          Ref.: Magn. Reson. Med. 30:672-679 (1993).                
 Slice#1 Row#3 Col#13  K_02_press_1_raw_act
 36 lines in following concentration table = NCONC+1
    Conc.  %SD /Cr+PCr  Metabolite                                         
 1.57E+04  20%   0.000 Ala                                                 
   28.949  45%   0.000 Asp                                                 
    0.000 999%   0.000 Cr                                                  
    0.000 999%   0.000 PCr                                                 
   17.396  45%   0.000 GABA                                                
   17.460  45%   0.000 Glc                                                 
 1.33E+03  79%   0.000 Gln                                                 
 2.74E+03  51%   0.000 Glu                                                 
    0.000 999%   0.000 GPC                                                 
    4.028 662%   0.000 PCh                                                 
    5.693 999%   0.000 GSH                                                 
    0.000 999%   0.000 Ins                                                 
 4.51E+03  82%   0.000 Lac                                                 
  566.614  28%   0.000 NAA                                                 
    0.000 999%   0.000 NAAG                                                
    5.875  44%   0.000 Scyllo                                              
   29.336  44%   0.000 Tau                                                 
  109.323  87%   0.000 -CrCH2                                              
    4.028 662%   0.000 GPC+PCh                                             
  566.614  28%   0.000 NAA+NAAG                                            
    0.000 999%   0.000 Cr+PCr                                              
 4.07E+03  54%   0.000 Glu+Gln                                             
 2.08E+04  35%   0.000 Lip13a                                              
  936.491  49%   0.000 Lip13b                                              
 1.21E+04  19%   0.000 Lip09                                               
 1.36E+04  18%   0.000 MM09                                                
  876.149  73%   0.000 Lip20                                               
 1.23E+03  56%   0.000 MM20                                                
 1.06E+04  26%   0.000 MM12                                                
 1.72E+05   5%   0.000+MM14                                                
 4.67E+04  19%   0.000 MM17                                                
 2.18E+04  32%   0.000 Lip13a+Lip13b                                       
 2.05E+05   5%   0.000 MM14+Lip13a+Lip13b+MM12                             
 2.57E+04   9%   0.000 MM09+Lip09                                          
 2.10E+03  31%   0.000 MM20+Lip20                                          
   6 lines in following misc. output table
  FWHM = 0.168 ppm    S/N = 138                                            
  Data shift = 0.153 ppm                                                   
  Ph:  72 deg      18.1 deg/ppm                                            
  alphaB,S = 2.6E+01,   2.2E+02                                            
    8 spline knots.   Ns = 9(2)                                            
  (12) 5 infls.   ( 1) 1 extrs.                                            
  498 points on ppm-axis = NY
      4.000000     3.992357     3.984714     3.977070     3.969427     3.961784     3.954141     3.946497     3.938854     3.931211
      3.923568     3.915925     3.908281     3.900638     3.892995     3.885352     3.877708     3.870065     3.862422     3.854779
      3.847136     3.839492     3.831849     3.824206     3.816563     3.808919     3.801276     3.793633     3.785990     3.778347
      3.770703     3.763060     3.755417     3.747774     3.740130     3.732487     3.724844     3.717201     3.709558     3.701914
      3.694271     3.686628     3.678985     3.671341     3.663698     3.656055     3.648412     3.640769     3.633125     3.625482
      3.617839     3.610196     3.602552     3.594909     3.587266     3.579623     3.571980     3.564336     3.556693     3.549050
      3.541407     3.533763     3.526120     3.518477     3.510834     3.503191     3.495547     3.487904     3.480261     3.472618
      3.464974     3.457331     3.449688     3.442045     3.434402     3.426758     3.419115     3.411472     3.403829     3.396185
      3.388542     3.380899     3.373256     3.365613     3.357969     3.350326     3.342683     3.335040     3.327396     3.319753
      3.312110     3.304467     3.296824     3.289180     3.281537     3.273894     3.266251     3.258607     3.250964     3.243321
      3.235678     3.228034     3.220391     3.212748     3.205105     3.197462     3.189818     3.182175     3.174532     3.166889
      3.159245     3.151602     3.143959     3.136316     3.128673     3.121029     3.113386     3.105743     3.098100     3.090456
      3.082813     3.075170     3.067527     3.059884     3.052240     3.044597     3.036954     3.029311     3.021667     3.014024
      3.006381     2.998738     2.991095     2.983451     2.975808     2.968165     2.960522     2.952878     2.945235     2.937592
      2.929949     2.922306     2.914662     2.907019     2.899376     2.891733     2.884089     2.876446     2.868803     2.861160
      2.853517     2.845873     2.838230     2.830587     2.822944     2.815300     2.807657     2.800014     2.792371     2.784728
      2.777084     2.769441     2.761798     2.754155     2.746511     2.738868     2.731225     2.723582     2.715939     2.708295
      2.700652     2.693009     2.685366     2.677722     2.670079     2.662436     2.654793     2.647150     2.639506     2.631863
      2.624220     2.616577     2.608933     2.601290     2.593647     2.586004     2.578361     2.570717     2.563074     2.555431
      2.547788     2.540144     2.532501     2.524858     2.517215     2.509572     2.501928     2.494285     2.486642     2.478999
      2.471355     2.463712     2.456069     2.448426     2.440783     2.433139     2.425496     2.417853     2.410210     2.402566
      2.394923     2.387280     2.379637     2.371994     2.364350     2.356707     2.349064     2.341421     2.333777     2.326134
      2.318491     2.310848     2.303205     2.295561     2.287918     2.280275     2.272632     2.264988     2.257345     2.249702
      2.242059     2.234416     2.226772     2.219129     2.211486     2.203843     2.196199     2.188556     2.180913     2.173270
      2.165627     2.157983     2.150340     2.142697     2.135054     2.127410     2.119767     2.112124     2.104481     2.096838
      2.089194     2.081551     2.073908     2.066265     2.058621     2.050978     2.043335     2.035692     2.028049     2.020405
      2.012762     2.005119     1.997476     1.989833     1.982190     1.974546     1.966903     1.959260     1.951617     1.943974
      1.936331     1.928688     1.921045     1.913402     1.905759     1.898115     1.890472     1.882829     1.875186     1.867543
      1.859900     1.852257     1.844614     1.836971     1.829327     1.821684     1.814041     1.806398     1.798755     1.791112
      1.783469     1.775826     1.768183     1.760540     1.752896     1.745253     1.737610     1.729967     1.722324     1.714681
      1.707038     1.699395     1.691752     1.684108     1.676465     1.668822     1.661179     1.653536     1.645893     1.638250
      1.630607     1.622964     1.615321     1.607677     1.600034     1.592391     1.584748     1.577105     1.569462     1.561819
      1.554176     1.546533     1.538890     1.531246     1.523603     1.515960     1.508317     1.500674     1.493031     1.485388
      1.477745     1.470102     1.462458     1.454815     1.447172     1.439529     1.431886     1.424243     1.416600     1.408957
      1.401314     1.393671     1.386027     1.378384     1.370741     1.363098     1.355455     1.347812     1.340169     1.332526
      1.324883     1.317240     1.309596     1.301953     1.294310     1.286667     1.279024     1.271381     1.263738     1.256095
      1.248452     1.240808     1.233165     1.225522     1.217879     1.210236     1.202593     1.194950     1.187307     1.179664
      1.172021     1.164377     1.156734     1.149091     1.141448     1.133805     1.126162     1.118519     1.110876     1.103233
      1.095590     1.087946     1.080303     1.072660     1.065017     1.057374     1.049731     1.042088     1.034445     1.026802
      1.019158     1.011515     1.003872     0.996229     0.988586     0.980943     0.973300     0.965657     0.958014     0.950371
      0.942727     0.935084     0.927441     0.919798     0.912155     0.904512     0.896869     0.889226     0.881583     0.873940
      0.866296     0.858653     0.851010     0.843367     0.835724     0.828081     0.820438     0.812795     0.805152     0.797508
      0.789865     0.782222     0.774579     0.766936     0.759293     0.751650     0.744007     0.736364     0.728721     0.721077
      0.713434     0.705791     0.698148     0.690505     0.682862     0.675219     0.667576     0.659933     0.652290     0.644646
      0.637003     0.629360     0.621717     0.614074     0.606431     0.598788     0.591145     0.583502     0.575858     0.568215
      0.560572     0.552929     0.545286     0.537643     0.530000     0.522357     0.514714     0.507071     0.499427     0.491784
      0.484141     0.476498     0.468855     0.461212     0.453569     0.445925     0.438282     0.430639     0.422996     0.415353
      0.407710     0.400067     0.392424     0.384780     0.377137     0.369494     0.361851     0.354208     0.346565     0.338922
      0.331278     0.323635     0.315992     0.308349     0.300706     0.293063     0.285420     0.277777     0.270133     0.262490
      0.254847     0.247204     0.239561     0.231918     0.224275     0.216631     0.208988     0.201345
 NY phased data points follow
  -2.98129E+01 -3.01455E+01 -3.14150E+01 -2.83306E+01 -2.99989E+01 -3.15302E+01 -2.80777E+01 -2.98259E+01 -2.87392E+01 -2.72644E+01
  -2.65033E+01 -2.70438E+01 -2.66196E+01 -2.84440E+01 -2.69646E+01 -2.48631E+01 -2.84400E+01 -2.92129E+01 -3.00863E+01 -2.41817E+01
  -3.02183E+01 -2.64671E+01 -2.95016E+01 -2.71303E+01 -2.78891E+01 -2.93692E+01 -2.64691E+01 -2.69835E+01 -2.50540E+01 -2.53593E+01
  -2.69974E+01 -2.82906E+01 -2.37534E+01 -3.04348E+01 -2.70634E+01 -2.61957E+01 -3.07762E+01 -2.97150E+01 -2.83947E+01 -2.82499E+01
  -2.53854E+01 -2.77426E+01 -2.69978E+01 -2.91518E+01 -2.65544E+01 -3.06074E+01 -2.71551E+01 -2.91762E+01 -2.58915E+01 -2.66543E+01
  -2.63773E+01 -2.95475E+01 -2.89740E+01 -2.77622E+01 -2.16300E+01 -2.85488E+01 -2.36176E+01 -2.96562E+01 -2.41922E+01 -2.58902E+01
  -2.53944E+01 -2.68119E+01 -3.03361E+01 -2.58058E+01 -2.56191E+01 -2.45018E+01 -2.82390E+01 -2.94099E+01 -2.82506E+01 -2.74973E+01
  -2.96045E+01 -2.64389E+01 -2.94950E+01 -2.61316E+01 -2.67177E+01 -2.91027E+01 -2.65770E+01 -2.41675E+01 -2.72138E+01 -2.40373E+01
  -2.87804E+01 -2.65907E+01 -2.84027E+01 -2.66993E+01 -2.68447E+01 -2.40470E+01 -2.87615E+01 -2.73245E+01 -2.49065E+01 -2.58839E+01
  -2.97650E+01 -2.86156E+01 -2.57995E+01 -2.71436E+01 -2.61048E+01 -2.72231E+01 -2.56432E+01 -2.93008E+01 -3.13921E+01 -2.70186E+01
  -3.07008E+01 -2.81414E+01 -2.54443E+01 -2.77685E+01 -2.49966E+01 -2.60899E+01 -2.88637E+01 -2.62232E+01 -2.81552E+01 -2.74270E+01
  -2.62057E+01 -2.79519E+01 -2.72384E+01 -2.82079E+01 -2.56793E+01 -2.72795E+01 -2.63732E+01 -2.37372E+01 -2.84399E+01 -3.00788E+01
  -2.75283E+01 -2.84315E+01 -2.78275E+01 -2.25458E+01 -2.57990E+01 -2.74814E+01 -2.88826E+01 -2.52401E+01 -2.70261E+01 -2.65126E+01
  -2.76609E+01 -2.37427E+01 -2.52938E+01 -2.80710E+01 -2.72971E+01 -2.49939E+01 -2.76739E+01 -2.75899E+01 -2.61134E+01 -3.05698E+01
  -2.62638E+01 -2.32408E+01 -2.24853E+01 -2.67348E+01 -2.69990E+01 -3.06181E+01 -2.62280E+01 -2.47478E+01 -2.52876E+01 -2.56134E+01
  -2.12960E+01 -2.86819E+01 -2.71775E+01 -2.86923E+01 -2.90524E+01 -2.78587E+01 -2.46623E+01 -2.46211E+01 -2.40542E+01 -2.56929E+01
  -2.38966E+01 -2.75854E+01 -3.05109E+01 -2.95287E+01 -2.76310E+01 -2.79024E+01 -2.71621E+01 -2.64547E+01 -2.81827E+01 -2.82420E+01
  -2.45636E+01 -2.93990E+01 -2.56982E+01 -2.72336E+01 -2.52295E+01 -2.87568E+01 -2.79791E+01 -2.75470E+01 -2.72727E+01 -2.63612E+01
  -2.41933E+01 -2.58621E+01 -2.81395E+01 -2.82583E+01 -2.88263E+01 -2.36422E+01 -2.78360E+01 -2.72975E+01 -2.54947E+01 -2.35428E+01
  -2.50066E+01 -2.69783E+01 -2.38851E+01 -2.73225E+01 -2.16462E+01 -2.52029E+01 -2.14881E+01 -2.40859E+01 -2.37219E+01 -2.46171E+01
  -2.36320E+01 -2.55519E+01 -2.44690E+01 -2.60349E+01 -2.72321E+01 -2.38187E+01 -2.42682E+01 -2.63452E+01 -2.10884E+01 -2.48304E+01
  -2.57731E+01 -2.24787E+01 -2.05919E+01 -2.52091E+01 -2.22916E+01 -2.27178E+01 -2.37415E+01 -2.19647E+01 -1.90151E+01 -2.16711E+01
  -2.02586E+01 -2.02532E+01 -1.75519E+01 -1.88355E+01 -1.82779E+01 -1.66583E+01 -1.58740E+01 -1.89754E+01 -1.55361E+01 -1.41890E+01
  -1.58819E+01 -1.31187E+01 -1.19980E+01 -1.04472E+01 -9.58164E+00 -1.26573E+01 -6.92972E+00 -6.24188E+00 -6.08676E+00 -6.36671E+00
  -8.39298E+00 -7.05387E+00  8.77605E-01 -3.03972E-01 -4.56490E-02 -2.03207E+00  3.73470E+00  3.84712E+00  4.59349E+00  7.49356E+00
   8.26058E+00  1.09814E+01  1.41621E+01  1.05651E+01  1.60247E+01  2.01421E+01  2.15056E+01  2.07370E+01  2.45530E+01  2.41378E+01
   3.02856E+01  3.17031E+01  3.38204E+01  3.76921E+01  4.06475E+01  4.18820E+01  4.76425E+01  4.61851E+01  5.15197E+01  5.57239E+01
   5.88412E+01  6.27218E+01  6.66017E+01  6.76433E+01  7.38735E+01  7.72720E+01  8.19632E+01  9.04777E+01  9.56553E+01  1.01422E+02
   1.04834E+02  1.19784E+02  1.24392E+02  1.32716E+02  1.45984E+02  1.54406E+02  1.67053E+02  1.75483E+02  1.90777E+02  2.02557E+02
   2.18232E+02  2.31774E+02  2.51158E+02  2.59168E+02  2.78901E+02  2.95883E+02  3.15496E+02  3.35944E+02  3.61998E+02  3.83154E+02
   4.10709E+02  4.35676E+02  4.66505E+02  4.97127E+02  5.24747E+02  5.57766E+02  5.87142E+02  6.22879E+02  6.54891E+02  6.82714E+02
   7.17172E+02  7.39099E+02  7.63617E+02  7.82142E+02  7.94132E+02  8.03525E+02  8.09299E+02  8.07978E+02  8.03631E+02  7.91959E+02
   7.80235E+02  7.65107E+02  7.46675E+02  7.26363E+02  7.02376E+02  6.85700E+02  6.61852E+02  6.33093E+02  6.12586E+02  5.82291E+02
   5.59339E+02  5.26697E+02  4.93586E+02  4.66594E+02  4.38352E+02  4.12636E+02  3.86183E+02  3.62113E+02  3.37800E+02  3.18354E+02
   3.01091E+02  2.84637E+02  2.69742E+02  2.57818E+02  2.49673E+02  2.40827E+02  2.30278E+02  2.24067E+02  2.14256E+02  2.04522E+02
   2.03979E+02  1.98931E+02  1.94880E+02  1.91764E+02  1.91470E+02  1.84667E+02  1.80868E+02  1.82427E+02  1.78791E+02  1.78756E+02
   1.75909E+02  1.72525E+02  1.72323E+02  1.69651E+02  1.69012E+02  1.67882E+02  1.63468E+02  1.63527E+02  1.60846E+02  1.62019E+02
   1.57812E+02  1.58572E+02  1.55845E+02  1.50703E+02  1.53449E+02  1.53403E+02  1.55161E+02  1.47764E+02  1.47254E+02  1.48719E+02
   1.43989E+02  1.40929E+02  1.40824E+02  1.35439E+02  1.35404E+02  1.30025E+02  1.32288E+02  1.29137E+02  1.21523E+02  1.21279E+02
   1.20295E+02  1.15573E+02  1.12691E+02  1.09987E+02  1.06386E+02  1.00052E+02  9.87958E+01  9.60417E+01  9.57702E+01  8.90400E+01
   8.85123E+01  7.83875E+01  7.56745E+01  7.46154E+01  7.47230E+01  7.39629E+01  6.61710E+01  6.74052E+01  6.06517E+01  6.14713E+01
   5.16253E+01  5.31473E+01  4.73276E+01  4.98880E+01  4.65468E+01  4.12995E+01  4.26535E+01  3.78245E+01  4.03918E+01  3.37139E+01
   3.04664E+01  2.82316E+01  2.56758E+01  2.72257E+01  2.46890E+01  1.81658E+01  1.87484E+01  1.51607E+01  1.72885E+01  1.17270E+01
   7.80059E+00  8.70888E+00  8.33390E+00  3.58508E+00 -1.70089E-01 -1.09384E+00 -1.00997E+00 -3.94295E+00 -1.56267E+00 -6.15256E+00
  -4.65179E+00 -7.53917E+00 -7.95089E+00 -1.06756E+01 -1.29839E+01 -1.39783E+01 -1.30940E+01 -1.52242E+01 -1.74440E+01 -1.73425E+01
  -1.75244E+01 -2.14477E+01 -2.04562E+01 -2.17222E+01 -2.19054E+01 -2.29515E+01 -2.45530E+01 -2.76185E+01 -2.50649E+01 -2.65176E+01
  -3.05594E+01 -3.10862E+01 -2.97985E+01 -2.82939E+01 -3.10666E+01 -3.12880E+01 -3.06023E+01 -3.35676E+01 -3.29273E+01 -3.45334E+01
  -3.41155E+01 -3.63284E+01 -3.27017E+01 -3.62983E+01 -3.81074E+01 -3.66508E+01 -3.31841E+01 -3.72342E+01 -4.43698E+01 -3.90937E+01
  -4.06346E+01 -3.69032E+01 -3.92855E+01 -4.05106E+01 -4.31127E+01 -4.01202E+01 -4.26928E+01 -4.29988E+01 -4.03354E+01 -4.41044E+01
  -4.14541E+01 -4.46807E+01 -4.47766E+01 -4.14661E+01 -4.37585E+01 -4.38852E+01 -4.60081E+01 -4.57993E+01
 NY points of the fit to the data follow
  -2.91092E+01 -2.85893E+01 -2.97410E+01 -2.92459E+01 -2.99831E+01 -2.89686E+01 -2.89723E+01 -2.68593E+01 -2.72087E+01 -2.53621E+01
  -2.61957E+01 -2.48931E+01 -2.63875E+01 -2.55859E+01 -2.78121E+01 -2.66158E+01 -2.88480E+01 -2.79705E+01 -2.98714E+01 -2.90316E+01
  -3.04005E+01 -2.90784E+01 -2.95184E+01 -2.78187E+01 -2.75126E+01 -2.66254E+01 -2.62686E+01 -2.61939E+01 -2.58580E+01 -2.67062E+01
  -2.64415E+01 -2.77989E+01 -2.69849E+01 -2.84843E+01 -2.74121E+01 -2.90528E+01 -2.75793E+01 -2.89330E+01 -2.69654E+01 -2.82185E+01
  -2.63483E+01 -2.74573E+01 -2.58094E+01 -2.71874E+01 -2.60480E+01 -2.76838E+01 -2.66606E+01 -2.76415E+01 -2.68407E+01 -2.76395E+01
  -2.69360E+01 -2.75361E+01 -2.70666E+01 -2.77090E+01 -2.76454E+01 -2.78499E+01 -2.76618E+01 -2.77206E+01 -2.75454E+01 -2.75581E+01
  -2.74254E+01 -2.73331E+01 -2.73406E+01 -2.73358E+01 -2.73661E+01 -2.73679E+01 -2.73978E+01 -2.73996E+01 -2.74173E+01 -2.74172E+01
  -2.74290E+01 -2.74278E+01 -2.74347E+01 -2.74305E+01 -2.74307E+01 -2.74291E+01 -2.74292E+01 -2.74326E+01 -2.74384E+01 -2.74471E+01
  -2.74516E+01 -2.74607E+01 -2.74686E+01 -2.74769E+01 -2.74820E+01 -2.74808E+01 -2.74798E+01 -2.74752E+01 -2.74705E+01 -2.74628E+01
  -2.74537E+01 -2.74468E+01 -2.74361E+01 -2.74344E+01 -2.74221E+01 -2.74303E+01 -2.74190E+01 -2.74308E+01 -2.74188E+01 -2.74332E+01
  -2.74173E+01 -2.74290E+01 -2.74097E+01 -2.74193E+01 -2.73979E+01 -2.74057E+01 -2.73820E+01 -2.73861E+01 -2.73562E+01 -2.73564E+01
  -2.73243E+01 -2.73197E+01 -2.72824E+01 -2.72709E+01 -2.72297E+01 -2.72105E+01 -2.71675E+01 -2.71408E+01 -2.70955E+01 -2.70640E+01
  -2.70162E+01 -2.69803E+01 -2.69333E+01 -2.68973E+01 -2.68528E+01 -2.68154E+01 -2.67712E+01 -2.67355E+01 -2.66931E+01 -2.66600E+01
  -2.66209E+01 -2.65923E+01 -2.65579E+01 -2.65344E+01 -2.65041E+01 -2.64850E+01 -2.64593E+01 -2.64437E+01 -2.64214E+01 -2.64073E+01
  -2.63865E+01 -2.63726E+01 -2.63598E+01 -2.63628E+01 -2.63489E+01 -2.63587E+01 -2.63329E+01 -2.63368E+01 -2.63177E+01 -2.63265E+01
  -2.63162E+01 -2.63302E+01 -2.63255E+01 -2.63353E+01 -2.63426E+01 -2.63512E+01 -2.63809E+01 -2.64008E+01 -2.64639E+01 -2.64939E+01
  -2.65617E+01 -2.65976E+01 -2.66688E+01 -2.67224E+01 -2.67934E+01 -2.68548E+01 -2.69129E+01 -2.69739E+01 -2.70194E+01 -2.70961E+01
  -2.71086E+01 -2.71813E+01 -2.71560E+01 -2.72143E+01 -2.71644E+01 -2.72166E+01 -2.71602E+01 -2.72168E+01 -2.71518E+01 -2.72407E+01
  -2.71622E+01 -2.72678E+01 -2.71717E+01 -2.72459E+01 -2.70333E+01 -2.70287E+01 -2.66864E+01 -2.65563E+01 -2.60897E+01 -2.59861E+01
  -2.54423E+01 -2.55198E+01 -2.52304E+01 -2.55036E+01 -2.52121E+01 -2.56098E+01 -2.51575E+01 -2.54753E+01 -2.46080E+01 -2.51190E+01
  -2.39291E+01 -2.46141E+01 -2.30520E+01 -2.40466E+01 -2.24710E+01 -2.38142E+01 -2.20116E+01 -2.36918E+01 -2.20519E+01 -2.38555E+01
  -2.22979E+01 -2.40081E+01 -2.24601E+01 -2.37910E+01 -2.20032E+01 -2.29741E+01 -2.10955E+01 -2.17654E+01 -2.00660E+01 -2.05785E+01
  -1.90625E+01 -1.94336E+01 -1.80778E+01 -1.81887E+01 -1.70732E+01 -1.71787E+01 -1.62298E+01 -1.61328E+01 -1.51792E+01 -1.48676E+01
  -1.37892E+01 -1.34511E+01 -1.24004E+01 -1.21686E+01 -1.10794E+01 -1.08612E+01 -9.77710E+00 -9.41761E+00 -8.18871E+00 -7.75731E+00
  -6.47921E+00 -5.76837E+00 -3.77396E+00 -2.71629E+00 -6.69954E-01  5.87357E-01  2.81491E+00  4.20495E+00  6.54956E+00  8.14279E+00
   1.05238E+01  1.21946E+01  1.43132E+01  1.59618E+01  1.78613E+01  1.95582E+01  2.13283E+01  2.31477E+01  2.50175E+01  2.70005E+01
   2.89601E+01  3.11515E+01  3.32749E+01  3.57411E+01  3.80850E+01  4.07641E+01  4.33550E+01  4.63714E+01  4.93671E+01  5.27972E+01
   5.62181E+01  6.01126E+01  6.40255E+01  6.85054E+01  7.31984E+01  7.84459E+01  8.40018E+01  9.00795E+01  9.64725E+01  1.03355E+02
   1.10548E+02  1.18358E+02  1.26702E+02  1.35564E+02  1.44956E+02  1.54944E+02  1.65523E+02  1.76771E+02  1.88725E+02  2.01462E+02
   2.15031E+02  2.29514E+02  2.44972E+02  2.61485E+02  2.79123E+02  2.97973E+02  3.18078E+02  3.39502E+02  3.62259E+02  3.86367E+02
   4.11791E+02  4.38484E+02  4.66344E+02  4.95259E+02  5.25064E+02  5.55608E+02  5.86747E+02  6.18511E+02  6.51400E+02  6.85150E+02
   7.13254E+02  7.41664E+02  7.62433E+02  7.83399E+02  7.94845E+02  8.05973E+02  8.05470E+02  8.09691E+02  8.01130E+02  7.95599E+02
   7.80171E+02  7.66614E+02  7.46187E+02  7.27207E+02  7.05268E+02  6.84009E+02  6.61021E+02  6.35082E+02  6.10732E+02  5.82605E+02
   5.56189E+02  5.24982E+02  4.97002E+02  4.65857E+02  4.40055E+02  4.10215E+02  3.86230E+02  3.59927E+02  3.39494E+02  3.17007E+02
   3.01406E+02  2.83711E+02  2.71303E+02  2.58331E+02  2.48703E+02  2.39128E+02  2.30488E+02  2.21938E+02  2.14682E+02  2.09724E+02
   2.03240E+02  1.99806E+02  1.94644E+02  1.92868E+02  1.88860E+02  1.86968E+02  1.82299E+02  1.81413E+02  1.78015E+02  1.77328E+02
   1.74559E+02  1.73857E+02  1.71349E+02  1.70705E+02  1.68486E+02  1.67375E+02  1.65372E+02  1.63677E+02  1.62183E+02  1.61073E+02
   1.59575E+02  1.58330E+02  1.56831E+02  1.55339E+02  1.53694E+02  1.51540E+02  1.49648E+02  1.47877E+02  1.46138E+02  1.44402E+02
   1.42646E+02  1.40857E+02  1.39010E+02  1.37091E+02  1.35074E+02  1.32940E+02  1.30667E+02  1.28241E+02  1.25647E+02  1.22883E+02
   1.19944E+02  1.16843E+02  1.13588E+02  1.10206E+02  1.06715E+02  1.03149E+02  9.95349E+01  9.59072E+01  9.22916E+01  8.87207E+01
   8.52139E+01  8.17960E+01  7.84773E+01  7.52727E+01  7.21822E+01  6.92111E+01  6.63508E+01  6.35990E+01  6.09409E+01  5.83697E+01
   5.58676E+01  5.34264E+01  5.10285E+01  4.86670E+01  4.63265E+01  4.40031E+01  4.16850E+01  3.93722E+01  3.70568E+01  3.47426E+01
   3.24254E+01  3.01121E+01  2.78011E+01  2.55018E+01  2.32142E+01  2.09487E+01  1.87059E+01  1.64965E+01  1.43210E+01  1.21894E+01
   1.01014E+01  8.06583E+00  6.08127E+00  4.15536E+00  2.28537E+00  4.77675E-01 -1.27175E+00 -2.95766E+00 -4.58512E+00 -6.14978E+00
  -7.65753E+00 -9.10471E+00 -1.04978E+01 -1.18336E+01 -1.31190E+01 -1.43510E+01 -1.55366E+01 -1.66731E+01 -1.77673E+01 -1.88166E+01
  -1.98280E+01 -2.07984E+01 -2.17348E+01 -2.26342E+01 -2.35033E+01 -2.43388E+01 -2.51475E+01 -2.59258E+01 -2.66802E+01 -2.74073E+01
  -2.81132E+01 -2.87943E+01 -2.94566E+01 -3.00965E+01 -3.07197E+01 -3.13225E+01 -3.19106E+01 -3.24800E+01 -3.30365E+01 -3.35758E+01
  -3.41036E+01 -3.46157E+01 -3.51177E+01 -3.56052E+01 -3.60836E+01 -3.65487E+01 -3.70059E+01 -3.74506E+01 -3.78882E+01 -3.83143E+01
  -3.87342E+01 -3.91433E+01 -3.95469E+01 -3.99403E+01 -4.03290E+01 -4.07080E+01 -4.10828E+01 -4.14487E+01 -4.18107E+01 -4.21642E+01
  -4.25143E+01 -4.28563E+01 -4.31954E+01 -4.35265E+01 -4.38550E+01 -4.41758E+01 -4.44940E+01 -4.48046E+01
 NY background values follow
    -2.384E+01   -2.383E+01   -2.382E+01   -2.381E+01   -2.380E+01   -2.379E+01   -2.378E+01   -2.377E+01   -2.376E+01   -2.375E+01
    -2.374E+01   -2.373E+01   -2.372E+01   -2.371E+01   -2.370E+01   -2.369E+01   -2.369E+01   -2.368E+01   -2.367E+01   -2.366E+01
    -2.365E+01   -2.364E+01   -2.363E+01   -2.363E+01   -2.362E+01   -2.361E+01   -2.360E+01   -2.360E+01   -2.359E+01   -2.358E+01
    -2.357E+01   -2.357E+01   -2.356E+01   -2.355E+01   -2.355E+01   -2.354E+01   -2.354E+01   -2.353E+01   -2.353E+01   -2.352E+01
    -2.351E+01   -2.351E+01   -2.351E+01   -2.350E+01   -2.350E+01   -2.349E+01   -2.349E+01   -2.349E+01   -2.348E+01   -2.348E+01
    -2.348E+01   -2.348E+01   -2.347E+01   -2.347E+01   -2.347E+01   -2.347E+01   -2.347E+01   -2.347E+01   -2.347E+01   -2.347E+01
    -2.347E+01   -2.347E+01   -2.347E+01   -2.347E+01   -2.348E+01   -2.348E+01   -2.348E+01   -2.348E+01   -2.349E+01   -2.349E+01
    -2.349E+01   -2.350E+01   -2.350E+01   -2.351E+01   -2.351E+01   -2.352E+01   -2.353E+01   -2.353E+01   -2.354E+01   -2.355E+01
    -2.356E+01   -2.357E+01   -2.357E+01   -2.358E+01   -2.359E+01   -2.360E+01   -2.361E+01   -2.363E+01   -2.364E+01   -2.365E+01
    -2.366E+01   -2.367E+01   -2.369E+01   -2.370E+01   -2.372E+01   -2.373E+01   -2.375E+01   -2.376E+01   -2.378E+01   -2.380E+01
    -2.381E+01   -2.383E+01   -2.385E+01   -2.387E+01   -2.389E+01   -2.391E+01   -2.393E+01   -2.395E+01   -2.397E+01   -2.399E+01
    -2.402E+01   -2.404E+01   -2.406E+01   -2.409E+01   -2.411E+01   -2.414E+01   -2.416E+01   -2.419E+01   -2.421E+01   -2.424E+01
    -2.427E+01   -2.430E+01   -2.432E+01   -2.435E+01   -2.438E+01   -2.441E+01   -2.444E+01   -2.447E+01   -2.450E+01   -2.453E+01
    -2.457E+01   -2.460E+01   -2.463E+01   -2.466E+01   -2.470E+01   -2.473E+01   -2.476E+01   -2.480E+01   -2.483E+01   -2.487E+01
    -2.491E+01   -2.494E+01   -2.498E+01   -2.501E+01   -2.505E+01   -2.509E+01   -2.513E+01   -2.517E+01   -2.521E+01   -2.524E+01
    -2.528E+01   -2.532E+01   -2.536E+01   -2.541E+01   -2.545E+01   -2.549E+01   -2.553E+01   -2.557E+01   -2.561E+01   -2.566E+01
    -2.570E+01   -2.574E+01   -2.579E+01   -2.583E+01   -2.587E+01   -2.592E+01   -2.596E+01   -2.601E+01   -2.606E+01   -2.610E+01
    -2.615E+01   -2.619E+01   -2.624E+01   -2.629E+01   -2.634E+01   -2.638E+01   -2.643E+01   -2.648E+01   -2.653E+01   -2.658E+01
    -2.663E+01   -2.667E+01   -2.672E+01   -2.677E+01   -2.682E+01   -2.687E+01   -2.692E+01   -2.698E+01   -2.703E+01   -2.708E+01
    -2.713E+01   -2.718E+01   -2.723E+01   -2.729E+01   -2.734E+01   -2.739E+01   -2.744E+01   -2.750E+01   -2.755E+01   -2.760E+01
    -2.766E+01   -2.771E+01   -2.777E+01   -2.782E+01   -2.787E+01   -2.793E+01   -2.798E+01   -2.804E+01   -2.809E+01   -2.815E+01
    -2.821E+01   -2.826E+01   -2.832E+01   -2.838E+01   -2.843E+01   -2.849E+01   -2.855E+01   -2.860E+01   -2.866E+01   -2.872E+01
    -2.878E+01   -2.884E+01   -2.889E+01   -2.895E+01   -2.901E+01   -2.907E+01   -2.913E+01   -2.919E+01   -2.925E+01   -2.931E+01
    -2.937E+01   -2.943E+01   -2.949E+01   -2.956E+01   -2.962E+01   -2.968E+01   -2.974E+01   -2.980E+01   -2.987E+01   -2.993E+01
    -2.999E+01   -3.005E+01   -3.012E+01   -3.018E+01   -3.025E+01   -3.031E+01   -3.038E+01   -3.044E+01   -3.051E+01   -3.057E+01
    -3.064E+01   -3.070E+01   -3.077E+01   -3.084E+01   -3.090E+01   -3.097E+01   -3.104E+01   -3.111E+01   -3.117E+01   -3.124E+01
    -3.131E+01   -3.138E+01   -3.145E+01   -3.152E+01   -3.159E+01   -3.166E+01   -3.173E+01   -3.180E+01   -3.187E+01   -3.194E+01
    -3.201E+01   -3.209E+01   -3.216E+01   -3.223E+01   -3.230E+01   -3.238E+01   -3.245E+01   -3.252E+01   -3.260E+01   -3.267E+01
    -3.275E+01   -3.282E+01   -3.290E+01   -3.297E+01   -3.305E+01   -3.312E+01   -3.320E+01   -3.328E+01   -3.336E+01   -3.343E+01
    -3.351E+01   -3.359E+01   -3.367E+01   -3.375E+01   -3.383E+01   -3.391E+01   -3.399E+01   -3.407E+01   -3.415E+01   -3.423E+01
    -3.431E+01   -3.439E+01   -3.447E+01   -3.455E+01   -3.464E+01   -3.472E+01   -3.480E+01   -3.489E+01   -3.497E+01   -3.506E+01
    -3.514E+01   -3.523E+01   -3.531E+01   -3.540E+01   -3.548E+01   -3.557E+01   -3.566E+01   -3.574E+01   -3.583E+01   -3.592E+01
    -3.601E+01   -3.610E+01   -3.618E+01   -3.627E+01   -3.636E+01   -3.645E+01   -3.654E+01   -3.663E+01   -3.672E+01   -3.682E+01
    -3.691E+01   -3.700E+01   -3.709E+01   -3.718E+01   -3.728E+01   -3.737E+01   -3.746E+01   -3.756E+01   -3.765E+01   -3.775E+01
    -3.784E+01   -3.794E+01   -3.803E+01   -3.813E+01   -3.822E+01   -3.832E+01   -3.842E+01   -3.852E+01   -3.861E+01   -3.871E+01
    -3.881E+01   -3.891E+01   -3.901E+01   -3.911E+01   -3.921E+01   -3.931E+01   -3.941E+01   -3.951E+01   -3.961E+01   -3.971E+01
    -3.981E+01   -3.991E+01   -4.002E+01   -4.012E+01   -4.022E+01   -4.032E+01   -4.043E+01   -4.053E+01   -4.064E+01   -4.074E+01
    -4.085E+01   -4.095E+01   -4.106E+01   -4.116E+01   -4.127E+01   -4.138E+01   -4.148E+01   -4.159E+01   -4.170E+01   -4.181E+01
    -4.191E+01   -4.202E+01   -4.213E+01   -4.224E+01   -4.235E+01   -4.246E+01   -4.257E+01   -4.268E+01   -4.279E+01   -4.291E+01
    -4.302E+01   -4.313E+01   -4.324E+01   -4.335E+01   -4.347E+01   -4.358E+01   -4.369E+01   -4.381E+01   -4.392E+01   -4.404E+01
    -4.415E+01   -4.427E+01   -4.438E+01   -4.450E+01   -4.462E+01   -4.473E+01   -4.485E+01   -4.497E+01   -4.508E+01   -4.520E+01
    -4.532E+01   -4.544E+01   -4.556E+01   -4.568E+01   -4.579E+01   -4.591E+01   -4.603E+01   -4.615E+01   -4.627E+01   -4.640E+01
    -4.652E+01   -4.664E+01   -4.676E+01   -4.688E+01   -4.700E+01   -4.713E+01   -4.725E+01   -4.737E+01   -4.749E+01   -4.762E+01
    -4.774E+01   -4.786E+01   -4.799E+01   -4.811E+01   -4.824E+01   -4.836E+01   -4.849E+01   -4.861E+01   -4.874E+01   -4.886E+01
    -4.899E+01   -4.912E+01   -4.924E+01   -4.937E+01   -4.950E+01   -4.962E+01   -4.975E+01   -4.988E+01   -5.000E+01   -5.013E+01
    -5.026E+01   -5.039E+01   -5.052E+01   -5.065E+01   -5.077E+01   -5.090E+01   -5.103E+01   -5.116E+01   -5.129E+01   -5.142E+01
    -5.155E+01   -5.168E+01   -5.181E+01   -5.194E+01   -5.207E+01   -5.220E+01   -5.233E+01   -5.246E+01   -5.259E+01   -5.272E+01
    -5.286E+01   -5.299E+01   -5.312E+01   -5.325E+01   -5.338E+01   -5.351E+01   -5.365E+01   -5.378E+01   -5.391E+01   -5.404E+01
    -5.418E+01   -5.431E+01   -5.444E+01   -5.457E+01   -5.471E+01   -5.484E+01   -5.497E+01   -5.511E+01   -5.524E+01   -5.537E+01
    -5.551E+01   -5.564E+01   -5.578E+01   -5.591E+01   -5.604E+01   -5.618E+01   -5.631E+01   -5.645E+01
 Ala      Conc. = 1.57E+04
