 LCModel (Version 6.3-1L) Copyright: S.W. Provencher.          Ref.: Magn. Reson. Med. 30:672-679 (1993).                
 Slice#3 Row#12 Col#12  K_02_press_1_raw_act
 36 lines in following concentration table = NCONC+1
    Conc.  %SD /Cr+PCr  Metabolite                                         
    0.000 999%   0.000 Ala                                                 
    6.044 131%   0.000 Asp                                                 
    0.000 999%   0.000 Cr                                                  
    0.000 999%   0.000 PCr                                                 
    3.290 145%   0.000 GABA                                                
    3.300 144%   0.000 Glc                                                 
  255.531 176%   0.000 Gln                                                 
  437.237 122%   0.000 Glu                                                 
   37.723  47%   0.000 GPC                                                 
    0.000 999%   0.000 PCh                                                 
    0.000 999%   0.000 GSH                                                 
  583.160  33%   0.000 Ins                                                 
    0.000 999%   0.000 Lac                                                 
    0.000 999%   0.000 NAA                                                 
    0.000 999%   0.000 NAAG                                                
    1.139 138%   0.000 Scyllo                                              
    5.354 146%   0.000 Tau                                                 
    0.000 999%   0.000 -CrCH2                                              
   37.723  47%   0.000 GPC+PCh                                             
    0.000 999%   0.000 NAA+NAAG                                            
    0.000 999%   0.000 Cr+PCr                                              
  692.768 114%   0.000 Glu+Gln                                             
    0.000 999%   0.000 Lip13a                                              
  221.862  35%   0.000 Lip13b                                              
   59.106  35%   0.000 Lip09                                               
    0.000 999%   0.000 MM09                                                
   33.292  35%   0.000 Lip20                                               
 4.32E+03   6%   0.000+MM20                                                
    0.000 999%   0.000 MM12                                                
 3.58E+03   4%   0.000+MM14                                                
 1.37E+03  12%   0.000 MM17                                                
  221.862  35%   0.000 Lip13a+Lip13b                                       
 3.80E+03   5%   0.000 MM14+Lip13a+Lip13b+MM12                             
   59.106  35%   0.000 MM09+Lip09                                          
 4.35E+03   6%   0.000 MM20+Lip20                                          
   6 lines in following misc. output table
  FWHM = 0.153 ppm    S/N =   8                                            
  Data shift = 0.076 ppm                                                   
  Ph: 127 deg      55.6 deg/ppm                                            
  alphaB,S = 3.0E+00,   1.5E+02                                            
    6 spline knots.   Ns = 9(2)                                            
  (12) 2 infls.   ( 8) 1 extrs.                                            
  498 points on ppm-axis = NY
      4.000000     3.992357     3.984714     3.977070     3.969427     3.961784     3.954141     3.946497     3.938854     3.931211
      3.923568     3.915925     3.908281     3.900638     3.892995     3.885352     3.877708     3.870065     3.862422     3.854779
      3.847136     3.839492     3.831849     3.824206     3.816563     3.808919     3.801276     3.793633     3.785990     3.778347
      3.770703     3.763060     3.755417     3.747774     3.740130     3.732487     3.724844     3.717201     3.709558     3.701914
      3.694271     3.686628     3.678985     3.671341     3.663698     3.656055     3.648412     3.640769     3.633125     3.625482
      3.617839     3.610196     3.602552     3.594909     3.587266     3.579623     3.571980     3.564336     3.556693     3.549050
      3.541407     3.533763     3.526120     3.518477     3.510834     3.503191     3.495547     3.487904     3.480261     3.472618
      3.464974     3.457331     3.449688     3.442045     3.434402     3.426758     3.419115     3.411472     3.403829     3.396185
      3.388542     3.380899     3.373256     3.365613     3.357969     3.350326     3.342683     3.335040     3.327396     3.319753
      3.312110     3.304467     3.296824     3.289180     3.281537     3.273894     3.266251     3.258607     3.250964     3.243321
      3.235678     3.228034     3.220391     3.212748     3.205105     3.197462     3.189818     3.182175     3.174532     3.166889
      3.159245     3.151602     3.143959     3.136316     3.128673     3.121029     3.113386     3.105743     3.098100     3.090456
      3.082813     3.075170     3.067527     3.059884     3.052240     3.044597     3.036954     3.029311     3.021667     3.014024
      3.006381     2.998738     2.991095     2.983451     2.975808     2.968165     2.960522     2.952878     2.945235     2.937592
      2.929949     2.922306     2.914662     2.907019     2.899376     2.891733     2.884089     2.876446     2.868803     2.861160
      2.853517     2.845873     2.838230     2.830587     2.822944     2.815300     2.807657     2.800014     2.792371     2.784728
      2.777084     2.769441     2.761798     2.754155     2.746511     2.738868     2.731225     2.723582     2.715939     2.708295
      2.700652     2.693009     2.685366     2.677722     2.670079     2.662436     2.654793     2.647150     2.639506     2.631863
      2.624220     2.616577     2.608933     2.601290     2.593647     2.586004     2.578361     2.570717     2.563074     2.555431
      2.547788     2.540144     2.532501     2.524858     2.517215     2.509572     2.501928     2.494285     2.486642     2.478999
      2.471355     2.463712     2.456069     2.448426     2.440783     2.433139     2.425496     2.417853     2.410210     2.402566
      2.394923     2.387280     2.379637     2.371994     2.364350     2.356707     2.349064     2.341421     2.333777     2.326134
      2.318491     2.310848     2.303205     2.295561     2.287918     2.280275     2.272632     2.264988     2.257345     2.249702
      2.242059     2.234416     2.226772     2.219129     2.211486     2.203843     2.196199     2.188556     2.180913     2.173270
      2.165627     2.157983     2.150340     2.142697     2.135054     2.127410     2.119767     2.112124     2.104481     2.096838
      2.089194     2.081551     2.073908     2.066265     2.058621     2.050978     2.043335     2.035692     2.028049     2.020405
      2.012762     2.005119     1.997476     1.989833     1.982190     1.974546     1.966903     1.959260     1.951617     1.943974
      1.936331     1.928688     1.921045     1.913402     1.905759     1.898115     1.890472     1.882829     1.875186     1.867543
      1.859900     1.852257     1.844614     1.836971     1.829327     1.821684     1.814041     1.806398     1.798755     1.791112
      1.783469     1.775826     1.768183     1.760540     1.752896     1.745253     1.737610     1.729967     1.722324     1.714681
      1.707038     1.699395     1.691752     1.684108     1.676465     1.668822     1.661179     1.653536     1.645893     1.638250
      1.630607     1.622964     1.615321     1.607677     1.600034     1.592391     1.584748     1.577105     1.569462     1.561819
      1.554176     1.546533     1.538890     1.531246     1.523603     1.515960     1.508317     1.500674     1.493031     1.485388
      1.477745     1.470102     1.462458     1.454815     1.447172     1.439529     1.431886     1.424243     1.416600     1.408957
      1.401314     1.393671     1.386027     1.378384     1.370741     1.363098     1.355455     1.347812     1.340169     1.332526
      1.324883     1.317240     1.309596     1.301953     1.294310     1.286667     1.279024     1.271381     1.263738     1.256095
      1.248452     1.240808     1.233165     1.225522     1.217879     1.210236     1.202593     1.194950     1.187307     1.179664
      1.172021     1.164377     1.156734     1.149091     1.141448     1.133805     1.126162     1.118519     1.110876     1.103233
      1.095590     1.087946     1.080303     1.072660     1.065017     1.057374     1.049731     1.042088     1.034445     1.026802
      1.019158     1.011515     1.003872     0.996229     0.988586     0.980943     0.973300     0.965657     0.958014     0.950371
      0.942727     0.935084     0.927441     0.919798     0.912155     0.904512     0.896869     0.889226     0.881583     0.873940
      0.866296     0.858653     0.851010     0.843367     0.835724     0.828081     0.820438     0.812795     0.805152     0.797508
      0.789865     0.782222     0.774579     0.766936     0.759293     0.751650     0.744007     0.736364     0.728721     0.721077
      0.713434     0.705791     0.698148     0.690505     0.682862     0.675219     0.667576     0.659933     0.652290     0.644646
      0.637003     0.629360     0.621717     0.614074     0.606431     0.598788     0.591145     0.583502     0.575858     0.568215
      0.560572     0.552929     0.545286     0.537643     0.530000     0.522357     0.514714     0.507071     0.499427     0.491784
      0.484141     0.476498     0.468855     0.461212     0.453569     0.445925     0.438282     0.430639     0.422996     0.415353
      0.407710     0.400067     0.392424     0.384780     0.377137     0.369494     0.361851     0.354208     0.346565     0.338922
      0.331278     0.323635     0.315992     0.308349     0.300706     0.293063     0.285420     0.277777     0.270133     0.262490
      0.254847     0.247204     0.239561     0.231918     0.224275     0.216631     0.208988     0.201345
 NY phased data points follow
   3.33189E+00  2.16118E+00  2.76657E+00  3.44670E-01  4.10409E+00  1.87998E+00  2.70345E+00  2.09628E+00  9.65225E-01  3.51521E-01
  -9.52246E-01  1.25775E+00  4.00067E-01  2.68794E+00  2.93332E+00  2.60907E+00  3.59965E-01  1.71698E+00 -9.61528E-02  4.29328E+00
   2.57678E+00  2.39066E+00  2.66574E-01  1.52235E+00  1.16132E+00  3.53385E+00  7.10140E-01  1.09020E+00  1.33765E+00  6.90598E-01
   6.66224E-01  1.44614E+00  8.38081E-01  4.49770E+00  2.93463E+00  1.81788E+00  1.46802E+00  2.88280E+00  3.08156E+00  3.57384E+00
   3.89063E+00  2.71912E+00  1.40277E+00  5.54492E+00  4.08708E+00  2.22789E+00  1.24359E+00  1.53086E+00  3.84257E+00  5.49273E+00
   2.41368E+00  5.15171E+00  2.60192E+00  3.35123E+00  3.53827E+00  4.28178E+00  3.20278E+00  4.49717E+00  1.80573E+00  2.99204E+00
   3.69139E+00  2.86670E+00  3.95493E+00  1.07459E+00  2.17870E+00  2.17127E+00  3.01113E+00  3.94882E+00  2.39369E+00  2.07371E+00
   2.78429E+00  3.84364E+00  2.40340E+00  1.51011E+00  1.44808E+00  1.03554E+00  1.97500E+00  1.27357E+00  2.63486E+00  2.09546E+00
   4.93514E+00  7.27945E-01  2.27820E+00  5.14756E+00  3.43536E+00  1.93490E+00  2.75210E+00  2.54761E+00  1.67253E+00  3.78229E+00
   2.35646E+00  3.10790E-01  1.36673E+00  3.02889E+00  4.19423E+00  5.64749E+00  3.21364E+00  5.43952E+00  5.49330E+00  4.59285E+00
   4.58008E+00  5.64299E+00  3.92794E+00  3.67928E+00  4.46547E+00  4.91554E+00  2.92494E+00  2.84083E+00  4.93961E+00  3.07048E+00
   2.39734E+00  2.43374E+00  2.86072E+00  3.70061E+00  4.04334E+00  2.79424E+00  1.48600E+00  2.85162E+00  3.97131E+00  7.61883E+00
   4.48030E+00  6.13543E+00  6.75064E+00  4.56200E+00  6.99237E+00  7.28918E+00  3.83280E+00  5.11149E+00  2.46279E+00  3.37777E+00
   4.93148E+00  4.54923E+00  4.48323E+00  2.75742E+00  4.73437E+00  5.48965E+00  4.56174E+00  4.70985E+00  1.13339E+00  3.13050E+00
   5.68262E+00  4.11829E+00  1.40134E+00  5.25004E+00  2.73627E+00  3.32121E+00  1.77390E+00  2.86509E+00  3.19044E+00  5.08182E+00
   2.90938E-02  3.18876E+00  3.03772E+00  2.01255E+00  2.00979E+00  2.80539E+00  2.05541E+00  2.83589E+00  2.90107E+00  2.32478E+00
   5.14774E+00  2.27056E+00  2.58962E+00  4.68679E+00  4.12292E+00  3.16142E+00  2.16726E+00  2.48194E+00  2.10026E+00  2.40624E+00
   2.48289E+00  2.78586E+00  1.28486E+00  2.55497E+00  3.15856E+00 -5.97380E-01  4.17538E+00  4.20319E+00  1.46958E+00  4.42750E+00
   2.70855E+00  3.64250E+00  3.96732E+00  4.84977E+00  3.61838E+00  2.04935E+00  1.56119E+00  2.06624E+00  9.71691E-01  6.65464E-01
   9.16383E-01  1.94724E-01  2.54056E+00  2.03583E+00  3.01356E+00  1.41541E+00  2.82703E+00  1.75043E+00  3.77206E+00  1.77397E+00
   4.22756E+00  1.99815E+00  2.37564E+00  3.36249E+00  2.85403E+00  3.59205E+00  2.65600E+00  5.22958E+00  3.95589E+00  4.86768E+00
   3.52524E+00  5.02666E+00  4.99520E+00  6.59219E+00  2.23429E+00  4.59547E+00  3.49324E+00  6.69781E+00  6.09113E+00  5.62378E+00
   3.65301E+00  5.33287E+00  5.04612E+00  4.65288E+00  5.53457E+00  4.23981E+00  5.55667E+00  6.74481E+00  6.83104E+00  7.66161E+00
   8.64200E+00  6.59129E+00  6.26192E+00  7.04940E+00  7.14521E+00  8.28670E+00  6.59651E+00  6.38414E+00  7.22341E+00  9.58560E+00
   9.68049E+00  1.15255E+01  9.13894E+00  1.07170E+01  9.64233E+00  1.07179E+01  9.99656E+00  9.77687E+00  1.10439E+01  1.11611E+01
   1.46070E+01  1.19731E+01  1.39423E+01  1.11566E+01  1.20529E+01  7.50606E+00  6.19115E+00  9.91704E+00  1.04269E+01  8.43392E+00
   8.02005E+00  6.63537E+00  7.77295E+00  7.64676E+00  4.73826E+00  2.99346E+00  5.65528E+00  4.21987E+00  2.78705E+00  5.65508E+00
   4.41394E+00  6.84144E+00  3.48707E+00  2.77129E+00  1.31029E+00  2.48065E+00  2.40177E+00  6.80626E-01  9.36736E-01  3.25659E+00
   1.46185E+00  2.80768E+00 -4.79739E-01 -2.26553E-01  2.79316E-01 -1.52842E+00  1.78205E-03  1.02435E+00 -3.07342E+00 -2.19299E-01
  -1.38555E+00 -4.31031E+00 -3.23904E+00 -3.77093E+00 -3.45791E+00 -4.01632E+00 -3.97288E+00 -4.87363E+00 -6.19663E+00 -4.79788E+00
  -8.84059E+00 -7.35732E+00 -7.66736E+00 -6.39729E+00 -6.01802E+00 -6.93130E+00 -6.20452E+00 -7.68878E+00 -6.56465E+00 -5.16523E+00
  -6.40515E+00 -6.10543E+00 -5.70974E+00 -1.59739E+00 -1.57988E+00 -1.82527E+00  2.17668E-01  3.11847E+00  1.90707E+00  3.98875E+00
   6.72016E+00  5.22100E+00  7.17534E+00  1.00745E+01  1.02654E+01  1.09802E+01  1.57371E+01  1.41732E+01  1.65745E+01  1.91393E+01
   2.26461E+01  2.14434E+01  2.33649E+01  2.03757E+01  2.24433E+01  2.36490E+01  2.34059E+01  2.46792E+01  2.28048E+01  2.41307E+01
   2.43095E+01  2.13359E+01  2.04656E+01  1.88879E+01  1.94217E+01  1.86535E+01  1.81106E+01  1.41038E+01  1.24645E+01  1.11462E+01
   1.06994E+01  8.42733E+00  7.63402E+00  3.53242E+00  2.90873E+00  1.96547E+00  3.66732E+00  1.97533E+00  2.10781E+00 -8.49403E-01
  -2.21527E+00 -2.28580E+00 -3.80392E+00 -7.00606E+00 -5.33665E+00 -5.60848E+00 -7.51747E+00 -9.77570E+00 -7.01817E+00 -8.08061E+00
  -8.75725E+00 -7.68537E+00 -7.52698E+00 -7.44597E+00 -8.91900E+00 -7.82177E+00 -9.42014E+00 -1.14868E+01 -1.04441E+01 -1.01780E+01
  -9.99660E+00 -9.45640E+00 -7.24670E+00 -1.02998E+01 -1.12900E+01 -1.11247E+01 -1.20218E+01 -1.09675E+01 -1.08491E+01 -1.03979E+01
  -1.02488E+01 -1.05656E+01 -1.02264E+01 -8.85559E+00 -1.04500E+01 -7.82583E+00 -7.46452E+00 -8.13424E+00 -8.33220E+00 -8.76977E+00
  -8.60287E+00 -8.50566E+00 -8.63391E+00 -1.00355E+01 -9.79060E+00 -6.33897E+00 -8.14563E+00 -1.02499E+01 -7.80150E+00 -7.92383E+00
  -6.89667E+00 -7.36410E+00 -6.90316E+00 -6.44787E+00 -6.53960E+00 -7.17883E+00 -9.58103E+00 -7.35414E+00 -4.61713E+00 -5.70907E+00
  -5.60205E+00 -7.26692E+00 -6.72197E+00 -6.23788E+00 -7.57194E+00 -6.60860E+00 -6.68444E+00 -6.53834E+00 -6.07906E+00 -4.54297E+00
  -2.69820E+00 -6.75895E+00 -2.87435E+00 -5.06950E+00 -5.79821E+00 -5.36166E+00 -7.08607E+00 -6.74196E+00 -6.60513E+00 -4.85395E+00
  -5.11129E+00 -5.97725E+00 -5.98580E+00 -5.06550E+00 -4.78258E+00 -4.36477E+00 -4.98090E+00 -2.88244E+00 -4.76026E+00 -3.65348E+00
  -4.75243E+00 -5.17812E+00 -4.66171E+00 -3.58297E+00 -5.71034E+00 -4.54266E+00 -2.74655E+00 -3.50603E+00 -2.17206E+00 -2.67493E+00
  -3.65150E+00 -2.03216E+00 -3.55338E+00 -4.57772E+00 -4.09673E+00 -2.53018E+00 -2.67651E+00 -3.60362E+00 -4.69701E+00 -3.47854E+00
  -2.50865E+00 -3.27932E+00 -3.24975E+00 -4.67643E+00 -3.07926E+00 -4.63586E-01 -3.74225E+00 -1.95679E+00 -2.97694E+00 -3.70725E+00
  -2.89022E+00 -3.62468E+00 -2.22314E+00 -4.23913E+00 -5.04171E+00 -3.76335E+00 -2.56216E+00 -5.85587E-01 -4.81740E+00 -3.27626E+00
  -8.21029E-01 -2.04934E+00 -4.04913E+00 -1.32485E+00 -2.06351E+00 -3.77382E+00 -9.97091E-01 -2.26361E+00
 NY points of the fit to the data follow
   2.02833E+00  1.94385E+00  1.86568E+00  1.78212E+00  1.70787E+00  1.63232E+00  1.57064E+00  1.51066E+00  1.46144E+00  1.42088E+00
   1.37116E+00  1.34898E+00  1.29805E+00  1.30128E+00  1.26717E+00  1.31362E+00  1.29566E+00  1.37461E+00  1.36598E+00  1.46570E+00
   1.45530E+00  1.56464E+00  1.54903E+00  1.66681E+00  1.64141E+00  1.76397E+00  1.71969E+00  1.84375E+00  1.79059E+00  1.95005E+00
   1.93084E+00  2.12735E+00  2.13332E+00  2.34833E+00  2.36774E+00  2.57956E+00  2.59837E+00  2.78963E+00  2.80490E+00  2.96198E+00
   2.96650E+00  3.09036E+00  3.09142E+00  3.18622E+00  3.18958E+00  3.24955E+00  3.25340E+00  3.27472E+00  3.27558E+00  3.25550E+00
   3.25108E+00  3.19373E+00  3.19607E+00  3.11716E+00  3.14972E+00  3.05902E+00  3.11612E+00  3.01422E+00  3.08843E+00  2.97397E+00
   3.06234E+00  2.93703E+00  3.03615E+00  2.90882E+00  3.01574E+00  2.89384E+00  3.00505E+00  2.89875E+00  3.01557E+00  2.92145E+00
   3.03196E+00  2.91818E+00  2.99606E+00  2.85396E+00  2.90439E+00  2.74499E+00  2.78115E+00  2.61750E+00  2.65503E+00  2.49944E+00
   2.54111E+00  2.40243E+00  2.45443E+00  2.33746E+00  2.42072E+00  2.36688E+00  2.45376E+00  2.47435E+00  2.54727E+00  2.65229E+00
   2.69845E+00  2.88807E+00  2.89789E+00  3.16217E+00  3.12635E+00  3.44273E+00  3.35067E+00  3.69279E+00  3.55130E+00  3.90245E+00
   3.72575E+00  4.07362E+00  3.87911E+00  4.21362E+00  4.01143E+00  4.31702E+00  4.11924E+00  4.38446E+00  4.20691E+00  4.42905E+00
   4.28464E+00  4.47254E+00  4.37290E+00  4.53546E+00  4.48040E+00  4.61856E+00  4.60527E+00  4.71949E+00  4.74198E+00  4.83532E+00
   4.88179E+00  4.95755E+00  5.02223E+00  5.08908E+00  5.16497E+00  5.23121E+00  5.28749E+00  5.33272E+00  5.36558E+00  5.38593E+00
   5.39342E+00  5.38772E+00  5.36968E+00  5.33861E+00  5.29636E+00  5.24192E+00  5.17788E+00  5.10318E+00  5.02064E+00  4.92970E+00
   4.83281E+00  4.73007E+00  4.62343E+00  4.51371E+00  4.40205E+00  4.28979E+00  4.17723E+00  4.06622E+00  3.95616E+00  3.84960E+00
   3.74460E+00  3.64463E+00  3.54639E+00  3.45428E+00  3.36371E+00  3.27994E+00  3.19733E+00  3.12186E+00  3.04702E+00  2.97927E+00
   2.91149E+00  2.85063E+00  2.78911E+00  2.73407E+00  2.67798E+00  2.62782E+00  2.57665E+00  2.53067E+00  2.48368E+00  2.44127E+00
   2.39789E+00  2.35846E+00  2.31834E+00  2.28151E+00  2.24425E+00  2.20862E+00  2.17072E+00  2.13594E+00  2.09156E+00  2.05713E+00
   2.00537E+00  1.97315E+00  1.91629E+00  1.89584E+00  1.84297E+00  1.84009E+00  1.79461E+00  1.81789E+00  1.78194E+00  1.82718E+00
   1.79026E+00  1.84555E+00  1.77405E+00  1.84509E+00  1.73803E+00  1.83147E+00  1.69634E+00  1.82878E+00  1.69951E+00  1.88304E+00
   1.75585E+00  1.98970E+00  1.86319E+00  2.13314E+00  1.98754E+00  2.26342E+00  2.10283E+00  2.38761E+00  2.21618E+00  2.50910E+00
   2.33697E+00  2.64113E+00  2.48810E+00  2.80182E+00  2.68046E+00  3.00350E+00  2.91985E+00  3.24399E+00  3.18504E+00  3.51091E+00
   3.48329E+00  3.81992E+00  3.83688E+00  4.19407E+00  4.26064E+00  4.62475E+00  4.73921E+00  5.10423E+00  5.26081E+00  5.61133E+00
   5.80942E+00  6.14388E+00  6.38574E+00  6.71451E+00  7.02122E+00  7.35406E+00  7.72804E+00  8.06814E+00  8.49360E+00  8.82389E+00
   9.25190E+00  9.54179E+00  9.94445E+00  1.01728E+01  1.05245E+01  1.06771E+01  1.09685E+01  1.10443E+01  1.12470E+01  1.12295E+01
   1.13218E+01  1.11995E+01  1.11665E+01  1.09387E+01  1.07766E+01  1.04559E+01  1.01760E+01  9.78204E+00  9.40109E+00  8.96069E+00
   8.50963E+00  8.04332E+00  7.54573E+00  7.06548E+00  6.54021E+00  6.05119E+00  5.51761E+00  5.03433E+00  4.50642E+00  4.03533E+00
   3.52511E+00  3.07222E+00  2.58545E+00  2.15450E+00  1.69665E+00  1.29178E+00  8.66693E-01  4.87647E-01  9.52586E-02 -2.58775E-01
  -6.17260E-01 -9.45917E-01 -1.26587E+00 -1.56475E+00 -1.84755E+00 -2.11734E+00 -2.36685E+00 -2.60872E+00 -2.83158E+00 -3.04697E+00
  -3.24563E+00 -3.43767E+00 -3.61506E+00 -3.78580E+00 -3.94382E+00 -4.09419E+00 -4.23257E+00 -4.36271E+00 -4.48137E+00 -4.58988E+00
  -4.68525E+00 -4.76656E+00 -4.83009E+00 -4.87277E+00 -4.88874E+00 -4.87293E+00 -4.81733E+00 -4.71454E+00 -4.55456E+00 -4.32814E+00
  -4.02414E+00 -3.63280E+00 -3.14346E+00 -2.54804E+00 -1.83887E+00 -1.01192E+00 -6.50496E-02  9.99550E-01  2.17684E+00  3.45747E+00
   4.82913E+00  6.27608E+00  7.78046E+00  9.32251E+00  1.08817E+01  1.24371E+01  1.39685E+01  1.54561E+01  1.68815E+01  1.82269E+01
   1.94757E+01  2.06113E+01  2.16176E+01  2.24785E+01  2.31775E+01  2.36985E+01  2.40263E+01  2.41469E+01  2.40492E+01  2.37257E+01
   2.31743E+01  2.23990E+01  2.14114E+01  2.02308E+01  1.88847E+01  1.74079E+01  1.58411E+01  1.42278E+01  1.26114E+01  1.10307E+01
   9.51590E+00  8.08521E+00  6.74354E+00  5.48316E+00  4.28698E+00  3.13380E+00  2.00438E+00  8.86878E-01 -2.19749E-01 -1.30512E+00
  -2.34971E+00 -3.32920E+00 -4.21971E+00 -5.00232E+00 -5.66624E+00 -6.20974E+00 -6.63929E+00 -6.96747E+00 -7.21026E+00 -7.38454E+00
  -7.50614E+00 -7.58868E+00 -7.64312E+00 -7.67776E+00 -7.69861E+00 -7.70988E+00 -7.71440E+00 -7.71408E+00 -7.71014E+00 -7.70338E+00
  -7.69432E+00 -7.68328E+00 -7.67045E+00 -7.65594E+00 -7.63981E+00 -7.62208E+00 -7.60273E+00 -7.58173E+00 -7.55907E+00 -7.53470E+00
  -7.50861E+00 -7.48078E+00 -7.45122E+00 -7.41995E+00 -7.38703E+00 -7.35255E+00 -7.31663E+00 -7.27943E+00 -7.24114E+00 -7.20200E+00
  -7.16228E+00 -7.12227E+00 -7.08228E+00 -7.04263E+00 -7.00364E+00 -6.96562E+00 -6.92883E+00 -6.89351E+00 -6.85986E+00 -6.82799E+00
  -6.79797E+00 -6.76980E+00 -6.74339E+00 -6.71861E+00 -6.69527E+00 -6.67312E+00 -6.65189E+00 -6.63128E+00 -6.61097E+00 -6.59065E+00
  -6.57002E+00 -6.54881E+00 -6.52676E+00 -6.50365E+00 -6.47931E+00 -6.45360E+00 -6.42642E+00 -6.39768E+00 -6.36736E+00 -6.33545E+00
  -6.30195E+00 -6.26690E+00 -6.23033E+00 -6.19230E+00 -6.15287E+00 -6.11211E+00 -6.07006E+00 -6.02680E+00 -5.98238E+00 -5.93686E+00
  -5.89030E+00 -5.84273E+00 -5.79420E+00 -5.74476E+00 -5.69443E+00 -5.64326E+00 -5.59126E+00 -5.53847E+00 -5.48490E+00 -5.43058E+00
  -5.37554E+00 -5.31977E+00 -5.26331E+00 -5.20615E+00 -5.14833E+00 -5.08984E+00 -5.03069E+00 -4.97091E+00 -4.91050E+00 -4.84945E+00
  -4.78780E+00 -4.72553E+00 -4.66266E+00 -4.59919E+00 -4.53514E+00 -4.47050E+00 -4.40528E+00 -4.33949E+00 -4.27313E+00 -4.20621E+00
  -4.13873E+00 -4.07070E+00 -4.00212E+00 -3.93300E+00 -3.86333E+00 -3.79313E+00 -3.72240E+00 -3.65114E+00 -3.57936E+00 -3.50705E+00
  -3.43423E+00 -3.36090E+00 -3.28706E+00 -3.21271E+00 -3.13786E+00 -3.06250E+00 -2.98665E+00 -2.91031E+00 -2.83348E+00 -2.75616E+00
  -2.67835E+00 -2.60006E+00 -2.52129E+00 -2.44203E+00 -2.36230E+00 -2.28209E+00 -2.20139E+00 -2.12022E+00
 NY background values follow
     3.613E-01    3.625E-01    3.643E-01    3.668E-01    3.698E-01    3.734E-01    3.776E-01    3.824E-01    3.877E-01    3.936E-01
     4.000E-01    4.069E-01    4.144E-01    4.224E-01    4.309E-01    4.399E-01    4.493E-01    4.593E-01    4.697E-01    4.805E-01
     4.919E-01    5.036E-01    5.158E-01    5.284E-01    5.413E-01    5.547E-01    5.685E-01    5.827E-01    5.972E-01    6.121E-01
     6.273E-01    6.429E-01    6.588E-01    6.750E-01    6.915E-01    7.083E-01    7.254E-01    7.428E-01    7.605E-01    7.784E-01
     7.966E-01    8.151E-01    8.337E-01    8.526E-01    8.717E-01    8.910E-01    9.105E-01    9.301E-01    9.500E-01    9.700E-01
     9.902E-01    1.010E+00    1.031E+00    1.052E+00    1.072E+00    1.093E+00    1.114E+00    1.135E+00    1.156E+00    1.177E+00
     1.198E+00    1.219E+00    1.241E+00    1.262E+00    1.283E+00    1.305E+00    1.326E+00    1.347E+00    1.369E+00    1.390E+00
     1.411E+00    1.432E+00    1.453E+00    1.475E+00    1.496E+00    1.516E+00    1.537E+00    1.558E+00    1.579E+00    1.599E+00
     1.619E+00    1.639E+00    1.659E+00    1.679E+00    1.699E+00    1.718E+00    1.738E+00    1.757E+00    1.776E+00    1.794E+00
     1.813E+00    1.831E+00    1.849E+00    1.867E+00    1.884E+00    1.901E+00    1.918E+00    1.935E+00    1.951E+00    1.967E+00
     1.982E+00    1.998E+00    2.012E+00    2.027E+00    2.041E+00    2.055E+00    2.068E+00    2.081E+00    2.094E+00    2.106E+00
     2.118E+00    2.129E+00    2.140E+00    2.150E+00    2.160E+00    2.170E+00    2.179E+00    2.187E+00    2.195E+00    2.203E+00
     2.210E+00    2.216E+00    2.222E+00    2.228E+00    2.232E+00    2.237E+00    2.240E+00    2.243E+00    2.246E+00    2.247E+00
     2.249E+00    2.249E+00    2.249E+00    2.248E+00    2.247E+00    2.245E+00    2.242E+00    2.239E+00    2.235E+00    2.230E+00
     2.225E+00    2.218E+00    2.211E+00    2.204E+00    2.195E+00    2.186E+00    2.176E+00    2.165E+00    2.154E+00    2.141E+00
     2.128E+00    2.114E+00    2.099E+00    2.083E+00    2.067E+00    2.049E+00    2.031E+00    2.012E+00    1.992E+00    1.971E+00
     1.949E+00    1.926E+00    1.902E+00    1.878E+00    1.852E+00    1.826E+00    1.798E+00    1.770E+00    1.740E+00    1.710E+00
     1.678E+00    1.646E+00    1.613E+00    1.579E+00    1.544E+00    1.508E+00    1.471E+00    1.434E+00    1.395E+00    1.356E+00
     1.316E+00    1.275E+00    1.234E+00    1.191E+00    1.148E+00    1.104E+00    1.059E+00    1.014E+00    9.673E-01    9.204E-01
     8.727E-01    8.244E-01    7.753E-01    7.256E-01    6.753E-01    6.243E-01    5.726E-01    5.203E-01    4.675E-01    4.140E-01
     3.599E-01    3.052E-01    2.500E-01    1.942E-01    1.378E-01    8.098E-02    2.358E-02   -3.432E-02   -9.273E-02   -1.516E-01
    -2.110E-01   -2.708E-01   -3.311E-01   -3.918E-01   -4.530E-01   -5.146E-01   -5.766E-01   -6.390E-01   -7.017E-01   -7.649E-01
    -8.284E-01   -8.923E-01   -9.565E-01   -1.021E+00   -1.086E+00   -1.151E+00   -1.216E+00   -1.282E+00   -1.348E+00   -1.414E+00
    -1.481E+00   -1.548E+00   -1.615E+00   -1.682E+00   -1.749E+00   -1.817E+00   -1.884E+00   -1.952E+00   -2.020E+00   -2.089E+00
    -2.157E+00   -2.225E+00   -2.294E+00   -2.363E+00   -2.431E+00   -2.500E+00   -2.569E+00   -2.638E+00   -2.707E+00   -2.776E+00
    -2.845E+00   -2.914E+00   -2.983E+00   -3.052E+00   -3.121E+00   -3.190E+00   -3.259E+00   -3.328E+00   -3.397E+00   -3.465E+00
    -3.534E+00   -3.603E+00   -3.671E+00   -3.739E+00   -3.807E+00   -3.875E+00   -3.943E+00   -4.010E+00   -4.078E+00   -4.145E+00
    -4.212E+00   -4.279E+00   -4.345E+00   -4.412E+00   -4.478E+00   -4.543E+00   -4.609E+00   -4.674E+00   -4.739E+00   -4.804E+00
    -4.868E+00   -4.932E+00   -4.995E+00   -5.058E+00   -5.121E+00   -5.184E+00   -5.246E+00   -5.307E+00   -5.369E+00   -5.429E+00
    -5.490E+00   -5.550E+00   -5.609E+00   -5.668E+00   -5.726E+00   -5.784E+00   -5.842E+00   -5.899E+00   -5.955E+00   -6.011E+00
    -6.066E+00   -6.121E+00   -6.175E+00   -6.229E+00   -6.282E+00   -6.334E+00   -6.386E+00   -6.437E+00   -6.487E+00   -6.537E+00
    -6.586E+00   -6.635E+00   -6.683E+00   -6.730E+00   -6.776E+00   -6.821E+00   -6.866E+00   -6.910E+00   -6.954E+00   -6.996E+00
    -7.038E+00   -7.079E+00   -7.119E+00   -7.159E+00   -7.197E+00   -7.235E+00   -7.272E+00   -7.308E+00   -7.343E+00   -7.377E+00
    -7.410E+00   -7.443E+00   -7.474E+00   -7.505E+00   -7.534E+00   -7.563E+00   -7.591E+00   -7.617E+00   -7.643E+00   -7.668E+00
    -7.693E+00   -7.716E+00   -7.738E+00   -7.760E+00   -7.780E+00   -7.800E+00   -7.819E+00   -7.837E+00   -7.854E+00   -7.870E+00
    -7.885E+00   -7.899E+00   -7.913E+00   -7.926E+00   -7.937E+00   -7.948E+00   -7.958E+00   -7.968E+00   -7.976E+00   -7.983E+00
    -7.990E+00   -7.996E+00   -8.001E+00   -8.005E+00   -8.008E+00   -8.011E+00   -8.012E+00   -8.013E+00   -8.013E+00   -8.012E+00
    -8.011E+00   -8.008E+00   -8.005E+00   -8.001E+00   -7.996E+00   -7.991E+00   -7.984E+00   -7.977E+00   -7.969E+00   -7.960E+00
    -7.950E+00   -7.940E+00   -7.929E+00   -7.917E+00   -7.904E+00   -7.890E+00   -7.876E+00   -7.861E+00   -7.845E+00   -7.829E+00
    -7.811E+00   -7.793E+00   -7.774E+00   -7.755E+00   -7.734E+00   -7.713E+00   -7.691E+00   -7.669E+00   -7.645E+00   -7.621E+00
    -7.597E+00   -7.571E+00   -7.545E+00   -7.518E+00   -7.490E+00   -7.462E+00   -7.433E+00   -7.403E+00   -7.372E+00   -7.341E+00
    -7.309E+00   -7.277E+00   -7.243E+00   -7.209E+00   -7.175E+00   -7.139E+00   -7.103E+00   -7.067E+00   -7.029E+00   -6.991E+00
    -6.952E+00   -6.913E+00   -6.873E+00   -6.832E+00   -6.791E+00   -6.749E+00   -6.706E+00   -6.663E+00   -6.619E+00   -6.574E+00
    -6.529E+00   -6.483E+00   -6.436E+00   -6.389E+00   -6.341E+00   -6.293E+00   -6.244E+00   -6.194E+00   -6.144E+00   -6.093E+00
    -6.041E+00   -5.989E+00   -5.936E+00   -5.883E+00   -5.829E+00   -5.774E+00   -5.719E+00   -5.663E+00   -5.607E+00   -5.550E+00
    -5.493E+00   -5.435E+00   -5.376E+00   -5.317E+00   -5.257E+00   -5.196E+00   -5.135E+00   -5.074E+00   -5.012E+00   -4.949E+00
    -4.886E+00   -4.822E+00   -4.758E+00   -4.693E+00   -4.628E+00   -4.562E+00   -4.496E+00   -4.429E+00   -4.361E+00   -4.293E+00
    -4.225E+00   -4.155E+00   -4.086E+00   -4.016E+00   -3.945E+00   -3.874E+00   -3.802E+00   -3.730E+00   -3.658E+00   -3.584E+00
    -3.511E+00   -3.437E+00   -3.362E+00   -3.287E+00   -3.211E+00   -3.135E+00   -3.059E+00   -2.982E+00   -2.904E+00   -2.826E+00
    -2.748E+00   -2.669E+00   -2.589E+00   -2.510E+00   -2.429E+00   -2.349E+00   -2.268E+00   -2.186E+00
 Asp      Conc. = 6.04E+00
