 LCModel (Version 6.3-1L) Copyright: S.W. Provencher.          Ref.: Magn. Reson. Med. 30:672-679 (1993).                
 Slice#2 Row#8 Col#4  K_02_press_1_raw_act
 36 lines in following concentration table = NCONC+1
    Conc.  %SD /Cr+PCr  Metabolite                                         
   46.859 235% 2.3E-02 Ala                                                 
    0.000 999%   0.000 Asp                                                 
  650.288  34%   0.323 Cr                                                  
 1.36E+03  17%   0.677 PCr                                                 
    0.000 999%   0.000 GABA                                                
    0.000 999%   0.000 Glc                                                 
  491.365  46%   0.244 Gln                                                 
 2.18E+03  12%   1.081 Glu                                                 
  744.576   4%   0.370 GPC                                                 
    0.000 999%   0.000 PCh                                                 
  591.020  13%   0.293 GSH                                                 
 1.22E+03  24%   0.605 Ins                                                 
    0.000 999%   0.000 Lac                                                 
 3.47E+03   4%   1.725 NAA                                                 
 1.01E+03  13%   0.502 NAAG                                                
   62.671  52% 3.1E-02 Scyllo                                              
    0.000 999%   0.000 Tau                                                 
    0.000 999%   0.000 -CrCH2                                              
  744.576   4%   0.370 GPC+PCh                                             
 4.48E+03   2%   2.227 NAA+NAAG                                            
 2.01E+03   3%   1.000 Cr+PCr                                              
 2.67E+03  13%   1.325 Glu+Gln                                             
  703.429  68%   0.349 Lip13a                                              
    0.000 999%   0.000 Lip13b                                              
   58.782 350% 2.9E-02 Lip09                                               
 1.49E+03  20%   0.741 MM09                                                
  145.463  91% 7.2E-02 Lip20                                               
 3.05E+03  16%   1.515 MM20                                                
  458.859  36%   0.228 MM12                                                
  715.057  54%   0.355 MM14                                                
  808.083  34%   0.401 MM17                                                
  703.429  68%   0.349 Lip13a+Lip13b                                       
 1.88E+03  31%   0.932 MM14+Lip13a+Lip13b+MM12                             
 1.55E+03  19%   0.770 MM09+Lip09                                          
 3.20E+03  15%   1.588 MM20+Lip20                                          
   6 lines in following misc. output table
  FWHM = 0.038 ppm    S/N =  18                                            
  Data shift = 0.008 ppm                                                   
  Ph: -35 deg     -12.4 deg/ppm                                            
  alphaB,S = 6.1E-01,   1.0E+02                                            
   14 spline knots.   Ns = 6(1)                                            
  (11) 3 infls.   ( 3) 1 extrs.                                            
  498 points on ppm-axis = NY
      4.000000     3.992357     3.984714     3.977070     3.969427     3.961784     3.954141     3.946497     3.938854     3.931211
      3.923568     3.915925     3.908281     3.900638     3.892995     3.885352     3.877708     3.870065     3.862422     3.854779
      3.847136     3.839492     3.831849     3.824206     3.816563     3.808919     3.801276     3.793633     3.785990     3.778347
      3.770703     3.763060     3.755417     3.747774     3.740130     3.732487     3.724844     3.717201     3.709558     3.701914
      3.694271     3.686628     3.678985     3.671341     3.663698     3.656055     3.648412     3.640769     3.633125     3.625482
      3.617839     3.610196     3.602552     3.594909     3.587266     3.579623     3.571980     3.564336     3.556693     3.549050
      3.541407     3.533763     3.526120     3.518477     3.510834     3.503191     3.495547     3.487904     3.480261     3.472618
      3.464974     3.457331     3.449688     3.442045     3.434402     3.426758     3.419115     3.411472     3.403829     3.396185
      3.388542     3.380899     3.373256     3.365613     3.357969     3.350326     3.342683     3.335040     3.327396     3.319753
      3.312110     3.304467     3.296824     3.289180     3.281537     3.273894     3.266251     3.258607     3.250964     3.243321
      3.235678     3.228034     3.220391     3.212748     3.205105     3.197462     3.189818     3.182175     3.174532     3.166889
      3.159245     3.151602     3.143959     3.136316     3.128673     3.121029     3.113386     3.105743     3.098100     3.090456
      3.082813     3.075170     3.067527     3.059884     3.052240     3.044597     3.036954     3.029311     3.021667     3.014024
      3.006381     2.998738     2.991095     2.983451     2.975808     2.968165     2.960522     2.952878     2.945235     2.937592
      2.929949     2.922306     2.914662     2.907019     2.899376     2.891733     2.884089     2.876446     2.868803     2.861160
      2.853517     2.845873     2.838230     2.830587     2.822944     2.815300     2.807657     2.800014     2.792371     2.784728
      2.777084     2.769441     2.761798     2.754155     2.746511     2.738868     2.731225     2.723582     2.715939     2.708295
      2.700652     2.693009     2.685366     2.677722     2.670079     2.662436     2.654793     2.647150     2.639506     2.631863
      2.624220     2.616577     2.608933     2.601290     2.593647     2.586004     2.578361     2.570717     2.563074     2.555431
      2.547788     2.540144     2.532501     2.524858     2.517215     2.509572     2.501928     2.494285     2.486642     2.478999
      2.471355     2.463712     2.456069     2.448426     2.440783     2.433139     2.425496     2.417853     2.410210     2.402566
      2.394923     2.387280     2.379637     2.371994     2.364350     2.356707     2.349064     2.341421     2.333777     2.326134
      2.318491     2.310848     2.303205     2.295561     2.287918     2.280275     2.272632     2.264988     2.257345     2.249702
      2.242059     2.234416     2.226772     2.219129     2.211486     2.203843     2.196199     2.188556     2.180913     2.173270
      2.165627     2.157983     2.150340     2.142697     2.135054     2.127410     2.119767     2.112124     2.104481     2.096838
      2.089194     2.081551     2.073908     2.066265     2.058621     2.050978     2.043335     2.035692     2.028049     2.020405
      2.012762     2.005119     1.997476     1.989833     1.982190     1.974546     1.966903     1.959260     1.951617     1.943974
      1.936331     1.928688     1.921045     1.913402     1.905759     1.898115     1.890472     1.882829     1.875186     1.867543
      1.859900     1.852257     1.844614     1.836971     1.829327     1.821684     1.814041     1.806398     1.798755     1.791112
      1.783469     1.775826     1.768183     1.760540     1.752896     1.745253     1.737610     1.729967     1.722324     1.714681
      1.707038     1.699395     1.691752     1.684108     1.676465     1.668822     1.661179     1.653536     1.645893     1.638250
      1.630607     1.622964     1.615321     1.607677     1.600034     1.592391     1.584748     1.577105     1.569462     1.561819
      1.554176     1.546533     1.538890     1.531246     1.523603     1.515960     1.508317     1.500674     1.493031     1.485388
      1.477745     1.470102     1.462458     1.454815     1.447172     1.439529     1.431886     1.424243     1.416600     1.408957
      1.401314     1.393671     1.386027     1.378384     1.370741     1.363098     1.355455     1.347812     1.340169     1.332526
      1.324883     1.317240     1.309596     1.301953     1.294310     1.286667     1.279024     1.271381     1.263738     1.256095
      1.248452     1.240808     1.233165     1.225522     1.217879     1.210236     1.202593     1.194950     1.187307     1.179664
      1.172021     1.164377     1.156734     1.149091     1.141448     1.133805     1.126162     1.118519     1.110876     1.103233
      1.095590     1.087946     1.080303     1.072660     1.065017     1.057374     1.049731     1.042088     1.034445     1.026802
      1.019158     1.011515     1.003872     0.996229     0.988586     0.980943     0.973300     0.965657     0.958014     0.950371
      0.942727     0.935084     0.927441     0.919798     0.912155     0.904512     0.896869     0.889226     0.881583     0.873940
      0.866296     0.858653     0.851010     0.843367     0.835724     0.828081     0.820438     0.812795     0.805152     0.797508
      0.789865     0.782222     0.774579     0.766936     0.759293     0.751650     0.744007     0.736364     0.728721     0.721077
      0.713434     0.705791     0.698148     0.690505     0.682862     0.675219     0.667576     0.659933     0.652290     0.644646
      0.637003     0.629360     0.621717     0.614074     0.606431     0.598788     0.591145     0.583502     0.575858     0.568215
      0.560572     0.552929     0.545286     0.537643     0.530000     0.522357     0.514714     0.507071     0.499427     0.491784
      0.484141     0.476498     0.468855     0.461212     0.453569     0.445925     0.438282     0.430639     0.422996     0.415353
      0.407710     0.400067     0.392424     0.384780     0.377137     0.369494     0.361851     0.354208     0.346565     0.338922
      0.331278     0.323635     0.315992     0.308349     0.300706     0.293063     0.285420     0.277777     0.270133     0.262490
      0.254847     0.247204     0.239561     0.231918     0.224275     0.216631     0.208988     0.201345
 NY phased data points follow
  -3.26907E+01 -3.20906E+01 -2.47933E+01 -2.47057E+01 -2.45889E+01 -1.46965E+01 -5.50876E+00  3.35157E+00  1.35199E+01  1.96646E+01
   2.10579E+01  2.46778E+01  1.38667E+01  4.26231E+00 -6.79037E+00 -1.46949E+01 -2.36957E+01 -2.72889E+01 -2.93906E+01 -2.82393E+01
  -2.16719E+01 -2.45899E+01 -2.28150E+01 -2.17287E+01 -1.57087E+01 -1.81506E+01 -1.52109E+01 -1.51739E+01 -1.16732E+01 -1.35538E+01
  -1.17621E+01 -6.33233E+00 -8.52200E+00 -1.20693E+01 -1.34307E+01 -1.26625E+01 -1.19697E+01 -1.55353E+01 -1.73389E+01 -9.27759E+00
  -1.05473E+01 -1.38200E+01 -9.33107E+00 -6.46713E+00 -6.11933E+00 -5.67857E+00 -1.70219E+00 -2.06468E+00  3.56102E+00 -1.76252E+00
  -8.52405E+00 -8.09292E+00 -9.64904E+00 -1.21385E+01 -1.49437E+01 -1.28300E+01 -7.95518E+00 -1.08000E+01 -1.02053E+01 -1.28826E+01
  -1.47319E+01 -1.32419E+01 -1.96500E+01 -2.10117E+01 -1.92798E+01 -1.63278E+01 -1.88579E+01 -1.68775E+01 -1.96850E+01 -1.96038E+01
  -1.44479E+01 -1.14464E+01 -1.46202E+01 -1.19740E+01 -1.40722E+01 -1.72446E+01 -1.57869E+01 -1.06473E+01 -1.38654E+01 -1.23895E+01
  -1.31410E+01 -9.56113E+00 -1.08137E+01 -1.00423E+01 -8.18807E+00 -1.25882E+01 -1.07089E+01 -6.27304E+00 -9.98655E+00 -6.27249E+00
  -5.87471E+00 -3.32504E+00 -3.80372E+00 -3.35816E+00 -2.71807E+00  2.89823E-01  4.07628E+00  7.53272E+00  9.94630E+00  2.58389E+01
   3.63598E+01  5.54861E+01  6.75643E+01  6.60962E+01  5.89939E+01  4.76950E+01  3.38637E+01  1.90942E+01  1.45637E+01  8.18836E+00
   2.15786E+00  2.25893E-01  6.22959E-01 -4.34779E+00  1.59286E-01  1.62072E+00 -2.44855E+00 -1.12916E+00  7.92339E-01  5.69362E+00
   7.44001E+00  1.00371E+01  1.62909E+01  2.10717E+01  3.09722E+01  4.78975E+01  6.68908E+01  7.75729E+01  6.78132E+01  5.47580E+01
   4.08910E+01  2.60089E+01  1.55233E+01  8.12177E+00  2.55888E-01  2.64515E+00 -4.16141E+00 -5.07666E+00 -1.68041E+00  2.65612E+00
   6.55935E-01  2.34435E-01  4.13740E+00  3.47501E+00  9.73071E-01 -1.47591E+00  2.32458E+00  4.25226E+00 -3.24883E+00 -2.71593E+00
  -1.97092E+00 -2.03291E+00  9.81470E-01 -5.32933E+00 -1.25298E+00  2.64353E-01  2.06384E-01 -3.94542E+00 -7.06236E-01  1.20347E+00
   5.13319E+00 -6.30508E+00 -8.34474E+00 -7.45313E+00 -8.77231E+00 -2.19944E+00 -2.95615E+00 -6.78908E+00 -6.58040E+00 -1.73941E+01
  -2.27702E+01 -1.56394E+01 -1.63624E+01 -1.65479E+01 -1.93590E+01 -2.22597E+01 -2.46130E+01 -2.31207E+01 -1.60737E+01 -1.55756E+01
  -2.00579E+01 -1.33637E+01 -2.11055E+01 -2.09623E+01 -1.85986E+01 -1.18749E+01 -9.58489E+00 -2.48186E+00 -3.38726E+00  3.88699E+00
   9.46409E+00  1.10817E+01  1.33378E+01  3.85691E+00  4.33069E-01  5.55732E+00  2.42781E+00 -2.43115E+00 -4.21930E+00 -3.56877E+00
  -2.54488E+00 -3.10075E+00  2.49727E+00  9.15500E+00  3.88898E+00  3.56491E+00 -1.53992E+00 -1.65383E+00 -5.31503E+00  2.23484E-01
  -2.71834E+00 -4.50953E+00  4.71825E+00  8.42791E+00  1.50897E+01  1.86852E+01  1.70784E+01  2.25971E+01  1.58878E+01  6.51329E+00
   7.20378E+00 -3.98600E-01 -7.22683E+00 -5.15081E-01  1.22257E-01  9.21498E+00  1.12177E+01  1.61690E+01  2.08191E+01  1.80102E+01
   1.45194E+01  1.72206E+01  1.84445E+01  1.34492E+01  1.95963E+01  1.55741E+01  1.72747E+01  1.45437E+01  1.51460E+01  1.62465E+01
   1.42569E+01  9.20689E+00  7.01664E+00  5.78349E+00  9.70365E+00  1.88078E+01  2.27065E+01  2.42568E+01  2.59549E+01  3.09109E+01
   2.88372E+01  2.92366E+01  3.91254E+01  4.60680E+01  6.57681E+01  8.59201E+01  9.88801E+01  1.03038E+02  1.14336E+02  1.42587E+02
   1.63339E+02  1.71939E+02  1.40845E+02  1.04338E+02  7.07880E+01  4.44868E+01  3.30580E+01  2.32803E+01  1.87689E+01  1.25664E+01
   2.10284E+01  1.61787E+01  1.87082E+01  2.02730E+01  2.18467E+01  1.51679E+01  2.30566E+01  1.70353E+01  2.02300E+01  2.13208E+01
   1.69073E+01  1.86969E+01  1.34363E+01  1.54273E+01  1.15681E+01  9.73156E+00  1.10482E+01  7.28480E+00  1.12681E+01  1.26566E+01
   1.15311E+01  1.70749E+01  1.49246E+01  1.46303E+01  1.85300E+01  1.38648E+01  1.45587E+01  1.54306E+01  1.35362E+01  1.27130E+01
   9.04764E+00  1.08517E+01  1.57749E+01  1.36699E+01  1.83710E+01  1.55384E+01  1.24284E+01  1.88151E+01  1.67339E+01  1.41684E+01
   2.03330E+01  2.64860E+01  1.80771E+01  1.57615E+01  1.81524E+01  1.96112E+01  2.31276E+01  1.56608E+01  2.12899E+01  1.87610E+01
   1.91614E+01  1.60985E+01  1.68513E+01  1.65687E+01  1.46653E+01  1.92626E+01  1.85968E+01  1.56589E+01  1.71167E+01  1.20235E+01
   1.36866E+01  1.78968E+01  1.83974E+01  1.21439E+01  1.12887E+01  1.31801E+01  1.47549E+01  1.38321E+01  1.25608E+01  1.21996E+01
   1.28559E+01  1.15086E+01  1.41833E+01  1.70735E+01  2.02758E+01  2.64143E+01  2.64769E+01  2.08759E+01  2.08408E+01  2.22026E+01
   1.98982E+01  1.70422E+01  1.76390E+01  1.99285E+01  1.97128E+01  1.38016E+01  1.40628E+01  1.61846E+01  1.39149E+01  1.24462E+01
   1.03234E+01  1.34331E+01  1.54366E+01  2.02703E+01  1.36479E+01  1.58825E+01  1.55492E+01  1.69845E+01  1.59210E+01  1.30851E+01
   1.59828E+01  1.56252E+01  1.87840E+01  1.40484E+01  1.55813E+01  1.64270E+01  1.48230E+01  1.61245E+01  1.50592E+01  1.65208E+01
   1.90413E+01  1.06611E+01  1.52859E+01  1.58184E+01  1.48931E+01  1.26217E+01  9.15406E+00  1.25869E+01  1.41491E+01  1.35382E+01
   1.79272E+01  1.21687E+01  1.00652E+01  1.96197E+01  1.89594E+01  2.06640E+01  2.25230E+01  1.72844E+01  1.79726E+01  1.99020E+01
   1.99066E+01  2.04483E+01  1.84926E+01  1.86688E+01  2.04111E+01  1.72130E+01  2.57260E+01  2.28818E+01  2.16564E+01  2.04321E+01
   2.09904E+01  1.77478E+01  2.17343E+01  1.78313E+01  2.12221E+01  1.53626E+01  1.54340E+01  1.61889E+01  1.25170E+01  1.44410E+01
   7.57056E+00  1.10562E+01  9.06115E+00  1.01820E+01  1.20305E+01  8.96911E+00  1.17501E+01  8.23984E+00  9.30095E+00  1.01286E+01
   1.31315E+01  1.12264E+01  9.05104E+00  7.74632E+00  1.16994E+01  1.08601E+01  1.59004E+01  7.81385E+00  9.13885E+00  1.11447E+01
   1.09247E+01  6.61772E+00  1.31563E+01  1.15513E+01  1.64252E+01  1.07356E+01  1.04073E+01  1.24539E+01  9.05799E+00  1.01247E+01
   1.10939E+01  1.23069E+01  9.33477E+00  8.87853E+00  1.49937E+01  1.08289E+01  1.04108E+01  1.29427E+01  1.17449E+01  1.27694E+01
   9.09049E+00  1.16229E+01  1.56638E+01  1.34604E+01  1.21913E+01  1.18423E+01  1.32719E+01  9.07346E+00  1.11829E+01  9.77246E+00
   1.00088E+01  1.16622E+01  8.67267E+00  1.08948E+01  9.18132E+00  8.91470E+00  8.93775E+00  1.17075E+01  1.36226E+01  8.45218E+00
   7.89157E+00  1.08562E+01  1.41026E+01  1.45451E+01  9.60914E+00  1.16315E+01  1.01130E+01  1.23997E+01  6.31460E+00  9.91662E+00
   8.09280E+00  9.56749E+00  9.53299E+00  1.45538E+01  1.28485E+01  1.26490E+01  1.34367E+01  1.34692E+01
 NY points of the fit to the data follow
  -3.04281E+01 -2.99542E+01 -2.86310E+01 -2.52818E+01 -2.03789E+01 -1.45397E+01 -7.45826E+00  1.53957E+00  1.17480E+01  2.02091E+01
   2.33791E+01  1.98983E+01  1.14997E+01  1.59371E+00 -6.90718E+00 -1.29955E+01 -1.69821E+01 -1.93178E+01 -2.06499E+01 -2.13029E+01
  -2.15705E+01 -2.16756E+01 -2.19282E+01 -2.18204E+01 -2.07567E+01 -1.95739E+01 -1.82317E+01 -1.59806E+01 -1.25458E+01 -8.71163E+00
  -5.93079E+00 -4.90354E+00 -5.43942E+00 -7.11498E+00 -9.48326E+00 -1.21977E+01 -1.50591E+01 -1.74348E+01 -1.88126E+01 -1.90973E+01
  -1.80773E+01 -1.60027E+01 -1.36819E+01 -1.16896E+01 -9.87950E+00 -7.84179E+00 -5.81059E+00 -4.69599E+00 -5.17115E+00 -7.11259E+00
  -9.72514E+00 -1.21615E+01 -1.39438E+01 -1.48703E+01 -1.50565E+01 -1.47149E+01 -1.40693E+01 -1.32638E+01 -1.23575E+01 -1.15513E+01
  -1.11559E+01 -1.13537E+01 -1.20876E+01 -1.30226E+01 -1.37831E+01 -1.40648E+01 -1.37945E+01 -1.31543E+01 -1.23686E+01 -1.15634E+01
  -1.08135E+01 -1.02296E+01 -9.91951E+00 -9.91102E+00 -1.00964E+01 -1.03055E+01 -1.04251E+01 -1.04229E+01 -1.03409E+01 -1.01843E+01
  -9.89822E+00 -9.49304E+00 -9.19760E+00 -8.93820E+00 -8.54544E+00 -8.09412E+00 -7.88418E+00 -8.11225E+00 -8.64234E+00 -9.09283E+00
  -9.09922E+00 -8.65159E+00 -7.91929E+00 -7.05974E+00 -6.05816E+00 -4.51873E+00 -6.52694E-01  6.54278E+00  1.42160E+01  2.31236E+01
   3.61299E+01  5.27021E+01  6.69164E+01  7.15213E+01  6.39321E+01  4.81978E+01  3.10098E+01  1.70810E+01  7.60612E+00  1.40939E+00
  -2.22012E+00 -3.54659E+00 -3.89672E+00 -3.95436E+00 -3.89580E+00 -3.75779E+00 -3.55023E+00 -3.27100E+00 -2.85216E+00 -2.03688E+00
   5.18446E-01  7.26730E+00  1.52992E+01  2.34736E+01  3.47631E+01  5.04840E+01  6.63264E+01  7.47292E+01  7.08828E+01  5.69751E+01
   3.98429E+01  2.52129E+01  1.49796E+01  7.83693E+00  2.39160E+00 -9.64880E-01 -2.77617E+00 -3.50027E+00 -3.15330E+00 -2.02993E+00
  -6.86247E-01  3.67351E-01  8.13909E-01  6.21545E-01  4.05970E-02 -6.41433E-01 -1.24524E+00 -1.72229E+00 -2.17201E+00 -2.57623E+00
  -2.92497E+00 -3.27921E+00 -3.62780E+00 -3.90321E+00 -4.03730E+00 -4.13290E+00 -4.10077E+00 -3.98063E+00 -4.14381E+00 -4.76576E+00
  -5.89050E+00 -6.99372E+00 -7.28155E+00 -6.63902E+00 -5.75827E+00 -5.43716E+00 -6.07284E+00 -7.34808E+00 -8.62691E+00 -9.56931E+00
  -1.01165E+01 -1.04098E+01 -1.05048E+01 -1.08236E+01 -1.16149E+01 -1.26296E+01 -1.30320E+01 -1.22805E+01 -1.09708E+01 -1.01615E+01
  -1.02073E+01 -1.06743E+01 -1.06017E+01 -9.58218E+00 -8.29954E+00 -7.24224E+00 -6.05934E+00 -4.24341E+00 -1.54206E+00  1.53425E+00
   4.00266E+00  5.21455E+00  4.89634E+00  3.63661E+00  2.19049E+00  9.79962E-01  2.57538E-01  2.55170E-01  1.14413E+00  2.59277E+00
   4.25894E+00  5.91213E+00  7.38442E+00  8.50111E+00  8.66133E+00  7.64635E+00  5.41776E+00  2.17094E+00 -1.10108E+00 -3.24850E+00
  -3.57713E+00 -2.28923E+00  1.81416E-02  3.51256E+00  8.20574E+00  1.28659E+01  1.52934E+01  1.41259E+01  1.00294E+01  4.80350E+00
  -4.59663E-01 -4.89260E+00 -7.19242E+00 -6.27456E+00 -2.18844E+00  3.46113E+00  8.68077E+00  1.24379E+01  1.44836E+01  1.50201E+01
   1.45316E+01  1.38528E+01  1.37162E+01  1.43666E+01  1.55650E+01  1.68129E+01  1.76323E+01  1.76169E+01  1.67961E+01  1.54522E+01
   1.39156E+01  1.26034E+01  1.22251E+01  1.32830E+01  1.55789E+01  1.83601E+01  2.07944E+01  2.24925E+01  2.36818E+01  2.57380E+01
   2.92040E+01  3.28185E+01  3.77184E+01  4.62085E+01  6.25495E+01  8.38545E+01  9.79971E+01  1.07722E+02  1.22786E+02  1.45031E+02
   1.63238E+02  1.63260E+02  1.41221E+02  1.07260E+02  7.46484E+01  5.04791E+01  3.49307E+01  2.45419E+01  1.86496E+01  1.69418E+01
   1.62728E+01  1.58786E+01  1.57313E+01  1.57688E+01  1.57765E+01  1.55976E+01  1.52329E+01  1.48110E+01  1.44202E+01  1.41129E+01
   1.38999E+01  1.37860E+01  1.37673E+01  1.37898E+01  1.37622E+01  1.36717E+01  1.35518E+01  1.34255E+01  1.33212E+01  1.32764E+01
   1.33358E+01  1.35086E+01  1.37336E+01  1.39476E+01  1.41326E+01  1.42837E+01  1.44094E+01  1.45296E+01  1.46718E+01  1.48706E+01
   1.51399E+01  1.54611E+01  1.58048E+01  1.61457E+01  1.64683E+01  1.67649E+01  1.70274E+01  1.72509E+01  1.74375E+01  1.75872E+01
   1.76981E+01  1.77675E+01  1.77942E+01  1.77795E+01  1.77281E+01  1.76464E+01  1.75406E+01  1.74172E+01  1.72839E+01  1.71515E+01
   1.70355E+01  1.69543E+01  1.68780E+01  1.67862E+01  1.67135E+01  1.66601E+01  1.65680E+01  1.63704E+01  1.60635E+01  1.57547E+01
   1.55619E+01  1.54926E+01  1.55357E+01  1.56992E+01  1.59872E+01  1.63568E+01  1.66999E+01  1.69215E+01  1.70114E+01  1.70158E+01
   1.69905E+01  1.69680E+01  1.69517E+01  1.69475E+01  1.69626E+01  1.69873E+01  1.70154E+01  1.70446E+01  1.70736E+01  1.71004E+01
   1.71228E+01  1.71381E+01  1.71448E+01  1.71415E+01  1.71267E+01  1.70986E+01  1.70547E+01  1.69938E+01  1.69153E+01  1.68194E+01
   1.67062E+01  1.65756E+01  1.64281E+01  1.62649E+01  1.60885E+01  1.59015E+01  1.57059E+01  1.55041E+01  1.52984E+01  1.50923E+01
   1.48893E+01  1.46929E+01  1.45056E+01  1.43301E+01  1.41693E+01  1.40267E+01  1.39056E+01  1.38089E+01  1.37388E+01  1.36977E+01
   1.36887E+01  1.37150E+01  1.37795E+01  1.38845E+01  1.40316E+01  1.42230E+01  1.44604E+01  1.47452E+01  1.50773E+01  1.54554E+01
   1.58766E+01  1.63371E+01  1.68319E+01  1.73538E+01  1.78936E+01  1.84399E+01  1.89804E+01  1.95021E+01  1.99912E+01  2.04339E+01
   2.08159E+01  2.11246E+01  2.13491E+01  2.14815E+01  2.15165E+01  2.14514E+01  2.12866E+01  2.10258E+01  2.06762E+01  2.02476E+01
   1.97518E+01  1.92015E+01  1.86101E+01  1.79919E+01  1.73607E+01  1.67296E+01  1.61099E+01  1.55109E+01  1.49401E+01  1.44038E+01
   1.39064E+01  1.34505E+01  1.30369E+01  1.26648E+01  1.23329E+01  1.20394E+01  1.17821E+01  1.15579E+01  1.13635E+01  1.11955E+01
   1.10511E+01  1.09279E+01  1.08235E+01  1.07353E+01  1.06610E+01  1.05986E+01  1.05466E+01  1.05042E+01  1.04700E+01  1.04428E+01
   1.04214E+01  1.04050E+01  1.03934E+01  1.03862E+01  1.03828E+01  1.03824E+01  1.03845E+01  1.03890E+01  1.03958E+01  1.04049E+01
   1.04158E+01  1.04279E+01  1.04410E+01  1.04554E+01  1.04712E+01  1.04881E+01  1.05058E+01  1.05241E+01  1.05429E+01  1.05626E+01
   1.05833E+01  1.06045E+01  1.06261E+01  1.06479E+01  1.06702E+01  1.06932E+01  1.07168E+01  1.07407E+01  1.07647E+01  1.07888E+01
   1.08134E+01  1.08386E+01  1.08642E+01  1.08899E+01  1.09156E+01  1.09415E+01  1.09679E+01  1.09947E+01  1.10218E+01  1.10489E+01
   1.10760E+01  1.11033E+01  1.11312E+01  1.11594E+01  1.11877E+01  1.12160E+01  1.12444E+01  1.12732E+01  1.13025E+01  1.13321E+01
   1.13616E+01  1.13912E+01  1.14211E+01  1.14515E+01  1.14824E+01  1.15134E+01  1.15445E+01  1.15759E+01
 NY background values follow
    -3.440E+01   -3.410E+01   -3.380E+01   -3.350E+01   -3.320E+01   -3.291E+01   -3.261E+01   -3.231E+01   -3.201E+01   -3.171E+01
    -3.141E+01   -3.112E+01   -3.082E+01   -3.052E+01   -3.022E+01   -2.993E+01   -2.963E+01   -2.933E+01   -2.903E+01   -2.874E+01
    -2.844E+01   -2.815E+01   -2.785E+01   -2.756E+01   -2.726E+01   -2.697E+01   -2.668E+01   -2.639E+01   -2.610E+01   -2.580E+01
    -2.551E+01   -2.522E+01   -2.494E+01   -2.465E+01   -2.436E+01   -2.407E+01   -2.379E+01   -2.350E+01   -2.322E+01   -2.294E+01
    -2.266E+01   -2.237E+01   -2.210E+01   -2.182E+01   -2.154E+01   -2.126E+01   -2.099E+01   -2.071E+01   -2.044E+01   -2.017E+01
    -1.990E+01   -1.963E+01   -1.936E+01   -1.909E+01   -1.883E+01   -1.856E+01   -1.830E+01   -1.804E+01   -1.778E+01   -1.752E+01
    -1.727E+01   -1.701E+01   -1.676E+01   -1.651E+01   -1.626E+01   -1.601E+01   -1.576E+01   -1.552E+01   -1.528E+01   -1.504E+01
    -1.480E+01   -1.456E+01   -1.433E+01   -1.409E+01   -1.386E+01   -1.363E+01   -1.340E+01   -1.318E+01   -1.296E+01   -1.274E+01
    -1.252E+01   -1.230E+01   -1.209E+01   -1.187E+01   -1.167E+01   -1.146E+01   -1.125E+01   -1.105E+01   -1.085E+01   -1.065E+01
    -1.046E+01   -1.027E+01   -1.008E+01   -9.887E+00   -9.703E+00   -9.520E+00   -9.341E+00   -9.164E+00   -8.990E+00   -8.818E+00
    -8.650E+00   -8.484E+00   -8.322E+00   -8.162E+00   -8.005E+00   -7.851E+00   -7.700E+00   -7.553E+00   -7.408E+00   -7.267E+00
    -7.128E+00   -6.993E+00   -6.862E+00   -6.733E+00   -6.608E+00   -6.486E+00   -6.368E+00   -6.253E+00   -6.141E+00   -6.033E+00
    -5.929E+00   -5.828E+00   -5.730E+00   -5.637E+00   -5.547E+00   -5.460E+00   -5.378E+00   -5.299E+00   -5.224E+00   -5.153E+00
    -5.086E+00   -5.022E+00   -4.963E+00   -4.908E+00   -4.856E+00   -4.809E+00   -4.766E+00   -4.727E+00   -4.692E+00   -4.660E+00
    -4.632E+00   -4.606E+00   -4.584E+00   -4.564E+00   -4.547E+00   -4.533E+00   -4.520E+00   -4.509E+00   -4.500E+00   -4.492E+00
    -4.485E+00   -4.479E+00   -4.474E+00   -4.470E+00   -4.465E+00   -4.461E+00   -4.457E+00   -4.453E+00   -4.447E+00   -4.441E+00
    -4.435E+00   -4.426E+00   -4.417E+00   -4.405E+00   -4.392E+00   -4.377E+00   -4.360E+00   -4.339E+00   -4.317E+00   -4.291E+00
    -4.262E+00   -4.229E+00   -4.193E+00   -4.153E+00   -4.110E+00   -4.061E+00   -4.009E+00   -3.951E+00   -3.889E+00   -3.821E+00
    -3.748E+00   -3.670E+00   -3.586E+00   -3.496E+00   -3.401E+00   -3.300E+00   -3.195E+00   -3.085E+00   -2.970E+00   -2.850E+00
    -2.726E+00   -2.598E+00   -2.466E+00   -2.330E+00   -2.190E+00   -2.047E+00   -1.900E+00   -1.750E+00   -1.597E+00   -1.441E+00
    -1.282E+00   -1.121E+00   -9.572E-01   -7.913E-01   -6.233E-01   -4.534E-01   -2.817E-01   -1.085E-01    6.618E-02    2.421E-01
     4.191E-01    5.970E-01    7.756E-01    9.549E-01    1.135E+00    1.314E+00    1.494E+00    1.674E+00    1.854E+00    2.033E+00
     2.212E+00    2.390E+00    2.567E+00    2.743E+00    2.918E+00    3.092E+00    3.264E+00    3.434E+00    3.602E+00    3.769E+00
     3.934E+00    4.097E+00    4.259E+00    4.419E+00    4.577E+00    4.733E+00    4.887E+00    5.040E+00    5.190E+00    5.339E+00
     5.486E+00    5.631E+00    5.775E+00    5.916E+00    6.056E+00    6.193E+00    6.329E+00    6.463E+00    6.595E+00    6.724E+00
     6.852E+00    6.978E+00    7.102E+00    7.224E+00    7.344E+00    7.462E+00    7.578E+00    7.692E+00    7.804E+00    7.914E+00
     8.022E+00    8.128E+00    8.231E+00    8.333E+00    8.432E+00    8.529E+00    8.625E+00    8.718E+00    8.809E+00    8.897E+00
     8.984E+00    9.068E+00    9.150E+00    9.230E+00    9.308E+00    9.384E+00    9.457E+00    9.529E+00    9.598E+00    9.666E+00
     9.731E+00    9.794E+00    9.856E+00    9.915E+00    9.972E+00    1.003E+01    1.008E+01    1.013E+01    1.018E+01    1.023E+01
     1.028E+01    1.032E+01    1.036E+01    1.040E+01    1.044E+01    1.048E+01    1.052E+01    1.055E+01    1.058E+01    1.061E+01
     1.064E+01    1.067E+01    1.070E+01    1.072E+01    1.074E+01    1.076E+01    1.078E+01    1.080E+01    1.082E+01    1.083E+01
     1.085E+01    1.086E+01    1.087E+01    1.088E+01    1.089E+01    1.090E+01    1.090E+01    1.091E+01    1.091E+01    1.091E+01
     1.091E+01    1.091E+01    1.091E+01    1.091E+01    1.091E+01    1.090E+01    1.089E+01    1.089E+01    1.088E+01    1.087E+01
     1.086E+01    1.085E+01    1.084E+01    1.083E+01    1.081E+01    1.080E+01    1.078E+01    1.077E+01    1.075E+01    1.073E+01
     1.071E+01    1.069E+01    1.067E+01    1.065E+01    1.063E+01    1.061E+01    1.058E+01    1.056E+01    1.054E+01    1.051E+01
     1.049E+01    1.046E+01    1.044E+01    1.041E+01    1.038E+01    1.036E+01    1.033E+01    1.030E+01    1.027E+01    1.024E+01
     1.021E+01    1.018E+01    1.015E+01    1.012E+01    1.009E+01    1.006E+01    1.003E+01    1.000E+01    9.970E+00    9.939E+00
     9.908E+00    9.877E+00    9.847E+00    9.816E+00    9.786E+00    9.756E+00    9.727E+00    9.697E+00    9.668E+00    9.640E+00
     9.611E+00    9.584E+00    9.557E+00    9.530E+00    9.504E+00    9.479E+00    9.454E+00    9.430E+00    9.407E+00    9.384E+00
     9.363E+00    9.342E+00    9.323E+00    9.304E+00    9.286E+00    9.269E+00    9.254E+00    9.239E+00    9.226E+00    9.214E+00
     9.203E+00    9.194E+00    9.185E+00    9.178E+00    9.173E+00    9.169E+00    9.167E+00    9.166E+00    9.166E+00    9.168E+00
     9.172E+00    9.177E+00    9.183E+00    9.191E+00    9.200E+00    9.211E+00    9.222E+00    9.235E+00    9.249E+00    9.265E+00
     9.281E+00    9.298E+00    9.317E+00    9.336E+00    9.356E+00    9.378E+00    9.400E+00    9.423E+00    9.447E+00    9.472E+00
     9.497E+00    9.523E+00    9.550E+00    9.577E+00    9.605E+00    9.634E+00    9.663E+00    9.693E+00    9.723E+00    9.753E+00
     9.784E+00    9.815E+00    9.847E+00    9.879E+00    9.911E+00    9.943E+00    9.975E+00    1.001E+01    1.004E+01    1.007E+01
     1.011E+01    1.014E+01    1.017E+01    1.020E+01    1.024E+01    1.027E+01    1.030E+01    1.033E+01    1.036E+01    1.040E+01
     1.043E+01    1.046E+01    1.049E+01    1.052E+01    1.056E+01    1.059E+01    1.062E+01    1.065E+01    1.068E+01    1.071E+01
     1.075E+01    1.078E+01    1.081E+01    1.084E+01    1.087E+01    1.090E+01    1.094E+01    1.097E+01    1.100E+01    1.103E+01
     1.106E+01    1.109E+01    1.112E+01    1.116E+01    1.119E+01    1.122E+01    1.125E+01    1.128E+01    1.131E+01    1.135E+01
     1.138E+01    1.141E+01    1.144E+01    1.147E+01    1.150E+01    1.154E+01    1.157E+01    1.160E+01
 Ala      Conc. = 4.69E+01
