 LCModel (Version 6.3-1L) Copyright: S.W. Provencher.          Ref.: Magn. Reson. Med. 30:672-679 (1993).                
 Slice#3 Row#5 Col#3  K_02_press_1_raw_act
 36 lines in following concentration table = NCONC+1
    Conc.  %SD /Cr+PCr  Metabolite                                         
    3.198 999% 2.8E-03 Ala                                                 
    0.000 999%   0.000 Asp                                                 
  262.950  91%   0.231 Cr                                                  
  876.655  28%   0.769 PCr                                                 
    0.000 999%   0.000 GABA                                                
    0.000 999%   0.000 Glc                                                 
  644.814  40%   0.566 Gln                                                 
 1.15E+03  25%   1.006 Glu                                                 
  262.567   7%   0.230 GPC                                                 
    0.000 999%   0.000 PCh                                                 
  326.287  21%   0.286 GSH                                                 
  589.159  41%   0.517 Ins                                                 
    0.000 999%   0.000 Lac                                                 
 1.57E+03   7%   1.373 NAA                                                 
  117.008 112%   0.103 NAAG                                                
    0.000 999%   0.000 Scyllo                                              
    0.000 999%   0.000 Tau                                                 
    0.000 999%   0.000 -CrCH2                                              
  262.567   7%   0.230 GPC+PCh                                             
 1.68E+03   4%   1.476 NAA+NAAG                                            
 1.14E+03   4%   1.000 Cr+PCr                                              
 1.79E+03  25%   1.572 Glu+Gln                                             
    0.000 999%   0.000 Lip13a                                              
    0.000 999%   0.000 Lip13b                                              
    0.000 999%   0.000 Lip09                                               
  835.999  21%   0.734 MM09                                                
 1.67E-02 999% 1.5E-05 Lip20                                               
 2.27E+03  14%   1.988 MM20                                                
   88.532 118% 7.8E-02 MM12                                                
    0.000 999%   0.000 MM14                                                
  654.275  28%   0.574 MM17                                                
    0.000 999%   0.000 Lip13a+Lip13b                                       
   88.532 118% 7.8E-02 MM14+Lip13a+Lip13b+MM12                             
  835.999  21%   0.734 MM09+Lip09                                          
 2.27E+03  14%   1.988 MM20+Lip20                                          
   6 lines in following misc. output table
  FWHM = 0.061 ppm    S/N =   9                                            
  Data shift = 0.023 ppm                                                   
  Ph:  23 deg      -9.3 deg/ppm                                            
  alphaB,S = 2.7E-01,   1.7E+02                                            
   14 spline knots.   Ns = 8(1)                                            
  (14) 5 infls.   (13) 1 extrs.                                            
  498 points on ppm-axis = NY
      4.000000     3.992357     3.984714     3.977070     3.969427     3.961784     3.954141     3.946497     3.938854     3.931211
      3.923568     3.915925     3.908281     3.900638     3.892995     3.885352     3.877708     3.870065     3.862422     3.854779
      3.847136     3.839492     3.831849     3.824206     3.816563     3.808919     3.801276     3.793633     3.785990     3.778347
      3.770703     3.763060     3.755417     3.747774     3.740130     3.732487     3.724844     3.717201     3.709558     3.701914
      3.694271     3.686628     3.678985     3.671341     3.663698     3.656055     3.648412     3.640769     3.633125     3.625482
      3.617839     3.610196     3.602552     3.594909     3.587266     3.579623     3.571980     3.564336     3.556693     3.549050
      3.541407     3.533763     3.526120     3.518477     3.510834     3.503191     3.495547     3.487904     3.480261     3.472618
      3.464974     3.457331     3.449688     3.442045     3.434402     3.426758     3.419115     3.411472     3.403829     3.396185
      3.388542     3.380899     3.373256     3.365613     3.357969     3.350326     3.342683     3.335040     3.327396     3.319753
      3.312110     3.304467     3.296824     3.289180     3.281537     3.273894     3.266251     3.258607     3.250964     3.243321
      3.235678     3.228034     3.220391     3.212748     3.205105     3.197462     3.189818     3.182175     3.174532     3.166889
      3.159245     3.151602     3.143959     3.136316     3.128673     3.121029     3.113386     3.105743     3.098100     3.090456
      3.082813     3.075170     3.067527     3.059884     3.052240     3.044597     3.036954     3.029311     3.021667     3.014024
      3.006381     2.998738     2.991095     2.983451     2.975808     2.968165     2.960522     2.952878     2.945235     2.937592
      2.929949     2.922306     2.914662     2.907019     2.899376     2.891733     2.884089     2.876446     2.868803     2.861160
      2.853517     2.845873     2.838230     2.830587     2.822944     2.815300     2.807657     2.800014     2.792371     2.784728
      2.777084     2.769441     2.761798     2.754155     2.746511     2.738868     2.731225     2.723582     2.715939     2.708295
      2.700652     2.693009     2.685366     2.677722     2.670079     2.662436     2.654793     2.647150     2.639506     2.631863
      2.624220     2.616577     2.608933     2.601290     2.593647     2.586004     2.578361     2.570717     2.563074     2.555431
      2.547788     2.540144     2.532501     2.524858     2.517215     2.509572     2.501928     2.494285     2.486642     2.478999
      2.471355     2.463712     2.456069     2.448426     2.440783     2.433139     2.425496     2.417853     2.410210     2.402566
      2.394923     2.387280     2.379637     2.371994     2.364350     2.356707     2.349064     2.341421     2.333777     2.326134
      2.318491     2.310848     2.303205     2.295561     2.287918     2.280275     2.272632     2.264988     2.257345     2.249702
      2.242059     2.234416     2.226772     2.219129     2.211486     2.203843     2.196199     2.188556     2.180913     2.173270
      2.165627     2.157983     2.150340     2.142697     2.135054     2.127410     2.119767     2.112124     2.104481     2.096838
      2.089194     2.081551     2.073908     2.066265     2.058621     2.050978     2.043335     2.035692     2.028049     2.020405
      2.012762     2.005119     1.997476     1.989833     1.982190     1.974546     1.966903     1.959260     1.951617     1.943974
      1.936331     1.928688     1.921045     1.913402     1.905759     1.898115     1.890472     1.882829     1.875186     1.867543
      1.859900     1.852257     1.844614     1.836971     1.829327     1.821684     1.814041     1.806398     1.798755     1.791112
      1.783469     1.775826     1.768183     1.760540     1.752896     1.745253     1.737610     1.729967     1.722324     1.714681
      1.707038     1.699395     1.691752     1.684108     1.676465     1.668822     1.661179     1.653536     1.645893     1.638250
      1.630607     1.622964     1.615321     1.607677     1.600034     1.592391     1.584748     1.577105     1.569462     1.561819
      1.554176     1.546533     1.538890     1.531246     1.523603     1.515960     1.508317     1.500674     1.493031     1.485388
      1.477745     1.470102     1.462458     1.454815     1.447172     1.439529     1.431886     1.424243     1.416600     1.408957
      1.401314     1.393671     1.386027     1.378384     1.370741     1.363098     1.355455     1.347812     1.340169     1.332526
      1.324883     1.317240     1.309596     1.301953     1.294310     1.286667     1.279024     1.271381     1.263738     1.256095
      1.248452     1.240808     1.233165     1.225522     1.217879     1.210236     1.202593     1.194950     1.187307     1.179664
      1.172021     1.164377     1.156734     1.149091     1.141448     1.133805     1.126162     1.118519     1.110876     1.103233
      1.095590     1.087946     1.080303     1.072660     1.065017     1.057374     1.049731     1.042088     1.034445     1.026802
      1.019158     1.011515     1.003872     0.996229     0.988586     0.980943     0.973300     0.965657     0.958014     0.950371
      0.942727     0.935084     0.927441     0.919798     0.912155     0.904512     0.896869     0.889226     0.881583     0.873940
      0.866296     0.858653     0.851010     0.843367     0.835724     0.828081     0.820438     0.812795     0.805152     0.797508
      0.789865     0.782222     0.774579     0.766936     0.759293     0.751650     0.744007     0.736364     0.728721     0.721077
      0.713434     0.705791     0.698148     0.690505     0.682862     0.675219     0.667576     0.659933     0.652290     0.644646
      0.637003     0.629360     0.621717     0.614074     0.606431     0.598788     0.591145     0.583502     0.575858     0.568215
      0.560572     0.552929     0.545286     0.537643     0.530000     0.522357     0.514714     0.507071     0.499427     0.491784
      0.484141     0.476498     0.468855     0.461212     0.453569     0.445925     0.438282     0.430639     0.422996     0.415353
      0.407710     0.400067     0.392424     0.384780     0.377137     0.369494     0.361851     0.354208     0.346565     0.338922
      0.331278     0.323635     0.315992     0.308349     0.300706     0.293063     0.285420     0.277777     0.270133     0.262490
      0.254847     0.247204     0.239561     0.231918     0.224275     0.216631     0.208988     0.201345
 NY phased data points follow
   2.99214E+01  3.06617E+01  3.23253E+01  3.53825E+01  3.64994E+01  3.70127E+01  3.96449E+01  4.30812E+01  4.51941E+01  5.29086E+01
   4.99451E+01  4.91502E+01  4.88587E+01  4.62167E+01  4.03709E+01  3.74654E+01  3.58509E+01  3.38954E+01  3.02735E+01  3.32620E+01
   2.74664E+01  2.76028E+01  3.06923E+01  3.15736E+01  3.05242E+01  2.53449E+01  2.98615E+01  2.93492E+01  2.70583E+01  3.19701E+01
   2.68213E+01  3.40589E+01  2.90443E+01  2.80247E+01  3.26278E+01  2.89905E+01  2.63195E+01  2.91906E+01  2.67148E+01  2.99313E+01
   2.68652E+01  2.71152E+01  2.90199E+01  2.52176E+01  2.88306E+01  2.60393E+01  2.95633E+01  3.28895E+01  2.96958E+01  3.11150E+01
   2.67677E+01  2.41844E+01  2.65400E+01  2.45529E+01  2.57791E+01  2.51149E+01  2.32686E+01  2.38906E+01  2.28071E+01  1.96891E+01
   2.37973E+01  2.32507E+01  1.99778E+01  1.84397E+01  1.71438E+01  1.63524E+01  1.74742E+01  1.46951E+01  1.44586E+01  1.52249E+01
   1.57147E+01  1.49353E+01  1.66514E+01  1.58384E+01  1.42423E+01  1.48738E+01  1.64414E+01  1.82242E+01  1.47343E+01  1.71282E+01
   1.50036E+01  1.34858E+01  1.41014E+01  1.76217E+01  1.55685E+01  1.47841E+01  1.29768E+01  1.66980E+01  1.14814E+01  1.68216E+01
   1.53368E+01  1.72991E+01  1.87150E+01  1.96590E+01  1.82682E+01  1.78354E+01  2.53214E+01  1.71968E+01  2.15184E+01  2.91126E+01
   3.01019E+01  3.39303E+01  3.55089E+01  3.81746E+01  3.61438E+01  3.51785E+01  2.89416E+01  2.91075E+01  2.46916E+01  2.66807E+01
   2.32421E+01  2.04148E+01  2.13103E+01  2.21369E+01  1.81116E+01  1.78652E+01  2.16659E+01  2.07836E+01  2.07243E+01  2.13356E+01
   2.24386E+01  2.55185E+01  2.89321E+01  3.41225E+01  4.14626E+01  4.42839E+01  5.18815E+01  5.40207E+01  5.25251E+01  4.42647E+01
   4.19792E+01  3.94374E+01  3.80205E+01  3.42102E+01  2.93195E+01  2.64989E+01  2.60196E+01  2.51911E+01  2.26255E+01  2.52608E+01
   2.33274E+01  2.70028E+01  2.73724E+01  2.21710E+01  2.38513E+01  2.41947E+01  2.81736E+01  2.43204E+01  2.08108E+01  2.47197E+01
   2.56086E+01  2.17568E+01  2.38280E+01  2.27300E+01  2.23964E+01  2.10568E+01  2.13359E+01  2.16023E+01  2.36871E+01  1.86511E+01
   1.97368E+01  1.67786E+01  2.05413E+01  2.02074E+01  1.83202E+01  2.07722E+01  2.14159E+01  2.06084E+01  2.03351E+01  2.38121E+01
   1.73298E+01  1.85324E+01  1.63483E+01  1.90650E+01  1.72043E+01  1.44155E+01  1.83338E+01  1.47661E+01  1.76253E+01  1.31381E+01
   1.65641E+01  1.61773E+01  1.45925E+01  1.51978E+01  1.98376E+01  2.04405E+01  1.74945E+01  2.03772E+01  1.91714E+01  2.58801E+01
   2.56833E+01  2.68994E+01  2.78807E+01  2.91641E+01  2.94884E+01  2.88466E+01  3.02310E+01  2.85601E+01  2.78283E+01  2.73616E+01
   2.88409E+01  2.52988E+01  2.62951E+01  3.05744E+01  3.27184E+01  3.34175E+01  3.09574E+01  2.95898E+01  2.85566E+01  2.98003E+01
   3.02594E+01  3.08804E+01  3.05332E+01  3.68255E+01  3.90103E+01  3.85194E+01  4.15482E+01  3.59271E+01  3.83864E+01  3.52186E+01
   3.14356E+01  3.27697E+01  3.39378E+01  3.17520E+01  3.48923E+01  3.46830E+01  3.53267E+01  4.01389E+01  3.88745E+01  3.63806E+01
   3.82096E+01  3.85238E+01  3.64584E+01  3.67965E+01  3.91176E+01  3.90578E+01  3.47107E+01  3.18046E+01  3.54096E+01  3.62219E+01
   3.26235E+01  3.55826E+01  3.25697E+01  3.22871E+01  3.40573E+01  3.17635E+01  3.73069E+01  3.89269E+01  3.68382E+01  3.95768E+01
   3.79320E+01  4.14255E+01  4.16943E+01  4.48518E+01  5.04300E+01  5.19268E+01  5.63160E+01  6.12366E+01  7.09218E+01  7.57406E+01
   8.21527E+01  7.98326E+01  7.57389E+01  6.49857E+01  6.16448E+01  4.99117E+01  4.99469E+01  4.58059E+01  3.62778E+01  3.47517E+01
   3.48564E+01  3.26820E+01  2.95457E+01  2.92179E+01  3.28133E+01  2.88159E+01  2.79944E+01  2.69056E+01  2.44333E+01  2.69748E+01
   2.52730E+01  2.38453E+01  1.93813E+01  2.37139E+01  2.08051E+01  2.45926E+01  2.37497E+01  1.73800E+01  2.16202E+01  2.12572E+01
   2.14661E+01  2.06667E+01  2.09940E+01  1.85078E+01  1.65004E+01  1.73258E+01  1.73909E+01  1.77545E+01  1.58221E+01  1.64225E+01
   1.63535E+01  1.94103E+01  1.58391E+01  2.02990E+01  1.43308E+01  1.53754E+01  1.44380E+01  1.45991E+01  1.55420E+01  1.74923E+01
   1.50903E+01  1.25136E+01  1.41139E+01  1.22008E+01  1.38578E+01  1.60688E+01  1.26531E+01  1.39965E+01  1.24333E+01  1.15448E+01
   1.21386E+01  1.24898E+01  7.82380E+00  1.31596E+01  1.11474E+01  1.05602E+01  1.08081E+01  1.10269E+01  8.72713E+00  6.18627E+00
   6.70516E+00  6.24955E+00  3.61332E+00  5.12340E+00  2.07698E+00 -2.61711E+00 -3.47105E-01  5.66610E+00  2.36815E+00 -3.60397E-01
  -2.13755E+00 -8.91580E-01  4.49338E-01  1.32403E+00  3.41113E-01  2.63737E+00  1.78487E+00 -1.65742E+00 -2.98427E+00 -3.56258E+00
  -1.77208E+00 -5.75843E+00 -9.80404E+00 -7.45737E+00 -3.81969E+00 -2.75767E+00 -6.21265E+00 -8.96959E+00 -3.47779E+00 -4.53811E+00
  -6.04974E+00 -5.98644E+00 -3.66329E+00 -3.94066E+00 -4.42317E+00 -4.41274E+00 -5.22632E+00 -3.30473E+00 -3.90728E+00 -4.39467E+00
  -2.02148E+00 -3.02235E-01 -6.09427E+00  1.52760E+00 -7.02008E-01  8.06427E-01  3.71209E-01  2.36873E+00 -3.09617E+00 -6.41777E+00
  -1.18365E+00 -1.93495E+00  2.42614E-01  9.93038E-01 -1.74933E-01 -2.31907E+00  2.41160E+00  2.03650E+00 -1.63743E+00 -1.42897E+00
  -1.17839E+00  2.06834E+00  1.39248E-01  6.53253E-01  1.88932E+00  6.43161E-02  2.06936E+00  6.58915E-01 -2.64498E-01  1.74111E+00
  -1.18893E-02 -3.54162E-01  9.72221E-02  3.06950E+00 -1.73006E-01  3.41731E-01 -2.14938E-01  3.34402E+00  1.76199E+00  3.19385E+00
   2.99295E+00  5.51109E+00  2.65944E+00  4.02192E+00  3.12330E+00  4.47775E-02 -3.77288E-01 -4.97920E-01 -4.64129E-01  1.46029E+00
   1.90272E+00  6.98134E-01 -1.87465E-01  2.61853E+00  1.31893E+00  2.05507E+00  1.48964E+00  3.38922E+00  5.61043E+00  1.34204E+00
   3.05747E+00 -8.37824E-01  2.42196E+00  2.32297E+00  2.02771E+00  1.22681E+00  5.54202E+00  3.97302E+00  2.65976E+00  6.86750E-01
   4.77474E+00  4.66313E+00  2.37659E+00  2.16861E-01  2.46827E+00 -2.51009E+00  3.49183E+00  1.59956E+00  3.20323E+00  1.78526E-02
  -1.32073E-01 -7.92107E-01  3.19107E+00  2.46409E+00  1.98384E+00 -2.66953E+00  3.25050E+00  1.31487E+00  1.94603E+00  3.24092E+00
  -6.36521E-01  2.76341E+00 -1.39918E-01  3.85758E+00  1.64899E+00 -1.83388E+00  2.99818E-01  2.12854E+00  2.47350E+00  1.23505E+00
   2.58769E+00  6.36896E+00  3.96958E+00  1.29662E+00 -1.85126E-01  2.05559E+00  1.52606E+00  1.85990E+00  2.91517E+00  2.47298E+00
  -7.65971E-01  7.20909E-01  9.93411E-01  2.77651E+00  4.22527E+00  1.32969E+00  4.07728E+00  5.93491E+00  2.28702E+00  1.51876E+00
   7.98743E-01  4.08448E+00  3.00515E+00  3.69832E+00 -1.50001E-01  2.35558E+00  1.78074E+00 -7.47448E-01
 NY points of the fit to the data follow
   3.02150E+01  3.05534E+01  3.15250E+01  3.29448E+01  3.48602E+01  3.74032E+01  4.05827E+01  4.40668E+01  4.72194E+01  4.92829E+01
   4.97321E+01  4.85964E+01  4.63976E+01  4.37847E+01  4.12172E+01  3.88251E+01  3.65086E+01  3.42413E+01  3.22097E+01  3.07592E+01
   2.97263E+01  2.89417E+01  2.84774E+01  2.82646E+01  2.81520E+01  2.81496E+01  2.84193E+01  2.91209E+01  3.02305E+01  3.15653E+01
   3.27799E+01  3.34614E+01  3.33717E+01  3.25310E+01  3.11884E+01  2.97021E+01  2.83084E+01  2.71033E+01  2.61181E+01  2.54444E+01
   2.51768E+01  2.52093E+01  2.53979E+01  2.57253E+01  2.61871E+01  2.67017E+01  2.70866E+01  2.71744E+01  2.68691E+01  2.61958E+01
   2.53054E+01  2.43949E+01  2.36181E+01  2.30093E+01  2.25084E+01  2.20715E+01  2.17346E+01  2.15454E+01  2.14816E+01  2.14481E+01
   2.13484E+01  2.11269E+01  2.07888E+01  2.03914E+01  2.00287E+01  1.97537E+01  1.95675E+01  1.94450E+01  1.93616E+01  1.93138E+01
   1.92909E+01  1.92669E+01  1.92163E+01  1.91134E+01  1.89584E+01  1.87693E+01  1.85682E+01  1.83747E+01  1.81845E+01  1.79720E+01
   1.77253E+01  1.74526E+01  1.71725E+01  1.68707E+01  1.65319E+01  1.61647E+01  1.58082E+01  1.55136E+01  1.53340E+01  1.52904E+01
   1.53557E+01  1.54884E+01  1.56557E+01  1.58675E+01  1.63889E+01  1.77310E+01  1.95235E+01  2.14439E+01  2.37631E+01  2.68129E+01
   3.04714E+01  3.41004E+01  3.68083E+01  3.78077E+01  3.68788E+01  3.45487E+01  3.17165E+01  2.90582E+01  2.67774E+01  2.47029E+01
   2.26272E+01  2.06436E+01  1.91705E+01  1.85648E+01  1.83889E+01  1.83373E+01  1.83560E+01  1.84769E+01  1.90328E+01  2.08416E+01
   2.35370E+01  2.65520E+01  3.01585E+01  3.48218E+01  4.04085E+01  4.60518E+01  5.04901E+01  5.24925E+01  5.15721E+01  4.84010E+01
   4.42875E+01  4.02850E+01  3.67654E+01  3.34695E+01  3.00581E+01  2.66415E+01  2.38934E+01  2.25658E+01  2.21929E+01  2.22056E+01
   2.23731E+01  2.25451E+01  2.26436E+01  2.26691E+01  2.26601E+01  2.26207E+01  2.25421E+01  2.24259E+01  2.22724E+01  2.20946E+01
   2.19241E+01  2.17799E+01  2.16844E+01  2.15971E+01  2.15097E+01  2.14532E+01  2.14274E+01  2.14157E+01  2.13676E+01  2.12571E+01
   2.11441E+01  2.11125E+01  2.11968E+01  2.13531E+01  2.14849E+01  2.15033E+01  2.13877E+01  2.11883E+01  2.09728E+01  2.07945E+01
   2.06940E+01  2.06074E+01  2.04696E+01  2.02737E+01  2.00930E+01  2.00497E+01  2.01681E+01  2.03814E+01  2.06020E+01  2.07501E+01
   2.08380E+01  2.09665E+01  2.12006E+01  2.15549E+01  2.20119E+01  2.25429E+01  2.31394E+01  2.38667E+01  2.47614E+01  2.57198E+01
   2.65147E+01  2.69954E+01  2.71870E+01  2.72091E+01  2.71753E+01  2.71713E+01  2.72964E+01  2.76200E+01  2.81764E+01  2.89475E+01
   2.98427E+01  3.07069E+01  3.12931E+01  3.15394E+01  3.14150E+01  3.08459E+01  2.98950E+01  2.88302E+01  2.80183E+01  2.76715E+01
   2.78722E+01  2.86677E+01  2.99609E+01  3.14772E+01  3.28391E+01  3.37214E+01  3.39964E+01  3.36569E+01  3.27466E+01  3.14845E+01
   3.02024E+01  2.93328E+01  2.91034E+01  2.94733E+01  3.03071E+01  3.14378E+01  3.26754E+01  3.37206E+01  3.44071E+01  3.48667E+01
   3.52405E+01  3.55222E+01  3.56616E+01  3.57503E+01  3.59180E+01  3.61486E+01  3.63984E+01  3.66179E+01  3.67048E+01  3.65612E+01
   3.62157E+01  3.57757E+01  3.53956E+01  3.52443E+01  3.53644E+01  3.56653E+01  3.60156E+01  3.64029E+01  3.68914E+01  3.74557E+01
   3.80777E+01  3.89661E+01  4.09850E+01  4.46781E+01  4.88927E+01  5.32023E+01  5.81988E+01  6.42658E+01  7.08520E+01  7.65997E+01
   7.98121E+01  7.92160E+01  7.48568E+01  6.81858E+01  6.10419E+01  5.46176E+01  4.91336E+01  4.40625E+01  3.90278E+01  3.44300E+01
   3.12671E+01  2.98037E+01  2.89619E+01  2.83094E+01  2.77417E+01  2.71931E+01  2.66267E+01  2.60533E+01  2.54818E+01  2.49212E+01
   2.43747E+01  2.38404E+01  2.33156E+01  2.28065E+01  2.23198E+01  2.18524E+01  2.13984E+01  2.09572E+01  2.05324E+01  2.01263E+01
   1.97371E+01  1.93622E+01  1.90039E+01  1.86636E+01  1.83405E+01  1.80344E+01  1.77470E+01  1.74800E+01  1.72343E+01  1.70104E+01
   1.68079E+01  1.66255E+01  1.64609E+01  1.63104E+01  1.61690E+01  1.60316E+01  1.58928E+01  1.57466E+01  1.55868E+01  1.54066E+01
   1.52003E+01  1.49628E+01  1.46898E+01  1.43785E+01  1.40271E+01  1.36352E+01  1.32038E+01  1.27357E+01  1.22349E+01  1.17068E+01
   1.11562E+01  1.05881E+01  1.00094E+01  9.42659E+00  8.84471E+00  8.26764E+00  7.69875E+00  7.14260E+00  6.60422E+00  6.08722E+00
   5.59458E+00  5.12836E+00  4.68906E+00  4.27548E+00  3.88536E+00  3.51599E+00  3.16448E+00  2.82826E+00  2.50489E+00  2.19340E+00
   1.89413E+00  1.60690E+00  1.33081E+00  1.06481E+00  8.08488E-01  5.62638E-01  3.27751E-01  1.03097E-01 -1.11823E-01 -3.17317E-01
  -5.13608E-01 -7.00845E-01 -8.79128E-01 -1.04856E+00 -1.20927E+00 -1.36143E+00 -1.50517E+00 -1.64062E+00 -1.76788E+00 -1.88704E+00
  -1.99822E+00 -2.10149E+00 -2.19687E+00 -2.28445E+00 -2.36438E+00 -2.43678E+00 -2.50170E+00 -2.55908E+00 -2.60875E+00 -2.65043E+00
  -2.68376E+00 -2.70831E+00 -2.72359E+00 -2.72900E+00 -2.72385E+00 -2.70738E+00 -2.67881E+00 -2.63731E+00 -2.58204E+00 -2.51210E+00
  -2.42658E+00 -2.32459E+00 -2.20534E+00 -2.06810E+00 -1.91229E+00 -1.73749E+00 -1.54350E+00 -1.33047E+00 -1.09892E+00 -8.49834E-01
  -5.84685E-01 -3.05472E-01 -1.47838E-02  2.84184E-01  5.87657E-01  8.91366E-01  1.19064E+00  1.48054E+00  1.75598E+00  2.01190E+00
   2.24350E+00  2.44644E+00  2.61702E+00  2.75238E+00  2.85057E+00  2.91067E+00  2.93283E+00  2.91829E+00  2.86934E+00  2.78918E+00
   2.68175E+00  2.55149E+00  2.40320E+00  2.24185E+00  2.07231E+00  1.89924E+00  1.72687E+00  1.55897E+00  1.39873E+00  1.24877E+00
   1.11107E+00  9.87007E-01  8.77424E-01  7.82676E-01  7.02726E-01  6.37206E-01  5.85476E-01  5.46697E-01  5.19903E-01  5.04071E-01
   4.98163E-01  5.01144E-01  5.12004E-01  5.29774E-01  5.53555E-01  5.82534E-01  6.15975E-01  6.53208E-01  6.93616E-01  7.36643E-01
   7.81801E-01  8.28666E-01  8.76859E-01  9.26031E-01  9.75859E-01  1.02605E+00  1.07637E+00  1.12658E+00  1.17648E+00  1.22589E+00
   1.27461E+00  1.32248E+00  1.36935E+00  1.41514E+00  1.45980E+00  1.50332E+00  1.54568E+00  1.58689E+00  1.62696E+00  1.66591E+00
   1.70376E+00  1.74050E+00  1.77615E+00  1.81075E+00  1.84434E+00  1.87694E+00  1.90857E+00  1.93927E+00  1.96906E+00  1.99800E+00
   2.02612E+00  2.05347E+00  2.08008E+00  2.10597E+00  2.13121E+00  2.15583E+00  2.17990E+00  2.20345E+00  2.22651E+00  2.24912E+00
   2.27135E+00  2.29325E+00  2.31487E+00  2.33624E+00  2.35742E+00  2.37844E+00  2.39938E+00  2.42030E+00  2.44124E+00  2.46224E+00
   2.48335E+00  2.50464E+00  2.52618E+00  2.54802E+00  2.57022E+00  2.59283E+00  2.61592E+00  2.63955E+00
 NY background values follow
     2.959E+01    2.940E+01    2.921E+01    2.903E+01    2.884E+01    2.865E+01    2.846E+01    2.827E+01    2.808E+01    2.789E+01
     2.770E+01    2.751E+01    2.732E+01    2.713E+01    2.694E+01    2.675E+01    2.656E+01    2.637E+01    2.618E+01    2.599E+01
     2.581E+01    2.562E+01    2.543E+01    2.525E+01    2.506E+01    2.488E+01    2.469E+01    2.451E+01    2.433E+01    2.414E+01
     2.396E+01    2.378E+01    2.360E+01    2.343E+01    2.325E+01    2.307E+01    2.290E+01    2.272E+01    2.255E+01    2.238E+01
     2.221E+01    2.204E+01    2.188E+01    2.171E+01    2.154E+01    2.138E+01    2.122E+01    2.106E+01    2.090E+01    2.075E+01
     2.059E+01    2.044E+01    2.029E+01    2.014E+01    1.999E+01    1.985E+01    1.971E+01    1.957E+01    1.943E+01    1.929E+01
     1.916E+01    1.903E+01    1.890E+01    1.878E+01    1.865E+01    1.853E+01    1.842E+01    1.830E+01    1.819E+01    1.809E+01
     1.798E+01    1.788E+01    1.778E+01    1.769E+01    1.760E+01    1.751E+01    1.742E+01    1.734E+01    1.727E+01    1.719E+01
     1.712E+01    1.706E+01    1.700E+01    1.694E+01    1.689E+01    1.684E+01    1.679E+01    1.675E+01    1.672E+01    1.669E+01
     1.666E+01    1.664E+01    1.662E+01    1.660E+01    1.660E+01    1.659E+01    1.659E+01    1.659E+01    1.660E+01    1.661E+01
     1.663E+01    1.664E+01    1.667E+01    1.669E+01    1.672E+01    1.675E+01    1.679E+01    1.683E+01    1.687E+01    1.691E+01
     1.696E+01    1.701E+01    1.706E+01    1.712E+01    1.718E+01    1.724E+01    1.730E+01    1.736E+01    1.743E+01    1.750E+01
     1.757E+01    1.764E+01    1.771E+01    1.778E+01    1.786E+01    1.794E+01    1.802E+01    1.810E+01    1.818E+01    1.826E+01
     1.834E+01    1.842E+01    1.851E+01    1.859E+01    1.868E+01    1.876E+01    1.885E+01    1.893E+01    1.902E+01    1.911E+01
     1.919E+01    1.928E+01    1.937E+01    1.946E+01    1.955E+01    1.964E+01    1.973E+01    1.982E+01    1.991E+01    2.000E+01
     2.010E+01    2.020E+01    2.029E+01    2.039E+01    2.049E+01    2.059E+01    2.069E+01    2.080E+01    2.090E+01    2.101E+01
     2.112E+01    2.123E+01    2.135E+01    2.146E+01    2.158E+01    2.170E+01    2.182E+01    2.194E+01    2.207E+01    2.220E+01
     2.233E+01    2.246E+01    2.260E+01    2.273E+01    2.288E+01    2.302E+01    2.317E+01    2.332E+01    2.347E+01    2.362E+01
     2.378E+01    2.394E+01    2.411E+01    2.428E+01    2.445E+01    2.462E+01    2.480E+01    2.497E+01    2.515E+01    2.533E+01
     2.551E+01    2.569E+01    2.587E+01    2.605E+01    2.624E+01    2.642E+01    2.660E+01    2.678E+01    2.696E+01    2.713E+01
     2.731E+01    2.748E+01    2.765E+01    2.782E+01    2.798E+01    2.814E+01    2.830E+01    2.846E+01    2.861E+01    2.875E+01
     2.890E+01    2.903E+01    2.916E+01    2.929E+01    2.941E+01    2.953E+01    2.963E+01    2.974E+01    2.983E+01    2.992E+01
     3.000E+01    3.008E+01    3.014E+01    3.020E+01    3.025E+01    3.029E+01    3.032E+01    3.034E+01    3.035E+01    3.036E+01
     3.035E+01    3.034E+01    3.032E+01    3.029E+01    3.025E+01    3.020E+01    3.014E+01    3.008E+01    3.001E+01    2.993E+01
     2.984E+01    2.974E+01    2.964E+01    2.953E+01    2.941E+01    2.929E+01    2.915E+01    2.901E+01    2.886E+01    2.871E+01
     2.855E+01    2.838E+01    2.821E+01    2.803E+01    2.784E+01    2.764E+01    2.744E+01    2.724E+01    2.703E+01    2.681E+01
     2.658E+01    2.635E+01    2.612E+01    2.588E+01    2.563E+01    2.538E+01    2.512E+01    2.486E+01    2.459E+01    2.432E+01
     2.404E+01    2.376E+01    2.348E+01    2.319E+01    2.289E+01    2.259E+01    2.229E+01    2.198E+01    2.167E+01    2.136E+01
     2.104E+01    2.072E+01    2.040E+01    2.007E+01    1.974E+01    1.941E+01    1.907E+01    1.873E+01    1.839E+01    1.805E+01
     1.771E+01    1.736E+01    1.701E+01    1.666E+01    1.631E+01    1.596E+01    1.561E+01    1.525E+01    1.490E+01    1.454E+01
     1.418E+01    1.383E+01    1.347E+01    1.311E+01    1.275E+01    1.240E+01    1.204E+01    1.168E+01    1.133E+01    1.097E+01
     1.061E+01    1.026E+01    9.908E+00    9.556E+00    9.205E+00    8.857E+00    8.509E+00    8.164E+00    7.821E+00    7.479E+00
     7.140E+00    6.803E+00    6.469E+00    6.138E+00    5.809E+00    5.483E+00    5.160E+00    4.841E+00    4.525E+00    4.212E+00
     3.903E+00    3.598E+00    3.297E+00    3.000E+00    2.707E+00    2.419E+00    2.135E+00    1.855E+00    1.581E+00    1.311E+00
     1.047E+00    7.878E-01    5.339E-01    2.856E-01    4.291E-02   -1.940E-01   -4.249E-01   -6.498E-01   -8.684E-01   -1.081E+00
    -1.286E+00   -1.486E+00   -1.678E+00   -1.863E+00   -2.042E+00   -2.213E+00   -2.376E+00   -2.533E+00   -2.681E+00   -2.822E+00
    -2.955E+00   -3.080E+00   -3.196E+00   -3.305E+00   -3.405E+00   -3.498E+00   -3.583E+00   -3.660E+00   -3.730E+00   -3.793E+00
    -3.848E+00   -3.897E+00   -3.940E+00   -3.975E+00   -4.005E+00   -4.028E+00   -4.045E+00   -4.056E+00   -4.062E+00   -4.062E+00
    -4.057E+00   -4.046E+00   -4.031E+00   -4.011E+00   -3.986E+00   -3.956E+00   -3.922E+00   -3.884E+00   -3.842E+00   -3.796E+00
    -3.747E+00   -3.694E+00   -3.637E+00   -3.577E+00   -3.515E+00   -3.449E+00   -3.381E+00   -3.310E+00   -3.237E+00   -3.162E+00
    -3.085E+00   -3.005E+00   -2.925E+00   -2.842E+00   -2.759E+00   -2.674E+00   -2.588E+00   -2.501E+00   -2.414E+00   -2.325E+00
    -2.237E+00   -2.147E+00   -2.058E+00   -1.967E+00   -1.877E+00   -1.786E+00   -1.695E+00   -1.603E+00   -1.512E+00   -1.420E+00
    -1.329E+00   -1.237E+00   -1.146E+00   -1.055E+00   -9.640E-01   -8.734E-01   -7.831E-01   -6.933E-01   -6.039E-01   -5.150E-01
    -4.268E-01   -3.392E-01   -2.523E-01   -1.662E-01   -8.088E-02    3.499E-03    8.693E-02    1.693E-01    2.507E-01    3.309E-01
     4.099E-01    4.876E-01    5.641E-01    6.391E-01    7.128E-01    7.849E-01    8.555E-01    9.245E-01    9.918E-01    1.057E+00
     1.121E+00    1.183E+00    1.243E+00    1.301E+00    1.357E+00    1.412E+00    1.464E+00    1.515E+00    1.564E+00    1.611E+00
     1.657E+00    1.702E+00    1.745E+00    1.786E+00    1.826E+00    1.865E+00    1.902E+00    1.938E+00    1.974E+00    2.008E+00
     2.040E+00    2.072E+00    2.103E+00    2.133E+00    2.162E+00    2.191E+00    2.218E+00    2.245E+00    2.272E+00    2.297E+00
     2.322E+00    2.347E+00    2.371E+00    2.395E+00    2.419E+00    2.442E+00    2.465E+00    2.488E+00    2.510E+00    2.533E+00
     2.556E+00    2.578E+00    2.601E+00    2.624E+00    2.647E+00    2.670E+00    2.694E+00    2.718E+00
 Ala      Conc. = 3.20E+00
