 LCModel (Version 6.3-1L) Copyright: S.W. Provencher.          Ref.: Magn. Reson. Med. 30:672-679 (1993).                
 Slice#1 Row#2 Col#12  K_02_press_1_raw_act
 36 lines in following concentration table = NCONC+1
    Conc.  %SD /Cr+PCr  Metabolite                                         
 8.81E+03  25%  95.378 Ala                                                 
   13.364  86%   0.145 Asp                                                 
    0.000 999%   0.000 Cr                                                  
   92.328  69%   1.000 PCr                                                 
    8.183  84% 8.9E-02 GABA                                                
    8.060  86% 8.7E-02 Glc                                                 
    0.000 999%   0.000 Gln                                                 
    0.000 999%   0.000 Glu                                                 
    0.000 999%   0.000 GPC                                                 
   59.668  43%   0.646 PCh                                                 
    0.000 999%   0.000 GSH                                                 
  146.087 211%   1.582 Ins                                                 
 9.67E+03  28% 104.716 Lac                                                 
    0.000 999%   0.000 NAA                                                 
    0.000 999%   0.000 NAAG                                                
    2.864  81% 3.1E-02 Scyllo                                              
   13.653  84%   0.148 Tau                                                 
   46.880 102%   0.508 -CrCH2                                              
   59.668  43%   0.646 GPC+PCh                                             
    0.000 999%   0.000 NAA+NAAG                                            
   92.328  69%   1.000 Cr+PCr                                              
    0.000 999%   0.000 Glu+Gln                                             
 9.86E+03  60% 106.846 Lip13a                                              
 1.88E+03  39%  20.321 Lip13b                                              
 8.99E+03  17%  97.404 Lip09                                               
 2.59E+04  10% 280.261 MM09                                                
  772.808  50%   8.370 Lip20                                               
    0.000 999%   0.000 MM20                                                
 1.85E+04  16% 200.585 MM12                                                
 7.73E+04   7% 837.094 MM14                                                
 1.28E+04  14% 138.395 MM17                                                
 1.17E+04  47% 127.167 Lip13a+Lip13b                                       
 1.08E+05   4% 1.2E+03 MM14+Lip13a+Lip13b+MM12                             
 3.49E+04   5% 377.665 MM09+Lip09                                          
  772.808  50%   8.370 MM20+Lip20                                          
   6 lines in following misc. output table
  FWHM = 0.122 ppm    S/N =  81                                            
  Data shift = 0.069 ppm                                                   
  Ph:  16 deg     105.5 deg/ppm                                            
  alphaB,S = 8.5E+01,   3.1E+02                                            
    6 spline knots.   Ns = 9(2)                                            
  (11) 3 infls.   ( 5) 1 extrs.                                            
  498 points on ppm-axis = NY
      4.000000     3.992357     3.984714     3.977070     3.969427     3.961784     3.954141     3.946497     3.938854     3.931211
      3.923568     3.915925     3.908281     3.900638     3.892995     3.885352     3.877708     3.870065     3.862422     3.854779
      3.847136     3.839492     3.831849     3.824206     3.816563     3.808919     3.801276     3.793633     3.785990     3.778347
      3.770703     3.763060     3.755417     3.747774     3.740130     3.732487     3.724844     3.717201     3.709558     3.701914
      3.694271     3.686628     3.678985     3.671341     3.663698     3.656055     3.648412     3.640769     3.633125     3.625482
      3.617839     3.610196     3.602552     3.594909     3.587266     3.579623     3.571980     3.564336     3.556693     3.549050
      3.541407     3.533763     3.526120     3.518477     3.510834     3.503191     3.495547     3.487904     3.480261     3.472618
      3.464974     3.457331     3.449688     3.442045     3.434402     3.426758     3.419115     3.411472     3.403829     3.396185
      3.388542     3.380899     3.373256     3.365613     3.357969     3.350326     3.342683     3.335040     3.327396     3.319753
      3.312110     3.304467     3.296824     3.289180     3.281537     3.273894     3.266251     3.258607     3.250964     3.243321
      3.235678     3.228034     3.220391     3.212748     3.205105     3.197462     3.189818     3.182175     3.174532     3.166889
      3.159245     3.151602     3.143959     3.136316     3.128673     3.121029     3.113386     3.105743     3.098100     3.090456
      3.082813     3.075170     3.067527     3.059884     3.052240     3.044597     3.036954     3.029311     3.021667     3.014024
      3.006381     2.998738     2.991095     2.983451     2.975808     2.968165     2.960522     2.952878     2.945235     2.937592
      2.929949     2.922306     2.914662     2.907019     2.899376     2.891733     2.884089     2.876446     2.868803     2.861160
      2.853517     2.845873     2.838230     2.830587     2.822944     2.815300     2.807657     2.800014     2.792371     2.784728
      2.777084     2.769441     2.761798     2.754155     2.746511     2.738868     2.731225     2.723582     2.715939     2.708295
      2.700652     2.693009     2.685366     2.677722     2.670079     2.662436     2.654793     2.647150     2.639506     2.631863
      2.624220     2.616577     2.608933     2.601290     2.593647     2.586004     2.578361     2.570717     2.563074     2.555431
      2.547788     2.540144     2.532501     2.524858     2.517215     2.509572     2.501928     2.494285     2.486642     2.478999
      2.471355     2.463712     2.456069     2.448426     2.440783     2.433139     2.425496     2.417853     2.410210     2.402566
      2.394923     2.387280     2.379637     2.371994     2.364350     2.356707     2.349064     2.341421     2.333777     2.326134
      2.318491     2.310848     2.303205     2.295561     2.287918     2.280275     2.272632     2.264988     2.257345     2.249702
      2.242059     2.234416     2.226772     2.219129     2.211486     2.203843     2.196199     2.188556     2.180913     2.173270
      2.165627     2.157983     2.150340     2.142697     2.135054     2.127410     2.119767     2.112124     2.104481     2.096838
      2.089194     2.081551     2.073908     2.066265     2.058621     2.050978     2.043335     2.035692     2.028049     2.020405
      2.012762     2.005119     1.997476     1.989833     1.982190     1.974546     1.966903     1.959260     1.951617     1.943974
      1.936331     1.928688     1.921045     1.913402     1.905759     1.898115     1.890472     1.882829     1.875186     1.867543
      1.859900     1.852257     1.844614     1.836971     1.829327     1.821684     1.814041     1.806398     1.798755     1.791112
      1.783469     1.775826     1.768183     1.760540     1.752896     1.745253     1.737610     1.729967     1.722324     1.714681
      1.707038     1.699395     1.691752     1.684108     1.676465     1.668822     1.661179     1.653536     1.645893     1.638250
      1.630607     1.622964     1.615321     1.607677     1.600034     1.592391     1.584748     1.577105     1.569462     1.561819
      1.554176     1.546533     1.538890     1.531246     1.523603     1.515960     1.508317     1.500674     1.493031     1.485388
      1.477745     1.470102     1.462458     1.454815     1.447172     1.439529     1.431886     1.424243     1.416600     1.408957
      1.401314     1.393671     1.386027     1.378384     1.370741     1.363098     1.355455     1.347812     1.340169     1.332526
      1.324883     1.317240     1.309596     1.301953     1.294310     1.286667     1.279024     1.271381     1.263738     1.256095
      1.248452     1.240808     1.233165     1.225522     1.217879     1.210236     1.202593     1.194950     1.187307     1.179664
      1.172021     1.164377     1.156734     1.149091     1.141448     1.133805     1.126162     1.118519     1.110876     1.103233
      1.095590     1.087946     1.080303     1.072660     1.065017     1.057374     1.049731     1.042088     1.034445     1.026802
      1.019158     1.011515     1.003872     0.996229     0.988586     0.980943     0.973300     0.965657     0.958014     0.950371
      0.942727     0.935084     0.927441     0.919798     0.912155     0.904512     0.896869     0.889226     0.881583     0.873940
      0.866296     0.858653     0.851010     0.843367     0.835724     0.828081     0.820438     0.812795     0.805152     0.797508
      0.789865     0.782222     0.774579     0.766936     0.759293     0.751650     0.744007     0.736364     0.728721     0.721077
      0.713434     0.705791     0.698148     0.690505     0.682862     0.675219     0.667576     0.659933     0.652290     0.644646
      0.637003     0.629360     0.621717     0.614074     0.606431     0.598788     0.591145     0.583502     0.575858     0.568215
      0.560572     0.552929     0.545286     0.537643     0.530000     0.522357     0.514714     0.507071     0.499427     0.491784
      0.484141     0.476498     0.468855     0.461212     0.453569     0.445925     0.438282     0.430639     0.422996     0.415353
      0.407710     0.400067     0.392424     0.384780     0.377137     0.369494     0.361851     0.354208     0.346565     0.338922
      0.331278     0.323635     0.315992     0.308349     0.300706     0.293063     0.285420     0.277777     0.270133     0.262490
      0.254847     0.247204     0.239561     0.231918     0.224275     0.216631     0.208988     0.201345
 NY phased data points follow
   5.66988E+00  8.17119E+00  5.21762E+00  9.60345E+00  7.62618E+00  7.31044E+00  8.45808E+00  4.12184E+00  3.64678E+00  4.24314E+00
   6.43006E+00  9.58236E+00  5.23171E+00  2.01250E+00  2.87541E+00  5.41988E+00  8.32694E-01  3.35561E+00  8.31223E-01  4.17314E-01
   3.04342E+00 -9.48007E-01  2.68841E+00  1.60256E+00 -5.58022E-01  1.40433E+00  5.75494E-01  3.38013E+00 -1.32030E+00 -7.49101E-01
  -6.43645E-01  1.95333E+00 -4.35847E-01 -1.35025E-01 -2.72562E+00 -2.18373E+00 -3.17233E+00 -2.55046E+00 -2.10602E+00 -1.06822E+00
  -2.49849E+00 -2.32937E+00 -2.07230E+00 -1.80801E+00 -1.89943E+00 -4.48293E+00 -5.54250E+00 -8.48290E-01 -8.51206E+00 -6.89716E+00
  -6.18522E+00 -8.33704E+00 -9.19353E+00 -4.08820E+00 -5.38612E+00 -7.41670E+00 -4.00739E+00 -1.29911E+01 -9.16164E+00 -9.81623E+00
  -1.28713E+01 -1.18051E+01 -1.06619E+01 -9.86455E+00 -1.14874E+01 -1.10691E+01 -1.12514E+01 -1.15329E+01 -1.27052E+01 -1.29990E+01
  -1.25872E+01 -1.33341E+01 -1.04600E+01 -1.32514E+01 -1.44630E+01 -1.59659E+01 -1.46476E+01 -1.21832E+01 -1.85217E+01 -1.42009E+01
  -1.41224E+01 -1.78900E+01 -1.63574E+01 -1.49465E+01 -1.70829E+01 -1.70060E+01 -1.60869E+01 -1.78324E+01 -1.70816E+01 -1.54052E+01
  -1.76841E+01 -2.05067E+01 -2.04364E+01 -1.67912E+01 -1.50876E+01 -1.89160E+01 -2.32273E+01 -1.94488E+01 -2.12043E+01 -1.94071E+01
  -2.28492E+01 -2.35366E+01 -2.55348E+01 -2.33791E+01 -2.53390E+01 -2.16453E+01 -2.37033E+01 -2.55509E+01 -2.43570E+01 -2.74417E+01
  -2.70122E+01 -2.52950E+01 -2.72471E+01 -2.75127E+01 -2.55698E+01 -3.09298E+01 -2.76725E+01 -2.77699E+01 -2.71423E+01 -2.73163E+01
  -2.99322E+01 -2.57342E+01 -2.81747E+01 -2.88788E+01 -3.43560E+01 -3.09258E+01 -3.14414E+01 -2.95090E+01 -3.45118E+01 -3.06769E+01
  -3.34707E+01 -3.60394E+01 -3.65387E+01 -3.13411E+01 -3.55156E+01 -3.26852E+01 -3.69389E+01 -3.46843E+01 -3.73226E+01 -3.57323E+01
  -3.84259E+01 -4.23990E+01 -3.61921E+01 -3.83748E+01 -3.63619E+01 -3.73822E+01 -4.12491E+01 -3.69377E+01 -3.67755E+01 -3.89192E+01
  -3.75533E+01 -4.05456E+01 -4.04786E+01 -3.98507E+01 -4.08175E+01 -4.03550E+01 -4.10477E+01 -3.95469E+01 -3.92331E+01 -4.29173E+01
  -4.12876E+01 -3.94548E+01 -4.12207E+01 -4.17476E+01 -4.42919E+01 -4.15807E+01 -4.41660E+01 -4.18265E+01 -4.38361E+01 -4.42802E+01
  -4.14429E+01 -4.53977E+01 -4.42952E+01 -4.49231E+01 -4.71170E+01 -4.72043E+01 -4.85655E+01 -4.99925E+01 -4.86468E+01 -4.92210E+01
  -5.13167E+01 -4.95505E+01 -5.11613E+01 -5.05171E+01 -5.27411E+01 -5.15619E+01 -4.67120E+01 -5.41834E+01 -5.11572E+01 -4.98773E+01
  -5.45548E+01 -5.05610E+01 -5.33048E+01 -5.08369E+01 -5.24624E+01 -5.49436E+01 -5.44117E+01 -5.13622E+01 -5.35253E+01 -5.65512E+01
  -5.46289E+01 -5.32511E+01 -5.74496E+01 -5.74767E+01 -5.20278E+01 -5.37329E+01 -5.51790E+01 -5.60280E+01 -5.64634E+01 -5.65128E+01
  -5.60705E+01 -5.70662E+01 -5.88617E+01 -5.90781E+01 -5.82300E+01 -5.70100E+01 -5.73623E+01 -5.64737E+01 -5.44582E+01 -5.75062E+01
  -5.97982E+01 -5.68688E+01 -6.06426E+01 -5.98352E+01 -5.62107E+01 -5.70437E+01 -5.58428E+01 -5.59270E+01 -6.14673E+01 -5.69038E+01
  -6.03263E+01 -5.84027E+01 -5.90439E+01 -5.83833E+01 -6.32151E+01 -5.96209E+01 -6.27052E+01 -6.04843E+01 -6.14677E+01 -5.71396E+01
  -5.75206E+01 -6.27053E+01 -6.25556E+01 -5.77061E+01 -5.98322E+01 -5.63012E+01 -5.78505E+01 -5.81069E+01 -5.92716E+01 -5.63205E+01
  -5.47662E+01 -5.74113E+01 -5.72193E+01 -5.90421E+01 -6.07633E+01 -5.88409E+01 -6.10631E+01 -6.09362E+01 -5.70381E+01 -5.66926E+01
  -5.81445E+01 -5.76684E+01 -5.70213E+01 -5.73099E+01 -5.92867E+01 -5.40456E+01 -5.69411E+01 -5.67470E+01 -5.36148E+01 -5.33789E+01
  -5.30588E+01 -5.49285E+01 -5.10489E+01 -4.65547E+01 -4.70632E+01 -4.76686E+01 -4.74769E+01 -4.21290E+01 -4.83664E+01 -4.58023E+01
  -4.09269E+01 -4.13415E+01 -4.15572E+01 -4.00545E+01 -4.07718E+01 -3.82374E+01 -3.71733E+01 -3.43935E+01 -3.48994E+01 -3.63003E+01
  -3.29092E+01 -3.18980E+01 -3.18741E+01 -2.82161E+01 -2.71728E+01 -2.33034E+01 -2.20444E+01 -1.93152E+01 -1.93414E+01 -1.48926E+01
  -1.82508E+01 -1.59320E+01 -9.75282E+00 -1.13111E+01 -6.68242E+00 -5.49647E+00 -1.21625E+00  5.47802E+00  4.44594E+00  9.21072E+00
   1.33213E+01  2.01460E+01  2.29392E+01  3.11662E+01  3.96537E+01  4.87437E+01  5.87914E+01  6.53259E+01  8.23388E+01  9.03760E+01
   1.03293E+02  1.21002E+02  1.35262E+02  1.48975E+02  1.66038E+02  1.85602E+02  1.95262E+02  2.11096E+02  2.21378E+02  2.37316E+02
   2.48097E+02  2.60488E+02  2.72083E+02  2.81338E+02  2.89950E+02  3.02500E+02  3.08818E+02  3.15346E+02  3.17897E+02  3.21570E+02
   3.21440E+02  3.18242E+02  3.10710E+02  3.07461E+02  2.98178E+02  2.80287E+02  2.68533E+02  2.49624E+02  2.32142E+02  2.16733E+02
   2.01621E+02  1.89532E+02  1.78013E+02  1.69576E+02  1.59433E+02  1.54742E+02  1.46227E+02  1.38723E+02  1.35994E+02  1.31955E+02
   1.29324E+02  1.28903E+02  1.23057E+02  1.24156E+02  1.20993E+02  1.21037E+02  1.17376E+02  1.18442E+02  1.20619E+02  1.21198E+02
   1.21387E+02  1.18934E+02  1.20459E+02  1.22406E+02  1.17472E+02  1.19514E+02  1.18709E+02  1.13446E+02  1.15936E+02  1.16054E+02
   1.16079E+02  1.14615E+02  1.14294E+02  1.08952E+02  1.11024E+02  1.11864E+02  1.11610E+02  1.05653E+02  1.04270E+02  1.05933E+02
   1.07932E+02  9.93192E+01  1.01423E+02  9.83031E+01  9.42384E+01  9.53422E+01  9.00198E+01  8.60437E+01  8.12936E+01  7.77151E+01
   7.66929E+01  7.00629E+01  6.35925E+01  6.23886E+01  6.31813E+01  5.59947E+01  4.95162E+01  5.16891E+01  4.42704E+01  3.96323E+01
   3.96397E+01  2.92159E+01  2.71295E+01  2.14853E+01  2.26043E+01  1.71447E+01  1.55098E+01  1.01729E+01  8.70061E+00  4.91372E+00
   6.02544E+00 -3.94414E-02 -4.24639E+00 -8.19386E+00 -8.77519E+00 -1.48649E+01 -1.61841E+01 -1.83820E+01 -2.01829E+01 -2.48615E+01
  -3.01596E+01 -2.80074E+01 -3.31444E+01 -3.37814E+01 -3.39099E+01 -3.91602E+01 -4.22747E+01 -4.27347E+01 -4.48524E+01 -4.76205E+01
  -4.54703E+01 -5.09917E+01 -5.32204E+01 -5.35696E+01 -5.98519E+01 -5.64732E+01 -5.96945E+01 -5.82474E+01 -5.94141E+01 -5.90148E+01
  -6.24607E+01 -6.37800E+01 -6.24634E+01 -7.04601E+01 -6.59654E+01 -6.75237E+01 -6.74122E+01 -6.69093E+01 -6.85046E+01 -6.71642E+01
  -6.85215E+01 -7.65221E+01 -7.33749E+01 -7.52174E+01 -7.40973E+01 -7.23743E+01 -6.94520E+01 -7.36855E+01 -7.45108E+01 -7.41298E+01
  -7.62030E+01 -7.53304E+01 -7.81189E+01 -7.48861E+01 -7.33938E+01 -7.86114E+01 -7.39633E+01 -7.47737E+01 -7.53845E+01 -7.45809E+01
  -7.80160E+01 -7.58408E+01 -7.74522E+01 -7.46362E+01 -7.31296E+01 -7.49047E+01 -7.67306E+01 -7.32713E+01 -7.46253E+01 -7.70760E+01
  -7.56804E+01 -7.08557E+01 -7.05011E+01 -6.96087E+01 -7.53248E+01 -7.35695E+01 -7.18802E+01 -7.11278E+01
 NY points of the fit to the data follow
   8.19814E+00  1.02342E+01  7.68176E+00  9.35631E+00  7.59487E+00  8.81970E+00  7.34105E+00  8.13579E+00  6.50963E+00  6.96348E+00
   5.45419E+00  5.79985E+00  4.60859E+00  5.14025E+00  3.93813E+00  5.02353E+00  3.61590E+00  4.93498E+00  3.12868E+00  4.49017E+00
   2.13897E+00  3.65276E+00  5.05095E-01  2.24977E+00 -1.37218E+00  8.04810E-01 -2.85395E+00 -4.94387E-02 -3.47304E+00 -1.44553E-01
  -3.33215E+00  1.85628E-01 -2.84602E+00  4.09589E-01 -2.51238E+00  2.46872E-01 -2.39536E+00 -2.57624E-01 -2.66118E+00 -1.22036E+00
  -3.29224E+00 -2.36422E+00 -4.06823E+00 -3.62524E+00 -4.82728E+00 -4.60778E+00 -5.32850E+00 -5.33448E+00 -5.92839E+00 -6.05684E+00
  -6.47924E+00 -6.76811E+00 -7.11681E+00 -7.48631E+00 -7.70967E+00 -7.92825E+00 -8.14618E+00 -8.40540E+00 -8.65304E+00 -8.96279E+00
  -9.26285E+00 -9.64164E+00 -1.00317E+01 -1.04042E+01 -1.07798E+01 -1.11352E+01 -1.14996E+01 -1.18413E+01 -1.21951E+01 -1.25312E+01
  -1.28815E+01 -1.32204E+01 -1.35671E+01 -1.39064E+01 -1.42469E+01 -1.45884E+01 -1.49223E+01 -1.52650E+01 -1.55881E+01 -1.59305E+01
  -1.62390E+01 -1.65753E+01 -1.68643E+01 -1.71826E+01 -1.74226E+01 -1.76856E+01 -1.79558E+01 -1.82087E+01 -1.84888E+01 -1.87101E+01
  -1.89885E+01 -1.91597E+01 -1.94706E+01 -1.96039E+01 -1.99469E+01 -2.00299E+01 -2.04144E+01 -2.04347E+01 -2.09029E+01 -2.08847E+01
  -2.14875E+01 -2.14835E+01 -2.22327E+01 -2.22895E+01 -2.31383E+01 -2.32683E+01 -2.41397E+01 -2.43226E+01 -2.51452E+01 -2.53773E+01
  -2.61523E+01 -2.64210E+01 -2.71083E+01 -2.73894E+01 -2.79453E+01 -2.81927E+01 -2.86546E+01 -2.88611E+01 -2.92601E+01 -2.94275E+01
  -2.97970E+01 -2.99332E+01 -3.03038E+01 -3.04075E+01 -3.08145E+01 -3.08853E+01 -3.13984E+01 -3.14956E+01 -3.20888E+01 -3.22144E+01
  -3.28413E+01 -3.29949E+01 -3.36229E+01 -3.38047E+01 -3.43997E+01 -3.46074E+01 -3.51498E+01 -3.53778E+01 -3.58410E+01 -3.60788E+01
  -3.64718E+01 -3.67180E+01 -3.70614E+01 -3.73176E+01 -3.76325E+01 -3.79007E+01 -3.81917E+01 -3.84663E+01 -3.87332E+01 -3.90110E+01
  -3.92934E+01 -3.95848E+01 -3.98804E+01 -4.01835E+01 -4.04910E+01 -4.08040E+01 -4.11221E+01 -4.14429E+01 -4.17698E+01 -4.20967E+01
  -4.24299E+01 -4.27606E+01 -4.30980E+01 -4.34304E+01 -4.37697E+01 -4.41015E+01 -4.44398E+01 -4.47695E+01 -4.51049E+01 -4.54311E+01
  -4.57619E+01 -4.60832E+01 -4.64076E+01 -4.67230E+01 -4.70400E+01 -4.73487E+01 -4.76571E+01 -4.79583E+01 -4.82575E+01 -4.85508E+01
  -4.88409E+01 -4.91265E+01 -4.94078E+01 -4.96857E+01 -4.99590E+01 -5.02299E+01 -5.04957E+01 -5.07598E+01 -5.10180E+01 -5.12753E+01
  -5.15261E+01 -5.17769E+01 -5.20203E+01 -5.22644E+01 -5.25005E+01 -5.27376E+01 -5.29665E+01 -5.31964E+01 -5.34181E+01 -5.36405E+01
  -5.38548E+01 -5.40690E+01 -5.42756E+01 -5.44811E+01 -5.46795E+01 -5.48753E+01 -5.50645E+01 -5.52505E+01 -5.54306E+01 -5.56066E+01
  -5.57772E+01 -5.59429E+01 -5.61041E+01 -5.62600E+01 -5.64117E+01 -5.65578E+01 -5.67008E+01 -5.68385E+01 -5.69746E+01 -5.71059E+01
  -5.72370E+01 -5.73643E+01 -5.74932E+01 -5.76189E+01 -5.77474E+01 -5.78729E+01 -5.80012E+01 -5.81259E+01 -5.82526E+01 -5.83747E+01
  -5.84971E+01 -5.86135E+01 -5.87278E+01 -5.88344E+01 -5.89362E+01 -5.90280E+01 -5.91121E+01 -5.91841E+01 -5.92460E+01 -5.92942E+01
  -5.93305E+01 -5.93523E+01 -5.93615E+01 -5.93557E+01 -5.93370E+01 -5.93040E+01 -5.92591E+01 -5.92015E+01 -5.91336E+01 -5.90546E+01
  -5.89670E+01 -5.88701E+01 -5.87659E+01 -5.86525E+01 -5.85318E+01 -5.84010E+01 -5.82616E+01 -5.81097E+01 -5.79462E+01 -5.77658E+01
  -5.75691E+01 -5.73497E+01 -5.71079E+01 -5.68365E+01 -5.65353E+01 -5.61968E+01 -5.58208E+01 -5.53993E+01 -5.49328E+01 -5.44133E+01
  -5.38419E+01 -5.32111E+01 -5.25227E+01 -5.17703E+01 -5.09564E+01 -5.00758E+01 -4.91319E+01 -4.81211E+01 -4.70477E+01 -4.59104E+01
  -4.47144E+01 -4.34605E+01 -4.21555E+01 -4.08022E+01 -3.94088E+01 -3.79798E+01 -3.65248E+01 -3.50492E+01 -3.35631E+01 -3.20720E+01
  -3.05855E+01 -2.91074E+01 -2.76451E+01 -2.61988E+01 -2.47721E+01 -2.33593E+01 -2.19578E+01 -2.05541E+01 -1.91365E+01 -1.76816E+01
  -1.61664E+01 -1.45547E+01 -1.28087E+01 -1.08753E+01 -8.69621E+00 -6.19149E+00 -3.26188E+00  2.49969E-01  4.61633E+00  9.82793E+00
   1.43709E+01  2.02528E+01  2.56606E+01  3.29448E+01  3.96867E+01  4.87282E+01  5.64677E+01  6.85161E+01  7.87126E+01  9.31877E+01
   1.05055E+02  1.21571E+02  1.34072E+02  1.52069E+02  1.64393E+02  1.82085E+02  1.93391E+02  2.09854E+02  2.20931E+02  2.37270E+02
   2.47630E+02  2.61818E+02  2.72154E+02  2.83810E+02  2.93803E+02  3.01750E+02  3.09362E+02  3.13985E+02  3.19172E+02  3.19756E+02
   3.20899E+02  3.17109E+02  3.12768E+02  3.04901E+02  2.94843E+02  2.81861E+02  2.66802E+02  2.50695E+02  2.33773E+02  2.18523E+02
   2.02398E+02  1.90415E+02  1.77279E+02  1.68948E+02  1.59030E+02  1.53124E+02  1.45437E+02  1.41007E+02  1.35804E+02  1.32769E+02
   1.29207E+02  1.26881E+02  1.24616E+02  1.22847E+02  1.21787E+02  1.19921E+02  1.19782E+02  1.18840E+02  1.19703E+02  1.20228E+02
   1.20970E+02  1.21013E+02  1.21355E+02  1.20572E+02  1.20160E+02  1.18584E+02  1.17465E+02  1.16543E+02  1.15648E+02  1.14747E+02
   1.13842E+02  1.12952E+02  1.12090E+02  1.11266E+02  1.10472E+02  1.09692E+02  1.08893E+02  1.08036E+02  1.07068E+02  1.05943E+02
   1.04606E+02  1.03014E+02  1.01126E+02  9.89216E+01  9.63834E+01  9.35169E+01  9.03339E+01  8.68657E+01  8.31469E+01  7.92274E+01
   7.51547E+01  7.09854E+01  6.67674E+01  6.25521E+01  5.83774E+01  5.42810E+01  5.02842E+01  4.64066E+01  4.26516E+01  3.90216E+01
   3.55048E+01  3.20917E+01  2.87611E+01  2.54976E+01  2.22778E+01  1.90867E+01  1.59048E+01  1.27229E+01  9.52848E+00  6.32080E+00
   3.09579E+00 -1.39017E-01 -3.38011E+00 -6.61357E+00 -9.83087E+00 -1.30148E+01 -1.61547E+01 -1.92330E+01 -2.22400E+01 -2.51598E+01
  -2.79857E+01 -3.07053E+01 -3.33157E+01 -3.58083E+01 -3.81841E+01 -4.04381E+01 -4.25748E+01 -4.45921E+01 -4.64968E+01 -4.82889E+01
  -4.99767E+01 -5.15614E+01 -5.30520E+01 -5.44502E+01 -5.57651E+01 -5.69983E+01 -5.81586E+01 -5.92473E+01 -6.02728E+01 -6.12359E+01
  -6.21443E+01 -6.29983E+01 -6.38051E+01 -6.45643E+01 -6.52828E+01 -6.59596E+01 -6.66010E+01 -6.72058E+01 -6.77797E+01 -6.83213E+01
  -6.88359E+01 -6.93217E+01 -6.97839E+01 -7.02202E+01 -7.06357E+01 -7.10280E+01 -7.14020E+01 -7.17548E+01 -7.20914E+01 -7.24088E+01
  -7.27117E+01 -7.29971E+01 -7.32695E+01 -7.35259E+01 -7.37706E+01 -7.40006E+01 -7.42202E+01 -7.44260E+01 -7.46225E+01 -7.48063E+01
  -7.49817E+01 -7.51453E+01 -7.53013E+01 -7.54464E+01 -7.55846E+01 -7.57126E+01 -7.58345E+01 -7.59469E+01 -7.60539E+01 -7.61521E+01
  -7.62456E+01 -7.63308E+01 -7.64121E+01 -7.64859E+01 -7.65563E+01 -7.66201E+01 -7.66815E+01 -7.67371E+01
 NY background values follow
    -2.859E+01   -2.895E+01   -2.932E+01   -2.968E+01   -3.005E+01   -3.042E+01   -3.078E+01   -3.115E+01   -3.152E+01   -3.188E+01
    -3.225E+01   -3.262E+01   -3.299E+01   -3.335E+01   -3.372E+01   -3.409E+01   -3.446E+01   -3.483E+01   -3.520E+01   -3.557E+01
    -3.594E+01   -3.630E+01   -3.667E+01   -3.704E+01   -3.741E+01   -3.778E+01   -3.815E+01   -3.852E+01   -3.889E+01   -3.926E+01
    -3.963E+01   -4.000E+01   -4.037E+01   -4.075E+01   -4.112E+01   -4.149E+01   -4.186E+01   -4.223E+01   -4.260E+01   -4.297E+01
    -4.334E+01   -4.371E+01   -4.408E+01   -4.445E+01   -4.482E+01   -4.519E+01   -4.557E+01   -4.594E+01   -4.631E+01   -4.668E+01
    -4.705E+01   -4.742E+01   -4.779E+01   -4.816E+01   -4.853E+01   -4.890E+01   -4.927E+01   -4.964E+01   -5.001E+01   -5.038E+01
    -5.075E+01   -5.112E+01   -5.149E+01   -5.186E+01   -5.223E+01   -5.260E+01   -5.297E+01   -5.334E+01   -5.371E+01   -5.408E+01
    -5.444E+01   -5.481E+01   -5.518E+01   -5.555E+01   -5.592E+01   -5.629E+01   -5.665E+01   -5.702E+01   -5.739E+01   -5.775E+01
    -5.812E+01   -5.849E+01   -5.885E+01   -5.922E+01   -5.958E+01   -5.995E+01   -6.031E+01   -6.068E+01   -6.104E+01   -6.141E+01
    -6.177E+01   -6.214E+01   -6.250E+01   -6.286E+01   -6.323E+01   -6.359E+01   -6.395E+01   -6.431E+01   -6.467E+01   -6.503E+01
    -6.539E+01   -6.575E+01   -6.611E+01   -6.647E+01   -6.683E+01   -6.719E+01   -6.755E+01   -6.791E+01   -6.826E+01   -6.862E+01
    -6.898E+01   -6.933E+01   -6.969E+01   -7.005E+01   -7.040E+01   -7.075E+01   -7.111E+01   -7.146E+01   -7.181E+01   -7.217E+01
    -7.252E+01   -7.287E+01   -7.322E+01   -7.357E+01   -7.392E+01   -7.427E+01   -7.462E+01   -7.497E+01   -7.532E+01   -7.566E+01
    -7.601E+01   -7.635E+01   -7.670E+01   -7.704E+01   -7.739E+01   -7.773E+01   -7.808E+01   -7.842E+01   -7.876E+01   -7.910E+01
    -7.944E+01   -7.978E+01   -8.012E+01   -8.046E+01   -8.080E+01   -8.113E+01   -8.147E+01   -8.181E+01   -8.214E+01   -8.248E+01
    -8.281E+01   -8.314E+01   -8.347E+01   -8.381E+01   -8.414E+01   -8.447E+01   -8.480E+01   -8.513E+01   -8.545E+01   -8.578E+01
    -8.611E+01   -8.643E+01   -8.676E+01   -8.708E+01   -8.740E+01   -8.773E+01   -8.805E+01   -8.837E+01   -8.869E+01   -8.901E+01
    -8.933E+01   -8.964E+01   -8.996E+01   -9.028E+01   -9.059E+01   -9.090E+01   -9.122E+01   -9.153E+01   -9.184E+01   -9.215E+01
    -9.246E+01   -9.277E+01   -9.308E+01   -9.338E+01   -9.369E+01   -9.399E+01   -9.430E+01   -9.460E+01   -9.490E+01   -9.520E+01
    -9.550E+01   -9.580E+01   -9.610E+01   -9.640E+01   -9.669E+01   -9.699E+01   -9.728E+01   -9.758E+01   -9.787E+01   -9.816E+01
    -9.845E+01   -9.874E+01   -9.903E+01   -9.931E+01   -9.960E+01   -9.988E+01   -1.002E+02   -1.005E+02   -1.007E+02   -1.010E+02
    -1.013E+02   -1.016E+02   -1.018E+02   -1.021E+02   -1.024E+02   -1.027E+02   -1.029E+02   -1.032E+02   -1.035E+02   -1.038E+02
    -1.040E+02   -1.043E+02   -1.046E+02   -1.048E+02   -1.051E+02   -1.053E+02   -1.056E+02   -1.059E+02   -1.061E+02   -1.064E+02
    -1.066E+02   -1.069E+02   -1.071E+02   -1.074E+02   -1.077E+02   -1.079E+02   -1.082E+02   -1.084E+02   -1.086E+02   -1.089E+02
    -1.091E+02   -1.094E+02   -1.096E+02   -1.099E+02   -1.101E+02   -1.103E+02   -1.106E+02   -1.108E+02   -1.110E+02   -1.113E+02
    -1.115E+02   -1.117E+02   -1.120E+02   -1.122E+02   -1.124E+02   -1.126E+02   -1.129E+02   -1.131E+02   -1.133E+02   -1.135E+02
    -1.137E+02   -1.139E+02   -1.142E+02   -1.144E+02   -1.146E+02   -1.148E+02   -1.150E+02   -1.152E+02   -1.154E+02   -1.156E+02
    -1.158E+02   -1.160E+02   -1.162E+02   -1.164E+02   -1.166E+02   -1.168E+02   -1.170E+02   -1.172E+02   -1.174E+02   -1.176E+02
    -1.178E+02   -1.180E+02   -1.181E+02   -1.183E+02   -1.185E+02   -1.187E+02   -1.189E+02   -1.190E+02   -1.192E+02   -1.194E+02
    -1.196E+02   -1.197E+02   -1.199E+02   -1.201E+02   -1.202E+02   -1.204E+02   -1.206E+02   -1.207E+02   -1.209E+02   -1.210E+02
    -1.212E+02   -1.214E+02   -1.215E+02   -1.217E+02   -1.218E+02   -1.220E+02   -1.221E+02   -1.223E+02   -1.224E+02   -1.225E+02
    -1.227E+02   -1.228E+02   -1.230E+02   -1.231E+02   -1.232E+02   -1.234E+02   -1.235E+02   -1.236E+02   -1.238E+02   -1.239E+02
    -1.240E+02   -1.241E+02   -1.242E+02   -1.244E+02   -1.245E+02   -1.246E+02   -1.247E+02   -1.248E+02   -1.249E+02   -1.250E+02
    -1.252E+02   -1.253E+02   -1.254E+02   -1.255E+02   -1.256E+02   -1.257E+02   -1.258E+02   -1.259E+02   -1.259E+02   -1.260E+02
    -1.261E+02   -1.262E+02   -1.263E+02   -1.264E+02   -1.265E+02   -1.266E+02   -1.266E+02   -1.267E+02   -1.268E+02   -1.269E+02
    -1.269E+02   -1.270E+02   -1.271E+02   -1.271E+02   -1.272E+02   -1.273E+02   -1.273E+02   -1.274E+02   -1.274E+02   -1.275E+02
    -1.275E+02   -1.276E+02   -1.276E+02   -1.277E+02   -1.277E+02   -1.278E+02   -1.278E+02   -1.279E+02   -1.279E+02   -1.279E+02
    -1.280E+02   -1.280E+02   -1.280E+02   -1.281E+02   -1.281E+02   -1.281E+02   -1.282E+02   -1.282E+02   -1.282E+02   -1.282E+02
    -1.282E+02   -1.282E+02   -1.283E+02   -1.283E+02   -1.283E+02   -1.283E+02   -1.283E+02   -1.283E+02   -1.283E+02   -1.283E+02
    -1.283E+02   -1.283E+02   -1.283E+02   -1.283E+02   -1.283E+02   -1.283E+02   -1.282E+02   -1.282E+02   -1.282E+02   -1.282E+02
    -1.282E+02   -1.281E+02   -1.281E+02   -1.281E+02   -1.281E+02   -1.280E+02   -1.280E+02   -1.280E+02   -1.279E+02   -1.279E+02
    -1.278E+02   -1.278E+02   -1.277E+02   -1.277E+02   -1.277E+02   -1.276E+02   -1.275E+02   -1.275E+02   -1.274E+02   -1.274E+02
    -1.273E+02   -1.273E+02   -1.272E+02   -1.271E+02   -1.271E+02   -1.270E+02   -1.269E+02   -1.268E+02   -1.268E+02   -1.267E+02
    -1.266E+02   -1.265E+02   -1.264E+02   -1.263E+02   -1.263E+02   -1.262E+02   -1.261E+02   -1.260E+02   -1.259E+02   -1.258E+02
    -1.257E+02   -1.256E+02   -1.255E+02   -1.254E+02   -1.253E+02   -1.252E+02   -1.250E+02   -1.249E+02   -1.248E+02   -1.247E+02
    -1.246E+02   -1.245E+02   -1.243E+02   -1.242E+02   -1.241E+02   -1.239E+02   -1.238E+02   -1.237E+02   -1.235E+02   -1.234E+02
    -1.233E+02   -1.231E+02   -1.230E+02   -1.228E+02   -1.227E+02   -1.225E+02   -1.224E+02   -1.222E+02   -1.221E+02   -1.219E+02
    -1.217E+02   -1.216E+02   -1.214E+02   -1.213E+02   -1.211E+02   -1.209E+02   -1.207E+02   -1.206E+02   -1.204E+02   -1.202E+02
    -1.200E+02   -1.199E+02   -1.197E+02   -1.195E+02   -1.193E+02   -1.191E+02   -1.189E+02   -1.187E+02   -1.185E+02   -1.183E+02
    -1.181E+02   -1.179E+02   -1.177E+02   -1.175E+02   -1.173E+02   -1.171E+02   -1.169E+02   -1.167E+02
 Ala      Conc. = 8.81E+03
