 LCModel (Version 6.3-1L) Copyright: S.W. Provencher.          Ref.: Magn. Reson. Med. 30:672-679 (1993).                
 Slice#3 Row#7 Col#9  K_02_press_1_raw_act
 36 lines in following concentration table = NCONC+1
    Conc.  %SD /Cr+PCr  Metabolite                                         
    0.000 999%   0.000 Ala                                                 
    0.000 999%   0.000 Asp                                                 
  567.234  35%   0.259 Cr                                                  
 1.62E+03  13%   0.741 PCr                                                 
    0.000 999%   0.000 GABA                                                
  144.907 130% 6.6E-02 Glc                                                 
  179.650 113% 8.2E-02 Gln                                                 
 1.87E+03  12%   0.854 Glu                                                 
  819.116   3%   0.374 GPC                                                 
    0.000 999%   0.000 PCh                                                 
  544.086  14%   0.249 GSH                                                 
 1.65E+03  16%   0.753 Ins                                                 
   17.856 607% 8.2E-03 Lac                                                 
 2.55E+03   4%   1.163 NAA                                                 
  670.501  14%   0.306 NAAG                                                
  143.564  22% 6.6E-02 Scyllo                                              
    0.000 999%   0.000 Tau                                                 
  107.312 117% 4.9E-02 -CrCH2                                              
  819.116   3%   0.374 GPC+PCh                                             
 3.22E+03   3%   1.470 NAA+NAAG                                            
 2.19E+03   3%   1.000 Cr+PCr                                              
 2.05E+03  15%   0.936 Glu+Gln                                             
  335.529 191%   0.153 Lip13a                                              
  123.293 229% 5.6E-02 Lip13b                                              
    0.000 999%   0.000 Lip09                                               
  958.356  25%   0.438 MM09                                                
   71.361 240% 3.3E-02 Lip20                                               
 2.38E+03  19%   1.085 MM20                                                
  383.487  42%   0.175 MM12                                                
  354.877 100%   0.162 MM14                                                
  817.741  34%   0.374 MM17                                                
  458.822  97%   0.210 Lip13a+Lip13b                                       
 1.20E+03  44%   0.547 MM14+Lip13a+Lip13b+MM12                             
  958.356  25%   0.438 MM09+Lip09                                          
 2.45E+03  19%   1.118 MM20+Lip20                                          
   6 lines in following misc. output table
  FWHM = 0.038 ppm    S/N =  14                                            
  Data shift = 0.008 ppm                                                   
  Ph: -39 deg     -10.6 deg/ppm                                            
  alphaB,S = 1.5E+00,   4.6E+01                                            
   14 spline knots.   Ns = 5(1)                                            
  ( 7) 3 infls.   ( 5) 1 extrs.                                            
  498 points on ppm-axis = NY
      4.000000     3.992357     3.984714     3.977070     3.969427     3.961784     3.954141     3.946497     3.938854     3.931211
      3.923568     3.915925     3.908281     3.900638     3.892995     3.885352     3.877708     3.870065     3.862422     3.854779
      3.847136     3.839492     3.831849     3.824206     3.816563     3.808919     3.801276     3.793633     3.785990     3.778347
      3.770703     3.763060     3.755417     3.747774     3.740130     3.732487     3.724844     3.717201     3.709558     3.701914
      3.694271     3.686628     3.678985     3.671341     3.663698     3.656055     3.648412     3.640769     3.633125     3.625482
      3.617839     3.610196     3.602552     3.594909     3.587266     3.579623     3.571980     3.564336     3.556693     3.549050
      3.541407     3.533763     3.526120     3.518477     3.510834     3.503191     3.495547     3.487904     3.480261     3.472618
      3.464974     3.457331     3.449688     3.442045     3.434402     3.426758     3.419115     3.411472     3.403829     3.396185
      3.388542     3.380899     3.373256     3.365613     3.357969     3.350326     3.342683     3.335040     3.327396     3.319753
      3.312110     3.304467     3.296824     3.289180     3.281537     3.273894     3.266251     3.258607     3.250964     3.243321
      3.235678     3.228034     3.220391     3.212748     3.205105     3.197462     3.189818     3.182175     3.174532     3.166889
      3.159245     3.151602     3.143959     3.136316     3.128673     3.121029     3.113386     3.105743     3.098100     3.090456
      3.082813     3.075170     3.067527     3.059884     3.052240     3.044597     3.036954     3.029311     3.021667     3.014024
      3.006381     2.998738     2.991095     2.983451     2.975808     2.968165     2.960522     2.952878     2.945235     2.937592
      2.929949     2.922306     2.914662     2.907019     2.899376     2.891733     2.884089     2.876446     2.868803     2.861160
      2.853517     2.845873     2.838230     2.830587     2.822944     2.815300     2.807657     2.800014     2.792371     2.784728
      2.777084     2.769441     2.761798     2.754155     2.746511     2.738868     2.731225     2.723582     2.715939     2.708295
      2.700652     2.693009     2.685366     2.677722     2.670079     2.662436     2.654793     2.647150     2.639506     2.631863
      2.624220     2.616577     2.608933     2.601290     2.593647     2.586004     2.578361     2.570717     2.563074     2.555431
      2.547788     2.540144     2.532501     2.524858     2.517215     2.509572     2.501928     2.494285     2.486642     2.478999
      2.471355     2.463712     2.456069     2.448426     2.440783     2.433139     2.425496     2.417853     2.410210     2.402566
      2.394923     2.387280     2.379637     2.371994     2.364350     2.356707     2.349064     2.341421     2.333777     2.326134
      2.318491     2.310848     2.303205     2.295561     2.287918     2.280275     2.272632     2.264988     2.257345     2.249702
      2.242059     2.234416     2.226772     2.219129     2.211486     2.203843     2.196199     2.188556     2.180913     2.173270
      2.165627     2.157983     2.150340     2.142697     2.135054     2.127410     2.119767     2.112124     2.104481     2.096838
      2.089194     2.081551     2.073908     2.066265     2.058621     2.050978     2.043335     2.035692     2.028049     2.020405
      2.012762     2.005119     1.997476     1.989833     1.982190     1.974546     1.966903     1.959260     1.951617     1.943974
      1.936331     1.928688     1.921045     1.913402     1.905759     1.898115     1.890472     1.882829     1.875186     1.867543
      1.859900     1.852257     1.844614     1.836971     1.829327     1.821684     1.814041     1.806398     1.798755     1.791112
      1.783469     1.775826     1.768183     1.760540     1.752896     1.745253     1.737610     1.729967     1.722324     1.714681
      1.707038     1.699395     1.691752     1.684108     1.676465     1.668822     1.661179     1.653536     1.645893     1.638250
      1.630607     1.622964     1.615321     1.607677     1.600034     1.592391     1.584748     1.577105     1.569462     1.561819
      1.554176     1.546533     1.538890     1.531246     1.523603     1.515960     1.508317     1.500674     1.493031     1.485388
      1.477745     1.470102     1.462458     1.454815     1.447172     1.439529     1.431886     1.424243     1.416600     1.408957
      1.401314     1.393671     1.386027     1.378384     1.370741     1.363098     1.355455     1.347812     1.340169     1.332526
      1.324883     1.317240     1.309596     1.301953     1.294310     1.286667     1.279024     1.271381     1.263738     1.256095
      1.248452     1.240808     1.233165     1.225522     1.217879     1.210236     1.202593     1.194950     1.187307     1.179664
      1.172021     1.164377     1.156734     1.149091     1.141448     1.133805     1.126162     1.118519     1.110876     1.103233
      1.095590     1.087946     1.080303     1.072660     1.065017     1.057374     1.049731     1.042088     1.034445     1.026802
      1.019158     1.011515     1.003872     0.996229     0.988586     0.980943     0.973300     0.965657     0.958014     0.950371
      0.942727     0.935084     0.927441     0.919798     0.912155     0.904512     0.896869     0.889226     0.881583     0.873940
      0.866296     0.858653     0.851010     0.843367     0.835724     0.828081     0.820438     0.812795     0.805152     0.797508
      0.789865     0.782222     0.774579     0.766936     0.759293     0.751650     0.744007     0.736364     0.728721     0.721077
      0.713434     0.705791     0.698148     0.690505     0.682862     0.675219     0.667576     0.659933     0.652290     0.644646
      0.637003     0.629360     0.621717     0.614074     0.606431     0.598788     0.591145     0.583502     0.575858     0.568215
      0.560572     0.552929     0.545286     0.537643     0.530000     0.522357     0.514714     0.507071     0.499427     0.491784
      0.484141     0.476498     0.468855     0.461212     0.453569     0.445925     0.438282     0.430639     0.422996     0.415353
      0.407710     0.400067     0.392424     0.384780     0.377137     0.369494     0.361851     0.354208     0.346565     0.338922
      0.331278     0.323635     0.315992     0.308349     0.300706     0.293063     0.285420     0.277777     0.270133     0.262490
      0.254847     0.247204     0.239561     0.231918     0.224275     0.216631     0.208988     0.201345
 NY phased data points follow
  -6.22595E+01 -6.48212E+01 -6.19249E+01 -5.67795E+01 -5.41021E+01 -4.19656E+01 -3.55902E+01 -2.44836E+01 -1.17291E+01 -5.39303E-01
   7.09303E+00  3.83372E+00 -5.02122E+00 -2.01211E+01 -4.05228E+01 -3.94949E+01 -4.78511E+01 -5.11285E+01 -5.18142E+01 -5.61023E+01
  -4.60375E+01 -4.67847E+01 -4.93791E+01 -4.87686E+01 -4.89613E+01 -4.09533E+01 -3.90350E+01 -3.91777E+01 -3.72835E+01 -2.85665E+01
  -3.35084E+01 -3.32093E+01 -2.67794E+01 -3.02607E+01 -3.57868E+01 -3.95100E+01 -3.53910E+01 -4.11866E+01 -4.20695E+01 -3.61029E+01
  -4.20556E+01 -3.07810E+01 -3.60072E+01 -4.01561E+01 -2.91658E+01 -3.19069E+01 -1.87392E+01 -1.76766E+01 -1.31446E+01 -2.07353E+01
  -2.78389E+01 -3.33815E+01 -2.81600E+01 -3.18548E+01 -3.45986E+01 -2.87027E+01 -3.08429E+01 -2.92434E+01 -3.05866E+01 -2.80133E+01
  -3.30767E+01 -3.35198E+01 -4.01218E+01 -3.66167E+01 -4.10522E+01 -4.47102E+01 -4.21572E+01 -4.04050E+01 -3.77487E+01 -3.82182E+01
  -3.91567E+01 -2.99421E+01 -3.68267E+01 -3.19852E+01 -3.10675E+01 -3.08896E+01 -2.86135E+01 -2.98153E+01 -2.90250E+01 -2.92698E+01
  -2.98773E+01 -2.57324E+01 -2.88108E+01 -2.38332E+01 -2.73505E+01 -2.64700E+01 -2.08016E+01 -2.36559E+01 -2.16583E+01 -2.11018E+01
  -2.20668E+01 -2.18755E+01 -1.62304E+01 -1.67778E+01 -1.74464E+01 -1.53304E+01 -1.01820E+01 -1.42205E+01 -6.03288E+00 -1.76233E-02
   1.57984E+01  3.62199E+01  5.95051E+01  7.58500E+01  6.34601E+01  4.00686E+01  2.07151E+01  8.03384E+00 -8.41656E+00 -1.19915E+01
  -1.32540E+01 -1.42727E+01 -1.94894E+01 -2.01558E+01 -1.93050E+01 -1.45494E+01 -1.68176E+01 -1.48529E+01 -1.54315E+01 -9.24235E+00
  -1.06746E+01 -6.45134E+00 -3.16684E+00 -3.17069E+00  1.25148E+01  3.28496E+01  5.79636E+01  7.45927E+01  7.14566E+01  5.58770E+01
   3.46193E+01  1.48749E+01  5.92735E+00 -4.19311E+00 -1.73637E+00 -1.01779E+01 -1.06708E+01 -1.28099E+01 -1.39828E+01 -1.57821E+01
  -1.56642E+01 -1.53088E+01 -1.68205E+01 -1.52042E+01 -1.60954E+01 -2.14566E+01 -1.16967E+01 -1.08457E+01 -1.18822E+01 -1.35319E+01
  -1.37277E+01 -1.43760E+01 -1.07339E+01 -1.66776E+01 -1.67561E+01 -1.76946E+01 -1.58859E+01 -1.89365E+01 -1.25271E+01 -1.00816E+01
  -7.47894E+00 -2.14181E+01 -2.02803E+01 -1.83999E+01 -1.31100E+01 -9.50156E+00 -6.69656E+00 -7.39670E+00 -1.62198E+01 -1.88042E+01
  -1.57380E+01 -1.83741E+01 -1.56930E+01 -2.14721E+01 -2.32107E+01 -3.22513E+01 -2.41663E+01 -2.55313E+01 -2.23295E+01 -1.22358E+01
  -1.70092E+01 -2.59779E+01 -2.58430E+01 -2.21293E+01 -1.96798E+01 -2.04285E+01 -2.23701E+01 -1.83204E+01 -1.30393E+01 -3.24631E+00
  -1.76668E+00  3.42183E+00  4.77075E+00 -3.00377E-01  2.45893E-01  6.88683E+00  3.11337E+00 -7.53228E-01 -2.54914E+00 -6.19080E+00
  -1.03013E+01 -9.13554E+00 -8.04326E-01 -1.32160E+00 -3.06079E+00  2.79567E+00 -5.11484E+00 -5.41201E+00 -5.62041E+00 -1.01583E+01
  -1.19079E+01 -1.16258E+01 -4.65002E+00 -4.93842E+00  2.74105E-01  1.12745E+01  1.51021E+01  1.50596E+01  9.32977E+00  1.07874E+01
  -3.32078E+00 -1.07381E+01 -9.02797E+00 -1.31588E+01 -1.02895E+01  5.49556E+00  3.25910E+00  1.26166E+01  6.67963E+00  1.01024E+01
   1.33253E+01  6.46233E+00  7.76121E+00  1.08498E+01  7.44680E+00  8.14876E+00  4.56330E+00  1.05508E+01  9.21195E+00  8.42087E+00
   2.29233E+00  1.22848E+00 -5.18649E+00  1.62895E+00  2.35804E+00  1.12301E+01  1.58469E+01  1.40352E+01  1.54338E+01  1.53921E+01
   1.75612E+01  2.26814E+01  1.50218E+01  2.42377E+01  4.04108E+01  6.25537E+01  5.77530E+01  4.56681E+01  6.65071E+01  1.07504E+02
   1.30376E+02  1.33667E+02  1.06060E+02  7.99319E+01  5.31245E+01  3.59314E+01  2.64770E+01  1.74925E+01  1.92920E+01  1.14781E+01
   1.53116E+01  1.29762E+01  1.12019E+01  1.07835E+01  8.85277E+00  1.34035E+01  5.99000E+00  9.44019E+00  6.46030E+00  1.65523E+00
   6.64776E+00  1.03036E+01  1.05998E+01  6.84336E+00  6.87889E+00  7.04315E+00  8.88036E+00  8.58817E+00  9.92311E+00  7.40768E+00
   7.91646E+00  8.50553E+00  1.33203E+01  7.22960E+00  1.52979E+01  1.22519E+01  8.76266E+00  7.37061E+00  7.35617E+00  6.43789E+00
   9.49367E+00  7.29588E+00  9.67230E+00  1.35366E+01  1.12269E+01  1.82368E+01  1.55544E+01  1.56735E+01  1.32468E+01  1.34957E+01
   1.61622E+01  1.37773E+01  1.79344E+01  1.31467E+01  1.49659E+01  1.02066E+01  1.32825E+01  1.85891E+01  1.52492E+01  1.13247E+01
   1.22636E+01  6.88594E+00  7.28323E+00  1.76451E+01  1.84329E+01  1.45465E+01  2.07547E+01  2.09191E+01  1.69479E+01  1.73017E+01
   1.72788E+01  1.62828E+01  1.52101E+01  1.21157E+01  1.37713E+01  1.20562E+01  1.07228E+01  7.36809E+00  3.08960E+00  5.88778E+00
   6.67993E+00  1.20137E+01  6.54345E+00  1.38281E+01  1.37548E+01  1.84013E+01  1.61112E+01  1.52599E+01  7.44080E+00  1.39477E+01
   1.18567E+01  1.30140E+01  1.76620E+01  1.42700E+01  1.89728E+01  1.76583E+01  1.40611E+01  1.68362E+01  1.48752E+01  1.73003E+01
   1.25484E+01  2.14297E+01  1.54461E+01  1.66348E+01  2.04179E+01  1.20864E+01  1.43607E+01  1.76635E+01  1.34847E+01  1.59784E+01
   1.67568E+01  1.81030E+01  1.70244E+01  1.73927E+01  2.10833E+01  1.80848E+01  1.77730E+01  1.52939E+01  1.65033E+01  1.61106E+01
   8.93256E+00  1.61862E+01  1.93891E+01  1.64918E+01  1.17627E+01  1.40224E+01  1.60292E+01  1.29677E+01  1.75665E+01  1.32850E+01
   1.38551E+01  2.06383E+01  1.65140E+01  1.67704E+01  1.91726E+01  1.74467E+01  1.39894E+01  1.40340E+01  1.67674E+01  1.25429E+01
   1.63378E+01  1.84301E+01  1.51937E+01  1.73397E+01  1.56019E+01  1.88985E+01  1.69906E+01  1.87921E+01  2.12688E+01  1.80572E+01
   1.60529E+01  1.12049E+01  1.58257E+01  2.09097E+01  1.75963E+01  2.12726E+01  1.80439E+01  2.19980E+01  1.69594E+01  2.33706E+01
   1.63209E+01  1.44485E+01  1.79070E+01  1.56848E+01  1.51352E+01  1.66062E+01  1.36591E+01  1.56878E+01  1.26841E+01  1.30252E+01
   1.52477E+01  1.20428E+01  1.40859E+01  1.19513E+01  1.07292E+01  1.27867E+01  1.17059E+01  1.32888E+01  1.33767E+01  1.57303E+01
   1.25495E+01  1.11717E+01  1.39061E+01  1.36005E+01  1.41760E+01  1.47261E+01  1.67445E+01  1.38150E+01  1.11050E+01  1.37075E+01
   8.34296E+00  1.71502E+01  1.34268E+01  1.24531E+01  1.77755E+01  1.06808E+01  1.44496E+01  1.40143E+01  1.24625E+01  1.41279E+01
   1.02776E+01  1.47486E+01  1.36992E+01  1.07723E+01  1.21052E+01  1.40637E+01  1.01643E+01  1.07892E+01  1.50951E+01  1.29306E+01
   1.48228E+01  1.34803E+01  1.24096E+01  1.45222E+01  1.35534E+01  1.59177E+01  1.25996E+01  1.35520E+01  1.47213E+01  1.41465E+01
   1.50644E+01  1.27089E+01  1.94219E+01  1.41915E+01  1.52605E+01  1.27181E+01  1.72818E+01  1.47581E+01  1.70278E+01  1.11687E+01
   1.62487E+01  1.43114E+01  1.27014E+01  1.22739E+01  1.42663E+01  7.62490E+00  1.27146E+01  1.53822E+01
 NY points of the fit to the data follow
  -5.57762E+01 -5.54687E+01 -5.45829E+01 -5.26962E+01 -4.86284E+01 -4.32813E+01 -3.74959E+01 -2.75159E+01 -1.22936E+01  2.03244E+00
   7.67821E+00  2.36786E+00 -9.59729E+00 -2.21297E+01 -3.17566E+01 -3.86473E+01 -4.32960E+01 -4.56094E+01 -4.65899E+01 -4.70663E+01
  -4.71205E+01 -4.69672E+01 -4.69307E+01 -4.72607E+01 -4.68485E+01 -4.50762E+01 -4.42083E+01 -4.30623E+01 -3.92666E+01 -3.39494E+01
  -2.97509E+01 -2.83607E+01 -2.87283E+01 -2.99493E+01 -3.19169E+01 -3.44685E+01 -3.75340E+01 -3.99361E+01 -4.15261E+01 -4.25279E+01
  -4.21743E+01 -4.01886E+01 -3.75225E+01 -3.55292E+01 -3.33212E+01 -2.92877E+01 -2.44886E+01 -2.15729E+01 -2.22444E+01 -2.57720E+01
  -2.99888E+01 -3.35147E+01 -3.61094E+01 -3.75961E+01 -3.76644E+01 -3.69697E+01 -3.60119E+01 -3.46796E+01 -3.29135E+01 -3.10807E+01
  -3.00648E+01 -3.03799E+01 -3.17258E+01 -3.34433E+01 -3.47687E+01 -3.53940E+01 -3.49881E+01 -3.38984E+01 -3.27159E+01 -3.14362E+01
  -3.00892E+01 -2.89238E+01 -2.82959E+01 -2.82684E+01 -2.84798E+01 -2.86639E+01 -2.86915E+01 -2.86810E+01 -2.86336E+01 -2.84783E+01
  -2.82782E+01 -2.79596E+01 -2.71492E+01 -2.66387E+01 -2.58496E+01 -2.37971E+01 -2.15089E+01 -2.06377E+01 -2.16294E+01 -2.34743E+01
  -2.48988E+01 -2.52286E+01 -2.48942E+01 -2.43813E+01 -2.33844E+01 -2.21740E+01 -2.07176E+01 -1.66939E+01 -9.61701E+00 -3.19490E+00
   1.16490E+01  3.84722E+01  6.44100E+01  7.42132E+01  6.40261E+01  4.25990E+01  2.10298E+01  4.63498E+00 -7.46156E+00 -1.63079E+01
  -1.98795E+01 -2.07310E+01 -2.08370E+01 -2.06902E+01 -2.04506E+01 -2.01681E+01 -1.98160E+01 -1.94113E+01 -1.89565E+01 -1.83280E+01
  -1.71531E+01 -1.39419E+01 -6.73654E+00 -3.77425E-03  1.01884E+01  3.23650E+01  5.96218E+01  7.59610E+01  7.27329E+01  5.47723E+01
   3.33074E+01  1.64000E+01  4.71379E+00 -4.80644E+00 -1.10881E+01 -1.44804E+01 -1.68433E+01 -1.79613E+01 -1.78058E+01 -1.65686E+01
  -1.47425E+01 -1.30077E+01 -1.20278E+01 -1.18940E+01 -1.22379E+01 -1.27751E+01 -1.32429E+01 -1.35295E+01 -1.37298E+01 -1.38588E+01
  -1.39597E+01 -1.41159E+01 -1.43752E+01 -1.45881E+01 -1.45815E+01 -1.42615E+01 -1.38280E+01 -1.32753E+01 -1.30781E+01 -1.37379E+01
  -1.48157E+01 -1.57932E+01 -1.57445E+01 -1.44724E+01 -1.31237E+01 -1.27026E+01 -1.32858E+01 -1.43312E+01 -1.52656E+01 -1.57060E+01
  -1.57071E+01 -1.56090E+01 -1.54982E+01 -1.55970E+01 -1.64879E+01 -1.74907E+01 -1.76835E+01 -1.66315E+01 -1.50401E+01 -1.43888E+01
  -1.48653E+01 -1.52943E+01 -1.49516E+01 -1.38806E+01 -1.30652E+01 -1.29575E+01 -1.27031E+01 -1.12117E+01 -8.52887E+00 -5.35691E+00
  -2.55976E+00 -9.53291E-01 -8.23531E-01 -1.91846E+00 -3.18841E+00 -4.37994E+00 -5.52145E+00 -6.29432E+00 -6.17367E+00 -5.04412E+00
  -3.72475E+00 -2.27653E+00 -5.85443E-01  1.01990E+00  2.29508E+00  2.02524E+00  5.36068E-01 -1.55529E+00 -4.11909E+00 -6.25796E+00
  -7.59446E+00 -7.70423E+00 -6.70506E+00 -4.32407E+00  6.73732E-01  6.60823E+00  1.03597E+01  9.71666E+00  5.51791E+00  3.67911E-01
  -5.05988E+00 -1.08375E+01 -1.49766E+01 -1.48619E+01 -1.03691E+01 -4.20387E+00  1.17734E+00  4.89032E+00  7.21284E+00  7.99078E+00
   7.05861E+00  5.49776E+00  4.99402E+00  5.82499E+00  7.23181E+00  8.83852E+00  1.01990E+01  1.08710E+01  1.00757E+01  8.01938E+00
   5.68746E+00  3.83291E+00  2.98586E+00  3.87856E+00  6.51056E+00  9.77837E+00  1.24745E+01  1.41408E+01  1.47556E+01  1.47951E+01
   1.55940E+01  1.65351E+01  1.85272E+01  2.54917E+01  3.67149E+01  5.10034E+01  5.98162E+01  6.02607E+01  7.40699E+01  1.04179E+02
   1.29677E+02  1.31212E+02  1.09980E+02  8.09918E+01  5.61284E+01  3.86163E+01  2.46523E+01  1.48791E+01  1.19335E+01  1.08642E+01
   1.01839E+01  9.69287E+00  9.58623E+00  9.74031E+00  9.92094E+00  9.89242E+00  9.63244E+00  9.32657E+00  9.09689E+00  8.85616E+00
   8.63375E+00  8.53507E+00  8.58815E+00  8.68087E+00  8.71881E+00  8.69570E+00  8.67116E+00  8.64299E+00  8.59411E+00  8.59776E+00
   8.73503E+00  8.97831E+00  9.26272E+00  9.52673E+00  9.76847E+00  1.00025E+01  1.02102E+01  1.03892E+01  1.05909E+01  1.08560E+01
   1.11802E+01  1.15375E+01  1.19023E+01  1.22583E+01  1.25989E+01  1.29091E+01  1.31790E+01  1.34126E+01  1.36093E+01  1.37689E+01
   1.38904E+01  1.39722E+01  1.40126E+01  1.40132E+01  1.39792E+01  1.39166E+01  1.38307E+01  1.37258E+01  1.36075E+01  1.34823E+01
   1.33572E+01  1.32371E+01  1.31257E+01  1.30253E+01  1.29384E+01  1.28676E+01  1.28147E+01  1.27793E+01  1.27599E+01  1.27545E+01
   1.27623E+01  1.27825E+01  1.28139E+01  1.28541E+01  1.29009E+01  1.29526E+01  1.30096E+01  1.30720E+01  1.31404E+01  1.32148E+01
   1.32970E+01  1.33924E+01  1.35097E+01  1.36313E+01  1.37717E+01  1.39635E+01  1.41599E+01  1.43001E+01  1.43842E+01  1.44705E+01
   1.46316E+01  1.48505E+01  1.50979E+01  1.53966E+01  1.57530E+01  1.60989E+01  1.63394E+01  1.64413E+01  1.64260E+01  1.63343E+01
   1.61957E+01  1.60190E+01  1.58303E+01  1.56497E+01  1.54807E+01  1.53267E+01  1.51888E+01  1.50658E+01  1.49553E+01  1.48550E+01
   1.47636E+01  1.46795E+01  1.46016E+01  1.45290E+01  1.44625E+01  1.44035E+01  1.43541E+01  1.43158E+01  1.42898E+01  1.42773E+01
   1.42803E+01  1.43009E+01  1.43411E+01  1.44018E+01  1.44840E+01  1.45885E+01  1.47167E+01  1.48698E+01  1.50482E+01  1.52514E+01
   1.54784E+01  1.57280E+01  1.59991E+01  1.62892E+01  1.65949E+01  1.69112E+01  1.72330E+01  1.75546E+01  1.78705E+01  1.81737E+01
   1.84570E+01  1.87130E+01  1.89352E+01  1.91182E+01  1.92575E+01  1.93490E+01  1.93900E+01  1.93791E+01  1.93172E+01  1.92068E+01
   1.90515E+01  1.88554E+01  1.86238E+01  1.83626E+01  1.80790E+01  1.77799E+01  1.74720E+01  1.71607E+01  1.68514E+01  1.65489E+01
   1.62578E+01  1.59813E+01  1.57217E+01  1.54798E+01  1.52565E+01  1.50524E+01  1.48676E+01  1.47014E+01  1.45526E+01  1.44195E+01
   1.43012E+01  1.41966E+01  1.41048E+01  1.40243E+01  1.39535E+01  1.38911E+01  1.38365E+01  1.37889E+01  1.37479E+01  1.37123E+01
   1.36811E+01  1.36537E+01  1.36303E+01  1.36104E+01  1.35938E+01  1.35796E+01  1.35675E+01  1.35572E+01  1.35492E+01  1.35432E+01
   1.35388E+01  1.35356E+01  1.35334E+01  1.35324E+01  1.35328E+01  1.35345E+01  1.35371E+01  1.35401E+01  1.35438E+01  1.35484E+01
   1.35540E+01  1.35603E+01  1.35669E+01  1.35738E+01  1.35811E+01  1.35892E+01  1.35980E+01  1.36071E+01  1.36164E+01  1.36257E+01
   1.36355E+01  1.36459E+01  1.36568E+01  1.36677E+01  1.36786E+01  1.36896E+01  1.37012E+01  1.37132E+01  1.37255E+01  1.37375E+01
   1.37496E+01  1.37618E+01  1.37746E+01  1.37876E+01  1.38006E+01  1.38134E+01  1.38262E+01  1.38393E+01  1.38529E+01  1.38665E+01
   1.38800E+01  1.38932E+01  1.39066E+01  1.39203E+01  1.39343E+01  1.39482E+01  1.39619E+01  1.39754E+01
 NY background values follow
    -6.170E+01   -6.132E+01   -6.093E+01   -6.055E+01   -6.016E+01   -5.978E+01   -5.940E+01   -5.901E+01   -5.863E+01   -5.825E+01
    -5.786E+01   -5.748E+01   -5.710E+01   -5.672E+01   -5.633E+01   -5.595E+01   -5.557E+01   -5.519E+01   -5.481E+01   -5.443E+01
    -5.405E+01   -5.367E+01   -5.329E+01   -5.291E+01   -5.253E+01   -5.215E+01   -5.177E+01   -5.140E+01   -5.102E+01   -5.064E+01
    -5.027E+01   -4.989E+01   -4.952E+01   -4.915E+01   -4.877E+01   -4.840E+01   -4.803E+01   -4.766E+01   -4.729E+01   -4.692E+01
    -4.655E+01   -4.619E+01   -4.582E+01   -4.545E+01   -4.509E+01   -4.473E+01   -4.436E+01   -4.400E+01   -4.364E+01   -4.328E+01
    -4.292E+01   -4.257E+01   -4.221E+01   -4.185E+01   -4.150E+01   -4.115E+01   -4.079E+01   -4.044E+01   -4.009E+01   -3.975E+01
    -3.940E+01   -3.905E+01   -3.871E+01   -3.837E+01   -3.802E+01   -3.768E+01   -3.735E+01   -3.701E+01   -3.667E+01   -3.634E+01
    -3.600E+01   -3.567E+01   -3.534E+01   -3.502E+01   -3.469E+01   -3.436E+01   -3.404E+01   -3.372E+01   -3.340E+01   -3.308E+01
    -3.276E+01   -3.245E+01   -3.214E+01   -3.183E+01   -3.152E+01   -3.121E+01   -3.090E+01   -3.060E+01   -3.030E+01   -3.000E+01
    -2.970E+01   -2.940E+01   -2.911E+01   -2.882E+01   -2.853E+01   -2.824E+01   -2.795E+01   -2.767E+01   -2.739E+01   -2.711E+01
    -2.683E+01   -2.655E+01   -2.628E+01   -2.601E+01   -2.574E+01   -2.547E+01   -2.520E+01   -2.494E+01   -2.467E+01   -2.441E+01
    -2.415E+01   -2.390E+01   -2.364E+01   -2.339E+01   -2.314E+01   -2.289E+01   -2.264E+01   -2.239E+01   -2.215E+01   -2.191E+01
    -2.167E+01   -2.143E+01   -2.119E+01   -2.096E+01   -2.072E+01   -2.049E+01   -2.026E+01   -2.004E+01   -1.981E+01   -1.959E+01
    -1.937E+01   -1.915E+01   -1.893E+01   -1.871E+01   -1.850E+01   -1.828E+01   -1.807E+01   -1.786E+01   -1.765E+01   -1.745E+01
    -1.724E+01   -1.704E+01   -1.684E+01   -1.664E+01   -1.644E+01   -1.624E+01   -1.605E+01   -1.585E+01   -1.566E+01   -1.547E+01
    -1.528E+01   -1.509E+01   -1.490E+01   -1.471E+01   -1.452E+01   -1.434E+01   -1.415E+01   -1.397E+01   -1.379E+01   -1.361E+01
    -1.342E+01   -1.324E+01   -1.306E+01   -1.289E+01   -1.271E+01   -1.253E+01   -1.235E+01   -1.218E+01   -1.200E+01   -1.182E+01
    -1.165E+01   -1.147E+01   -1.130E+01   -1.112E+01   -1.095E+01   -1.078E+01   -1.060E+01   -1.043E+01   -1.025E+01   -1.008E+01
    -9.906E+00   -9.732E+00   -9.558E+00   -9.384E+00   -9.209E+00   -9.035E+00   -8.861E+00   -8.687E+00   -8.512E+00   -8.338E+00
    -8.164E+00   -7.990E+00   -7.817E+00   -7.643E+00   -7.470E+00   -7.297E+00   -7.124E+00   -6.951E+00   -6.779E+00   -6.607E+00
    -6.435E+00   -6.264E+00   -6.093E+00   -5.922E+00   -5.752E+00   -5.583E+00   -5.414E+00   -5.245E+00   -5.077E+00   -4.910E+00
    -4.743E+00   -4.577E+00   -4.411E+00   -4.246E+00   -4.082E+00   -3.918E+00   -3.756E+00   -3.594E+00   -3.433E+00   -3.272E+00
    -3.113E+00   -2.954E+00   -2.796E+00   -2.639E+00   -2.484E+00   -2.329E+00   -2.175E+00   -2.022E+00   -1.870E+00   -1.719E+00
    -1.569E+00   -1.420E+00   -1.272E+00   -1.125E+00   -9.795E-01   -8.345E-01   -6.905E-01   -5.475E-01   -4.054E-01   -2.644E-01
    -1.242E-01    1.496E-02    1.532E-01    2.905E-01    4.268E-01    5.623E-01    6.968E-01    8.303E-01    9.630E-01    1.095E+00
     1.226E+00    1.355E+00    1.484E+00    1.613E+00    1.740E+00    1.866E+00    1.992E+00    2.116E+00    2.240E+00    2.363E+00
     2.485E+00    2.606E+00    2.726E+00    2.846E+00    2.964E+00    3.082E+00    3.199E+00    3.315E+00    3.430E+00    3.544E+00
     3.658E+00    3.771E+00    3.883E+00    3.994E+00    4.104E+00    4.214E+00    4.323E+00    4.431E+00    4.538E+00    4.644E+00
     4.749E+00    4.854E+00    4.958E+00    5.061E+00    5.163E+00    5.265E+00    5.365E+00    5.465E+00    5.564E+00    5.662E+00
     5.760E+00    5.856E+00    5.952E+00    6.047E+00    6.141E+00    6.234E+00    6.327E+00    6.419E+00    6.509E+00    6.599E+00
     6.689E+00    6.777E+00    6.865E+00    6.951E+00    7.037E+00    7.123E+00    7.207E+00    7.290E+00    7.373E+00    7.455E+00
     7.536E+00    7.616E+00    7.696E+00    7.774E+00    7.852E+00    7.929E+00    8.005E+00    8.081E+00    8.155E+00    8.229E+00
     8.302E+00    8.374E+00    8.445E+00    8.516E+00    8.585E+00    8.654E+00    8.722E+00    8.789E+00    8.856E+00    8.922E+00
     8.986E+00    9.051E+00    9.114E+00    9.176E+00    9.238E+00    9.299E+00    9.359E+00    9.419E+00    9.477E+00    9.535E+00
     9.592E+00    9.649E+00    9.704E+00    9.759E+00    9.813E+00    9.867E+00    9.919E+00    9.971E+00    1.002E+01    1.007E+01
     1.012E+01    1.017E+01    1.022E+01    1.027E+01    1.031E+01    1.036E+01    1.040E+01    1.045E+01    1.049E+01    1.054E+01
     1.058E+01    1.062E+01    1.066E+01    1.070E+01    1.074E+01    1.078E+01    1.082E+01    1.086E+01    1.089E+01    1.093E+01
     1.096E+01    1.100E+01    1.103E+01    1.107E+01    1.110E+01    1.113E+01    1.116E+01    1.120E+01    1.123E+01    1.126E+01
     1.129E+01    1.132E+01    1.135E+01    1.138E+01    1.140E+01    1.143E+01    1.146E+01    1.148E+01    1.151E+01    1.154E+01
     1.156E+01    1.159E+01    1.161E+01    1.164E+01    1.166E+01    1.168E+01    1.171E+01    1.173E+01    1.175E+01    1.178E+01
     1.180E+01    1.182E+01    1.184E+01    1.186E+01    1.189E+01    1.191E+01    1.193E+01    1.195E+01    1.197E+01    1.199E+01
     1.201E+01    1.203E+01    1.205E+01    1.207E+01    1.209E+01    1.211E+01    1.213E+01    1.215E+01    1.216E+01    1.218E+01
     1.220E+01    1.222E+01    1.224E+01    1.226E+01    1.228E+01    1.229E+01    1.231E+01    1.233E+01    1.235E+01    1.237E+01
     1.238E+01    1.240E+01    1.242E+01    1.244E+01    1.245E+01    1.247E+01    1.249E+01    1.251E+01    1.252E+01    1.254E+01
     1.256E+01    1.257E+01    1.259E+01    1.261E+01    1.263E+01    1.264E+01    1.266E+01    1.268E+01    1.270E+01    1.271E+01
     1.273E+01    1.275E+01    1.277E+01    1.278E+01    1.280E+01    1.282E+01    1.284E+01    1.285E+01    1.287E+01    1.289E+01
     1.291E+01    1.293E+01    1.294E+01    1.296E+01    1.298E+01    1.300E+01    1.302E+01    1.303E+01    1.305E+01    1.307E+01
     1.309E+01    1.311E+01    1.313E+01    1.314E+01    1.316E+01    1.318E+01    1.320E+01    1.322E+01    1.324E+01    1.325E+01
     1.327E+01    1.329E+01    1.331E+01    1.333E+01    1.334E+01    1.336E+01    1.338E+01    1.340E+01    1.342E+01    1.343E+01
     1.345E+01    1.347E+01    1.349E+01    1.351E+01    1.352E+01    1.354E+01    1.356E+01    1.358E+01
 Cr       Conc. = 5.67E+02
