 LCModel (Version 6.3-1L) Copyright: S.W. Provencher.          Ref.: Magn. Reson. Med. 30:672-679 (1993).                
 Slice#1 Row#12 Col#3  K_02_press_1_raw_act
 36 lines in following concentration table = NCONC+1
    Conc.  %SD /Cr+PCr  Metabolite                                         
  204.940  52%   0.691 Ala                                                 
    0.000 999%   0.000 Asp                                                 
   93.212 183%   0.314 Cr                                                  
  203.431  85%   0.686 PCr                                                 
   42.419  96%   0.143 GABA                                                
   11.743 343% 4.0E-02 Glc                                                 
  343.556  76%   1.158 Gln                                                 
  456.364  63%   1.538 Glu                                                 
  115.481  12%   0.389 GPC                                                 
    0.000 999%   0.000 PCh                                                 
  127.423  46%   0.430 GSH                                                 
 1.09E+03  18%   3.682 Ins                                                 
    0.000 999%   0.000 Lac                                                 
  537.919   8%   1.813 NAA                                                 
    0.000 999%   0.000 NAAG                                                
   39.991  29%   0.135 Scyllo                                              
   64.220 100%   0.216 Tau                                                 
  245.326  29%   0.827 -CrCH2                                              
  115.481  12%   0.389 GPC+PCh                                             
  537.919   8%   1.813 NAA+NAAG                                            
  296.643  13%   1.000 Cr+PCr                                              
  799.920  61%   2.697 Glu+Gln                                             
    0.000 999%   0.000 Lip13a                                              
    0.000 999%   0.000 Lip13b                                              
    0.000 999%   0.000 Lip09                                               
  224.407  38%   0.756 MM09                                                
    2.856 999% 9.6E-03 Lip20                                               
  330.157  44%   1.113 MM20                                                
   67.920  56%   0.229 MM12                                                
  327.995  31%   1.106 MM14                                                
  196.952  37%   0.664 MM17                                                
    0.000 999%   0.000 Lip13a+Lip13b                                       
  395.915  31%   1.335 MM14+Lip13a+Lip13b+MM12                             
  224.407  38%   0.756 MM09+Lip09                                          
  333.013  44%   1.123 MM20+Lip20                                          
   6 lines in following misc. output table
  FWHM = 0.099 ppm    S/N =   3                                            
  Data shift =-0.015 ppm                                                   
  Ph: -13 deg      -4.6 deg/ppm                                            
  alphaB,S = 1.4E+00,   1.0E+02                                            
   14 spline knots.   Ns =10(1)                                            
  (15) 4 infls.   (14) 1 extrs.                                            
  498 points on ppm-axis = NY
      4.000000     3.992357     3.984714     3.977070     3.969427     3.961784     3.954141     3.946497     3.938854     3.931211
      3.923568     3.915925     3.908281     3.900638     3.892995     3.885352     3.877708     3.870065     3.862422     3.854779
      3.847136     3.839492     3.831849     3.824206     3.816563     3.808919     3.801276     3.793633     3.785990     3.778347
      3.770703     3.763060     3.755417     3.747774     3.740130     3.732487     3.724844     3.717201     3.709558     3.701914
      3.694271     3.686628     3.678985     3.671341     3.663698     3.656055     3.648412     3.640769     3.633125     3.625482
      3.617839     3.610196     3.602552     3.594909     3.587266     3.579623     3.571980     3.564336     3.556693     3.549050
      3.541407     3.533763     3.526120     3.518477     3.510834     3.503191     3.495547     3.487904     3.480261     3.472618
      3.464974     3.457331     3.449688     3.442045     3.434402     3.426758     3.419115     3.411472     3.403829     3.396185
      3.388542     3.380899     3.373256     3.365613     3.357969     3.350326     3.342683     3.335040     3.327396     3.319753
      3.312110     3.304467     3.296824     3.289180     3.281537     3.273894     3.266251     3.258607     3.250964     3.243321
      3.235678     3.228034     3.220391     3.212748     3.205105     3.197462     3.189818     3.182175     3.174532     3.166889
      3.159245     3.151602     3.143959     3.136316     3.128673     3.121029     3.113386     3.105743     3.098100     3.090456
      3.082813     3.075170     3.067527     3.059884     3.052240     3.044597     3.036954     3.029311     3.021667     3.014024
      3.006381     2.998738     2.991095     2.983451     2.975808     2.968165     2.960522     2.952878     2.945235     2.937592
      2.929949     2.922306     2.914662     2.907019     2.899376     2.891733     2.884089     2.876446     2.868803     2.861160
      2.853517     2.845873     2.838230     2.830587     2.822944     2.815300     2.807657     2.800014     2.792371     2.784728
      2.777084     2.769441     2.761798     2.754155     2.746511     2.738868     2.731225     2.723582     2.715939     2.708295
      2.700652     2.693009     2.685366     2.677722     2.670079     2.662436     2.654793     2.647150     2.639506     2.631863
      2.624220     2.616577     2.608933     2.601290     2.593647     2.586004     2.578361     2.570717     2.563074     2.555431
      2.547788     2.540144     2.532501     2.524858     2.517215     2.509572     2.501928     2.494285     2.486642     2.478999
      2.471355     2.463712     2.456069     2.448426     2.440783     2.433139     2.425496     2.417853     2.410210     2.402566
      2.394923     2.387280     2.379637     2.371994     2.364350     2.356707     2.349064     2.341421     2.333777     2.326134
      2.318491     2.310848     2.303205     2.295561     2.287918     2.280275     2.272632     2.264988     2.257345     2.249702
      2.242059     2.234416     2.226772     2.219129     2.211486     2.203843     2.196199     2.188556     2.180913     2.173270
      2.165627     2.157983     2.150340     2.142697     2.135054     2.127410     2.119767     2.112124     2.104481     2.096838
      2.089194     2.081551     2.073908     2.066265     2.058621     2.050978     2.043335     2.035692     2.028049     2.020405
      2.012762     2.005119     1.997476     1.989833     1.982190     1.974546     1.966903     1.959260     1.951617     1.943974
      1.936331     1.928688     1.921045     1.913402     1.905759     1.898115     1.890472     1.882829     1.875186     1.867543
      1.859900     1.852257     1.844614     1.836971     1.829327     1.821684     1.814041     1.806398     1.798755     1.791112
      1.783469     1.775826     1.768183     1.760540     1.752896     1.745253     1.737610     1.729967     1.722324     1.714681
      1.707038     1.699395     1.691752     1.684108     1.676465     1.668822     1.661179     1.653536     1.645893     1.638250
      1.630607     1.622964     1.615321     1.607677     1.600034     1.592391     1.584748     1.577105     1.569462     1.561819
      1.554176     1.546533     1.538890     1.531246     1.523603     1.515960     1.508317     1.500674     1.493031     1.485388
      1.477745     1.470102     1.462458     1.454815     1.447172     1.439529     1.431886     1.424243     1.416600     1.408957
      1.401314     1.393671     1.386027     1.378384     1.370741     1.363098     1.355455     1.347812     1.340169     1.332526
      1.324883     1.317240     1.309596     1.301953     1.294310     1.286667     1.279024     1.271381     1.263738     1.256095
      1.248452     1.240808     1.233165     1.225522     1.217879     1.210236     1.202593     1.194950     1.187307     1.179664
      1.172021     1.164377     1.156734     1.149091     1.141448     1.133805     1.126162     1.118519     1.110876     1.103233
      1.095590     1.087946     1.080303     1.072660     1.065017     1.057374     1.049731     1.042088     1.034445     1.026802
      1.019158     1.011515     1.003872     0.996229     0.988586     0.980943     0.973300     0.965657     0.958014     0.950371
      0.942727     0.935084     0.927441     0.919798     0.912155     0.904512     0.896869     0.889226     0.881583     0.873940
      0.866296     0.858653     0.851010     0.843367     0.835724     0.828081     0.820438     0.812795     0.805152     0.797508
      0.789865     0.782222     0.774579     0.766936     0.759293     0.751650     0.744007     0.736364     0.728721     0.721077
      0.713434     0.705791     0.698148     0.690505     0.682862     0.675219     0.667576     0.659933     0.652290     0.644646
      0.637003     0.629360     0.621717     0.614074     0.606431     0.598788     0.591145     0.583502     0.575858     0.568215
      0.560572     0.552929     0.545286     0.537643     0.530000     0.522357     0.514714     0.507071     0.499427     0.491784
      0.484141     0.476498     0.468855     0.461212     0.453569     0.445925     0.438282     0.430639     0.422996     0.415353
      0.407710     0.400067     0.392424     0.384780     0.377137     0.369494     0.361851     0.354208     0.346565     0.338922
      0.331278     0.323635     0.315992     0.308349     0.300706     0.293063     0.285420     0.277777     0.270133     0.262490
      0.254847     0.247204     0.239561     0.231918     0.224275     0.216631     0.208988     0.201345
 NY phased data points follow
  -5.22073E+01 -5.24072E+01 -4.93655E+01 -5.02182E+01 -4.89798E+01 -5.03093E+01 -4.81064E+01 -4.44987E+01 -4.63746E+01 -4.63876E+01
  -4.59502E+01 -4.32840E+01 -4.40549E+01 -4.20924E+01 -4.57039E+01 -4.31848E+01 -4.54602E+01 -4.73114E+01 -4.48969E+01 -4.66700E+01
  -4.79383E+01 -4.46810E+01 -4.36690E+01 -4.38951E+01 -3.93117E+01 -4.24998E+01 -4.18284E+01 -3.91993E+01 -4.14122E+01 -3.96007E+01
  -3.95478E+01 -3.90909E+01 -3.26715E+01 -3.65331E+01 -3.66766E+01 -3.66656E+01 -3.43544E+01 -3.43988E+01 -3.32448E+01 -3.44400E+01
  -3.04852E+01 -3.32705E+01 -3.07961E+01 -3.18266E+01 -3.19540E+01 -3.27525E+01 -2.82421E+01 -3.14146E+01 -3.02799E+01 -2.95355E+01
  -3.07221E+01 -2.99253E+01 -3.08191E+01 -2.98975E+01 -2.97876E+01 -3.09432E+01 -3.11520E+01 -2.72775E+01 -3.33978E+01 -3.29680E+01
  -3.05380E+01 -3.12145E+01 -2.87820E+01 -2.95133E+01 -3.20247E+01 -2.83973E+01 -2.98756E+01 -2.86539E+01 -2.82041E+01 -2.94524E+01
  -3.24946E+01 -2.87407E+01 -2.80527E+01 -2.66134E+01 -2.82057E+01 -2.98840E+01 -2.63616E+01 -2.53603E+01 -2.68248E+01 -2.69987E+01
  -2.77359E+01 -2.61051E+01 -2.53821E+01 -2.23954E+01 -2.70891E+01 -2.32492E+01 -2.53127E+01 -2.42973E+01 -2.51189E+01 -2.12912E+01
  -2.34902E+01 -2.16187E+01 -2.52731E+01 -2.10474E+01 -2.16061E+01 -2.10737E+01 -2.13470E+01 -1.92553E+01 -2.24502E+01 -1.86285E+01
  -1.88891E+01 -1.51473E+01 -1.78061E+01 -1.84463E+01 -1.69108E+01 -1.36179E+01 -1.76207E+01 -1.65344E+01 -1.87656E+01 -1.85871E+01
  -1.99107E+01 -2.26565E+01 -2.06437E+01 -1.97702E+01 -2.14320E+01 -1.89963E+01 -1.83700E+01 -1.91238E+01 -1.73994E+01 -1.67286E+01
  -1.72394E+01 -1.56999E+01 -1.50505E+01 -1.70340E+01 -1.02955E+01 -1.24155E+01 -1.38353E+01 -1.32608E+01 -1.14282E+01 -9.25997E+00
  -1.21680E+01 -1.21339E+01 -1.21444E+01 -1.59287E+01 -1.66716E+01 -1.32031E+01 -1.86106E+01 -1.60777E+01 -1.30933E+01 -1.82875E+01
  -1.57823E+01 -1.58658E+01 -1.46821E+01 -1.57204E+01 -1.62787E+01 -1.36843E+01 -1.39631E+01 -1.62040E+01 -1.37727E+01 -1.66910E+01
  -1.60082E+01 -1.77730E+01 -1.53459E+01 -1.29056E+01 -1.39857E+01 -1.32017E+01 -1.02616E+01 -1.11330E+01 -1.64414E+01 -1.16227E+01
  -1.13401E+01 -1.19284E+01 -1.23405E+01 -1.35288E+01 -1.36659E+01 -1.50257E+01 -1.21468E+01 -1.41993E+01 -1.46163E+01 -1.44372E+01
  -1.70001E+01 -1.60016E+01 -1.40268E+01 -1.60993E+01 -1.56777E+01 -1.35708E+01 -1.36535E+01 -1.66200E+01 -1.72098E+01 -1.37186E+01
  -1.18585E+01 -1.20444E+01 -1.50886E+01 -1.36637E+01 -1.24882E+01 -1.45358E+01 -1.37498E+01 -1.39302E+01 -1.45557E+01 -9.29900E+00
  -1.02985E+01 -1.15220E+01 -1.28817E+01 -1.27191E+01 -1.07583E+01 -1.03974E+01 -1.11812E+01 -9.51743E+00 -1.38207E+01 -1.01953E+01
  -1.36561E+01 -1.13924E+01 -1.51633E+01 -1.10983E+01 -9.66643E+00 -8.87237E+00 -7.50445E+00 -1.08816E+01 -8.80602E+00 -9.85686E+00
  -1.10975E+01 -1.11524E+01 -1.12944E+01 -8.45530E+00 -1.00711E+01 -1.00933E+01 -1.09915E+01 -8.34322E+00 -7.78774E+00 -6.89401E+00
  -1.14260E+01 -9.96404E+00 -9.70769E+00 -1.00091E+01 -1.06811E+01 -1.07546E+01 -9.73033E+00 -7.59834E+00 -6.97296E+00 -9.62561E+00
  -7.69866E+00 -9.17209E+00 -4.17938E+00 -9.56573E+00 -7.19030E+00 -7.71100E+00 -8.54312E+00 -9.48827E+00 -5.84141E+00 -6.80749E+00
  -7.44055E+00 -5.79268E+00 -8.03565E+00 -5.28238E+00 -5.64278E+00 -1.12707E+01 -4.18122E+00 -7.05971E+00 -8.20834E+00 -8.38797E+00
  -5.40185E+00 -2.66738E+00 -1.56491E+00 -6.28590E-01  3.31640E+00  3.52921E+00  3.48274E+00  3.22292E+00  6.46195E+00  5.73455E+00
   4.37105E+00  4.52546E+00  3.06934E+00  4.83222E+00  5.15118E+00 -7.83563E-01 -3.68251E+00 -5.84395E+00 -6.22721E+00 -5.02762E+00
  -7.51753E+00 -6.50300E+00 -2.89355E+00 -6.93901E+00 -6.11144E+00 -7.39471E+00 -3.99262E+00 -5.54030E+00 -3.69451E+00 -3.57457E+00
  -4.36807E+00 -4.69366E+00 -5.30463E+00 -9.52181E+00 -8.58669E+00 -7.11215E+00 -6.38738E+00 -6.19257E+00 -5.87842E+00 -6.89302E+00
  -4.22618E+00 -4.83173E+00 -2.82040E+00 -6.27185E+00 -4.93168E+00 -5.74984E+00 -3.78827E+00 -5.18202E+00 -5.34919E+00 -4.44781E+00
  -5.49745E+00 -3.17321E+00 -4.13286E+00 -4.73525E+00  1.27546E+00 -6.36325E+00 -1.03293E+00 -4.19975E+00 -5.34516E+00 -4.58930E+00
  -5.09027E+00 -1.47942E+00 -1.48330E+00 -5.60570E+00 -4.35266E+00  1.01615E-01 -3.15246E+00 -1.09673E+00 -8.76588E-02 -1.77783E-01
  -4.94825E+00  1.94044E-01 -3.04571E+00 -2.81365E+00 -3.90232E+00 -1.90314E+00 -2.17056E-01 -3.54783E+00 -1.24875E+00 -2.03081E+00
  -4.91387E+00 -5.94623E+00 -3.96048E+00 -3.42829E+00 -1.76048E+00 -1.92426E+00 -4.93497E+00 -1.94613E+00 -4.68989E+00 -2.36899E+00
  -2.08064E+00 -2.81917E+00 -4.04255E+00 -4.74386E+00 -4.51877E+00 -3.53736E+00 -5.77569E+00 -6.44692E+00 -4.86111E+00 -3.42037E+00
  -5.54373E+00 -2.11666E+00 -5.31582E+00 -6.16304E+00 -6.92513E+00 -5.95009E+00 -6.26634E+00 -3.50597E+00 -5.01516E+00 -5.10438E+00
  -6.60821E+00 -5.37998E+00 -5.63186E+00 -7.30213E+00 -6.53077E+00 -3.63691E+00 -4.22677E+00 -4.34405E+00 -4.47433E+00 -2.78752E+00
  -5.18266E+00 -5.60132E+00 -4.85630E-01 -2.57513E+00 -4.19122E+00 -4.61935E+00 -2.20762E+00 -3.31054E+00 -3.95758E+00 -4.82940E+00
  -5.47108E+00 -5.35799E+00 -5.64330E+00 -5.44920E+00 -6.44331E+00 -3.75620E+00 -3.69542E+00 -5.00621E+00 -4.24216E+00 -3.81680E+00
  -6.41061E+00 -4.53155E+00 -5.87175E+00 -6.80644E+00 -6.68973E+00 -1.51686E+00 -3.24249E+00 -2.60416E+00 -5.04817E+00 -3.95680E+00
  -6.39936E+00 -5.69749E+00 -5.52148E+00 -9.19123E-01 -3.05781E+00 -2.25858E+00 -5.48243E+00 -6.72824E+00 -7.76788E+00 -5.91242E+00
  -4.78576E+00 -4.78517E+00 -8.32026E+00 -3.60125E+00 -4.93798E+00 -3.12018E+00 -6.05410E+00 -6.23675E+00 -4.20008E+00 -7.25016E+00
  -8.43984E+00 -4.38223E+00 -7.69869E+00 -6.28304E+00 -6.19529E+00 -6.36805E+00 -4.71835E+00 -3.99537E+00 -4.88440E+00 -5.65735E+00
  -5.44352E+00 -6.61910E+00 -5.97139E+00 -8.49583E+00 -3.55444E+00 -5.79369E+00 -7.86682E+00 -8.33870E+00 -5.04987E+00 -7.72569E+00
  -4.61689E+00 -7.06679E+00 -4.71637E+00 -5.79893E+00 -3.55478E+00 -3.60155E+00 -5.02626E+00 -5.14868E+00 -7.39049E+00 -6.54502E+00
  -4.99308E+00 -7.51726E+00 -4.82339E+00 -6.41414E+00 -7.85884E+00 -8.88476E+00 -5.52265E+00 -5.09832E+00 -6.30341E+00 -8.22151E+00
  -6.71346E+00 -8.58293E+00 -6.02391E+00 -4.91767E+00 -8.80656E+00 -8.30576E+00 -7.71533E+00 -3.99877E+00 -8.04325E+00 -9.19566E+00
  -6.94503E+00 -8.04125E+00 -9.11818E+00 -7.85967E+00 -9.62246E+00 -2.06016E+00 -6.35218E+00 -8.10380E+00 -8.07414E+00 -8.08848E+00
  -3.13233E+00 -3.98550E+00 -7.51758E+00 -4.60346E+00 -6.97811E+00 -6.44556E+00 -6.14292E+00 -4.99662E+00 -8.22768E+00 -4.36980E+00
  -8.52401E+00 -5.35626E+00 -4.61728E+00 -4.72330E+00 -6.84639E+00 -2.74200E+00 -4.41377E+00 -2.70552E+00
 NY points of the fit to the data follow
  -4.87277E+01 -4.88093E+01 -4.86237E+01 -4.83005E+01 -4.79624E+01 -4.76472E+01 -4.72922E+01 -4.68667E+01 -4.64241E+01 -4.60193E+01
  -4.56243E+01 -4.51671E+01 -4.46291E+01 -4.40837E+01 -4.36401E+01 -4.33561E+01 -4.32388E+01 -4.32609E+01 -4.33615E+01 -4.34362E+01
  -4.33251E+01 -4.29134E+01 -4.22923E+01 -4.15745E+01 -4.08693E+01 -4.02515E+01 -3.97388E+01 -3.92919E+01 -3.88923E+01 -3.85507E+01
  -3.82017E+01 -3.77903E+01 -3.73087E+01 -3.68215E+01 -3.64646E+01 -3.63465E+01 -3.63662E+01 -3.62156E+01 -3.57600E+01 -3.51713E+01
  -3.46421E+01 -3.42139E+01 -3.38134E+01 -3.33345E+01 -3.27512E+01 -3.21656E+01 -3.16693E+01 -3.12753E+01 -3.09552E+01 -3.07140E+01
  -3.06771E+01 -3.09370E+01 -3.14395E+01 -3.20121E+01 -3.24391E+01 -3.25678E+01 -3.23579E+01 -3.18759E+01 -3.12844E+01 -3.07120E+01
  -3.02289E+01 -2.98200E+01 -2.94655E+01 -2.92188E+01 -2.91136E+01 -2.90983E+01 -2.90692E+01 -2.89411E+01 -2.86680E+01 -2.82698E+01
  -2.78277E+01 -2.74196E+01 -2.70742E+01 -2.68032E+01 -2.66161E+01 -2.64971E+01 -2.63856E+01 -2.62582E+01 -2.62025E+01 -2.62347E+01
  -2.62957E+01 -2.63216E+01 -2.62659E+01 -2.61285E+01 -2.59565E+01 -2.57950E+01 -2.56241E+01 -2.54641E+01 -2.53640E+01 -2.53413E+01
  -2.53644E+01 -2.53399E+01 -2.50216E+01 -2.40070E+01 -2.25892E+01 -2.12641E+01 -2.02516E+01 -1.95608E+01 -1.90580E+01 -1.85562E+01
  -1.80088E+01 -1.75211E+01 -1.71270E+01 -1.67448E+01 -1.63841E+01 -1.62590E+01 -1.66011E+01 -1.74458E+01 -1.85908E+01 -1.97067E+01
  -2.05404E+01 -2.09973E+01 -2.11106E+01 -2.09966E+01 -2.07984E+01 -2.05993E+01 -2.02994E+01 -1.95429E+01 -1.83568E+01 -1.71712E+01
  -1.62132E+01 -1.54918E+01 -1.48988E+01 -1.42733E+01 -1.35531E+01 -1.28710E+01 -1.23666E+01 -1.20147E+01 -1.17691E+01 -1.17378E+01
  -1.20884E+01 -1.28790E+01 -1.39644E+01 -1.50730E+01 -1.59599E+01 -1.65097E+01 -1.67402E+01 -1.67498E+01 -1.66613E+01 -1.65630E+01
  -1.64483E+01 -1.62840E+01 -1.60756E+01 -1.58518E+01 -1.56510E+01 -1.55060E+01 -1.54253E+01 -1.53880E+01 -1.53637E+01 -1.53289E+01
  -1.52785E+01 -1.52366E+01 -1.52034E+01 -1.51605E+01 -1.50914E+01 -1.49828E+01 -1.48650E+01 -1.47708E+01 -1.47018E+01 -1.46422E+01
  -1.45801E+01 -1.45168E+01 -1.44606E+01 -1.44117E+01 -1.43573E+01 -1.42911E+01 -1.42366E+01 -1.42084E+01 -1.41887E+01 -1.41710E+01
  -1.41553E+01 -1.41529E+01 -1.41504E+01 -1.41213E+01 -1.40549E+01 -1.39647E+01 -1.38897E+01 -1.38545E+01 -1.38117E+01 -1.37059E+01
  -1.35292E+01 -1.33063E+01 -1.30721E+01 -1.28494E+01 -1.26505E+01 -1.24640E+01 -1.22869E+01 -1.21262E+01 -1.20025E+01 -1.19027E+01
  -1.17810E+01 -1.16063E+01 -1.13751E+01 -1.11158E+01 -1.08773E+01 -1.06855E+01 -1.05352E+01 -1.04291E+01 -1.03534E+01 -1.03154E+01
  -1.03785E+01 -1.04712E+01 -1.04730E+01 -1.03961E+01 -1.02803E+01 -1.01536E+01 -1.00107E+01 -9.93459E+00 -9.96863E+00 -1.00819E+01
  -1.02238E+01 -1.03406E+01 -1.03896E+01 -1.03205E+01 -1.00781E+01 -9.67884E+00 -9.23881E+00 -8.88868E+00 -8.74307E+00 -8.83484E+00
  -9.08692E+00 -9.37942E+00 -9.61788E+00 -9.72973E+00 -9.64365E+00 -9.34293E+00 -8.92150E+00 -8.46980E+00 -8.04686E+00 -7.70898E+00
  -7.50565E+00 -7.42478E+00 -7.44362E+00 -7.56185E+00 -7.67605E+00 -7.71173E+00 -7.67663E+00 -7.59912E+00 -7.48545E+00 -7.36821E+00
  -7.29130E+00 -7.26396E+00 -7.27717E+00 -7.31558E+00 -7.35229E+00 -7.34746E+00 -7.26889E+00 -7.09740E+00 -6.82834E+00 -6.35649E+00
  -5.11157E+00 -3.07660E+00 -1.05833E+00  4.99028E-01  1.57709E+00  2.35752E+00  3.10720E+00  3.93980E+00  4.65630E+00  5.07094E+00
   5.27519E+00  5.39248E+00  5.22655E+00  4.40141E+00  2.76025E+00  5.27828E-01 -1.79698E+00 -3.72635E+00 -5.01600E+00 -5.67191E+00
  -5.85851E+00 -5.82045E+00 -5.77549E+00 -5.77016E+00 -5.75773E+00 -5.73153E+00 -5.69877E+00 -5.66926E+00 -5.65267E+00 -5.65300E+00
  -5.66592E+00 -5.68373E+00 -5.69748E+00 -5.69917E+00 -5.68543E+00 -5.65700E+00 -5.61604E+00 -5.56546E+00 -5.50900E+00 -5.44968E+00
  -5.38859E+00 -5.32552E+00 -5.25936E+00 -5.18877E+00 -5.11299E+00 -5.03171E+00 -4.94480E+00 -4.85283E+00 -4.75670E+00 -4.65748E+00
  -4.55642E+00 -4.45517E+00 -4.35531E+00 -4.25822E+00 -4.16507E+00 -4.07690E+00 -3.99428E+00 -3.91749E+00 -3.84632E+00 -3.78008E+00
  -3.71735E+00 -3.65600E+00 -3.59278E+00 -3.52305E+00 -3.43925E+00 -3.32696E+00 -3.15055E+00 -2.87719E+00 -2.65396E+00 -2.59423E+00
  -2.67275E+00 -2.82602E+00 -3.00386E+00 -3.19694E+00 -3.44016E+00 -3.64083E+00 -3.70748E+00 -3.68569E+00 -3.67511E+00 -3.77237E+00
  -3.99031E+00 -4.22145E+00 -4.32543E+00 -4.24350E+00 -4.00590E+00 -3.65704E+00 -3.23273E+00 -2.80662E+00 -2.49348E+00 -2.38254E+00
  -2.48285E+00 -2.74039E+00 -3.07017E+00 -3.39321E+00 -3.65978E+00 -3.85279E+00 -3.98613E+00 -4.09314E+00 -4.19054E+00 -4.27812E+00
  -4.35608E+00 -4.42515E+00 -4.48605E+00 -4.53956E+00 -4.58641E+00 -4.62740E+00 -4.66319E+00 -4.69453E+00 -4.72207E+00 -4.74654E+00
  -4.76860E+00 -4.78886E+00 -4.80781E+00 -4.82589E+00 -4.84347E+00 -4.86088E+00 -4.87831E+00 -4.89589E+00 -4.91359E+00 -4.93134E+00
  -4.94898E+00 -4.96634E+00 -4.98312E+00 -4.99898E+00 -5.01347E+00 -5.02618E+00 -5.03665E+00 -5.04442E+00 -5.04898E+00 -5.04980E+00
  -5.04635E+00 -5.03815E+00 -5.02477E+00 -5.00582E+00 -4.98095E+00 -4.94990E+00 -4.91256E+00 -4.86899E+00 -4.81945E+00 -4.76442E+00
  -4.70454E+00 -4.64076E+00 -4.57428E+00 -4.50658E+00 -4.43933E+00 -4.37437E+00 -4.31362E+00 -4.25908E+00 -4.21270E+00 -4.17632E+00
  -4.15153E+00 -4.13960E+00 -4.14141E+00 -4.15747E+00 -4.18780E+00 -4.23202E+00 -4.28926E+00 -4.35827E+00 -4.43748E+00 -4.52514E+00
  -4.61931E+00 -4.71804E+00 -4.81934E+00 -4.92138E+00 -5.02246E+00 -5.12115E+00 -5.21627E+00 -5.30689E+00 -5.39228E+00 -5.47202E+00
  -5.54586E+00 -5.61383E+00 -5.67603E+00 -5.73270E+00 -5.78414E+00 -5.83073E+00 -5.87288E+00 -5.91104E+00 -5.94560E+00 -5.97694E+00
  -6.00541E+00 -6.03133E+00 -6.05502E+00 -6.07676E+00 -6.09674E+00 -6.11517E+00 -6.13219E+00 -6.14797E+00 -6.16264E+00 -6.17633E+00
  -6.18909E+00 -6.20099E+00 -6.21210E+00 -6.22250E+00 -6.23222E+00 -6.24133E+00 -6.24983E+00 -6.25773E+00 -6.26508E+00 -6.27191E+00
  -6.27824E+00 -6.28409E+00 -6.28943E+00 -6.29431E+00 -6.29872E+00 -6.30272E+00 -6.30631E+00 -6.30951E+00 -6.31229E+00 -6.31469E+00
  -6.31673E+00 -6.31844E+00 -6.31981E+00 -6.32085E+00 -6.32155E+00 -6.32194E+00 -6.32204E+00 -6.32186E+00 -6.32139E+00 -6.32064E+00
  -6.31959E+00 -6.31830E+00 -6.31677E+00 -6.31500E+00 -6.31298E+00 -6.31072E+00 -6.30821E+00 -6.30550E+00 -6.30259E+00 -6.29947E+00
  -6.29613E+00 -6.29259E+00 -6.28885E+00 -6.28493E+00 -6.28085E+00 -6.27658E+00 -6.27211E+00 -6.26747E+00 -6.26266E+00 -6.25771E+00
  -6.25260E+00 -6.24731E+00 -6.24185E+00 -6.23623E+00 -6.23045E+00 -6.22453E+00 -6.21843E+00 -6.21215E+00
 NY background values follow
    -5.061E+01   -5.032E+01   -5.002E+01   -4.972E+01   -4.942E+01   -4.912E+01   -4.883E+01   -4.853E+01   -4.823E+01   -4.793E+01
    -4.763E+01   -4.734E+01   -4.704E+01   -4.674E+01   -4.644E+01   -4.615E+01   -4.585E+01   -4.555E+01   -4.526E+01   -4.496E+01
    -4.466E+01   -4.437E+01   -4.407E+01   -4.378E+01   -4.348E+01   -4.319E+01   -4.289E+01   -4.260E+01   -4.231E+01   -4.202E+01
    -4.172E+01   -4.143E+01   -4.114E+01   -4.085E+01   -4.056E+01   -4.027E+01   -3.999E+01   -3.970E+01   -3.941E+01   -3.913E+01
    -3.884E+01   -3.856E+01   -3.827E+01   -3.799E+01   -3.771E+01   -3.743E+01   -3.715E+01   -3.687E+01   -3.659E+01   -3.632E+01
    -3.604E+01   -3.577E+01   -3.549E+01   -3.522E+01   -3.495E+01   -3.468E+01   -3.441E+01   -3.414E+01   -3.388E+01   -3.361E+01
    -3.335E+01   -3.308E+01   -3.282E+01   -3.256E+01   -3.230E+01   -3.204E+01   -3.178E+01   -3.153E+01   -3.127E+01   -3.102E+01
    -3.077E+01   -3.051E+01   -3.026E+01   -3.002E+01   -2.977E+01   -2.952E+01   -2.928E+01   -2.904E+01   -2.879E+01   -2.855E+01
    -2.831E+01   -2.808E+01   -2.784E+01   -2.761E+01   -2.737E+01   -2.714E+01   -2.691E+01   -2.668E+01   -2.646E+01   -2.623E+01
    -2.601E+01   -2.578E+01   -2.556E+01   -2.534E+01   -2.513E+01   -2.491E+01   -2.470E+01   -2.448E+01   -2.427E+01   -2.406E+01
    -2.385E+01   -2.365E+01   -2.344E+01   -2.324E+01   -2.304E+01   -2.284E+01   -2.264E+01   -2.244E+01   -2.225E+01   -2.206E+01
    -2.186E+01   -2.167E+01   -2.149E+01   -2.130E+01   -2.111E+01   -2.093E+01   -2.075E+01   -2.057E+01   -2.039E+01   -2.022E+01
    -2.004E+01   -1.987E+01   -1.970E+01   -1.953E+01   -1.936E+01   -1.919E+01   -1.903E+01   -1.887E+01   -1.871E+01   -1.855E+01
    -1.839E+01   -1.824E+01   -1.808E+01   -1.793E+01   -1.778E+01   -1.763E+01   -1.749E+01   -1.734E+01   -1.720E+01   -1.706E+01
    -1.692E+01   -1.678E+01   -1.665E+01   -1.651E+01   -1.638E+01   -1.625E+01   -1.612E+01   -1.599E+01   -1.586E+01   -1.574E+01
    -1.562E+01   -1.549E+01   -1.537E+01   -1.525E+01   -1.514E+01   -1.502E+01   -1.491E+01   -1.479E+01   -1.468E+01   -1.457E+01
    -1.446E+01   -1.435E+01   -1.425E+01   -1.414E+01   -1.404E+01   -1.393E+01   -1.383E+01   -1.373E+01   -1.363E+01   -1.353E+01
    -1.343E+01   -1.334E+01   -1.324E+01   -1.315E+01   -1.305E+01   -1.296E+01   -1.287E+01   -1.278E+01   -1.269E+01   -1.260E+01
    -1.251E+01   -1.242E+01   -1.233E+01   -1.225E+01   -1.216E+01   -1.208E+01   -1.200E+01   -1.191E+01   -1.183E+01   -1.175E+01
    -1.167E+01   -1.159E+01   -1.151E+01   -1.143E+01   -1.135E+01   -1.128E+01   -1.120E+01   -1.112E+01   -1.105E+01   -1.097E+01
    -1.090E+01   -1.083E+01   -1.075E+01   -1.068E+01   -1.061E+01   -1.054E+01   -1.047E+01   -1.040E+01   -1.033E+01   -1.026E+01
    -1.019E+01   -1.012E+01   -1.006E+01   -9.990E+00   -9.924E+00   -9.858E+00   -9.793E+00   -9.728E+00   -9.664E+00   -9.600E+00
    -9.536E+00   -9.473E+00   -9.411E+00   -9.349E+00   -9.287E+00   -9.225E+00   -9.164E+00   -9.104E+00   -9.043E+00   -8.984E+00
    -8.924E+00   -8.865E+00   -8.806E+00   -8.748E+00   -8.690E+00   -8.632E+00   -8.575E+00   -8.518E+00   -8.462E+00   -8.406E+00
    -8.350E+00   -8.295E+00   -8.240E+00   -8.186E+00   -8.132E+00   -8.079E+00   -8.025E+00   -7.973E+00   -7.920E+00   -7.869E+00
    -7.817E+00   -7.766E+00   -7.716E+00   -7.665E+00   -7.616E+00   -7.566E+00   -7.518E+00   -7.469E+00   -7.421E+00   -7.374E+00
    -7.327E+00   -7.280E+00   -7.234E+00   -7.188E+00   -7.143E+00   -7.099E+00   -7.054E+00   -7.010E+00   -6.967E+00   -6.924E+00
    -6.882E+00   -6.840E+00   -6.799E+00   -6.758E+00   -6.717E+00   -6.677E+00   -6.638E+00   -6.599E+00   -6.560E+00   -6.522E+00
    -6.485E+00   -6.448E+00   -6.412E+00   -6.376E+00   -6.341E+00   -6.306E+00   -6.272E+00   -6.238E+00   -6.205E+00   -6.173E+00
    -6.141E+00   -6.110E+00   -6.079E+00   -6.049E+00   -6.020E+00   -5.991E+00   -5.963E+00   -5.935E+00   -5.908E+00   -5.882E+00
    -5.856E+00   -5.831E+00   -5.806E+00   -5.782E+00   -5.759E+00   -5.737E+00   -5.715E+00   -5.694E+00   -5.673E+00   -5.654E+00
    -5.634E+00   -5.616E+00   -5.598E+00   -5.581E+00   -5.565E+00   -5.549E+00   -5.535E+00   -5.520E+00   -5.507E+00   -5.494E+00
    -5.482E+00   -5.471E+00   -5.461E+00   -5.451E+00   -5.441E+00   -5.433E+00   -5.425E+00   -5.417E+00   -5.411E+00   -5.404E+00
    -5.399E+00   -5.394E+00   -5.390E+00   -5.386E+00   -5.383E+00   -5.380E+00   -5.378E+00   -5.376E+00   -5.375E+00   -5.374E+00
    -5.374E+00   -5.375E+00   -5.376E+00   -5.377E+00   -5.379E+00   -5.381E+00   -5.384E+00   -5.387E+00   -5.390E+00   -5.394E+00
    -5.398E+00   -5.403E+00   -5.408E+00   -5.413E+00   -5.419E+00   -5.425E+00   -5.432E+00   -5.439E+00   -5.446E+00   -5.453E+00
    -5.461E+00   -5.469E+00   -5.477E+00   -5.485E+00   -5.494E+00   -5.503E+00   -5.512E+00   -5.522E+00   -5.531E+00   -5.541E+00
    -5.551E+00   -5.561E+00   -5.572E+00   -5.582E+00   -5.593E+00   -5.604E+00   -5.615E+00   -5.627E+00   -5.638E+00   -5.649E+00
    -5.661E+00   -5.673E+00   -5.685E+00   -5.697E+00   -5.709E+00   -5.721E+00   -5.733E+00   -5.745E+00   -5.757E+00   -5.770E+00
    -5.782E+00   -5.794E+00   -5.807E+00   -5.819E+00   -5.832E+00   -5.844E+00   -5.857E+00   -5.869E+00   -5.881E+00   -5.894E+00
    -5.906E+00   -5.918E+00   -5.930E+00   -5.942E+00   -5.954E+00   -5.966E+00   -5.978E+00   -5.990E+00   -6.001E+00   -6.013E+00
    -6.024E+00   -6.035E+00   -6.046E+00   -6.057E+00   -6.068E+00   -6.079E+00   -6.089E+00   -6.100E+00   -6.110E+00   -6.120E+00
    -6.130E+00   -6.140E+00   -6.149E+00   -6.159E+00   -6.168E+00   -6.177E+00   -6.186E+00   -6.195E+00   -6.203E+00   -6.211E+00
    -6.219E+00   -6.227E+00   -6.235E+00   -6.242E+00   -6.249E+00   -6.256E+00   -6.263E+00   -6.269E+00   -6.276E+00   -6.282E+00
    -6.287E+00   -6.293E+00   -6.298E+00   -6.303E+00   -6.308E+00   -6.312E+00   -6.317E+00   -6.321E+00   -6.324E+00   -6.327E+00
    -6.331E+00   -6.333E+00   -6.336E+00   -6.338E+00   -6.340E+00   -6.341E+00   -6.343E+00   -6.344E+00   -6.344E+00   -6.345E+00
    -6.345E+00   -6.345E+00   -6.345E+00   -6.344E+00   -6.343E+00   -6.342E+00   -6.341E+00   -6.339E+00   -6.338E+00   -6.336E+00
    -6.334E+00   -6.331E+00   -6.329E+00   -6.326E+00   -6.323E+00   -6.320E+00   -6.316E+00   -6.313E+00   -6.309E+00   -6.305E+00
    -6.301E+00   -6.297E+00   -6.293E+00   -6.288E+00   -6.284E+00   -6.279E+00   -6.274E+00   -6.269E+00   -6.264E+00   -6.258E+00
    -6.253E+00   -6.248E+00   -6.242E+00   -6.236E+00   -6.231E+00   -6.225E+00   -6.219E+00   -6.213E+00
 Ala      Conc. = 2.05E+02
