 LCModel (Version 6.3-1L) Copyright: S.W. Provencher.          Ref.: Magn. Reson. Med. 30:672-679 (1993).                
 Slice#1 Row#11 Col#5  K_02_press_1_raw_act
 36 lines in following concentration table = NCONC+1
    Conc.  %SD /Cr+PCr  Metabolite                                         
   64.486 174% 4.4E-02 Ala                                                 
    0.000 999%   0.000 Asp                                                 
  661.895  33%   0.456 Cr                                                  
  790.445  29%   0.544 PCr                                                 
    0.000 999%   0.000 GABA                                                
  199.770  85%   0.138 Glc                                                 
  511.053  43%   0.352 Gln                                                 
 1.59E+03  16%   1.092 Glu                                                 
  595.486   4%   0.410 GPC                                                 
    0.000 999%   0.000 PCh                                                 
  406.403  19%   0.280 GSH                                                 
 1.84E+03  15%   1.265 Ins                                                 
   12.247 987% 8.4E-03 Lac                                                 
 2.65E+03   5%   1.826 NAA                                                 
  377.217  38%   0.260 NAAG                                                
  176.259  18%   0.121 Scyllo                                              
  152.817 148%   0.105 Tau                                                 
  318.596  36%   0.219 -CrCH2                                              
  595.486   4%   0.410 GPC+PCh                                             
 3.03E+03   3%   2.086 NAA+NAAG                                            
 1.45E+03   4%   1.000 Cr+PCr                                              
 2.10E+03  17%   1.444 Glu+Gln                                             
 6.57E+03  16%   4.525 Lip13a                                              
    0.000 999%   0.000 Lip13b                                              
 1.42E+03  30%   0.978 Lip09                                               
  612.485  72%   0.422 MM09                                                
 1.15E+03  25%   0.790 Lip20                                               
  749.695  64%   0.516 MM20                                                
  244.802 107%   0.169 MM12                                                
 2.90E+03  12%   1.996 MM14                                                
  450.750  66%   0.310 MM17                                                
 6.57E+03  16%   4.525 Lip13a+Lip13b                                       
 9.72E+03   8%   6.690 MM14+Lip13a+Lip13b+MM12                             
 2.03E+03  14%   1.400 MM09+Lip09                                          
 1.90E+03  23%   1.306 MM20+Lip20                                          
   6 lines in following misc. output table
  FWHM = 0.038 ppm    S/N =  15                                            
  Data shift = 0.008 ppm                                                   
  Ph: -34 deg     -11.2 deg/ppm                                            
  alphaB,S = 7.8E-01,   1.4E+02                                            
   14 spline knots.   Ns = 7(1)                                            
  (11) 4 infls.   ( 1) 1 extrs.                                            
  498 points on ppm-axis = NY
      4.000000     3.992357     3.984714     3.977070     3.969427     3.961784     3.954141     3.946497     3.938854     3.931211
      3.923568     3.915925     3.908281     3.900638     3.892995     3.885352     3.877708     3.870065     3.862422     3.854779
      3.847136     3.839492     3.831849     3.824206     3.816563     3.808919     3.801276     3.793633     3.785990     3.778347
      3.770703     3.763060     3.755417     3.747774     3.740130     3.732487     3.724844     3.717201     3.709558     3.701914
      3.694271     3.686628     3.678985     3.671341     3.663698     3.656055     3.648412     3.640769     3.633125     3.625482
      3.617839     3.610196     3.602552     3.594909     3.587266     3.579623     3.571980     3.564336     3.556693     3.549050
      3.541407     3.533763     3.526120     3.518477     3.510834     3.503191     3.495547     3.487904     3.480261     3.472618
      3.464974     3.457331     3.449688     3.442045     3.434402     3.426758     3.419115     3.411472     3.403829     3.396185
      3.388542     3.380899     3.373256     3.365613     3.357969     3.350326     3.342683     3.335040     3.327396     3.319753
      3.312110     3.304467     3.296824     3.289180     3.281537     3.273894     3.266251     3.258607     3.250964     3.243321
      3.235678     3.228034     3.220391     3.212748     3.205105     3.197462     3.189818     3.182175     3.174532     3.166889
      3.159245     3.151602     3.143959     3.136316     3.128673     3.121029     3.113386     3.105743     3.098100     3.090456
      3.082813     3.075170     3.067527     3.059884     3.052240     3.044597     3.036954     3.029311     3.021667     3.014024
      3.006381     2.998738     2.991095     2.983451     2.975808     2.968165     2.960522     2.952878     2.945235     2.937592
      2.929949     2.922306     2.914662     2.907019     2.899376     2.891733     2.884089     2.876446     2.868803     2.861160
      2.853517     2.845873     2.838230     2.830587     2.822944     2.815300     2.807657     2.800014     2.792371     2.784728
      2.777084     2.769441     2.761798     2.754155     2.746511     2.738868     2.731225     2.723582     2.715939     2.708295
      2.700652     2.693009     2.685366     2.677722     2.670079     2.662436     2.654793     2.647150     2.639506     2.631863
      2.624220     2.616577     2.608933     2.601290     2.593647     2.586004     2.578361     2.570717     2.563074     2.555431
      2.547788     2.540144     2.532501     2.524858     2.517215     2.509572     2.501928     2.494285     2.486642     2.478999
      2.471355     2.463712     2.456069     2.448426     2.440783     2.433139     2.425496     2.417853     2.410210     2.402566
      2.394923     2.387280     2.379637     2.371994     2.364350     2.356707     2.349064     2.341421     2.333777     2.326134
      2.318491     2.310848     2.303205     2.295561     2.287918     2.280275     2.272632     2.264988     2.257345     2.249702
      2.242059     2.234416     2.226772     2.219129     2.211486     2.203843     2.196199     2.188556     2.180913     2.173270
      2.165627     2.157983     2.150340     2.142697     2.135054     2.127410     2.119767     2.112124     2.104481     2.096838
      2.089194     2.081551     2.073908     2.066265     2.058621     2.050978     2.043335     2.035692     2.028049     2.020405
      2.012762     2.005119     1.997476     1.989833     1.982190     1.974546     1.966903     1.959260     1.951617     1.943974
      1.936331     1.928688     1.921045     1.913402     1.905759     1.898115     1.890472     1.882829     1.875186     1.867543
      1.859900     1.852257     1.844614     1.836971     1.829327     1.821684     1.814041     1.806398     1.798755     1.791112
      1.783469     1.775826     1.768183     1.760540     1.752896     1.745253     1.737610     1.729967     1.722324     1.714681
      1.707038     1.699395     1.691752     1.684108     1.676465     1.668822     1.661179     1.653536     1.645893     1.638250
      1.630607     1.622964     1.615321     1.607677     1.600034     1.592391     1.584748     1.577105     1.569462     1.561819
      1.554176     1.546533     1.538890     1.531246     1.523603     1.515960     1.508317     1.500674     1.493031     1.485388
      1.477745     1.470102     1.462458     1.454815     1.447172     1.439529     1.431886     1.424243     1.416600     1.408957
      1.401314     1.393671     1.386027     1.378384     1.370741     1.363098     1.355455     1.347812     1.340169     1.332526
      1.324883     1.317240     1.309596     1.301953     1.294310     1.286667     1.279024     1.271381     1.263738     1.256095
      1.248452     1.240808     1.233165     1.225522     1.217879     1.210236     1.202593     1.194950     1.187307     1.179664
      1.172021     1.164377     1.156734     1.149091     1.141448     1.133805     1.126162     1.118519     1.110876     1.103233
      1.095590     1.087946     1.080303     1.072660     1.065017     1.057374     1.049731     1.042088     1.034445     1.026802
      1.019158     1.011515     1.003872     0.996229     0.988586     0.980943     0.973300     0.965657     0.958014     0.950371
      0.942727     0.935084     0.927441     0.919798     0.912155     0.904512     0.896869     0.889226     0.881583     0.873940
      0.866296     0.858653     0.851010     0.843367     0.835724     0.828081     0.820438     0.812795     0.805152     0.797508
      0.789865     0.782222     0.774579     0.766936     0.759293     0.751650     0.744007     0.736364     0.728721     0.721077
      0.713434     0.705791     0.698148     0.690505     0.682862     0.675219     0.667576     0.659933     0.652290     0.644646
      0.637003     0.629360     0.621717     0.614074     0.606431     0.598788     0.591145     0.583502     0.575858     0.568215
      0.560572     0.552929     0.545286     0.537643     0.530000     0.522357     0.514714     0.507071     0.499427     0.491784
      0.484141     0.476498     0.468855     0.461212     0.453569     0.445925     0.438282     0.430639     0.422996     0.415353
      0.407710     0.400067     0.392424     0.384780     0.377137     0.369494     0.361851     0.354208     0.346565     0.338922
      0.331278     0.323635     0.315992     0.308349     0.300706     0.293063     0.285420     0.277777     0.270133     0.262490
      0.254847     0.247204     0.239561     0.231918     0.224275     0.216631     0.208988     0.201345
 NY phased data points follow
  -4.17906E+01 -3.80006E+01 -4.00790E+01 -4.35055E+01 -3.43457E+01 -3.55005E+01 -3.11966E+01 -2.32002E+01 -1.73491E+01 -1.39391E+01
  -1.40483E+01 -1.13279E+01 -1.60547E+01 -1.80501E+01 -2.39990E+01 -2.72664E+01 -3.30409E+01 -4.00563E+01 -3.60833E+01 -4.10897E+01
  -4.03146E+01 -3.94356E+01 -3.48970E+01 -3.68352E+01 -3.70676E+01 -3.08344E+01 -3.04220E+01 -2.77333E+01 -3.12888E+01 -2.59746E+01
  -2.41642E+01 -2.57550E+01 -2.29080E+01 -2.39069E+01 -2.21537E+01 -2.85796E+01 -2.60123E+01 -2.60233E+01 -2.36687E+01 -2.33793E+01
  -2.71060E+01 -2.43734E+01 -2.08700E+01 -2.43921E+01 -2.06035E+01 -1.95368E+01 -1.89448E+01 -1.59274E+01 -1.22321E+01 -1.82825E+01
  -2.06522E+01 -1.84997E+01 -2.32442E+01 -2.52857E+01 -2.30333E+01 -2.33007E+01 -2.19826E+01 -1.78798E+01 -2.79567E+01 -2.47015E+01
  -2.36850E+01 -2.77893E+01 -2.40629E+01 -2.85395E+01 -2.79415E+01 -2.23087E+01 -2.86764E+01 -2.85379E+01 -2.27268E+01 -2.47353E+01
  -2.88777E+01 -2.03911E+01 -2.58006E+01 -2.31018E+01 -2.19493E+01 -2.35155E+01 -2.12969E+01 -2.51018E+01 -2.41004E+01 -1.86708E+01
  -2.06751E+01 -2.39960E+01 -2.36220E+01 -1.91174E+01 -1.96185E+01 -2.19971E+01 -2.52855E+01 -2.16977E+01 -2.15926E+01 -1.59917E+01
  -1.65624E+01 -1.06841E+01 -1.55903E+01 -1.18104E+01 -9.21224E+00 -1.29239E+01 -9.64051E+00 -6.23574E+00 -1.28619E+00  2.02023E+00
   1.21903E+01  2.59319E+01  3.34667E+01  3.44967E+01  2.82304E+01  1.53073E+01  3.59505E+00 -8.50660E+00 -7.37527E+00 -1.33494E+01
  -1.43845E+01 -1.84097E+01 -1.72272E+01 -2.25882E+01 -1.53870E+01 -1.84700E+01 -1.66376E+01 -1.88695E+01 -1.34318E+01 -1.38574E+01
  -1.10488E+01 -8.38050E+00 -5.55699E+00 -2.30001E+00  6.60742E+00  2.06476E+01  2.72975E+01  3.52565E+01  2.87813E+01  1.92065E+01
   4.14583E+00  1.31248E+00 -4.73798E+00 -8.50065E+00 -1.00533E+01 -1.37835E+01 -1.42464E+01 -1.62364E+01 -1.50572E+01 -1.86226E+01
  -1.51780E+01 -1.72832E+01 -1.16692E+01 -1.76663E+01 -1.60180E+01 -1.47304E+01 -1.32120E+01 -1.55440E+01 -1.51110E+01 -1.73879E+01
  -1.49185E+01 -1.05451E+01 -1.73672E+01 -8.89514E+00 -1.32449E+01 -1.26289E+01 -1.50061E+01 -1.27367E+01 -1.33712E+01 -9.89366E+00
  -1.62836E+01 -6.45144E+00 -1.52431E+01 -1.28917E+01 -1.79357E+01 -1.41483E+01 -1.66714E+01 -1.87479E+01 -2.09762E+01 -2.24382E+01
  -2.51832E+01 -2.42116E+01 -2.38919E+01 -2.40279E+01 -2.76201E+01 -2.78307E+01 -3.21713E+01 -2.60910E+01 -2.62533E+01 -2.38833E+01
  -2.07064E+01 -2.22393E+01 -2.11895E+01 -1.98600E+01 -2.02017E+01 -1.62430E+01 -1.92232E+01 -1.56218E+01 -2.07453E+01 -1.90369E+01
  -1.68498E+01 -1.26561E+01 -1.52319E+01 -9.89546E+00 -1.03613E+01 -1.60906E+01 -1.97310E+01 -1.93131E+01 -1.40728E+01 -2.01142E+01
  -1.50254E+01 -1.42294E+01 -8.54463E+00 -1.09085E+01 -7.39817E+00 -9.63250E+00 -1.14054E+01 -1.53550E+01 -1.47818E+01 -1.22511E+01
  -1.34547E+01 -1.19329E+01 -1.37531E+01 -4.03981E+00 -4.35296E+00 -4.38094E+00 -1.33886E-01  3.68584E+00 -8.47167E+00 -7.45400E+00
  -1.58391E+01 -1.38668E+01 -1.94782E+01 -1.67473E+01 -8.93733E+00 -1.10645E+01 -9.29497E+00 -4.88937E+00 -4.73583E+00 -3.24497E+00
  -6.32587E+00 -4.36510E+00 -5.88557E+00 -4.91176E+00 -4.08241E+00 -4.29585E+00 -7.89835E+00 -4.49800E+00 -4.85337E+00 -6.38115E+00
  -8.49937E+00 -1.17742E+01 -1.51301E+01 -1.38412E+01 -1.30521E+01 -5.38143E+00 -4.68409E+00 -3.15240E+00 -1.93757E+00  2.71331E+00
   6.47503E+00  7.08891E+00  7.21841E+00  1.32220E+01  2.98088E+01  4.12492E+01  4.86214E+01  4.93636E+01  6.22464E+01  8.83447E+01
   1.02323E+02  9.88078E+01  7.04008E+01  5.22688E+01  3.38128E+01  1.96279E+01  8.99114E+00 -7.89367E-01  9.27843E-01 -2.15751E+00
  -6.51873E+00 -3.11475E+00 -3.29986E+00 -4.70522E+00 -1.33218E+00 -1.93388E+00 -7.91456E+00 -7.29368E+00 -4.64559E+00 -3.93731E+00
  -1.01523E+00 -4.08778E+00  5.14621E-01 -4.91864E+00 -4.55571E+00 -1.04308E+01 -8.02897E+00 -6.82944E+00 -3.75298E+00 -5.74201E+00
  -6.75539E+00 -4.64997E+00 -1.56087E+00 -4.58081E+00 -2.33228E+00 -2.85660E+00 -4.89867E+00 -5.14925E+00 -5.58816E+00 -6.30455E+00
  -4.56024E+00 -2.99644E+00  1.35465E+00 -3.37154E+00 -3.82182E+00 -2.08055E+00 -2.57395E+00 -1.76867E+00 -1.42700E+00 -2.19846E+00
   2.10899E+00  3.48059E+00  1.83914E+00  4.74443E+00  3.35634E+00  4.52693E+00  5.12751E+00  7.93440E-01  2.68952E+00 -3.66123E-01
   3.71325E+00  1.65509E+00  4.89239E+00  8.72285E+00  1.17813E+01  8.58371E+00  1.21722E+01  1.09854E+01  1.43447E+01  1.53270E+01
   1.59707E+01  1.69724E+01  2.26126E+01  2.49456E+01  2.96258E+01  2.96636E+01  2.63602E+01  3.22891E+01  3.00397E+01  3.08495E+01
   2.99793E+01  3.38555E+01  3.00526E+01  2.85074E+01  3.39799E+01  3.13505E+01  2.98383E+01  3.01414E+01  2.90405E+01  2.77033E+01
   3.13842E+01  2.14103E+01  2.76023E+01  2.39983E+01  1.79170E+01  1.93766E+01  2.14811E+01  1.96685E+01  2.28814E+01  2.11991E+01
   1.67652E+01  1.73709E+01  1.89679E+01  2.09818E+01  1.76322E+01  1.62129E+01  1.97644E+01  1.38921E+01  1.42514E+01  1.47524E+01
   1.47353E+01  1.46488E+01  1.22883E+01  9.66881E+00  1.23405E+01  1.15882E+01  1.10040E+01  8.14490E+00  1.18032E+01  5.50124E+00
   5.70172E+00  4.86929E+00  8.97067E+00  9.83020E+00  7.99908E+00  5.89154E+00  5.88363E+00  1.02088E+01  3.31663E+00  9.30995E+00
   7.15929E+00  3.27126E+00  8.45570E+00  5.27199E+00  9.92677E+00  7.45953E+00  1.06904E+01  1.31036E+01  1.14229E+01  1.31749E+01
   1.11178E+01  1.36923E+01  1.41580E+01  1.43740E+01  1.42819E+01  1.63380E+01  1.46085E+01  1.64577E+01  1.60062E+01  1.82717E+01
   1.60561E+01  1.39897E+01  1.21128E+01  1.34128E+01  9.15930E+00  3.73978E+00  6.03893E+00  8.20473E+00  4.65775E+00  3.09963E+00
   2.36498E+00  6.36458E+00  4.83344E+00  1.98201E+00  5.64064E+00  4.26254E+00  4.65658E+00  7.83889E+00  1.97925E+00  3.09126E+00
   4.95598E-01 -7.49559E-01  2.95623E+00  7.45112E-01  4.46797E+00  1.45477E+00 -3.43649E+00  8.46459E-01 -1.63542E+00  5.44022E+00
   5.76562E-01 -2.46379E+00  4.06793E+00 -1.36085E+00  9.05950E-01  1.47674E+00  4.27758E+00 -1.16522E+00  3.30320E+00  1.01587E+00
   1.27967E+00  1.78592E+00  1.75962E+00 -2.81173E+00 -1.46112E+00  1.30541E+00 -9.20061E-02  1.01008E+00  2.18074E+00  8.90762E+00
   2.57050E+00  3.04748E+00  1.49571E+00  4.56116E-02 -1.34786E+00  3.88038E+00 -2.54301E+00 -3.97870E-02 -2.72129E+00  1.89687E+00
   7.91318E-03  1.47460E+00  9.58963E-01 -2.75757E-02  5.11558E-01 -1.52329E+00  1.25067E+00 -1.45265E+00 -1.21663E+00 -1.77095E+00
  -1.79217E+00 -1.84681E+00  1.52641E+00  6.00074E-01  3.14598E-01 -8.45332E-01  2.65279E+00  8.38579E+00  1.46181E+00  1.13741E+00
  -1.99942E+00 -2.73895E+00  3.18851E+00 -1.20363E+00  2.53516E+00  9.90259E-01 -1.50173E+00 -2.73228E+00
 NY points of the fit to the data follow
  -4.02886E+01 -4.02454E+01 -3.92007E+01 -3.73259E+01 -3.45742E+01 -3.14850E+01 -2.82017E+01 -2.43350E+01 -1.97993E+01 -1.54065E+01
  -1.27051E+01 -1.28656E+01 -1.57437E+01 -2.00324E+01 -2.42539E+01 -2.76383E+01 -3.01306E+01 -3.19663E+01 -3.32361E+01 -3.40091E+01
  -3.42297E+01 -3.43084E+01 -3.43880E+01 -3.40277E+01 -3.32072E+01 -3.23828E+01 -3.16857E+01 -3.06952E+01 -2.88078E+01 -2.60594E+01
  -2.31642E+01 -2.10705E+01 -2.04414E+01 -2.11895E+01 -2.27844E+01 -2.46853E+01 -2.65746E+01 -2.84087E+01 -2.99324E+01 -3.05387E+01
  -2.98057E+01 -2.80977E+01 -2.61931E+01 -2.44616E+01 -2.25233E+01 -1.99879E+01 -1.72438E+01 -1.54355E+01 -1.56021E+01 -1.77382E+01
  -2.09346E+01 -2.40410E+01 -2.62112E+01 -2.72941E+01 -2.75244E+01 -2.72478E+01 -2.66520E+01 -2.57537E+01 -2.46304E+01 -2.35521E+01
  -2.28929E+01 -2.29766E+01 -2.37474E+01 -2.48705E+01 -2.58085E+01 -2.61592E+01 -2.59408E+01 -2.53750E+01 -2.46164E+01 -2.37337E+01
  -2.28304E+01 -2.20775E+01 -2.16195E+01 -2.14616E+01 -2.14867E+01 -2.15827E+01 -2.17372E+01 -2.20034E+01 -2.23624E+01 -2.28050E+01
  -2.32081E+01 -2.31123E+01 -2.24464E+01 -2.18378E+01 -2.15567E+01 -2.12606E+01 -2.03625E+01 -1.87578E+01 -1.71389E+01 -1.63571E+01
  -1.67529E+01 -1.78796E+01 -1.90283E+01 -1.97507E+01 -1.94212E+01 -1.62600E+01 -1.10801E+01 -6.40030E+00 -2.15268E+00  3.97890E+00
   1.38855E+01  2.56950E+01  3.40413E+01  3.44260E+01  2.69640E+01  1.56678E+01  4.66245E+00 -4.04836E+00 -1.03126E+01 -1.47037E+01
  -1.76951E+01 -1.92176E+01 -1.97256E+01 -1.99444E+01 -2.00668E+01 -2.01289E+01 -2.01309E+01 -2.00309E+01 -1.96180E+01 -1.76476E+01
  -1.29532E+01 -7.87044E+00 -3.68234E+00  9.19786E-01  8.25788E+00  1.85036E+01  2.80311E+01  3.19695E+01  2.82805E+01  1.92953E+01
   9.19120E+00  7.60732E-01 -5.31235E+00 -9.60438E+00 -1.29198E+01 -1.54080E+01 -1.68301E+01 -1.75710E+01 -1.76984E+01 -1.72482E+01
  -1.64341E+01 -1.55768E+01 -1.49363E+01 -1.46213E+01 -1.46059E+01 -1.47583E+01 -1.49435E+01 -1.51088E+01 -1.52416E+01 -1.53232E+01
  -1.53635E+01 -1.53689E+01 -1.53660E+01 -1.54235E+01 -1.56340E+01 -1.58097E+01 -1.57956E+01 -1.56330E+01 -1.55267E+01 -1.58615E+01
  -1.65615E+01 -1.71175E+01 -1.71052E+01 -1.66084E+01 -1.61213E+01 -1.61106E+01 -1.66710E+01 -1.75376E+01 -1.84152E+01 -1.92173E+01
  -1.98051E+01 -2.00406E+01 -2.01476E+01 -2.04597E+01 -2.11269E+01 -2.17628E+01 -2.18346E+01 -2.12614E+01 -2.05640E+01 -2.03326E+01
  -2.06479E+01 -2.08834E+01 -2.05953E+01 -1.99218E+01 -1.92549E+01 -1.87478E+01 -1.81285E+01 -1.70260E+01 -1.53895E+01 -1.35330E+01
  -1.19514E+01 -1.11508E+01 -1.11262E+01 -1.15405E+01 -1.20759E+01 -1.26118E+01 -1.30867E+01 -1.32621E+01 -1.30179E+01 -1.22991E+01
  -1.12349E+01 -1.00870E+01 -9.12050E+00 -8.64254E+00 -8.76035E+00 -9.65050E+00 -1.14097E+01 -1.35946E+01 -1.54963E+01 -1.63638E+01
  -1.61489E+01 -1.53111E+01 -1.39143E+01 -1.17272E+01 -8.87773E+00 -6.33314E+00 -5.30823E+00 -6.14283E+00 -8.29237E+00 -1.11484E+01
  -1.41588E+01 -1.67463E+01 -1.81206E+01 -1.75682E+01 -1.52544E+01 -1.20722E+01 -9.00107E+00 -6.67387E+00 -5.31819E+00 -4.87705E+00
  -5.03706E+00 -5.43366E+00 -5.78756E+00 -5.89200E+00 -5.67590E+00 -5.22942E+00 -4.71618E+00 -4.32894E+00 -4.31476E+00 -4.82154E+00
  -5.85368E+00 -7.07686E+00 -7.92792E+00 -7.97348E+00 -7.16947E+00 -5.81217E+00 -4.26670E+00 -2.82979E+00 -1.45191E+00  1.98152E-01
   1.78954E+00  3.26729E+00  6.10989E+00  1.50167E+01  2.80110E+01  3.89986E+01  4.68892E+01  5.57682E+01  6.98071E+01  8.63886E+01
   9.64995E+01  9.28022E+01  7.63999E+01  5.48966E+01  3.53464E+01  2.06653E+01  1.04475E+01  3.39010E+00 -1.43558E+00 -3.74825E+00
  -4.50471E+00 -4.88514E+00 -5.03979E+00 -5.02202E+00 -4.95426E+00 -4.95551E+00 -5.04097E+00 -5.17846E+00 -5.32809E+00 -5.46357E+00
  -5.56432E+00 -5.61274E+00 -5.59944E+00 -5.53818E+00 -5.45713E+00 -5.37517E+00 -5.29950E+00 -5.22593E+00 -5.14388E+00 -5.03876E+00
  -4.89750E+00 -4.71599E+00 -4.50595E+00 -4.28179E+00 -4.05440E+00 -3.82899E+00 -3.60808E+00 -3.39098E+00 -3.17113E+00 -2.93933E+00
  -2.69018E+00 -2.42602E+00 -2.15652E+00 -1.89099E+00 -1.63502E+00 -1.39090E+00 -1.15873E+00 -9.37628E-01 -7.25246E-01 -5.15567E-01
  -3.01543E-01 -7.58425E-02  1.69610E-01  4.44176E-01  7.59398E-01  1.12899E+00  1.56788E+00  2.09144E+00  2.71634E+00  3.46475E+00
   4.36045E+00  5.36609E+00  6.45306E+00  7.65420E+00  9.00317E+00  1.04766E+01  1.19821E+01  1.34304E+01  1.48567E+01  1.63627E+01
   1.79802E+01  1.96828E+01  2.14392E+01  2.32450E+01  2.50773E+01  2.68397E+01  2.83889E+01  2.96060E+01  3.04686E+01  3.10294E+01
   3.13481E+01  3.14557E+01  3.13660E+01  3.11025E+01  3.07054E+01  3.02044E+01  2.96026E+01  2.89057E+01  2.81445E+01  2.73591E+01
   2.65801E+01  2.58264E+01  2.51109E+01  2.44437E+01  2.38243E+01  2.32349E+01  2.26492E+01  2.20460E+01  2.14194E+01  2.07746E+01
   2.01162E+01  1.94445E+01  1.87575E+01  1.80532E+01  1.73338E+01  1.66019E+01  1.58596E+01  1.51108E+01  1.43605E+01  1.36147E+01
   1.28799E+01  1.21632E+01  1.14711E+01  1.08098E+01  1.01845E+01  9.60047E+00  9.06240E+00  8.57464E+00  8.14075E+00  7.76352E+00
   7.44537E+00  7.18863E+00  6.99565E+00  6.86837E+00  6.80826E+00  6.81627E+00  6.89317E+00  7.03948E+00  7.25520E+00  7.53919E+00
   7.88898E+00  8.30067E+00  8.76904E+00  9.28731E+00  9.84680E+00  1.04366E+01  1.10437E+01  1.16536E+01  1.22506E+01  1.28184E+01
   1.33401E+01  1.37989E+01  1.41792E+01  1.44670E+01  1.46512E+01  1.47238E+01  1.46798E+01  1.45178E+01  1.42402E+01  1.38531E+01
   1.33662E+01  1.27917E+01  1.21438E+01  1.14379E+01  1.06902E+01  9.91709E+00  9.13442E+00  8.35645E+00  7.59566E+00  6.86251E+00
   6.16560E+00  5.51150E+00  4.90473E+00  4.34763E+00  3.84084E+00  3.38363E+00  2.97448E+00  2.61104E+00  2.29031E+00  2.00865E+00
   1.76235E+00  1.54778E+00  1.36171E+00  1.20096E+00  1.06247E+00  9.43266E-01  8.40796E-01  7.52929E-01  6.77965E-01  6.14255E-01
   5.60247E-01  5.14470E-01  4.75854E-01  4.43586E-01  4.17053E-01  3.95501E-01  3.78194E-01  3.64458E-01  3.53949E-01  3.46422E-01
   3.41665E-01  3.39245E-01  3.38766E-01  3.39923E-01  3.42695E-01  3.47044E-01  3.52864E-01  3.59835E-01  3.67743E-01  3.76484E-01
   3.86171E-01  3.96794E-01  4.08245E-01  4.20259E-01  4.32749E-01  4.45736E-01  4.59369E-01  4.73601E-01  4.88302E-01  5.03260E-01
   5.18498E-01  5.34105E-01  5.50216E-01  5.66728E-01  5.83508E-01  6.00417E-01  6.17560E-01  6.35047E-01  6.52959E-01  6.71140E-01
   6.89481E-01  7.07925E-01  7.26641E-01  7.45723E-01  7.65191E-01  7.84866E-01  8.04686E-01  8.24678E-01  8.45041E-01  8.65823E-01
   8.86991E-01  9.08373E-01  9.29984E-01  9.51922E-01  9.74393E-01  9.97397E-01  1.02088E+00  1.04471E+00
 NY background values follow
    -4.395E+01   -4.372E+01   -4.349E+01   -4.326E+01   -4.302E+01   -4.279E+01   -4.256E+01   -4.233E+01   -4.210E+01   -4.186E+01
    -4.163E+01   -4.140E+01   -4.117E+01   -4.093E+01   -4.070E+01   -4.047E+01   -4.024E+01   -4.001E+01   -3.977E+01   -3.954E+01
    -3.931E+01   -3.908E+01   -3.885E+01   -3.862E+01   -3.839E+01   -3.816E+01   -3.793E+01   -3.770E+01   -3.747E+01   -3.725E+01
    -3.702E+01   -3.679E+01   -3.657E+01   -3.634E+01   -3.612E+01   -3.589E+01   -3.567E+01   -3.544E+01   -3.522E+01   -3.500E+01
    -3.478E+01   -3.456E+01   -3.434E+01   -3.412E+01   -3.390E+01   -3.369E+01   -3.347E+01   -3.326E+01   -3.304E+01   -3.283E+01
    -3.262E+01   -3.241E+01   -3.220E+01   -3.199E+01   -3.178E+01   -3.157E+01   -3.137E+01   -3.116E+01   -3.096E+01   -3.076E+01
    -3.056E+01   -3.036E+01   -3.016E+01   -2.996E+01   -2.976E+01   -2.957E+01   -2.937E+01   -2.918E+01   -2.899E+01   -2.880E+01
    -2.861E+01   -2.842E+01   -2.824E+01   -2.805E+01   -2.787E+01   -2.769E+01   -2.751E+01   -2.733E+01   -2.715E+01   -2.697E+01
    -2.680E+01   -2.662E+01   -2.645E+01   -2.628E+01   -2.611E+01   -2.594E+01   -2.578E+01   -2.561E+01   -2.545E+01   -2.529E+01
    -2.513E+01   -2.497E+01   -2.482E+01   -2.466E+01   -2.451E+01   -2.436E+01   -2.421E+01   -2.406E+01   -2.391E+01   -2.377E+01
    -2.363E+01   -2.348E+01   -2.334E+01   -2.320E+01   -2.307E+01   -2.293E+01   -2.280E+01   -2.267E+01   -2.254E+01   -2.241E+01
    -2.228E+01   -2.215E+01   -2.203E+01   -2.191E+01   -2.178E+01   -2.167E+01   -2.155E+01   -2.143E+01   -2.131E+01   -2.120E+01
    -2.109E+01   -2.098E+01   -2.087E+01   -2.076E+01   -2.066E+01   -2.055E+01   -2.045E+01   -2.035E+01   -2.025E+01   -2.015E+01
    -2.005E+01   -1.995E+01   -1.986E+01   -1.977E+01   -1.967E+01   -1.958E+01   -1.950E+01   -1.941E+01   -1.932E+01   -1.924E+01
    -1.915E+01   -1.907E+01   -1.899E+01   -1.891E+01   -1.883E+01   -1.876E+01   -1.868E+01   -1.861E+01   -1.853E+01   -1.846E+01
    -1.838E+01   -1.831E+01   -1.824E+01   -1.817E+01   -1.810E+01   -1.803E+01   -1.796E+01   -1.790E+01   -1.783E+01   -1.776E+01
    -1.770E+01   -1.763E+01   -1.757E+01   -1.750E+01   -1.744E+01   -1.737E+01   -1.731E+01   -1.724E+01   -1.718E+01   -1.711E+01
    -1.705E+01   -1.699E+01   -1.692E+01   -1.686E+01   -1.679E+01   -1.673E+01   -1.666E+01   -1.660E+01   -1.653E+01   -1.647E+01
    -1.640E+01   -1.633E+01   -1.627E+01   -1.620E+01   -1.613E+01   -1.606E+01   -1.599E+01   -1.593E+01   -1.586E+01   -1.579E+01
    -1.572E+01   -1.565E+01   -1.557E+01   -1.550E+01   -1.543E+01   -1.536E+01   -1.529E+01   -1.521E+01   -1.514E+01   -1.507E+01
    -1.499E+01   -1.492E+01   -1.485E+01   -1.477E+01   -1.470E+01   -1.462E+01   -1.455E+01   -1.447E+01   -1.440E+01   -1.432E+01
    -1.425E+01   -1.417E+01   -1.410E+01   -1.402E+01   -1.394E+01   -1.387E+01   -1.379E+01   -1.372E+01   -1.364E+01   -1.356E+01
    -1.349E+01   -1.341E+01   -1.333E+01   -1.326E+01   -1.318E+01   -1.311E+01   -1.303E+01   -1.295E+01   -1.288E+01   -1.280E+01
    -1.272E+01   -1.265E+01   -1.257E+01   -1.250E+01   -1.242E+01   -1.234E+01   -1.227E+01   -1.219E+01   -1.212E+01   -1.204E+01
    -1.196E+01   -1.189E+01   -1.181E+01   -1.174E+01   -1.166E+01   -1.159E+01   -1.151E+01   -1.144E+01   -1.136E+01   -1.128E+01
    -1.121E+01   -1.113E+01   -1.106E+01   -1.098E+01   -1.091E+01   -1.083E+01   -1.076E+01   -1.068E+01   -1.061E+01   -1.053E+01
    -1.046E+01   -1.038E+01   -1.031E+01   -1.023E+01   -1.016E+01   -1.008E+01   -1.001E+01   -9.935E+00   -9.860E+00   -9.786E+00
    -9.711E+00   -9.636E+00   -9.562E+00   -9.488E+00   -9.413E+00   -9.339E+00   -9.265E+00   -9.190E+00   -9.116E+00   -9.042E+00
    -8.968E+00   -8.894E+00   -8.820E+00   -8.747E+00   -8.673E+00   -8.599E+00   -8.526E+00   -8.453E+00   -8.379E+00   -8.306E+00
    -8.233E+00   -8.160E+00   -8.088E+00   -8.015E+00   -7.943E+00   -7.870E+00   -7.798E+00   -7.726E+00   -7.654E+00   -7.582E+00
    -7.511E+00   -7.439E+00   -7.368E+00   -7.297E+00   -7.226E+00   -7.156E+00   -7.085E+00   -7.015E+00   -6.945E+00   -6.875E+00
    -6.805E+00   -6.736E+00   -6.667E+00   -6.598E+00   -6.529E+00   -6.460E+00   -6.392E+00   -6.324E+00   -6.256E+00   -6.189E+00
    -6.121E+00   -6.054E+00   -5.987E+00   -5.921E+00   -5.854E+00   -5.788E+00   -5.723E+00   -5.657E+00   -5.592E+00   -5.527E+00
    -5.462E+00   -5.397E+00   -5.333E+00   -5.269E+00   -5.205E+00   -5.142E+00   -5.078E+00   -5.015E+00   -4.953E+00   -4.890E+00
    -4.828E+00   -4.766E+00   -4.705E+00   -4.643E+00   -4.582E+00   -4.521E+00   -4.461E+00   -4.400E+00   -4.341E+00   -4.281E+00
    -4.221E+00   -4.162E+00   -4.103E+00   -4.045E+00   -3.986E+00   -3.928E+00   -3.871E+00   -3.813E+00   -3.756E+00   -3.699E+00
    -3.643E+00   -3.586E+00   -3.530E+00   -3.475E+00   -3.419E+00   -3.364E+00   -3.309E+00   -3.255E+00   -3.201E+00   -3.147E+00
    -3.093E+00   -3.039E+00   -2.986E+00   -2.933E+00   -2.881E+00   -2.829E+00   -2.776E+00   -2.725E+00   -2.673E+00   -2.622E+00
    -2.571E+00   -2.520E+00   -2.470E+00   -2.420E+00   -2.370E+00   -2.320E+00   -2.271E+00   -2.221E+00   -2.172E+00   -2.124E+00
    -2.075E+00   -2.027E+00   -1.979E+00   -1.932E+00   -1.884E+00   -1.837E+00   -1.790E+00   -1.743E+00   -1.697E+00   -1.650E+00
    -1.604E+00   -1.559E+00   -1.513E+00   -1.468E+00   -1.422E+00   -1.378E+00   -1.333E+00   -1.288E+00   -1.244E+00   -1.200E+00
    -1.156E+00   -1.113E+00   -1.069E+00   -1.026E+00   -9.835E-01   -9.409E-01   -8.985E-01   -8.564E-01   -8.146E-01   -7.730E-01
    -7.317E-01   -6.907E-01   -6.499E-01   -6.094E-01   -5.691E-01   -5.292E-01   -4.895E-01   -4.502E-01   -4.111E-01   -3.723E-01
    -3.339E-01   -2.957E-01   -2.578E-01   -2.203E-01   -1.830E-01   -1.461E-01   -1.095E-01   -7.322E-02   -3.728E-02   -1.670E-03
     3.360E-02    6.854E-02    1.031E-01    1.374E-01    1.713E-01    2.048E-01    2.380E-01    2.708E-01    3.032E-01    3.353E-01
     3.670E-01    3.984E-01    4.293E-01    4.599E-01    4.901E-01    5.199E-01    5.494E-01    5.786E-01    6.074E-01    6.359E-01
     6.640E-01    6.919E-01    7.195E-01    7.467E-01    7.737E-01    8.005E-01    8.270E-01    8.532E-01    8.792E-01    9.049E-01
     9.305E-01    9.558E-01    9.809E-01    1.006E+00    1.031E+00    1.055E+00    1.080E+00    1.104E+00    1.128E+00    1.152E+00
     1.176E+00    1.200E+00    1.223E+00    1.247E+00    1.270E+00    1.293E+00    1.317E+00    1.340E+00    1.363E+00    1.386E+00
     1.409E+00    1.432E+00    1.456E+00    1.479E+00    1.502E+00    1.525E+00    1.548E+00    1.571E+00
 Ala      Conc. = 6.45E+01
