 LCModel (Version 6.3-1L) Copyright: S.W. Provencher.          Ref.: Magn. Reson. Med. 30:672-679 (1993).                
 Slice#3 Row#8 Col#3  K_02_press_1_raw_act
 36 lines in following concentration table = NCONC+1
    Conc.  %SD /Cr+PCr  Metabolite                                         
   44.002 311% 2.5E-02 Ala                                                 
    0.000 999%   0.000 Asp                                                 
  740.601  30%   0.423 Cr                                                  
 1.01E+03  22%   0.577 PCr                                                 
   96.402 165% 5.5E-02 GABA                                                
    0.000 999%   0.000 Glc                                                 
  908.503  32%   0.519 Gln                                                 
 2.00E+03  17%   1.142 Glu                                                 
  419.341   5%   0.240 GPC                                                 
    0.000 999%   0.000 PCh                                                 
  428.816  17%   0.245 GSH                                                 
  279.281  86%   0.160 Ins                                                 
   61.193 245% 3.5E-02 Lac                                                 
 2.04E+03   6%   1.166 NAA                                                 
  560.156  23%   0.320 NAAG                                                
    0.000 999%   0.000 Scyllo                                              
    0.000 999%   0.000 Tau                                                 
    0.000 999%   0.000 -CrCH2                                              
  419.341   5%   0.240 GPC+PCh                                             
 2.60E+03   3%   1.486 NAA+NAAG                                            
 1.75E+03   3%   1.000 Cr+PCr                                              
 2.91E+03  18%   1.661 Glu+Gln                                             
    0.000 999%   0.000 Lip13a                                              
    0.000 999%   0.000 Lip13b                                              
    0.000 999%   0.000 Lip09                                               
  786.873  20%   0.450 MM09                                                
    1.814 999% 1.0E-03 Lip20                                               
 1.58E+03  17%   0.901 MM20                                                
  210.608  34%   0.120 MM12                                                
 1.18E+03  16%   0.675 MM14                                                
  581.100  24%   0.332 MM17                                                
    0.000 999%   0.000 Lip13a+Lip13b                                       
 1.39E+03  17%   0.795 MM14+Lip13a+Lip13b+MM12                             
  786.873  20%   0.450 MM09+Lip09                                          
 1.58E+03  17%   0.902 MM20+Lip20                                          
   6 lines in following misc. output table
  FWHM = 0.054 ppm    S/N =  12                                            
  Data shift =-0.008 ppm                                                   
  Ph: -13 deg     -11.0 deg/ppm                                            
  alphaB,S = 5.0E-01,   1.0E+02                                            
   14 spline knots.   Ns = 9(1)                                            
  (15) 5 infls.   (11) 3 extrs.                                            
  498 points on ppm-axis = NY
      4.000000     3.992357     3.984714     3.977070     3.969427     3.961784     3.954141     3.946497     3.938854     3.931211
      3.923568     3.915925     3.908281     3.900638     3.892995     3.885352     3.877708     3.870065     3.862422     3.854779
      3.847136     3.839492     3.831849     3.824206     3.816563     3.808919     3.801276     3.793633     3.785990     3.778347
      3.770703     3.763060     3.755417     3.747774     3.740130     3.732487     3.724844     3.717201     3.709558     3.701914
      3.694271     3.686628     3.678985     3.671341     3.663698     3.656055     3.648412     3.640769     3.633125     3.625482
      3.617839     3.610196     3.602552     3.594909     3.587266     3.579623     3.571980     3.564336     3.556693     3.549050
      3.541407     3.533763     3.526120     3.518477     3.510834     3.503191     3.495547     3.487904     3.480261     3.472618
      3.464974     3.457331     3.449688     3.442045     3.434402     3.426758     3.419115     3.411472     3.403829     3.396185
      3.388542     3.380899     3.373256     3.365613     3.357969     3.350326     3.342683     3.335040     3.327396     3.319753
      3.312110     3.304467     3.296824     3.289180     3.281537     3.273894     3.266251     3.258607     3.250964     3.243321
      3.235678     3.228034     3.220391     3.212748     3.205105     3.197462     3.189818     3.182175     3.174532     3.166889
      3.159245     3.151602     3.143959     3.136316     3.128673     3.121029     3.113386     3.105743     3.098100     3.090456
      3.082813     3.075170     3.067527     3.059884     3.052240     3.044597     3.036954     3.029311     3.021667     3.014024
      3.006381     2.998738     2.991095     2.983451     2.975808     2.968165     2.960522     2.952878     2.945235     2.937592
      2.929949     2.922306     2.914662     2.907019     2.899376     2.891733     2.884089     2.876446     2.868803     2.861160
      2.853517     2.845873     2.838230     2.830587     2.822944     2.815300     2.807657     2.800014     2.792371     2.784728
      2.777084     2.769441     2.761798     2.754155     2.746511     2.738868     2.731225     2.723582     2.715939     2.708295
      2.700652     2.693009     2.685366     2.677722     2.670079     2.662436     2.654793     2.647150     2.639506     2.631863
      2.624220     2.616577     2.608933     2.601290     2.593647     2.586004     2.578361     2.570717     2.563074     2.555431
      2.547788     2.540144     2.532501     2.524858     2.517215     2.509572     2.501928     2.494285     2.486642     2.478999
      2.471355     2.463712     2.456069     2.448426     2.440783     2.433139     2.425496     2.417853     2.410210     2.402566
      2.394923     2.387280     2.379637     2.371994     2.364350     2.356707     2.349064     2.341421     2.333777     2.326134
      2.318491     2.310848     2.303205     2.295561     2.287918     2.280275     2.272632     2.264988     2.257345     2.249702
      2.242059     2.234416     2.226772     2.219129     2.211486     2.203843     2.196199     2.188556     2.180913     2.173270
      2.165627     2.157983     2.150340     2.142697     2.135054     2.127410     2.119767     2.112124     2.104481     2.096838
      2.089194     2.081551     2.073908     2.066265     2.058621     2.050978     2.043335     2.035692     2.028049     2.020405
      2.012762     2.005119     1.997476     1.989833     1.982190     1.974546     1.966903     1.959260     1.951617     1.943974
      1.936331     1.928688     1.921045     1.913402     1.905759     1.898115     1.890472     1.882829     1.875186     1.867543
      1.859900     1.852257     1.844614     1.836971     1.829327     1.821684     1.814041     1.806398     1.798755     1.791112
      1.783469     1.775826     1.768183     1.760540     1.752896     1.745253     1.737610     1.729967     1.722324     1.714681
      1.707038     1.699395     1.691752     1.684108     1.676465     1.668822     1.661179     1.653536     1.645893     1.638250
      1.630607     1.622964     1.615321     1.607677     1.600034     1.592391     1.584748     1.577105     1.569462     1.561819
      1.554176     1.546533     1.538890     1.531246     1.523603     1.515960     1.508317     1.500674     1.493031     1.485388
      1.477745     1.470102     1.462458     1.454815     1.447172     1.439529     1.431886     1.424243     1.416600     1.408957
      1.401314     1.393671     1.386027     1.378384     1.370741     1.363098     1.355455     1.347812     1.340169     1.332526
      1.324883     1.317240     1.309596     1.301953     1.294310     1.286667     1.279024     1.271381     1.263738     1.256095
      1.248452     1.240808     1.233165     1.225522     1.217879     1.210236     1.202593     1.194950     1.187307     1.179664
      1.172021     1.164377     1.156734     1.149091     1.141448     1.133805     1.126162     1.118519     1.110876     1.103233
      1.095590     1.087946     1.080303     1.072660     1.065017     1.057374     1.049731     1.042088     1.034445     1.026802
      1.019158     1.011515     1.003872     0.996229     0.988586     0.980943     0.973300     0.965657     0.958014     0.950371
      0.942727     0.935084     0.927441     0.919798     0.912155     0.904512     0.896869     0.889226     0.881583     0.873940
      0.866296     0.858653     0.851010     0.843367     0.835724     0.828081     0.820438     0.812795     0.805152     0.797508
      0.789865     0.782222     0.774579     0.766936     0.759293     0.751650     0.744007     0.736364     0.728721     0.721077
      0.713434     0.705791     0.698148     0.690505     0.682862     0.675219     0.667576     0.659933     0.652290     0.644646
      0.637003     0.629360     0.621717     0.614074     0.606431     0.598788     0.591145     0.583502     0.575858     0.568215
      0.560572     0.552929     0.545286     0.537643     0.530000     0.522357     0.514714     0.507071     0.499427     0.491784
      0.484141     0.476498     0.468855     0.461212     0.453569     0.445925     0.438282     0.430639     0.422996     0.415353
      0.407710     0.400067     0.392424     0.384780     0.377137     0.369494     0.361851     0.354208     0.346565     0.338922
      0.331278     0.323635     0.315992     0.308349     0.300706     0.293063     0.285420     0.277777     0.270133     0.262490
      0.254847     0.247204     0.239561     0.231918     0.224275     0.216631     0.208988     0.201345
 NY phased data points follow
   2.83214E+01  2.96069E+01  3.10182E+01  2.90514E+01  3.46659E+01  3.80938E+01  4.00379E+01  4.48195E+01  4.73082E+01  5.03569E+01
   5.42560E+01  5.42026E+01  5.30441E+01  4.84719E+01  4.18524E+01  4.28011E+01  3.72946E+01  3.12453E+01  3.15181E+01  2.82242E+01
   2.48247E+01  2.70147E+01  2.85304E+01  2.60135E+01  2.69061E+01  3.07197E+01  2.76062E+01  2.79941E+01  3.04435E+01  2.49689E+01
   2.81972E+01  2.77057E+01  2.51896E+01  2.70660E+01  2.79136E+01  2.15035E+01  2.48096E+01  2.60687E+01  2.38572E+01  1.75604E+01
   2.35816E+01  2.09197E+01  2.34254E+01  2.09889E+01  2.28451E+01  2.18398E+01  2.54894E+01  2.42962E+01  2.61643E+01  1.98815E+01
   2.51312E+01  2.50619E+01  1.73168E+01  1.93602E+01  2.29649E+01  1.66189E+01  1.50758E+01  1.63194E+01  1.53577E+01  1.63276E+01
   1.25654E+01  1.44930E+01  1.45711E+01  8.67716E+00  1.14411E+01  7.78717E+00  1.19336E+01  8.10226E+00  1.06507E+01  1.06084E+01
   1.05389E+01  9.25654E+00  1.14594E+01  1.12906E+01  1.03627E+01  9.02337E+00  9.80352E+00  6.81589E+00  7.05561E+00  7.07974E+00
   7.18927E+00  9.40294E+00  8.34511E+00  6.21855E+00  1.13282E+01  8.08456E+00  9.69299E+00  9.22997E+00  4.76498E+00  1.14476E+01
   9.54148E+00  1.33116E+01  1.24360E+01  1.14085E+01  1.87912E+01  1.66405E+01  1.76350E+01  1.80675E+01  1.95935E+01  2.35950E+01
   2.41626E+01  3.02628E+01  3.71862E+01  4.29904E+01  4.09539E+01  3.55055E+01  2.94026E+01  2.70688E+01  1.78405E+01  1.88546E+01
   1.45879E+01  1.93135E+01  1.39439E+01  1.23718E+01  1.27173E+01  1.42747E+01  1.23338E+01  1.45799E+01  1.67320E+01  1.78166E+01
   1.98176E+01  2.18119E+01  2.99097E+01  3.57741E+01  3.53010E+01  3.87498E+01  4.85594E+01  4.48338E+01  5.27713E+01  5.27210E+01
   4.15394E+01  3.44430E+01  2.40846E+01  2.15238E+01  1.99604E+01  1.86602E+01  1.46961E+01  1.49478E+01  1.26926E+01  9.19898E+00
   1.28878E+01  6.40796E+00  1.12365E+01  9.35506E+00  8.84111E+00  4.56705E+00  7.93318E+00  8.34235E+00  6.88163E+00  7.06959E+00
   6.52418E+00  6.51393E+00  3.23727E+00  6.11808E+00  5.99306E+00  6.17021E+00  9.41918E+00  3.99542E+00  6.31655E+00  2.28157E+00
   4.91693E+00  8.94943E-01  2.21071E-01 -7.90849E-01  8.29000E-01  9.15475E-01  3.17647E-01  4.30790E+00  4.01901E+00 -3.13705E+00
  -4.88827E+00 -2.09702E+00 -3.45682E+00 -3.95034E+00 -2.54286E+00 -4.53628E+00 -1.64845E+00 -5.06698E+00 -5.62958E+00 -3.87238E+00
  -2.53781E+00 -3.68290E+00 -4.73317E+00 -5.96676E+00 -2.48442E+00 -8.03667E-01  4.56589E-01  1.57731E+00 -8.80649E-01  1.63206E+00
   4.73129E+00  6.16838E+00  1.12394E+01  6.63584E+00  6.25867E+00  7.10444E+00  6.98099E+00  8.31534E+00  8.92808E+00  1.65064E+00
   2.30721E+00  5.33733E+00  4.89083E+00  3.98962E+00  3.88055E+00  5.76758E+00  5.77870E+00  2.34241E+00  2.34127E+00 -1.46753E+00
   1.55779E+00  3.12830E+00  5.32816E+00  5.84593E+00  9.26020E+00  9.20333E+00  1.17651E+01  9.92314E+00  8.86995E+00  5.17727E+00
   7.59510E+00  2.93549E+00  2.94299E+00  3.57985E+00  4.71122E+00  3.69335E+00  6.85228E+00  7.71040E+00  1.17722E+01  1.23257E+01
   1.12040E+01  1.05074E+01  1.04829E+01  1.04746E+01  1.04757E+01  7.58820E+00  1.18786E+01  1.34126E+01  8.85055E+00  9.49671E+00
   8.93079E+00  8.84561E+00  5.93742E+00  9.72946E+00  1.19022E+01  1.33354E+01  1.30070E+01  1.65911E+01  2.21953E+01  2.21019E+01
   2.48898E+01  2.60266E+01  2.85448E+01  3.35626E+01  4.12373E+01  4.61922E+01  5.19983E+01  5.89989E+01  6.30782E+01  6.46367E+01
   7.31116E+01  7.42164E+01  6.86630E+01  6.23011E+01  4.42592E+01  3.38904E+01  2.44637E+01  2.38012E+01  2.16465E+01  2.23862E+01
   1.75240E+01  1.12643E+01  1.32345E+01  1.09336E+01  1.29533E+01  1.79661E+01  1.48963E+01  9.39036E+00  1.10033E+01  1.19248E+01
   1.11367E+01  1.08411E+01  1.24446E+01  1.04046E+01  9.71698E+00  1.13133E+01  1.17171E+01  1.05918E+01  9.75755E+00  8.60668E+00
   1.26369E+01  1.10842E+01  8.50398E+00  7.38280E+00  1.28417E+01  7.73440E+00  8.85660E+00  7.81426E+00  1.09288E+01  9.16601E+00
   1.15956E+01  1.38626E+01  1.17552E+01  7.43275E+00  1.14814E+01  1.02723E+01  9.79550E+00  1.23270E+01  8.56807E+00  1.37813E+01
   9.70637E+00  1.07593E+01  1.10973E+01  1.18542E+01  1.22365E+01  1.12739E+01  1.35059E+01  1.33619E+01  1.17705E+01  1.33169E+01
   1.16358E+01  1.70798E+01  1.18905E+01  1.16979E+01  1.14134E+01  1.52360E+01  1.31741E+01  1.29302E+01  1.26994E+01  1.23333E+01
   1.64028E+01  1.49067E+01  1.53845E+01  1.70047E+01  1.14756E+01  1.48927E+01  1.19264E+01  1.05975E+01  1.27434E+01  1.33331E+01
   1.31904E+01  1.06426E+01  1.10567E+01  8.86337E+00  9.24019E+00  6.58694E+00  1.10572E+01  9.50201E+00  9.64471E+00  7.82467E+00
   4.98292E+00  4.25564E+00  3.70889E+00  5.07949E+00  2.97581E+00  3.14629E+00  3.67769E+00  8.01222E-01  4.99087E+00  2.82344E+00
   2.06222E+00  3.92121E+00  3.83883E+00  4.55774E+00  3.45898E+00  3.19236E+00  7.89330E+00  6.08701E+00  5.86709E+00  6.97394E+00
   6.61379E+00  4.38940E+00  3.80386E+00  9.08592E+00  4.94622E+00  8.36709E+00  2.29430E+00  3.87537E+00  5.48459E+00  2.83360E+00
   1.82494E-01  4.33466E+00  3.34541E+00  3.40296E+00  5.22154E+00  5.49143E+00  5.21933E+00  3.32512E+00  2.68803E+00  3.81472E+00
   2.57158E+00  6.88815E+00  5.37502E+00  4.83062E+00  4.92079E+00  4.98900E+00  4.51588E+00  7.23538E+00  8.84883E+00  6.59162E+00
   7.32472E+00  7.29079E+00  3.95295E+00  5.02107E+00  6.15179E+00  4.66198E+00  4.29888E+00  5.16157E+00  7.36393E+00  4.89643E+00
   7.97991E+00  3.54314E+00  6.56684E+00  5.21093E+00  5.48532E+00  5.68666E+00  3.85192E+00  5.09980E-01  3.69813E+00  2.22799E+00
   3.88392E+00  8.18244E+00  3.56096E+00  3.51718E+00 -3.95618E-01  1.93600E+00  3.65095E+00  2.14951E+00  3.16524E+00  4.69127E+00
   3.73171E+00  5.13045E+00  4.88430E+00  6.12346E+00  2.65350E+00  4.42725E+00  2.46259E+00  5.31894E+00  5.11408E+00  3.13699E+00
   6.12765E+00  2.11118E+00  2.82773E+00  2.61835E+00  4.68842E+00  5.09505E+00  5.09277E+00  6.00646E+00  2.75542E+00  6.58809E-01
   1.55602E+00  8.83480E-01  7.99108E+00  3.46124E+00 -5.60459E-01  5.41698E+00  6.86761E+00  4.18508E+00  1.39584E+00  2.05578E+00
   2.03319E+00  2.50938E+00  1.26466E-01  1.57685E+00  6.87216E+00  3.68295E+00  2.69014E+00  2.36155E-01  4.05882E+00  6.05256E+00
   2.81688E+00  2.21368E+00  4.11410E+00  4.13051E+00  1.20333E+00  5.91480E+00  2.61637E+00  3.69959E+00  1.25518E+00  1.01502E+00
   2.12751E+00  3.52447E+00  3.86227E+00  2.59195E+00  5.48463E-01  1.46610E+00  6.10148E+00  4.16351E+00  5.89574E+00 -1.10488E-01
   1.98093E+00  3.38969E+00  1.14680E+00  6.22244E+00  7.39024E-02  7.67880E-01  4.51498E+00  3.39674E+00
 NY points of the fit to the data follow
   2.67880E+01  2.83752E+01  2.99794E+01  3.23974E+01  3.49018E+01  3.72054E+01  3.97947E+01  4.31001E+01  4.68159E+01  5.01125E+01
   5.21797E+01  5.23937E+01  5.05345E+01  4.70263E+01  4.28402E+01  3.90361E+01  3.60197E+01  3.35540E+01  3.13514E+01  2.92634E+01
   2.80700E+01  2.71792E+01  2.61614E+01  2.58738E+01  2.60547E+01  2.63511E+01  2.65835E+01  2.67407E+01  2.71400E+01  2.78705E+01
   2.87205E+01  2.93865E+01  2.94748E+01  2.87919E+01  2.74159E+01  2.56024E+01  2.37694E+01  2.22773E+01  2.13220E+01  2.07147E+01
   2.06768E+01  2.12319E+01  2.16542E+01  2.16955E+01  2.13945E+01  2.10335E+01  2.08555E+01  2.07737E+01  2.06530E+01  2.03499E+01
   1.98104E+01  1.91371E+01  1.84270E+01  1.77955E+01  1.73233E+01  1.69082E+01  1.64647E+01  1.60571E+01  1.57336E+01  1.54519E+01
   1.51696E+01  1.48975E+01  1.46061E+01  1.42898E+01  1.39398E+01  1.35988E+01  1.33337E+01  1.31604E+01  1.30379E+01  1.29087E+01
   1.27632E+01  1.26083E+01  1.24437E+01  1.22710E+01  1.20803E+01  1.18740E+01  1.16597E+01  1.14411E+01  1.12175E+01  1.09934E+01
   1.07677E+01  1.05353E+01  1.02960E+01  1.00671E+01  9.84706E+00  9.62905E+00  9.40126E+00  9.17706E+00  8.97616E+00  8.82109E+00
   8.74651E+00  8.78437E+00  9.03152E+00  1.02277E+01  1.34637E+01  1.64348E+01  1.83031E+01  2.01118E+01  2.23944E+01  2.49444E+01
   2.78673E+01  3.17314E+01  3.62986E+01  4.00036E+01  4.08727E+01  3.79094E+01  3.18498E+01  2.48499E+01  1.93799E+01  1.67667E+01
   1.61376E+01  1.54505E+01  1.32894E+01  1.03668E+01  8.93250E+00  8.59144E+00  8.75252E+00  1.02126E+01  1.40053E+01  1.82052E+01
   2.11937E+01  2.38880E+01  2.71805E+01  3.10406E+01  3.55289E+01  4.10256E+01  4.72140E+01  5.23931E+01  5.40865E+01  5.07875E+01
   4.32242E+01  3.39632E+01  2.62371E+01  2.18701E+01  2.00868E+01  1.84775E+01  1.52113E+01  1.10383E+01  8.55907E+00  8.07931E+00
   8.32156E+00  8.56722E+00  8.51515E+00  8.16002E+00  7.70663E+00  7.26165E+00  6.87743E+00  6.64871E+00  6.48545E+00  6.27229E+00
   6.02207E+00  5.67103E+00  5.21775E+00  4.79672E+00  4.50117E+00  4.34097E+00  4.32361E+00  4.28705E+00  4.14978E+00  3.89818E+00
   3.49065E+00  2.95951E+00  2.52620E+00  2.39205E+00  2.51576E+00  2.63984E+00  2.46500E+00  1.85398E+00  1.03546E+00  4.15319E-01
   1.38639E-01  1.17353E-01  4.19564E-02 -1.71630E-01 -5.17888E-01 -9.38151E-01 -1.24878E+00 -1.34008E+00 -1.22366E+00 -8.71415E-01
  -4.32979E-01 -1.53631E-01  3.90725E-03  2.83374E-01  7.84424E-01  1.45022E+00  2.14815E+00  2.68519E+00  3.18495E+00  3.86341E+00
   4.73794E+00  5.52845E+00  5.86533E+00  5.64778E+00  5.15821E+00  4.87715E+00  4.97947E+00  5.41884E+00  5.99753E+00  6.60114E+00
   7.11383E+00  7.31573E+00  7.52240E+00  7.62485E+00  7.24666E+00  6.53175E+00  5.73125E+00  5.04216E+00  4.22247E+00  3.13633E+00
   2.54482E+00  2.93344E+00  4.13707E+00  5.52421E+00  6.77076E+00  8.08149E+00  9.19589E+00  9.36204E+00  8.35391E+00  6.46232E+00
   4.14480E+00  1.87320E+00  5.10614E-01  5.78418E-01  1.89832E+00  3.92854E+00  6.01028E+00  7.90911E+00  9.35149E+00  9.75617E+00
   9.48263E+00  9.35353E+00  9.74882E+00  1.02288E+01  1.03468E+01  1.04649E+01  1.08614E+01  1.11813E+01  1.11864E+01  1.09959E+01
   1.06698E+01  1.01347E+01  9.38938E+00  8.86461E+00  9.09600E+00  1.01318E+01  1.18213E+01  1.42792E+01  1.64523E+01  1.77280E+01
   1.93253E+01  2.44189E+01  3.17773E+01  3.74843E+01  4.25095E+01  4.83476E+01  5.42838E+01  5.89811E+01  6.28726E+01  6.69944E+01
   7.07520E+01  7.19660E+01  6.85188E+01  5.98574E+01  4.77943E+01  3.58885E+01  2.78272E+01  2.48386E+01  2.38771E+01  2.12687E+01
   1.62644E+01  1.23671E+01  1.11532E+01  1.07253E+01  1.05391E+01  1.04727E+01  1.03914E+01  1.01738E+01  9.88384E+00  9.58914E+00
   9.34878E+00  9.19075E+00  9.10743E+00  9.05520E+00  9.00405E+00  8.96725E+00  8.95495E+00  8.95339E+00  8.95052E+00  8.95899E+00
   8.99939E+00  9.08488E+00  9.19723E+00  9.32191E+00  9.45161E+00  9.57433E+00  9.67846E+00  9.77142E+00  9.86374E+00  9.96246E+00
   1.00687E+01  1.01748E+01  1.02712E+01  1.03598E+01  1.04352E+01  1.04886E+01  1.05204E+01  1.05384E+01  1.05521E+01  1.05661E+01
   1.05791E+01  1.05974E+01  1.06287E+01  1.06779E+01  1.07514E+01  1.08550E+01  1.09946E+01  1.11782E+01  1.14132E+01  1.16606E+01
   1.19002E+01  1.21563E+01  1.24306E+01  1.27046E+01  1.29622E+01  1.31948E+01  1.34127E+01  1.35942E+01  1.36749E+01  1.36490E+01
   1.35591E+01  1.34487E+01  1.33398E+01  1.32369E+01  1.31248E+01  1.29745E+01  1.27611E+01  1.24837E+01  1.21679E+01  1.17611E+01
   1.12308E+01  1.06740E+01  1.01558E+01  9.67097E+00  9.18562E+00  8.68363E+00  8.22813E+00  7.81537E+00  7.36249E+00  6.87064E+00
   6.40220E+00  6.02176E+00  5.76987E+00  5.66228E+00  5.67285E+00  5.73553E+00  5.78368E+00  5.78492E+00  5.75190E+00  5.67765E+00
   5.55699E+00  5.44777E+00  5.38722E+00  5.36104E+00  5.32260E+00  5.23831E+00  5.14658E+00  5.07700E+00  5.01806E+00  4.96416E+00
   4.91349E+00  4.86563E+00  4.82089E+00  4.77997E+00  4.74367E+00  4.71289E+00  4.68863E+00  4.67208E+00  4.66446E+00  4.66698E+00
   4.68068E+00  4.70652E+00  4.74543E+00  4.79834E+00  4.86599E+00  4.94890E+00  5.04722E+00  5.16086E+00  5.28946E+00  5.43233E+00
   5.58832E+00  5.75570E+00  5.93220E+00  6.11510E+00  6.30129E+00  6.48724E+00  6.66901E+00  6.84229E+00  7.00268E+00  7.14586E+00
   7.26781E+00  7.36482E+00  7.43364E+00  7.47163E+00  7.47702E+00  7.44897E+00  7.38764E+00  7.29401E+00  7.16988E+00  7.01780E+00
   6.84105E+00  6.64347E+00  6.42926E+00  6.20269E+00  5.96799E+00  5.72925E+00  5.49037E+00  5.25488E+00  5.02579E+00  4.80555E+00
   4.59604E+00  4.39868E+00  4.21451E+00  4.04411E+00  3.88763E+00  3.74482E+00  3.61523E+00  3.49827E+00  3.39327E+00  3.29944E+00
   3.21587E+00  3.14164E+00  3.07587E+00  3.01778E+00  2.96668E+00  2.92184E+00  2.88256E+00  2.84819E+00  2.81820E+00  2.79218E+00
   2.76974E+00  2.75049E+00  2.73401E+00  2.71998E+00  2.70816E+00  2.69840E+00  2.69048E+00  2.68417E+00  2.67923E+00  2.67553E+00
   2.67297E+00  2.67149E+00  2.67096E+00  2.67121E+00  2.67214E+00  2.67372E+00  2.67596E+00  2.67882E+00  2.68222E+00  2.68606E+00
   2.69028E+00  2.69492E+00  2.69998E+00  2.70545E+00  2.71124E+00  2.71729E+00  2.72359E+00  2.73018E+00  2.73709E+00  2.74425E+00
   2.75160E+00  2.75911E+00  2.76682E+00  2.77477E+00  2.78296E+00  2.79132E+00  2.79980E+00  2.80841E+00  2.81720E+00  2.82619E+00
   2.83537E+00  2.84466E+00  2.85404E+00  2.86356E+00  2.87326E+00  2.88316E+00  2.89320E+00  2.90335E+00  2.91361E+00  2.92404E+00
   2.93468E+00  2.94553E+00  2.95654E+00  2.96768E+00  2.97901E+00  2.99060E+00  3.00249E+00  3.01465E+00
 NY background values follow
     2.350E+01    2.333E+01    2.316E+01    2.299E+01    2.282E+01    2.265E+01    2.248E+01    2.231E+01    2.214E+01    2.197E+01
     2.180E+01    2.163E+01    2.146E+01    2.129E+01    2.112E+01    2.095E+01    2.078E+01    2.061E+01    2.044E+01    2.027E+01
     2.010E+01    1.993E+01    1.976E+01    1.959E+01    1.942E+01    1.925E+01    1.909E+01    1.892E+01    1.875E+01    1.858E+01
     1.841E+01    1.825E+01    1.808E+01    1.792E+01    1.775E+01    1.758E+01    1.742E+01    1.725E+01    1.709E+01    1.693E+01
     1.676E+01    1.660E+01    1.644E+01    1.628E+01    1.611E+01    1.595E+01    1.579E+01    1.563E+01    1.548E+01    1.532E+01
     1.516E+01    1.500E+01    1.485E+01    1.469E+01    1.453E+01    1.438E+01    1.423E+01    1.407E+01    1.392E+01    1.377E+01
     1.362E+01    1.347E+01    1.332E+01    1.317E+01    1.303E+01    1.288E+01    1.273E+01    1.259E+01    1.245E+01    1.230E+01
     1.216E+01    1.202E+01    1.188E+01    1.174E+01    1.161E+01    1.147E+01    1.133E+01    1.120E+01    1.107E+01    1.093E+01
     1.080E+01    1.067E+01    1.054E+01    1.042E+01    1.029E+01    1.016E+01    1.004E+01    9.916E+00    9.795E+00    9.674E+00
     9.555E+00    9.437E+00    9.321E+00    9.205E+00    9.091E+00    8.979E+00    8.867E+00    8.757E+00    8.648E+00    8.540E+00
     8.434E+00    8.329E+00    8.225E+00    8.122E+00    8.020E+00    7.920E+00    7.821E+00    7.723E+00    7.626E+00    7.530E+00
     7.435E+00    7.342E+00    7.249E+00    7.158E+00    7.068E+00    6.979E+00    6.891E+00    6.805E+00    6.719E+00    6.634E+00
     6.551E+00    6.468E+00    6.387E+00    6.306E+00    6.227E+00    6.149E+00    6.071E+00    5.995E+00    5.920E+00    5.845E+00
     5.772E+00    5.699E+00    5.628E+00    5.558E+00    5.488E+00    5.420E+00    5.352E+00    5.285E+00    5.220E+00    5.155E+00
     5.091E+00    5.028E+00    4.967E+00    4.906E+00    4.847E+00    4.788E+00    4.731E+00    4.675E+00    4.620E+00    4.566E+00
     4.513E+00    4.462E+00    4.412E+00    4.363E+00    4.316E+00    4.269E+00    4.224E+00    4.181E+00    4.139E+00    4.098E+00
     4.058E+00    4.020E+00    3.984E+00    3.949E+00    3.915E+00    3.883E+00    3.853E+00    3.824E+00    3.797E+00    3.771E+00
     3.747E+00    3.724E+00    3.703E+00    3.684E+00    3.667E+00    3.651E+00    3.637E+00    3.625E+00    3.614E+00    3.606E+00
     3.599E+00    3.594E+00    3.591E+00    3.590E+00    3.590E+00    3.592E+00    3.596E+00    3.602E+00    3.609E+00    3.617E+00
     3.628E+00    3.639E+00    3.652E+00    3.667E+00    3.683E+00    3.700E+00    3.719E+00    3.738E+00    3.759E+00    3.781E+00
     3.805E+00    3.829E+00    3.854E+00    3.881E+00    3.908E+00    3.936E+00    3.965E+00    3.995E+00    4.026E+00    4.057E+00
     4.089E+00    4.122E+00    4.156E+00    4.190E+00    4.225E+00    4.260E+00    4.295E+00    4.331E+00    4.368E+00    4.405E+00
     4.442E+00    4.479E+00    4.517E+00    4.555E+00    4.593E+00    4.631E+00    4.669E+00    4.707E+00    4.745E+00    4.783E+00
     4.821E+00    4.859E+00    4.897E+00    4.935E+00    4.972E+00    5.010E+00    5.047E+00    5.084E+00    5.121E+00    5.157E+00
     5.193E+00    5.229E+00    5.265E+00    5.300E+00    5.334E+00    5.368E+00    5.402E+00    5.435E+00    5.468E+00    5.500E+00
     5.532E+00    5.563E+00    5.593E+00    5.623E+00    5.652E+00    5.680E+00    5.707E+00    5.734E+00    5.760E+00    5.785E+00
     5.810E+00    5.833E+00    5.856E+00    5.878E+00    5.899E+00    5.918E+00    5.937E+00    5.955E+00    5.972E+00    5.988E+00
     6.002E+00    6.016E+00    6.028E+00    6.039E+00    6.049E+00    6.058E+00    6.066E+00    6.073E+00    6.078E+00    6.083E+00
     6.086E+00    6.088E+00    6.089E+00    6.089E+00    6.088E+00    6.086E+00    6.083E+00    6.078E+00    6.073E+00    6.066E+00
     6.059E+00    6.050E+00    6.040E+00    6.029E+00    6.018E+00    6.005E+00    5.991E+00    5.976E+00    5.960E+00    5.943E+00
     5.925E+00    5.906E+00    5.886E+00    5.865E+00    5.843E+00    5.819E+00    5.795E+00    5.770E+00    5.744E+00    5.717E+00
     5.689E+00    5.660E+00    5.630E+00    5.599E+00    5.567E+00    5.534E+00    5.501E+00    5.466E+00    5.430E+00    5.394E+00
     5.356E+00    5.318E+00    5.279E+00    5.239E+00    5.198E+00    5.157E+00    5.115E+00    5.073E+00    5.030E+00    4.986E+00
     4.942E+00    4.897E+00    4.852E+00    4.807E+00    4.761E+00    4.714E+00    4.668E+00    4.621E+00    4.573E+00    4.526E+00
     4.478E+00    4.431E+00    4.383E+00    4.335E+00    4.287E+00    4.238E+00    4.190E+00    4.142E+00    4.094E+00    4.046E+00
     3.998E+00    3.951E+00    3.903E+00    3.856E+00    3.809E+00    3.763E+00    3.716E+00    3.670E+00    3.625E+00    3.580E+00
     3.535E+00    3.491E+00    3.447E+00    3.404E+00    3.362E+00    3.320E+00    3.278E+00    3.238E+00    3.197E+00    3.158E+00
     3.119E+00    3.081E+00    3.043E+00    3.006E+00    2.970E+00    2.934E+00    2.899E+00    2.864E+00    2.831E+00    2.798E+00
     2.766E+00    2.734E+00    2.704E+00    2.674E+00    2.644E+00    2.616E+00    2.588E+00    2.562E+00    2.536E+00    2.510E+00
     2.486E+00    2.462E+00    2.440E+00    2.418E+00    2.397E+00    2.377E+00    2.357E+00    2.339E+00    2.322E+00    2.305E+00
     2.290E+00    2.275E+00    2.261E+00    2.248E+00    2.237E+00    2.226E+00    2.216E+00    2.207E+00    2.199E+00    2.193E+00
     2.187E+00    2.182E+00    2.178E+00    2.175E+00    2.172E+00    2.171E+00    2.170E+00    2.170E+00    2.171E+00    2.173E+00
     2.175E+00    2.178E+00    2.182E+00    2.186E+00    2.191E+00    2.197E+00    2.203E+00    2.209E+00    2.217E+00    2.224E+00
     2.233E+00    2.241E+00    2.251E+00    2.260E+00    2.270E+00    2.280E+00    2.291E+00    2.302E+00    2.313E+00    2.325E+00
     2.337E+00    2.349E+00    2.361E+00    2.374E+00    2.386E+00    2.399E+00    2.412E+00    2.425E+00    2.438E+00    2.451E+00
     2.464E+00    2.477E+00    2.490E+00    2.503E+00    2.516E+00    2.529E+00    2.542E+00    2.555E+00    2.568E+00    2.581E+00
     2.594E+00    2.606E+00    2.619E+00    2.632E+00    2.644E+00    2.657E+00    2.670E+00    2.682E+00    2.695E+00    2.707E+00
     2.720E+00    2.732E+00    2.745E+00    2.757E+00    2.770E+00    2.782E+00    2.794E+00    2.807E+00    2.819E+00    2.831E+00
     2.844E+00    2.856E+00    2.868E+00    2.880E+00    2.893E+00    2.905E+00    2.917E+00    2.929E+00    2.941E+00    2.954E+00
     2.966E+00    2.978E+00    2.990E+00    3.002E+00    3.015E+00    3.027E+00    3.039E+00    3.051E+00
 Ala      Conc. = 4.40E+01
