 LCModel (Version 6.3-1L) Copyright: S.W. Provencher.          Ref.: Magn. Reson. Med. 30:672-679 (1993).                
 Slice#1 Row#12 Col#14  K_02_press_1_raw_act
 36 lines in following concentration table = NCONC+1
    Conc.  %SD /Cr+PCr  Metabolite                                         
 2.94E+03  26%   0.000 Ala                                                 
 3.89E-03 999%   0.000 Asp                                                 
    0.000 999%   0.000 Cr                                                  
    0.000 999%   0.000 PCr                                                 
    0.000 999%   0.000 GABA                                                
 1.41E-03 999%   0.000 Glc                                                 
  489.448  63%   0.000 Gln                                                 
  591.139  61%   0.000 Glu                                                 
    0.000 999%   0.000 GPC                                                 
    0.000 999%   0.000 PCh                                                 
    0.000 999%   0.000 GSH                                                 
   51.857 217%   0.000 Ins                                                 
    0.000 999%   0.000 Lac                                                 
    0.000 999%   0.000 NAA                                                 
    0.000 999%   0.000 NAAG                                                
 1.61E-03 999%   0.000 Scyllo                                              
 4.43E-03 999%   0.000 Tau                                                 
 1.17E-02 999%   0.000 -CrCH2                                              
    0.000 999%   0.000 GPC+PCh                                             
    0.000 999%   0.000 NAA+NAAG                                            
    0.000 999%   0.000 Cr+PCr                                              
 1.08E+03  52%   0.000 Glu+Gln                                             
    0.000 999%   0.000 Lip13a                                              
 2.16E+03  35%   0.000 Lip13b                                              
 3.01E+03  16%   0.000 Lip09                                               
 4.65E+03  13%   0.000 MM09                                                
   84.296 268%   0.000 Lip20                                               
  265.004  71%   0.000 MM20                                                
 4.52E+03  16%   0.000 MM12                                                
    0.000 999%   0.000 MM14                                                
 1.50E+03  23%   0.000 MM17                                                
 2.16E+03  35%   0.000 Lip13a+Lip13b                                       
 6.68E+03  11%   0.000 MM14+Lip13a+Lip13b+MM12                             
 7.66E+03   8%   0.000 MM09+Lip09                                          
  349.300  43%   0.000 MM20+Lip20                                          
   6 lines in following misc. output table
  FWHM = 0.138 ppm    S/N =  16                                            
  Data shift = 0.046 ppm                                                   
  Ph:-143 deg      53.2 deg/ppm                                            
  alphaB,S = 4.3E+00,   1.5E+02                                            
    8 spline knots.   Ns = 9(2)                                            
  (10) 2 infls.   ( 8) 1 extrs.                                            
  498 points on ppm-axis = NY
      4.000000     3.992357     3.984714     3.977070     3.969427     3.961784     3.954141     3.946497     3.938854     3.931211
      3.923568     3.915925     3.908281     3.900638     3.892995     3.885352     3.877708     3.870065     3.862422     3.854779
      3.847136     3.839492     3.831849     3.824206     3.816563     3.808919     3.801276     3.793633     3.785990     3.778347
      3.770703     3.763060     3.755417     3.747774     3.740130     3.732487     3.724844     3.717201     3.709558     3.701914
      3.694271     3.686628     3.678985     3.671341     3.663698     3.656055     3.648412     3.640769     3.633125     3.625482
      3.617839     3.610196     3.602552     3.594909     3.587266     3.579623     3.571980     3.564336     3.556693     3.549050
      3.541407     3.533763     3.526120     3.518477     3.510834     3.503191     3.495547     3.487904     3.480261     3.472618
      3.464974     3.457331     3.449688     3.442045     3.434402     3.426758     3.419115     3.411472     3.403829     3.396185
      3.388542     3.380899     3.373256     3.365613     3.357969     3.350326     3.342683     3.335040     3.327396     3.319753
      3.312110     3.304467     3.296824     3.289180     3.281537     3.273894     3.266251     3.258607     3.250964     3.243321
      3.235678     3.228034     3.220391     3.212748     3.205105     3.197462     3.189818     3.182175     3.174532     3.166889
      3.159245     3.151602     3.143959     3.136316     3.128673     3.121029     3.113386     3.105743     3.098100     3.090456
      3.082813     3.075170     3.067527     3.059884     3.052240     3.044597     3.036954     3.029311     3.021667     3.014024
      3.006381     2.998738     2.991095     2.983451     2.975808     2.968165     2.960522     2.952878     2.945235     2.937592
      2.929949     2.922306     2.914662     2.907019     2.899376     2.891733     2.884089     2.876446     2.868803     2.861160
      2.853517     2.845873     2.838230     2.830587     2.822944     2.815300     2.807657     2.800014     2.792371     2.784728
      2.777084     2.769441     2.761798     2.754155     2.746511     2.738868     2.731225     2.723582     2.715939     2.708295
      2.700652     2.693009     2.685366     2.677722     2.670079     2.662436     2.654793     2.647150     2.639506     2.631863
      2.624220     2.616577     2.608933     2.601290     2.593647     2.586004     2.578361     2.570717     2.563074     2.555431
      2.547788     2.540144     2.532501     2.524858     2.517215     2.509572     2.501928     2.494285     2.486642     2.478999
      2.471355     2.463712     2.456069     2.448426     2.440783     2.433139     2.425496     2.417853     2.410210     2.402566
      2.394923     2.387280     2.379637     2.371994     2.364350     2.356707     2.349064     2.341421     2.333777     2.326134
      2.318491     2.310848     2.303205     2.295561     2.287918     2.280275     2.272632     2.264988     2.257345     2.249702
      2.242059     2.234416     2.226772     2.219129     2.211486     2.203843     2.196199     2.188556     2.180913     2.173270
      2.165627     2.157983     2.150340     2.142697     2.135054     2.127410     2.119767     2.112124     2.104481     2.096838
      2.089194     2.081551     2.073908     2.066265     2.058621     2.050978     2.043335     2.035692     2.028049     2.020405
      2.012762     2.005119     1.997476     1.989833     1.982190     1.974546     1.966903     1.959260     1.951617     1.943974
      1.936331     1.928688     1.921045     1.913402     1.905759     1.898115     1.890472     1.882829     1.875186     1.867543
      1.859900     1.852257     1.844614     1.836971     1.829327     1.821684     1.814041     1.806398     1.798755     1.791112
      1.783469     1.775826     1.768183     1.760540     1.752896     1.745253     1.737610     1.729967     1.722324     1.714681
      1.707038     1.699395     1.691752     1.684108     1.676465     1.668822     1.661179     1.653536     1.645893     1.638250
      1.630607     1.622964     1.615321     1.607677     1.600034     1.592391     1.584748     1.577105     1.569462     1.561819
      1.554176     1.546533     1.538890     1.531246     1.523603     1.515960     1.508317     1.500674     1.493031     1.485388
      1.477745     1.470102     1.462458     1.454815     1.447172     1.439529     1.431886     1.424243     1.416600     1.408957
      1.401314     1.393671     1.386027     1.378384     1.370741     1.363098     1.355455     1.347812     1.340169     1.332526
      1.324883     1.317240     1.309596     1.301953     1.294310     1.286667     1.279024     1.271381     1.263738     1.256095
      1.248452     1.240808     1.233165     1.225522     1.217879     1.210236     1.202593     1.194950     1.187307     1.179664
      1.172021     1.164377     1.156734     1.149091     1.141448     1.133805     1.126162     1.118519     1.110876     1.103233
      1.095590     1.087946     1.080303     1.072660     1.065017     1.057374     1.049731     1.042088     1.034445     1.026802
      1.019158     1.011515     1.003872     0.996229     0.988586     0.980943     0.973300     0.965657     0.958014     0.950371
      0.942727     0.935084     0.927441     0.919798     0.912155     0.904512     0.896869     0.889226     0.881583     0.873940
      0.866296     0.858653     0.851010     0.843367     0.835724     0.828081     0.820438     0.812795     0.805152     0.797508
      0.789865     0.782222     0.774579     0.766936     0.759293     0.751650     0.744007     0.736364     0.728721     0.721077
      0.713434     0.705791     0.698148     0.690505     0.682862     0.675219     0.667576     0.659933     0.652290     0.644646
      0.637003     0.629360     0.621717     0.614074     0.606431     0.598788     0.591145     0.583502     0.575858     0.568215
      0.560572     0.552929     0.545286     0.537643     0.530000     0.522357     0.514714     0.507071     0.499427     0.491784
      0.484141     0.476498     0.468855     0.461212     0.453569     0.445925     0.438282     0.430639     0.422996     0.415353
      0.407710     0.400067     0.392424     0.384780     0.377137     0.369494     0.361851     0.354208     0.346565     0.338922
      0.331278     0.323635     0.315992     0.308349     0.300706     0.293063     0.285420     0.277777     0.270133     0.262490
      0.254847     0.247204     0.239561     0.231918     0.224275     0.216631     0.208988     0.201345
 NY phased data points follow
  -5.14255E+00 -6.19693E+00 -7.00416E+00 -5.01434E+00 -6.14114E+00 -6.62620E+00 -6.57246E+00 -4.90918E+00 -5.40527E+00 -3.47154E+00
  -4.06438E+00 -5.42255E+00 -3.72662E+00 -5.39951E+00 -5.24042E+00 -4.16677E+00 -4.98874E+00 -3.65841E+00 -7.05101E+00 -5.80976E+00
  -4.89524E+00 -6.20874E+00 -6.58391E+00 -4.41010E+00 -4.51061E+00 -3.91127E+00 -4.31831E+00 -6.04996E+00 -3.68751E+00 -5.10317E+00
  -2.69130E+00 -7.04082E+00 -3.42902E+00 -6.70718E+00 -5.46572E+00 -4.35520E+00 -6.12217E+00 -4.35967E+00 -4.55065E+00 -4.75663E+00
  -5.51019E+00 -4.52067E+00 -4.82130E+00 -3.38792E+00 -4.35309E+00 -3.66331E+00 -4.42707E+00 -5.33261E+00 -5.08812E+00 -4.02749E+00
  -5.36626E+00 -5.14672E+00 -7.01166E+00 -5.47488E+00 -4.74095E+00 -5.79900E+00 -4.72260E+00 -5.64839E+00 -5.99257E+00 -3.84125E+00
  -6.63198E+00 -4.67115E+00 -4.42881E+00 -2.41674E+00 -5.28825E+00 -2.24542E+00 -5.05928E+00 -4.16810E+00 -4.84651E+00 -2.52396E+00
  -5.33490E+00 -4.36275E+00 -4.15568E+00 -4.80152E+00 -4.78626E+00 -4.78514E+00 -4.05520E+00 -5.03485E+00 -3.95157E+00 -5.07787E+00
  -4.55902E+00 -5.31018E+00 -5.08388E+00 -3.25478E+00 -4.42439E+00 -3.86462E+00 -4.89137E+00 -4.93170E+00 -5.10616E+00 -3.57364E+00
  -3.63716E+00 -3.89970E+00 -4.00845E+00 -2.71418E+00 -3.98506E+00 -2.05589E+00 -6.50181E+00 -7.94781E+00 -5.27937E+00 -6.76336E+00
  -5.67308E+00 -4.93802E+00 -3.15554E+00 -3.65100E+00 -3.84307E+00 -4.52284E+00 -5.73731E+00 -2.58033E+00 -4.15944E+00 -3.72101E+00
  -4.91029E+00 -5.68690E+00 -4.21811E+00 -6.01520E+00 -5.05184E+00 -3.50246E+00 -4.58611E+00 -3.28724E+00 -5.44626E+00 -5.78203E+00
  -5.96134E+00 -5.66506E+00 -7.05051E+00 -4.60932E+00 -3.51778E+00 -1.45225E+00 -2.90208E+00 -4.14206E+00 -5.32507E+00 -2.83404E+00
  -3.10785E+00 -4.70015E+00 -5.99407E+00 -5.87606E+00 -4.04417E+00 -5.71501E+00 -3.01850E+00 -2.75925E+00 -5.28996E+00 -4.90141E+00
  -2.56851E+00 -5.58551E+00 -4.60249E+00 -4.88492E+00 -4.96076E+00 -4.31659E+00 -5.73016E+00 -4.48523E+00 -4.71519E+00 -4.80323E+00
  -4.20910E+00 -4.77290E+00 -4.94112E+00 -3.44277E+00 -2.67261E+00 -1.89203E+00 -4.66775E+00 -3.98191E+00 -6.12983E+00 -6.91084E+00
  -2.96943E+00 -3.46266E+00 -3.70277E+00 -3.09825E+00 -3.39589E+00 -4.73315E+00 -3.12543E+00 -4.14545E+00 -4.29976E+00 -3.94540E+00
  -1.97502E+00 -3.40064E+00 -2.91861E+00 -4.93498E+00 -4.90393E+00 -2.97792E+00 -2.44113E+00 -5.90541E+00 -4.06910E+00 -2.27251E+00
  -4.60550E+00 -2.71516E+00 -3.13975E+00 -4.22714E+00 -3.68868E+00 -3.73269E+00 -4.25077E+00 -4.30129E+00 -4.28618E+00 -4.14068E+00
  -3.12171E+00 -2.72235E+00 -3.51838E+00 -3.23882E+00 -2.95226E+00 -2.10244E+00 -3.93354E+00 -2.88272E+00 -2.81122E+00 -6.07550E+00
  -2.90349E+00 -3.18424E+00 -2.65777E+00 -3.00127E+00 -1.90265E+00 -3.80487E+00 -4.39513E+00 -1.92633E+00 -5.33671E+00 -3.07649E+00
  -3.61912E+00 -2.97060E+00 -3.32025E+00 -3.03973E+00 -2.56254E+00 -2.97093E+00 -2.12052E+00 -4.22201E+00 -3.52417E+00 -3.37404E+00
  -3.39874E+00 -2.85762E+00 -2.66028E+00 -2.11253E+00 -2.22797E+00 -3.12314E+00 -3.68308E+00 -2.50617E+00 -1.95492E+00 -3.81864E+00
  -2.64173E+00 -2.24078E+00 -2.73888E+00 -3.13017E+00 -3.65321E+00 -2.95712E+00 -2.00383E+00 -1.98697E+00 -2.28451E+00 -2.61038E+00
  -4.45809E+00 -3.41033E+00  2.80640E-02  3.28789E-01 -1.35052E+00 -2.60350E+00 -3.43320E+00 -1.41138E+00 -3.26625E+00 -3.83135E+00
  -3.56674E+00 -4.06571E+00 -3.02067E+00 -4.67742E+00 -5.76344E+00 -3.29312E+00 -1.81055E+00 -1.01676E+00  2.37268E+00 -6.49154E-01
  -3.02440E+00 -4.52192E+00 -3.74804E+00 -3.33609E+00 -5.37224E+00 -3.50975E+00 -4.75206E+00 -1.82898E+00 -1.72015E+00 -2.69369E+00
  -2.39237E+00 -2.49207E+00 -3.28250E+00 -2.52193E+00 -2.96554E+00 -3.87014E+00 -9.42200E-01 -2.98912E+00 -1.52598E+00 -1.12741E+00
  -2.31399E+00 -1.66863E+00 -2.80871E+00 -2.21969E+00  3.03900E-01 -1.47046E+00 -2.56851E+00 -1.52438E+00 -1.65027E+00 -4.41280E-01
  -9.05274E-01  1.73507E+00  1.11452E+00  1.13303E+00  1.37829E+00  5.71591E-01  8.55402E-01 -5.35640E-01  7.42181E-01  2.96188E+00
   3.41756E+00  2.05695E+00  2.15427E+00  4.07757E+00  4.55078E+00  6.12722E+00  4.88851E+00  5.61352E+00  7.77829E+00  8.18735E+00
   8.82083E+00  6.88281E+00  7.89536E+00  8.93077E+00  6.51974E+00  7.10699E+00  7.51236E+00  7.65612E+00  6.43016E+00  5.55588E+00
   3.55292E+00  3.44100E+00  2.86087E+00  1.80121E+00  6.05397E-01 -3.27434E-01 -3.76132E-01 -1.29305E+00 -2.61587E+00 -2.27128E+00
  -2.04605E+00 -2.73482E+00 -2.07567E+00 -1.87433E+00 -3.03899E+00 -1.84288E+00 -2.23522E+00 -1.38820E-01  1.40582E+00  4.55677E-01
   5.51167E+00  6.49432E+00  6.12296E+00  7.84982E+00  7.30608E+00  9.55927E+00  1.03728E+01  1.27947E+01  1.36092E+01  1.48086E+01
   1.73038E+01  1.84171E+01  1.89535E+01  2.01844E+01  2.26070E+01  2.43798E+01  2.61071E+01  2.68199E+01  2.96804E+01  3.22012E+01
   3.34185E+01  3.40806E+01  3.40376E+01  3.58250E+01  3.47344E+01  3.60073E+01  3.47947E+01  3.68881E+01  3.75392E+01  3.67068E+01
   3.68796E+01  3.67186E+01  3.53932E+01  3.62304E+01  3.62428E+01  3.58848E+01  3.59511E+01  3.38378E+01  3.44793E+01  3.32078E+01
   3.26917E+01  3.24925E+01  3.33316E+01  3.26561E+01  3.40302E+01  3.28124E+01  3.22014E+01  3.26159E+01  3.23417E+01  3.05857E+01
   3.11247E+01  3.00155E+01  2.90983E+01  2.94881E+01  3.06138E+01  2.79965E+01  2.82864E+01  2.67688E+01  2.65512E+01  2.75265E+01
   2.40322E+01  2.36479E+01  2.44045E+01  2.30930E+01  2.43957E+01  2.21305E+01  2.22106E+01  1.95147E+01  2.11143E+01  1.92942E+01
   1.96809E+01  1.90974E+01  1.69478E+01  1.97629E+01  1.39188E+01  1.69480E+01  1.49036E+01  1.50521E+01  1.41961E+01  1.34873E+01
   1.30325E+01  1.23714E+01  1.02997E+01  8.90286E+00  1.20000E+01  7.69859E+00  9.75334E+00  8.24509E+00  6.72807E+00  6.73104E+00
   7.17398E+00  5.75582E+00  5.21206E+00  4.21393E+00  3.90730E+00  4.49400E+00  2.38541E+00  2.44389E+00  8.57945E-01 -2.44722E-01
   7.39167E-01  2.63175E-01  2.24474E-01  2.80526E-01 -3.10187E-01 -1.27714E+00 -2.51881E+00 -3.91162E+00 -2.53975E+00 -3.22927E+00
  -3.67503E+00 -3.49956E+00 -3.54027E+00 -5.48851E+00 -5.67123E+00 -4.63140E+00 -5.26287E+00 -7.45595E+00 -6.17799E+00 -6.04336E+00
  -5.13027E+00 -7.48157E+00 -7.27186E+00 -6.92865E+00 -6.57789E+00 -7.78500E+00 -8.85355E+00 -7.93386E+00 -8.68225E+00 -8.33925E+00
  -8.76045E+00 -9.95865E+00 -8.67113E+00 -8.70326E+00 -1.05946E+01 -9.01708E+00 -1.01134E+01 -9.10857E+00 -7.91297E+00 -8.83127E+00
  -8.87750E+00 -9.30728E+00 -8.34896E+00 -9.72717E+00 -9.29072E+00 -9.83840E+00 -8.63424E+00 -9.93051E+00 -8.20339E+00 -8.59936E+00
  -1.11059E+01 -1.03450E+01 -9.93768E+00 -9.40480E+00 -7.51327E+00 -1.01267E+01 -9.37188E+00 -1.14658E+01
 NY points of the fit to the data follow
  -5.38130E+00 -5.38425E+00 -5.44732E+00 -5.41867E+00 -5.49142E+00 -5.37934E+00 -5.38740E+00 -5.12354E+00 -5.26145E+00 -4.95386E+00
  -5.17263E+00 -4.79266E+00 -5.16698E+00 -4.76172E+00 -5.25605E+00 -4.68454E+00 -5.26859E+00 -4.72168E+00 -5.36813E+00 -4.79266E+00
  -5.44232E+00 -4.85055E+00 -5.47883E+00 -4.90200E+00 -5.34506E+00 -4.86068E+00 -5.18482E+00 -4.85986E+00 -5.10309E+00 -4.96506E+00
  -5.13393E+00 -5.24269E+00 -5.20201E+00 -5.35963E+00 -5.02723E+00 -5.17557E+00 -4.70141E+00 -4.91846E+00 -4.42717E+00 -4.74484E+00
  -4.35075E+00 -4.76447E+00 -4.40968E+00 -4.71700E+00 -4.41240E+00 -4.67836E+00 -4.55714E+00 -4.85887E+00 -4.78112E+00 -5.01740E+00
  -4.99490E+00 -5.09706E+00 -5.02478E+00 -4.96078E+00 -4.84288E+00 -4.83442E+00 -4.77711E+00 -4.76692E+00 -4.75930E+00 -4.74588E+00
  -4.77036E+00 -4.78798E+00 -4.78495E+00 -4.78932E+00 -4.78145E+00 -4.78249E+00 -4.77075E+00 -4.76911E+00 -4.75731E+00 -4.75942E+00
  -4.75226E+00 -4.75575E+00 -4.74921E+00 -4.75346E+00 -4.74718E+00 -4.75280E+00 -4.74673E+00 -4.75333E+00 -4.74701E+00 -4.75247E+00
  -4.74502E+00 -4.75051E+00 -4.74219E+00 -4.74814E+00 -4.73895E+00 -4.74388E+00 -4.73289E+00 -4.73568E+00 -4.72344E+00 -4.72425E+00
  -4.71021E+00 -4.70882E+00 -4.69242E+00 -4.68833E+00 -4.67072E+00 -4.66340E+00 -4.64485E+00 -4.63537E+00 -4.61703E+00 -4.60617E+00
  -4.58850E+00 -4.57645E+00 -4.55914E+00 -4.54517E+00 -4.52710E+00 -4.51146E+00 -4.49267E+00 -4.47633E+00 -4.45644E+00 -4.43843E+00
  -4.41670E+00 -4.39686E+00 -4.37417E+00 -4.35302E+00 -4.32947E+00 -4.30769E+00 -4.28435E+00 -4.26273E+00 -4.24071E+00 -4.21942E+00
  -4.19811E+00 -4.17722E+00 -4.15687E+00 -4.13665E+00 -4.11722E+00 -4.09789E+00 -4.07949E+00 -4.06167E+00 -4.04480E+00 -4.02870E+00
  -4.01358E+00 -3.99935E+00 -3.98607E+00 -3.97372E+00 -3.96227E+00 -3.95169E+00 -3.94199E+00 -3.93298E+00 -3.92478E+00 -3.91704E+00
  -3.90998E+00 -3.90316E+00 -3.89692E+00 -3.89075E+00 -3.88507E+00 -3.87925E+00 -3.87393E+00 -3.86833E+00 -3.86330E+00 -3.85787E+00
  -3.85309E+00 -3.84781E+00 -3.84337E+00 -3.83844E+00 -3.83429E+00 -3.82975E+00 -3.82597E+00 -3.82193E+00 -3.81863E+00 -3.81521E+00
  -3.81255E+00 -3.80991E+00 -3.80776E+00 -3.80571E+00 -3.80394E+00 -3.80232E+00 -3.80066E+00 -3.79932E+00 -3.79788E+00 -3.79621E+00
  -3.79427E+00 -3.79253E+00 -3.78999E+00 -3.78766E+00 -3.78410E+00 -3.78375E+00 -3.78744E+00 -3.78775E+00 -3.80807E+00 -3.81110E+00
  -3.84580E+00 -3.84738E+00 -3.89536E+00 -3.87601E+00 -3.92212E+00 -3.87954E+00 -3.92826E+00 -3.84208E+00 -3.88837E+00 -3.78152E+00
  -3.83399E+00 -3.73663E+00 -3.84320E+00 -3.72892E+00 -3.85024E+00 -3.72363E+00 -3.86631E+00 -3.70386E+00 -3.82460E+00 -3.67983E+00
  -3.79255E+00 -3.64103E+00 -3.69044E+00 -3.59226E+00 -3.62326E+00 -3.57085E+00 -3.54098E+00 -3.56884E+00 -3.50987E+00 -3.61808E+00
  -3.52326E+00 -3.70344E+00 -3.57238E+00 -3.77356E+00 -3.58074E+00 -3.73275E+00 -3.46591E+00 -3.61333E+00 -3.33952E+00 -3.48359E+00
  -3.24371E+00 -3.38275E+00 -3.22221E+00 -3.29186E+00 -3.23397E+00 -3.21157E+00 -3.18557E+00 -3.09845E+00 -3.12216E+00 -2.98762E+00
  -3.07452E+00 -2.90533E+00 -3.01814E+00 -2.85092E+00 -2.94129E+00 -2.79484E+00 -2.86918E+00 -2.79460E+00 -2.86502E+00 -2.84803E+00
  -2.92483E+00 -2.93547E+00 -2.97050E+00 -2.97187E+00 -2.92897E+00 -2.93845E+00 -2.87677E+00 -2.90506E+00 -2.81899E+00 -2.84063E+00
  -2.74548E+00 -2.74714E+00 -2.65241E+00 -2.65385E+00 -2.57945E+00 -2.58009E+00 -2.53639E+00 -2.52778E+00 -2.48405E+00 -2.47944E+00
  -2.46900E+00 -2.48676E+00 -2.49767E+00 -2.55213E+00 -2.55154E+00 -2.60484E+00 -2.60766E+00 -2.66822E+00 -2.67060E+00 -2.73534E+00
  -2.74072E+00 -2.78324E+00 -2.77807E+00 -2.79252E+00 -2.77869E+00 -2.77614E+00 -2.76005E+00 -2.74054E+00 -2.71034E+00 -2.66188E+00
  -2.59944E+00 -2.51270E+00 -2.41852E+00 -2.29605E+00 -2.15800E+00 -1.99690E+00 -1.80946E+00 -1.59338E+00 -1.35128E+00 -1.08100E+00
  -7.83242E-01 -4.56928E-01 -1.04324E-01  2.75148E-01  6.74058E-01  1.08873E+00  1.51307E+00  1.94171E+00  2.36719E+00  2.78453E+00
   3.18589E+00  3.56899E+00  3.92872E+00  4.26556E+00  4.58128E+00  4.88606E+00  5.19945E+00  5.56867E+00  6.11316E+00  6.89109E+00
   7.10671E+00  7.72344E+00  7.66288E+00  8.25201E+00  7.67786E+00  7.94284E+00  6.69699E+00  7.21159E+00  5.63109E+00  5.81374E+00
   3.93672E+00  4.08726E+00  2.18226E+00  2.21567E+00  3.94872E-01  4.55534E-01 -7.31178E-01 -7.28463E-01 -1.42315E+00 -1.47237E+00
  -1.68974E+00 -1.94971E+00 -1.71235E+00 -2.42433E+00 -1.53369E+00 -2.14327E+00 -3.91642E-01 -4.72707E-01  1.89225E+00  2.09493E+00
   4.77014E+00  4.83345E+00  7.10669E+00  6.93809E+00  8.94204E+00  9.35113E+00  1.12423E+01  1.21532E+01  1.35966E+01  1.45618E+01
   1.61879E+01  1.74502E+01  1.90266E+01  2.07264E+01  2.24605E+01  2.46626E+01  2.67137E+01  2.85226E+01  3.00954E+01  3.14339E+01
   3.25515E+01  3.34729E+01  3.42298E+01  3.48548E+01  3.53758E+01  3.58123E+01  3.61743E+01  3.64625E+01  3.66710E+01  3.67909E+01
   3.68134E+01  3.67334E+01  3.65509E+01  3.62729E+01  3.59127E+01  3.54890E+01  3.50242E+01  3.45423E+01  3.40666E+01  3.36178E+01
   3.32124E+01  3.28612E+01  3.25691E+01  3.23345E+01  3.21503E+01  3.20045E+01  3.18814E+01  3.17629E+01  3.16304E+01  3.14657E+01
   3.12528E+01  3.09786E+01  3.06336E+01  3.02127E+01  2.97152E+01  2.91442E+01  2.85068E+01  2.78129E+01  2.70746E+01  2.63054E+01
   2.55190E+01  2.47290E+01  2.39476E+01  2.31851E+01  2.24498E+01  2.17475E+01  2.10811E+01  2.04513E+01  1.98561E+01  1.92919E+01
   1.87529E+01  1.82327E+01  1.77236E+01  1.72182E+01  1.67088E+01  1.61887E+01  1.56519E+01  1.50936E+01  1.45103E+01  1.38999E+01
   1.32619E+01  1.25970E+01  1.19070E+01  1.11951E+01  1.04650E+01  9.72135E+00  8.96891E+00  8.21278E+00  7.45802E+00  6.70948E+00
   5.97166E+00  5.24860E+00  4.54385E+00  3.86032E+00  3.20038E+00  2.56578E+00  1.95773E+00  1.37694E+00  8.23662E-01  2.97749E-01
  -2.01263E-01 -6.74104E-01 -1.12171E+00 -1.54516E+00 -1.94564E+00 -2.32440E+00 -2.68272E+00 -3.02185E+00 -3.34306E+00 -3.64754E+00
  -3.93647E+00 -4.21093E+00 -4.47197E+00 -4.72055E+00 -4.95758E+00 -5.18389E+00 -5.40027E+00 -5.60743E+00 -5.80603E+00 -5.99668E+00
  -6.17994E+00 -6.35632E+00 -6.52629E+00 -6.69029E+00 -6.84872E+00 -7.00194E+00 -7.15030E+00 -7.29409E+00 -7.43362E+00 -7.56915E+00
  -7.70091E+00 -7.82914E+00 -7.95405E+00 -8.07582E+00 -8.19464E+00 -8.31067E+00 -8.42408E+00 -8.53500E+00 -8.64357E+00 -8.74991E+00
  -8.85414E+00 -8.95638E+00 -9.05672E+00 -9.15526E+00 -9.25209E+00 -9.34729E+00 -9.44095E+00 -9.53314E+00 -9.62394E+00 -9.71341E+00
  -9.80161E+00 -9.88861E+00 -9.97446E+00 -1.00592E+01 -1.01430E+01 -1.02257E+01 -1.03076E+01 -1.03885E+01
 NY background values follow
    -6.036E+00   -6.023E+00   -6.009E+00   -5.996E+00   -5.982E+00   -5.969E+00   -5.956E+00   -5.942E+00   -5.929E+00   -5.916E+00
    -5.903E+00   -5.890E+00   -5.877E+00   -5.863E+00   -5.850E+00   -5.838E+00   -5.825E+00   -5.812E+00   -5.799E+00   -5.786E+00
    -5.773E+00   -5.761E+00   -5.748E+00   -5.735E+00   -5.723E+00   -5.710E+00   -5.697E+00   -5.685E+00   -5.672E+00   -5.660E+00
    -5.647E+00   -5.635E+00   -5.622E+00   -5.610E+00   -5.598E+00   -5.585E+00   -5.573E+00   -5.561E+00   -5.548E+00   -5.536E+00
    -5.524E+00   -5.511E+00   -5.499E+00   -5.487E+00   -5.475E+00   -5.462E+00   -5.450E+00   -5.438E+00   -5.426E+00   -5.414E+00
    -5.401E+00   -5.389E+00   -5.377E+00   -5.365E+00   -5.353E+00   -5.341E+00   -5.328E+00   -5.316E+00   -5.304E+00   -5.292E+00
    -5.280E+00   -5.267E+00   -5.255E+00   -5.243E+00   -5.231E+00   -5.219E+00   -5.206E+00   -5.194E+00   -5.182E+00   -5.170E+00
    -5.157E+00   -5.145E+00   -5.133E+00   -5.120E+00   -5.108E+00   -5.096E+00   -5.083E+00   -5.071E+00   -5.058E+00   -5.046E+00
    -5.033E+00   -5.021E+00   -5.008E+00   -4.996E+00   -4.983E+00   -4.971E+00   -4.958E+00   -4.945E+00   -4.932E+00   -4.920E+00
    -4.907E+00   -4.894E+00   -4.881E+00   -4.868E+00   -4.855E+00   -4.842E+00   -4.829E+00   -4.816E+00   -4.803E+00   -4.790E+00
    -4.777E+00   -4.764E+00   -4.750E+00   -4.737E+00   -4.724E+00   -4.710E+00   -4.697E+00   -4.684E+00   -4.670E+00   -4.657E+00
    -4.643E+00   -4.630E+00   -4.616E+00   -4.603E+00   -4.589E+00   -4.576E+00   -4.562E+00   -4.549E+00   -4.536E+00   -4.522E+00
    -4.509E+00   -4.495E+00   -4.482E+00   -4.469E+00   -4.455E+00   -4.442E+00   -4.429E+00   -4.415E+00   -4.402E+00   -4.389E+00
    -4.376E+00   -4.363E+00   -4.350E+00   -4.337E+00   -4.324E+00   -4.312E+00   -4.299E+00   -4.286E+00   -4.274E+00   -4.261E+00
    -4.249E+00   -4.237E+00   -4.225E+00   -4.212E+00   -4.200E+00   -4.189E+00   -4.177E+00   -4.165E+00   -4.153E+00   -4.142E+00
    -4.131E+00   -4.119E+00   -4.108E+00   -4.097E+00   -4.086E+00   -4.076E+00   -4.065E+00   -4.054E+00   -4.044E+00   -4.034E+00
    -4.024E+00   -4.014E+00   -4.004E+00   -3.995E+00   -3.985E+00   -3.976E+00   -3.967E+00   -3.958E+00   -3.949E+00   -3.941E+00
    -3.932E+00   -3.924E+00   -3.916E+00   -3.908E+00   -3.900E+00   -3.893E+00   -3.886E+00   -3.879E+00   -3.872E+00   -3.865E+00
    -3.859E+00   -3.852E+00   -3.846E+00   -3.841E+00   -3.835E+00   -3.830E+00   -3.825E+00   -3.820E+00   -3.815E+00   -3.811E+00
    -3.807E+00   -3.803E+00   -3.799E+00   -3.796E+00   -3.792E+00   -3.790E+00   -3.787E+00   -3.785E+00   -3.782E+00   -3.781E+00
    -3.779E+00   -3.778E+00   -3.777E+00   -3.776E+00   -3.776E+00   -3.775E+00   -3.775E+00   -3.776E+00   -3.776E+00   -3.777E+00
    -3.779E+00   -3.780E+00   -3.782E+00   -3.784E+00   -3.786E+00   -3.789E+00   -3.791E+00   -3.794E+00   -3.798E+00   -3.801E+00
    -3.805E+00   -3.809E+00   -3.814E+00   -3.819E+00   -3.823E+00   -3.829E+00   -3.834E+00   -3.840E+00   -3.846E+00   -3.852E+00
    -3.859E+00   -3.866E+00   -3.873E+00   -3.880E+00   -3.888E+00   -3.896E+00   -3.904E+00   -3.912E+00   -3.921E+00   -3.930E+00
    -3.939E+00   -3.949E+00   -3.959E+00   -3.969E+00   -3.979E+00   -3.990E+00   -4.000E+00   -4.012E+00   -4.023E+00   -4.034E+00
    -4.046E+00   -4.059E+00   -4.071E+00   -4.084E+00   -4.097E+00   -4.110E+00   -4.123E+00   -4.137E+00   -4.151E+00   -4.165E+00
    -4.180E+00   -4.195E+00   -4.210E+00   -4.225E+00   -4.240E+00   -4.256E+00   -4.272E+00   -4.289E+00   -4.305E+00   -4.322E+00
    -4.339E+00   -4.357E+00   -4.374E+00   -4.392E+00   -4.410E+00   -4.429E+00   -4.447E+00   -4.466E+00   -4.485E+00   -4.505E+00
    -4.525E+00   -4.545E+00   -4.565E+00   -4.585E+00   -4.606E+00   -4.627E+00   -4.648E+00   -4.670E+00   -4.691E+00   -4.713E+00
    -4.736E+00   -4.758E+00   -4.781E+00   -4.804E+00   -4.827E+00   -4.851E+00   -4.875E+00   -4.899E+00   -4.923E+00   -4.947E+00
    -4.972E+00   -4.997E+00   -5.022E+00   -5.048E+00   -5.074E+00   -5.100E+00   -5.126E+00   -5.153E+00   -5.179E+00   -5.206E+00
    -5.234E+00   -5.261E+00   -5.289E+00   -5.317E+00   -5.345E+00   -5.373E+00   -5.402E+00   -5.431E+00   -5.460E+00   -5.489E+00
    -5.518E+00   -5.548E+00   -5.578E+00   -5.608E+00   -5.638E+00   -5.669E+00   -5.700E+00   -5.731E+00   -5.762E+00   -5.793E+00
    -5.825E+00   -5.857E+00   -5.889E+00   -5.921E+00   -5.954E+00   -5.986E+00   -6.019E+00   -6.052E+00   -6.085E+00   -6.119E+00
    -6.152E+00   -6.186E+00   -6.220E+00   -6.254E+00   -6.288E+00   -6.323E+00   -6.358E+00   -6.392E+00   -6.427E+00   -6.463E+00
    -6.498E+00   -6.534E+00   -6.569E+00   -6.605E+00   -6.641E+00   -6.678E+00   -6.714E+00   -6.751E+00   -6.787E+00   -6.824E+00
    -6.861E+00   -6.898E+00   -6.936E+00   -6.973E+00   -7.011E+00   -7.049E+00   -7.087E+00   -7.125E+00   -7.163E+00   -7.202E+00
    -7.240E+00   -7.279E+00   -7.318E+00   -7.357E+00   -7.396E+00   -7.435E+00   -7.474E+00   -7.514E+00   -7.554E+00   -7.593E+00
    -7.633E+00   -7.673E+00   -7.713E+00   -7.754E+00   -7.794E+00   -7.835E+00   -7.875E+00   -7.916E+00   -7.957E+00   -7.998E+00
    -8.039E+00   -8.080E+00   -8.121E+00   -8.163E+00   -8.204E+00   -8.246E+00   -8.288E+00   -8.330E+00   -8.372E+00   -8.414E+00
    -8.456E+00   -8.498E+00   -8.540E+00   -8.583E+00   -8.625E+00   -8.668E+00   -8.711E+00   -8.753E+00   -8.796E+00   -8.839E+00
    -8.882E+00   -8.925E+00   -8.969E+00   -9.012E+00   -9.055E+00   -9.099E+00   -9.142E+00   -9.186E+00   -9.230E+00   -9.273E+00
    -9.317E+00   -9.361E+00   -9.405E+00   -9.449E+00   -9.493E+00   -9.537E+00   -9.582E+00   -9.626E+00   -9.670E+00   -9.715E+00
    -9.759E+00   -9.804E+00   -9.848E+00   -9.893E+00   -9.938E+00   -9.982E+00   -1.003E+01   -1.007E+01   -1.012E+01   -1.016E+01
    -1.021E+01   -1.025E+01   -1.030E+01   -1.034E+01   -1.039E+01   -1.043E+01   -1.048E+01   -1.052E+01   -1.057E+01   -1.061E+01
    -1.066E+01   -1.070E+01   -1.075E+01   -1.080E+01   -1.084E+01   -1.089E+01   -1.093E+01   -1.098E+01   -1.102E+01   -1.107E+01
    -1.111E+01   -1.116E+01   -1.121E+01   -1.125E+01   -1.130E+01   -1.134E+01   -1.139E+01   -1.144E+01   -1.148E+01   -1.153E+01
    -1.157E+01   -1.162E+01   -1.166E+01   -1.171E+01   -1.176E+01   -1.180E+01   -1.185E+01   -1.189E+01   -1.194E+01   -1.199E+01
    -1.203E+01   -1.208E+01   -1.212E+01   -1.217E+01   -1.221E+01   -1.226E+01   -1.231E+01   -1.235E+01   -1.240E+01   -1.244E+01
    -1.249E+01   -1.253E+01   -1.258E+01   -1.263E+01   -1.267E+01   -1.272E+01   -1.276E+01   -1.281E+01
 Ala      Conc. = 2.94E+03
