 LCModel (Version 6.3-1L) Copyright: S.W. Provencher.          Ref.: Magn. Reson. Med. 30:672-679 (1993).                
 Slice#1 Row#8 Col#4  K_02_press_1_raw_act
 36 lines in following concentration table = NCONC+1
    Conc.  %SD /Cr+PCr  Metabolite                                         
   66.572 152% 6.0E-02 Ala                                                 
    0.000 999%   0.000 Asp                                                 
  336.962  53%   0.303 Cr                                                  
  773.390  24%   0.697 PCr                                                 
   59.301 249% 5.3E-02 GABA                                                
   97.278 159% 8.8E-02 Glc                                                 
  440.617  46%   0.397 Gln                                                 
 1.47E+03  17%   1.327 Glu                                                 
  323.885  20%   0.292 GPC                                                 
  159.030  42%   0.143 PCh                                                 
  328.682  22%   0.296 GSH                                                 
 1.01E+03  23%   0.913 Ins                                                 
   30.894 349% 2.8E-02 Lac                                                 
 2.45E+03   5%   2.207 NAA                                                 
  738.175  15%   0.665 NAAG                                                
   43.561  64% 3.9E-02 Scyllo                                              
  121.530 172%   0.109 Tau                                                 
  133.173  79%   0.120 -CrCH2                                              
  482.915   5%   0.435 GPC+PCh                                             
 3.19E+03   3%   2.872 NAA+NAAG                                            
 1.11E+03   6%   1.000 Cr+PCr                                              
 1.91E+03  16%   1.723 Glu+Gln                                             
  262.659 116%   0.237 Lip13a                                              
    0.000 999%   0.000 Lip13b                                              
    0.000 999%   0.000 Lip09                                               
 1.71E+03  11%   1.536 MM09                                                
   44.139 184% 4.0E-02 Lip20                                               
 3.74E+03  10%   3.364 MM20                                                
  554.279  27%   0.499 MM12                                                
 2.62E+03  14%   2.358 MM14                                                
 1.26E+03  19%   1.137 MM17                                                
  262.659 116%   0.237 Lip13a+Lip13b                                       
 3.44E+03   9%   3.094 MM14+Lip13a+Lip13b+MM12                             
 1.71E+03  11%   1.536 MM09+Lip09                                          
 3.78E+03  10%   3.404 MM20+Lip20                                          
   6 lines in following misc. output table
  FWHM = 0.038 ppm    S/N =  14                                            
  Data shift = 0.008 ppm                                                   
  Ph: -23 deg      -1.4 deg/ppm                                            
  alphaB,S = 8.5E+01,   8.6E+01                                            
   14 spline knots.   Ns = 6(1)                                            
   2 inflections.     1 extrema                                            
  498 points on ppm-axis = NY
      4.000000     3.992357     3.984714     3.977070     3.969427     3.961784     3.954141     3.946497     3.938854     3.931211
      3.923568     3.915925     3.908281     3.900638     3.892995     3.885352     3.877708     3.870065     3.862422     3.854779
      3.847136     3.839492     3.831849     3.824206     3.816563     3.808919     3.801276     3.793633     3.785990     3.778347
      3.770703     3.763060     3.755417     3.747774     3.740130     3.732487     3.724844     3.717201     3.709558     3.701914
      3.694271     3.686628     3.678985     3.671341     3.663698     3.656055     3.648412     3.640769     3.633125     3.625482
      3.617839     3.610196     3.602552     3.594909     3.587266     3.579623     3.571980     3.564336     3.556693     3.549050
      3.541407     3.533763     3.526120     3.518477     3.510834     3.503191     3.495547     3.487904     3.480261     3.472618
      3.464974     3.457331     3.449688     3.442045     3.434402     3.426758     3.419115     3.411472     3.403829     3.396185
      3.388542     3.380899     3.373256     3.365613     3.357969     3.350326     3.342683     3.335040     3.327396     3.319753
      3.312110     3.304467     3.296824     3.289180     3.281537     3.273894     3.266251     3.258607     3.250964     3.243321
      3.235678     3.228034     3.220391     3.212748     3.205105     3.197462     3.189818     3.182175     3.174532     3.166889
      3.159245     3.151602     3.143959     3.136316     3.128673     3.121029     3.113386     3.105743     3.098100     3.090456
      3.082813     3.075170     3.067527     3.059884     3.052240     3.044597     3.036954     3.029311     3.021667     3.014024
      3.006381     2.998738     2.991095     2.983451     2.975808     2.968165     2.960522     2.952878     2.945235     2.937592
      2.929949     2.922306     2.914662     2.907019     2.899376     2.891733     2.884089     2.876446     2.868803     2.861160
      2.853517     2.845873     2.838230     2.830587     2.822944     2.815300     2.807657     2.800014     2.792371     2.784728
      2.777084     2.769441     2.761798     2.754155     2.746511     2.738868     2.731225     2.723582     2.715939     2.708295
      2.700652     2.693009     2.685366     2.677722     2.670079     2.662436     2.654793     2.647150     2.639506     2.631863
      2.624220     2.616577     2.608933     2.601290     2.593647     2.586004     2.578361     2.570717     2.563074     2.555431
      2.547788     2.540144     2.532501     2.524858     2.517215     2.509572     2.501928     2.494285     2.486642     2.478999
      2.471355     2.463712     2.456069     2.448426     2.440783     2.433139     2.425496     2.417853     2.410210     2.402566
      2.394923     2.387280     2.379637     2.371994     2.364350     2.356707     2.349064     2.341421     2.333777     2.326134
      2.318491     2.310848     2.303205     2.295561     2.287918     2.280275     2.272632     2.264988     2.257345     2.249702
      2.242059     2.234416     2.226772     2.219129     2.211486     2.203843     2.196199     2.188556     2.180913     2.173270
      2.165627     2.157983     2.150340     2.142697     2.135054     2.127410     2.119767     2.112124     2.104481     2.096838
      2.089194     2.081551     2.073908     2.066265     2.058621     2.050978     2.043335     2.035692     2.028049     2.020405
      2.012762     2.005119     1.997476     1.989833     1.982190     1.974546     1.966903     1.959260     1.951617     1.943974
      1.936331     1.928688     1.921045     1.913402     1.905759     1.898115     1.890472     1.882829     1.875186     1.867543
      1.859900     1.852257     1.844614     1.836971     1.829327     1.821684     1.814041     1.806398     1.798755     1.791112
      1.783469     1.775826     1.768183     1.760540     1.752896     1.745253     1.737610     1.729967     1.722324     1.714681
      1.707038     1.699395     1.691752     1.684108     1.676465     1.668822     1.661179     1.653536     1.645893     1.638250
      1.630607     1.622964     1.615321     1.607677     1.600034     1.592391     1.584748     1.577105     1.569462     1.561819
      1.554176     1.546533     1.538890     1.531246     1.523603     1.515960     1.508317     1.500674     1.493031     1.485388
      1.477745     1.470102     1.462458     1.454815     1.447172     1.439529     1.431886     1.424243     1.416600     1.408957
      1.401314     1.393671     1.386027     1.378384     1.370741     1.363098     1.355455     1.347812     1.340169     1.332526
      1.324883     1.317240     1.309596     1.301953     1.294310     1.286667     1.279024     1.271381     1.263738     1.256095
      1.248452     1.240808     1.233165     1.225522     1.217879     1.210236     1.202593     1.194950     1.187307     1.179664
      1.172021     1.164377     1.156734     1.149091     1.141448     1.133805     1.126162     1.118519     1.110876     1.103233
      1.095590     1.087946     1.080303     1.072660     1.065017     1.057374     1.049731     1.042088     1.034445     1.026802
      1.019158     1.011515     1.003872     0.996229     0.988586     0.980943     0.973300     0.965657     0.958014     0.950371
      0.942727     0.935084     0.927441     0.919798     0.912155     0.904512     0.896869     0.889226     0.881583     0.873940
      0.866296     0.858653     0.851010     0.843367     0.835724     0.828081     0.820438     0.812795     0.805152     0.797508
      0.789865     0.782222     0.774579     0.766936     0.759293     0.751650     0.744007     0.736364     0.728721     0.721077
      0.713434     0.705791     0.698148     0.690505     0.682862     0.675219     0.667576     0.659933     0.652290     0.644646
      0.637003     0.629360     0.621717     0.614074     0.606431     0.598788     0.591145     0.583502     0.575858     0.568215
      0.560572     0.552929     0.545286     0.537643     0.530000     0.522357     0.514714     0.507071     0.499427     0.491784
      0.484141     0.476498     0.468855     0.461212     0.453569     0.445925     0.438282     0.430639     0.422996     0.415353
      0.407710     0.400067     0.392424     0.384780     0.377137     0.369494     0.361851     0.354208     0.346565     0.338922
      0.331278     0.323635     0.315992     0.308349     0.300706     0.293063     0.285420     0.277777     0.270133     0.262490
      0.254847     0.247204     0.239561     0.231918     0.224275     0.216631     0.208988     0.201345
 NY phased data points follow
  -2.14481E+00  7.13872E-01 -6.98268E-01  1.61696E+00  3.03057E+00  5.05597E+00  9.99488E+00  1.23431E+01  2.19795E+01  1.92684E+01
   1.84831E+01  1.83196E+01  2.07261E+01  8.18669E+00  7.75980E+00  1.76474E+00 -2.50853E+00 -5.71724E+00 -3.49844E+00  1.03880E-01
  -2.53453E+00 -8.43727E-01  2.22645E+00 -3.02358E+00  2.41679E+00  7.49823E-01  3.41860E+00  2.54728E+00  1.55746E+00  4.42619E+00
   2.30520E+00  7.18999E+00  6.23102E+00  1.60167E+00  2.68097E+00 -8.80289E-01 -1.42564E-01  6.81567E+00 -8.22002E+00  3.43710E+00
   5.36988E+00 -1.73234E-01  4.02339E+00  5.36594E+00  7.08461E+00  6.17528E+00  1.02135E+01  9.86058E+00  9.28569E+00  4.65844E+00
   1.70870E+00  7.96118E-02 -1.44917E-01  5.01335E+00  9.75975E-01  3.22780E+00  5.44319E+00  2.89572E+00  6.54643E-01  3.49642E+00
   3.25011E-01 -3.90193E+00 -4.40159E+00 -3.24772E+00 -5.11797E+00 -4.32150E-01 -4.77723E+00 -3.32155E+00 -2.90417E+00 -7.05751E+00
  -3.40352E+00 -3.45846E+00 -3.00280E+00 -1.68025E+00 -4.14350E+00 -6.56207E+00 -1.64800E+00 -1.49383E+00 -3.22731E+00  1.95903E+00
  -3.53960E+00 -2.32899E+00 -5.80199E+00  3.74054E-02 -4.39611E-01 -8.87025E+00 -6.59765E+00  3.66003E+00 -3.58734E+00 -1.24336E+00
   5.61185E-01 -1.51543E+00 -4.47093E+00  6.17801E-01 -1.31222E+00 -2.45829E-01  3.34920E+00  6.31985E+00  9.66341E+00  2.53284E+01
   3.25766E+01  4.26857E+01  4.38915E+01  4.44938E+01  3.56713E+01  2.95203E+01  1.88395E+01  1.38102E+01  9.92384E+00  1.12066E-01
   7.02375E+00  4.92823E+00  1.10448E+00 -5.84407E-01 -6.00171E-01  2.82880E+00 -9.22217E-01  2.05472E+00 -1.17208E+00  2.82424E+00
   3.54488E+00  5.30674E+00  9.60343E+00  1.05477E+01  1.65615E+01  3.23532E+01  4.41282E+01  4.97803E+01  4.04168E+01  2.66093E+01
   2.19503E+01  1.13330E+01  8.35413E+00  4.27184E+00  3.26927E+00  6.33897E+00  1.29359E-01 -3.53177E+00  7.35523E-01  6.84076E+00
  -3.12542E+00  1.14041E+00  2.99277E+00  6.04596E+00 -1.97790E-01 -2.07215E-01  4.13595E+00 -3.48615E+00 -2.37013E+00 -9.36950E-01
  -2.63582E+00 -4.65509E+00 -5.01880E-01 -1.48596E+00 -1.69887E+00  7.29512E-01 -2.93886E+00 -2.83566E+00 -4.70340E+00  3.24628E+00
  -6.39921E-01 -4.15062E+00 -3.75676E+00 -2.00271E+00 -3.29527E+00 -6.64260E+00 -2.97217E+00 -1.19832E+01 -6.96748E+00 -1.96347E+01
  -1.66083E+01 -1.22720E+01 -1.42859E+01 -1.55668E+01 -1.41390E+01 -2.02843E+01 -1.74290E+01 -1.54487E+01 -1.31191E+01 -1.23513E+01
  -1.69490E+01 -1.01989E+01 -1.52306E+01 -1.48962E+01 -4.50860E+00 -8.10410E+00 -5.87482E+00  2.70517E+00 -2.26601E+00  3.44424E+00
  -1.00864E+00 -5.89257E+00 -2.18220E+00 -6.16764E+00 -8.71731E+00 -9.21222E+00 -1.44764E+01 -1.66054E+01 -9.21770E+00 -1.50684E+01
  -1.11552E+01 -9.25339E+00  2.07364E+00 -1.82554E+00 -3.01796E-01 -1.50878E+00 -1.98460E+00 -2.85875E+00 -6.34912E+00 -5.10927E+00
  -9.25870E-01 -2.61575E+00  4.67880E+00  3.11739E+00  8.70217E+00  1.27721E+01  1.53081E+01  1.34145E+01  9.48664E+00 -3.95558E+00
  -2.87249E+00 -2.06848E+00 -1.06700E+01 -2.20507E+00 -2.37226E+00  6.75562E+00  8.94346E+00  7.98095E+00  1.09263E+01  3.35032E+00
   3.84874E+00  7.75636E+00  9.86126E+00  3.61367E+00  5.48583E+00  8.05240E+00  8.46322E+00  4.69449E+00  4.64799E+00  8.50657E+00
   8.24371E+00  9.95216E-01  2.25774E+00  1.88590E+00  6.94412E+00  1.11604E+01  1.48914E+01  1.56632E+01  1.92283E+01  1.88930E+01
   1.90135E+01  1.72746E+01  2.55414E+01  3.54232E+01  5.05650E+01  6.17989E+01  6.73263E+01  6.97758E+01  8.67052E+01  1.13685E+02
   1.29234E+02  1.14332E+02  8.38033E+01  6.07379E+01  3.06144E+01  1.88177E+01  1.32503E+01  1.24986E+01  7.81414E+00  8.68474E-01
   4.83106E+00  7.31620E+00  9.29707E+00  9.77829E+00  2.97523E+00  1.10096E+00  1.04106E+01  4.70225E+00  9.05738E+00  6.43811E+00
  -6.29121E-01  5.11337E+00  7.63242E+00  2.67107E+00  1.65766E-01  5.89876E-01  1.86889E-01  3.49507E+00  5.25456E-01  2.43139E+00
   6.71828E-01  5.00751E+00  6.08518E+00  6.44105E+00  2.12591E+00  6.56481E-01  5.87624E+00  3.74214E+00  2.53295E+00 -6.24732E-01
   1.35389E+00  4.58628E+00  6.29782E+00  1.48968E+00  8.26962E+00  6.18980E+00  3.62345E+00  8.00441E+00  6.02934E+00  4.19267E+00
   4.39465E+00  1.03908E+01  7.43183E+00  5.75932E+00  8.62465E+00  6.44675E+00  8.88729E+00  1.37239E+00  4.76363E+00  5.72895E+00
   8.02117E+00  2.29255E+00  5.78652E+00  3.54807E+00  2.00977E+00  8.59180E+00  1.19344E+01  5.61972E+00  6.17154E+00  4.42688E+00
   9.97674E+00  1.19583E+01  1.06697E+01  4.30832E+00  6.33388E+00  2.58783E+00  9.88452E+00  1.26853E+01  1.41719E+01  1.40466E+01
   1.14721E+01  1.14458E+01  1.81445E+01  1.78184E+01  1.67200E+01  2.50777E+01  2.27068E+01  1.43432E+01  1.75568E+01  1.84141E+01
   1.38117E+01  8.92745E+00  8.28694E+00  8.27361E+00  6.21759E+00  3.83078E+00  3.32540E+00  4.56339E+00  7.06461E-01  3.74899E+00
   3.40954E+00  4.48786E+00  4.36735E+00  8.50730E+00  8.29498E-01  1.03374E+01  4.54412E+00  6.77869E+00  5.86564E+00  5.79545E+00
   2.42767E+00  4.51020E+00  2.47118E+00  4.79061E+00  7.39821E+00  3.48694E+00  1.94061E+00  1.37257E+00  2.68865E+00  3.50334E+00
   1.91717E+00  1.40121E+00  4.51909E+00  6.04230E-01 -2.41781E-01 -3.50184E+00 -2.20316E+00 -7.80770E-01 -5.58582E-01 -9.59548E-01
   1.06870E+01 -5.56640E-01  2.20731E+00  7.10666E+00  6.35328E+00  1.05595E+01  1.19079E+01  9.40885E+00  7.03007E+00  1.23200E+01
   9.11800E+00  6.95426E+00  1.09446E+01  9.21203E+00  1.29221E+01  9.25214E+00  1.25599E+01  9.39401E+00  8.51231E+00  9.52932E+00
   6.50369E+00  8.60030E+00  1.04011E+01  5.71721E-01  1.95053E+00  3.76853E+00  2.89581E+00  2.36645E+00 -3.34526E+00  2.20908E-02
  -2.89577E+00  1.29280E+00 -1.36750E+00 -3.54051E-02  1.24646E+00 -2.97927E+00  7.13062E-02 -2.90327E+00  3.38137E-01  1.36667E+00
   1.75006E-01 -5.42819E-01 -1.78216E+00 -4.23651E+00  1.32662E+00 -1.93650E+00 -9.84003E-01 -8.79373E+00  5.11114E-01 -5.10622E+00
  -4.58299E+00 -2.12979E+00  1.07510E+00 -1.60524E+00  2.47952E+00 -4.65730E+00  4.13196E+00 -7.75809E-01 -2.39080E+00 -3.23859E+00
  -8.04577E-01 -2.37894E+00 -3.68850E-01 -1.59216E+00  2.59857E+00 -5.59665E-01  5.74248E-02 -5.50156E+00  2.72525E+00 -4.19552E+00
   4.11267E+00 -6.02502E-01  3.00959E-01 -4.94543E+00 -3.16246E+00 -4.75648E+00 -1.08671E+00  1.16177E+00 -1.20404E+00 -3.87592E+00
   1.98147E-01 -1.79596E+00 -3.96525E+00 -4.32193E+00 -3.94363E+00 -4.34088E+00  1.31178E+00  1.64948E+00 -2.73367E-01 -2.18814E+00
  -5.16269E+00 -3.60056E+00 -2.01227E+00 -9.34312E-01 -5.23522E+00 -4.41949E+00 -4.47166E+00 -9.32710E-02 -5.76167E+00 -1.20853E+00
   7.19085E-01  3.82813E-01 -5.37303E+00  4.72182E+00 -4.53079E+00 -3.62639E-01  1.93324E+00  1.53646E+00
 NY points of the fit to the data follow
  -2.53259E+00 -2.46047E+00 -1.99938E+00 -6.51073E-01  1.45796E+00  4.24024E+00  8.32634E+00  1.34404E+01  1.84326E+01  2.16533E+01
   2.19454E+01  1.93212E+01  1.48124E+01  9.95951E+00  5.99237E+00  3.19351E+00  1.29607E+00  1.57493E-01 -4.79214E-01 -7.79964E-01
  -7.93672E-01 -7.34484E-01 -8.34215E-01 -8.50840E-01 -4.45245E-01 -5.90409E-02  4.94279E-01  1.84002E+00  4.05491E+00  6.43993E+00
   8.05576E+00  8.66818E+00  8.34078E+00  7.01021E+00  4.93639E+00  2.60625E+00  2.58768E-01 -1.77171E+00 -2.89185E+00 -2.82675E+00
  -1.78780E+00 -2.95860E-01  1.17553E+00  2.57659E+00  4.14414E+00  5.99364E+00  7.50213E+00  7.67833E+00  6.13869E+00  3.46555E+00
   7.30096E-01 -1.28718E+00 -2.31796E+00 -2.47950E+00 -2.19795E+00 -1.72476E+00 -1.10338E+00 -3.45163E-01  4.05777E-01  8.49469E-01
   7.16491E-01  4.41366E-03 -1.05163E+00 -2.02137E+00 -2.58703E+00 -2.62798E+00 -2.26795E+00 -1.76591E+00 -1.29719E+00 -8.57493E-01
  -4.51701E-01 -1.98346E-01 -1.47404E-01 -2.27252E-01 -3.67610E-01 -5.77123E-01 -8.93171E-01 -1.29077E+00 -1.71189E+00 -2.03054E+00
  -2.11368E+00 -1.98762E+00 -1.87525E+00 -1.78463E+00 -1.69783E+00 -1.78766E+00 -2.23192E+00 -2.95193E+00 -3.61813E+00 -3.91779E+00
  -3.75958E+00 -3.35247E+00 -2.93601E+00 -2.61673E+00 -2.30967E+00 -1.29679E+00  1.60072E+00  5.59085E+00  1.15671E+01  2.10701E+01
   3.25618E+01  4.24327E+01  4.71507E+01  4.54217E+01  3.83932E+01  2.84757E+01  1.86073E+01  1.08384E+01  5.39892E+00  1.89693E+00
   1.78904E-01 -7.03320E-01 -1.23688E+00 -1.42525E+00 -1.49414E+00 -1.51537E+00 -1.50199E+00 -1.47327E+00 -1.39296E+00 -1.12798E+00
  -1.40900E-01  3.01189E+00  7.74034E+00  1.35922E+01  2.21851E+01  3.32966E+01  4.27917E+01  4.56041E+01  4.03466E+01  3.02345E+01
   1.98517E+01  1.20950E+01  7.38907E+00  4.35742E+00  1.64670E+00 -3.88769E-01 -1.38704E+00 -1.54124E+00 -1.00612E+00 -1.35224E-01
   6.22108E-01  9.81757E-01  8.89960E-01  4.71468E-01 -5.74093E-02 -5.34243E-01 -9.05236E-01 -1.19399E+00 -1.49921E+00 -1.82410E+00
  -2.15113E+00 -2.50612E+00 -2.84278E+00 -3.04934E+00 -3.05091E+00 -2.95999E+00 -2.85767E+00 -2.89357E+00 -3.36610E+00 -4.25194E+00
  -5.24701E+00 -5.79248E+00 -5.48365E+00 -4.63342E+00 -4.02540E+00 -4.21065E+00 -5.17281E+00 -6.37978E+00 -7.27068E+00 -7.68090E+00
  -7.77214E+00 -7.87523E+00 -8.15044E+00 -8.75947E+00 -9.58620E+00 -1.01931E+01 -1.00519E+01 -9.15243E+00 -8.26486E+00 -8.07397E+00
  -8.44889E+00 -8.80899E+00 -8.59370E+00 -7.80951E+00 -7.04988E+00 -6.50513E+00 -5.67087E+00 -4.12341E+00 -1.93911E+00  2.15625E-01
   1.55070E+00  1.75472E+00  9.09092E-01 -3.58070E-01 -1.42271E+00 -2.09522E+00 -2.36644E+00 -2.17981E+00 -1.45823E+00 -3.91111E-01
   8.46679E-01  2.15292E+00  3.30664E+00  3.95746E+00  3.52129E+00  1.94922E+00 -5.26082E-01 -3.57127E+00 -6.31332E+00 -7.81212E+00
  -7.62547E+00 -6.01658E+00 -3.44741E+00  9.94405E-02  4.15376E+00  7.26826E+00  7.86088E+00  5.56358E+00  1.45799E+00 -2.97960E+00
  -6.87861E+00 -9.42925E+00 -9.69395E+00 -7.39401E+00 -3.35852E+00  8.58441E-01  3.98387E+00  5.63569E+00  5.96907E+00  5.47125E+00
   4.74540E+00  4.41613E+00  4.78504E+00  5.71289E+00  6.84578E+00  7.84086E+00  8.44048E+00  8.43215E+00  7.91895E+00  7.10608E+00
   6.18655E+00  5.51288E+00  5.66763E+00  6.92808E+00  8.88984E+00  1.08511E+01  1.23078E+01  1.31467E+01  1.36361E+01  1.48270E+01
   1.74765E+01  2.10299E+01  2.63585E+01  3.43923E+01  4.62120E+01  5.95071E+01  6.82031E+01  7.72861E+01  9.33770E+01  1.12371E+02
   1.21400E+02  1.11884E+02  8.75449E+01  5.94986E+01  3.68649E+01  2.29923E+01  1.59601E+01  1.14024E+01  7.98510E+00  6.57282E+00
   5.84565E+00  5.37782E+00  5.12211E+00  4.97681E+00  4.73816E+00  4.30900E+00  3.75363E+00  3.19828E+00  2.70065E+00  2.30177E+00
   2.02149E+00  1.84782E+00  1.74788E+00  1.67700E+00  1.58990E+00  1.48653E+00  1.38764E+00  1.31346E+00  1.29612E+00  1.36848E+00
   1.54903E+00  1.81912E+00  2.11543E+00  2.39158E+00  2.64449E+00  2.87853E+00  3.10467E+00  3.34384E+00  3.61516E+00  3.92945E+00
   4.27775E+00  4.63310E+00  4.96726E+00  5.25885E+00  5.49697E+00  5.68004E+00  5.80673E+00  5.87586E+00  5.89212E+00  5.85956E+00
   5.78177E+00  5.66363E+00  5.51265E+00  5.33948E+00  5.15664E+00  4.97691E+00  4.81250E+00  4.67610E+00  4.58143E+00  4.54423E+00
   4.58447E+00  4.73017E+00  4.96077E+00  5.24147E+00  5.60324E+00  6.01137E+00  6.34338E+00  6.51093E+00  6.56855E+00  6.70689E+00
   7.09350E+00  7.71293E+00  8.53137E+00  9.54684E+00  1.07143E+01  1.19008E+01  1.29187E+01  1.36484E+01  1.41130E+01  1.43978E+01
   1.45890E+01  1.47337E+01  1.48005E+01  1.47528E+01  1.46167E+01  1.43735E+01  1.39665E+01  1.33632E+01  1.26066E+01  1.18142E+01
   1.10688E+01  1.03883E+01  9.79240E+00  9.29335E+00  8.86242E+00  8.43756E+00  7.95788E+00  7.40709E+00  6.82187E+00  6.25086E+00
   5.72901E+00  5.26318E+00  4.83972E+00  4.45510E+00  4.10960E+00  3.79666E+00  3.51107E+00  3.24925E+00  3.00882E+00  2.78872E+00
   2.58831E+00  2.40728E+00  2.24550E+00  2.10379E+00  1.98387E+00  1.88821E+00  1.81913E+00  1.77896E+00  1.77000E+00  1.79530E+00
   1.85821E+00  1.96218E+00  2.10990E+00  2.30366E+00  2.54536E+00  2.83689E+00  3.17946E+00  3.57311E+00  4.01601E+00  4.50488E+00
   5.03493E+00  5.60007E+00  6.19218E+00  6.80099E+00  7.41399E+00  8.01741E+00  8.59670E+00  9.13709E+00  9.62351E+00  1.00413E+01
   1.03769E+01  1.06190E+01  1.07594E+01  1.07930E+01  1.07176E+01  1.05344E+01  1.02476E+01  9.86528E+00  9.39820E+00  8.85933E+00
   8.26255E+00  7.62245E+00  6.95376E+00  6.27123E+00  5.58848E+00  4.91753E+00  4.26810E+00  3.64809E+00  3.06357E+00  2.51917E+00
   2.01753E+00  1.55955E+00  1.14445E+00  7.70720E-01  4.36275E-01  1.38816E-01 -1.24631E-01 -3.57394E-01 -5.63013E-01 -7.44506E-01
  -9.04529E-01 -1.04538E+00 -1.16955E+00 -1.27941E+00 -1.37713E+00 -1.46417E+00 -1.54170E+00 -1.61073E+00 -1.67255E+00 -1.72831E+00
  -1.77894E+00 -1.82478E+00 -1.86619E+00 -1.90358E+00 -1.93771E+00 -1.96912E+00 -1.99813E+00 -2.02463E+00 -2.04877E+00 -2.07079E+00
  -2.09127E+00 -2.11039E+00 -2.12819E+00 -2.14443E+00 -2.15923E+00 -2.17287E+00 -2.18576E+00 -2.19789E+00 -2.20914E+00 -2.21930E+00
  -2.22858E+00 -2.23726E+00 -2.24558E+00 -2.25338E+00 -2.26048E+00 -2.26678E+00 -2.27256E+00 -2.27807E+00 -2.28340E+00 -2.28829E+00
  -2.29259E+00 -2.29630E+00 -2.29978E+00 -2.30314E+00 -2.30636E+00 -2.30913E+00 -2.31139E+00 -2.31328E+00 -2.31512E+00 -2.31691E+00
  -2.31854E+00 -2.31969E+00 -2.32045E+00 -2.32100E+00 -2.32162E+00 -2.32217E+00 -2.32246E+00 -2.32227E+00 -2.32182E+00 -2.32130E+00
  -2.32085E+00 -2.32025E+00 -2.31930E+00 -2.31791E+00 -2.31635E+00 -2.31476E+00 -2.31319E+00 -2.31129E+00
 NY background values follow
    -4.430E+00   -4.426E+00   -4.422E+00   -4.418E+00   -4.413E+00   -4.409E+00   -4.405E+00   -4.401E+00   -4.397E+00   -4.393E+00
    -4.389E+00   -4.385E+00   -4.381E+00   -4.377E+00   -4.373E+00   -4.369E+00   -4.364E+00   -4.360E+00   -4.356E+00   -4.352E+00
    -4.348E+00   -4.344E+00   -4.340E+00   -4.336E+00   -4.332E+00   -4.328E+00   -4.323E+00   -4.319E+00   -4.315E+00   -4.311E+00
    -4.307E+00   -4.303E+00   -4.299E+00   -4.295E+00   -4.291E+00   -4.287E+00   -4.283E+00   -4.278E+00   -4.274E+00   -4.270E+00
    -4.266E+00   -4.262E+00   -4.258E+00   -4.254E+00   -4.250E+00   -4.246E+00   -4.242E+00   -4.237E+00   -4.233E+00   -4.229E+00
    -4.225E+00   -4.221E+00   -4.217E+00   -4.213E+00   -4.209E+00   -4.205E+00   -4.200E+00   -4.196E+00   -4.192E+00   -4.188E+00
    -4.184E+00   -4.180E+00   -4.176E+00   -4.172E+00   -4.168E+00   -4.164E+00   -4.159E+00   -4.155E+00   -4.151E+00   -4.147E+00
    -4.143E+00   -4.139E+00   -4.135E+00   -4.131E+00   -4.127E+00   -4.122E+00   -4.118E+00   -4.114E+00   -4.110E+00   -4.106E+00
    -4.102E+00   -4.098E+00   -4.094E+00   -4.090E+00   -4.085E+00   -4.081E+00   -4.077E+00   -4.073E+00   -4.069E+00   -4.065E+00
    -4.061E+00   -4.057E+00   -4.053E+00   -4.048E+00   -4.044E+00   -4.040E+00   -4.036E+00   -4.032E+00   -4.028E+00   -4.024E+00
    -4.020E+00   -4.015E+00   -4.011E+00   -4.007E+00   -4.003E+00   -3.999E+00   -3.995E+00   -3.991E+00   -3.987E+00   -3.982E+00
    -3.978E+00   -3.974E+00   -3.970E+00   -3.966E+00   -3.962E+00   -3.958E+00   -3.954E+00   -3.950E+00   -3.945E+00   -3.941E+00
    -3.937E+00   -3.933E+00   -3.929E+00   -3.925E+00   -3.921E+00   -3.916E+00   -3.912E+00   -3.908E+00   -3.904E+00   -3.900E+00
    -3.896E+00   -3.892E+00   -3.888E+00   -3.883E+00   -3.879E+00   -3.875E+00   -3.871E+00   -3.867E+00   -3.863E+00   -3.859E+00
    -3.855E+00   -3.850E+00   -3.846E+00   -3.842E+00   -3.838E+00   -3.834E+00   -3.830E+00   -3.826E+00   -3.821E+00   -3.817E+00
    -3.813E+00   -3.809E+00   -3.805E+00   -3.801E+00   -3.797E+00   -3.793E+00   -3.788E+00   -3.784E+00   -3.780E+00   -3.776E+00
    -3.772E+00   -3.768E+00   -3.764E+00   -3.759E+00   -3.755E+00   -3.751E+00   -3.747E+00   -3.743E+00   -3.739E+00   -3.735E+00
    -3.730E+00   -3.726E+00   -3.722E+00   -3.718E+00   -3.714E+00   -3.710E+00   -3.706E+00   -3.701E+00   -3.697E+00   -3.693E+00
    -3.689E+00   -3.685E+00   -3.681E+00   -3.676E+00   -3.672E+00   -3.668E+00   -3.664E+00   -3.660E+00   -3.656E+00   -3.652E+00
    -3.647E+00   -3.643E+00   -3.639E+00   -3.635E+00   -3.631E+00   -3.627E+00   -3.623E+00   -3.618E+00   -3.614E+00   -3.610E+00
    -3.606E+00   -3.602E+00   -3.598E+00   -3.593E+00   -3.589E+00   -3.585E+00   -3.581E+00   -3.577E+00   -3.573E+00   -3.568E+00
    -3.564E+00   -3.560E+00   -3.556E+00   -3.552E+00   -3.548E+00   -3.543E+00   -3.539E+00   -3.535E+00   -3.531E+00   -3.527E+00
    -3.523E+00   -3.518E+00   -3.514E+00   -3.510E+00   -3.506E+00   -3.502E+00   -3.498E+00   -3.493E+00   -3.489E+00   -3.485E+00
    -3.481E+00   -3.477E+00   -3.473E+00   -3.468E+00   -3.464E+00   -3.460E+00   -3.456E+00   -3.452E+00   -3.448E+00   -3.443E+00
    -3.439E+00   -3.435E+00   -3.431E+00   -3.427E+00   -3.423E+00   -3.418E+00   -3.414E+00   -3.410E+00   -3.406E+00   -3.402E+00
    -3.398E+00   -3.393E+00   -3.389E+00   -3.385E+00   -3.381E+00   -3.377E+00   -3.372E+00   -3.368E+00   -3.364E+00   -3.360E+00
    -3.356E+00   -3.352E+00   -3.347E+00   -3.343E+00   -3.339E+00   -3.335E+00   -3.331E+00   -3.327E+00   -3.322E+00   -3.318E+00
    -3.314E+00   -3.310E+00   -3.306E+00   -3.301E+00   -3.297E+00   -3.293E+00   -3.289E+00   -3.285E+00   -3.281E+00   -3.276E+00
    -3.272E+00   -3.268E+00   -3.264E+00   -3.260E+00   -3.255E+00   -3.251E+00   -3.247E+00   -3.243E+00   -3.239E+00   -3.235E+00
    -3.230E+00   -3.226E+00   -3.222E+00   -3.218E+00   -3.214E+00   -3.209E+00   -3.205E+00   -3.201E+00   -3.197E+00   -3.193E+00
    -3.188E+00   -3.184E+00   -3.180E+00   -3.176E+00   -3.172E+00   -3.168E+00   -3.163E+00   -3.159E+00   -3.155E+00   -3.151E+00
    -3.147E+00   -3.142E+00   -3.138E+00   -3.134E+00   -3.130E+00   -3.126E+00   -3.121E+00   -3.117E+00   -3.113E+00   -3.109E+00
    -3.105E+00   -3.101E+00   -3.096E+00   -3.092E+00   -3.088E+00   -3.084E+00   -3.080E+00   -3.075E+00   -3.071E+00   -3.067E+00
    -3.063E+00   -3.059E+00   -3.054E+00   -3.050E+00   -3.046E+00   -3.042E+00   -3.038E+00   -3.033E+00   -3.029E+00   -3.025E+00
    -3.021E+00   -3.017E+00   -3.012E+00   -3.008E+00   -3.004E+00   -3.000E+00   -2.996E+00   -2.991E+00   -2.987E+00   -2.983E+00
    -2.979E+00   -2.975E+00   -2.971E+00   -2.966E+00   -2.962E+00   -2.958E+00   -2.954E+00   -2.950E+00   -2.945E+00   -2.941E+00
    -2.937E+00   -2.933E+00   -2.929E+00   -2.924E+00   -2.920E+00   -2.916E+00   -2.912E+00   -2.908E+00   -2.903E+00   -2.899E+00
    -2.895E+00   -2.891E+00   -2.887E+00   -2.882E+00   -2.878E+00   -2.874E+00   -2.870E+00   -2.866E+00   -2.861E+00   -2.857E+00
    -2.853E+00   -2.849E+00   -2.845E+00   -2.840E+00   -2.836E+00   -2.832E+00   -2.828E+00   -2.824E+00   -2.819E+00   -2.815E+00
    -2.811E+00   -2.807E+00   -2.802E+00   -2.798E+00   -2.794E+00   -2.790E+00   -2.786E+00   -2.781E+00   -2.777E+00   -2.773E+00
    -2.769E+00   -2.765E+00   -2.760E+00   -2.756E+00   -2.752E+00   -2.748E+00   -2.744E+00   -2.739E+00   -2.735E+00   -2.731E+00
    -2.727E+00   -2.723E+00   -2.718E+00   -2.714E+00   -2.710E+00   -2.706E+00   -2.702E+00   -2.697E+00   -2.693E+00   -2.689E+00
    -2.685E+00   -2.681E+00   -2.676E+00   -2.672E+00   -2.668E+00   -2.664E+00   -2.659E+00   -2.655E+00   -2.651E+00   -2.647E+00
    -2.643E+00   -2.638E+00   -2.634E+00   -2.630E+00   -2.626E+00   -2.622E+00   -2.617E+00   -2.613E+00   -2.609E+00   -2.605E+00
    -2.601E+00   -2.596E+00   -2.592E+00   -2.588E+00   -2.584E+00   -2.579E+00   -2.575E+00   -2.571E+00   -2.567E+00   -2.563E+00
    -2.558E+00   -2.554E+00   -2.550E+00   -2.546E+00   -2.542E+00   -2.537E+00   -2.533E+00   -2.529E+00   -2.525E+00   -2.521E+00
    -2.516E+00   -2.512E+00   -2.508E+00   -2.504E+00   -2.499E+00   -2.495E+00   -2.491E+00   -2.487E+00   -2.483E+00   -2.478E+00
    -2.474E+00   -2.470E+00   -2.466E+00   -2.462E+00   -2.457E+00   -2.453E+00   -2.449E+00   -2.445E+00   -2.440E+00   -2.436E+00
    -2.432E+00   -2.428E+00   -2.424E+00   -2.419E+00   -2.415E+00   -2.411E+00   -2.407E+00   -2.403E+00   -2.398E+00   -2.394E+00
    -2.390E+00   -2.386E+00   -2.381E+00   -2.377E+00   -2.373E+00   -2.369E+00   -2.365E+00   -2.360E+00
 Ala      Conc. = 6.66E+01
