 LCModel (Version 6.3-1L) Copyright: S.W. Provencher.          Ref.: Magn. Reson. Med. 30:672-679 (1993).                
 Slice#2 Row#3 Col#13  K_02_press_1_raw_act
 36 lines in following concentration table = NCONC+1
    Conc.  %SD /Cr+PCr  Metabolite                                         
 5.00E+04  24% 883.598 Ala                                                 
   38.763  36%   0.686 Asp                                                 
    0.000 999%   0.000 Cr                                                  
   56.541 213%   1.000 PCr                                                 
   23.073  36%   0.408 GABA                                                
   23.239  36%   0.411 Glc                                                 
 2.06E+03  55%  36.482 Gln                                                 
    0.000 999%   0.000 Glu                                                 
    0.000 999%   0.000 GPC                                                 
  238.437  23%   4.217 PCh                                                 
  815.323  38%  14.420 GSH                                                 
 2.52E+03  26%  44.637 Ins                                                 
 1.30E+04  62% 229.246 Lac                                                 
    0.000 999%   0.000 NAA                                                 
    0.000 999%   0.000 NAAG                                                
    7.844  36%   0.139 Scyllo                                              
   38.957  36%   0.689 Tau                                                 
    5.670 215%   0.100 -CrCH2                                              
  238.437  23%   4.217 GPC+PCh                                             
    0.000 999%   0.000 NAA+NAAG                                            
   56.541 213%   1.000 Cr+PCr                                              
 2.06E+03  55%  36.482 Glu+Gln                                             
 2.01E+05   9% 3.5E+03 Lip13a                                              
    0.000 999%   0.000 Lip13b                                              
 5.36E+04   9% 947.686 Lip09                                               
 1.79E+04  23% 315.921 MM09                                                
 2.96E+04   9% 523.136 Lip20                                               
    0.000 999%   0.000 MM20                                                
 1.19E+04  24% 210.335 MM12                                                
 7.54E+04  16% 1.3E+03+MM14                                                
 3.21E+04  21% 567.872+MM17                                                
 2.01E+05   9% 3.5E+03 Lip13a+Lip13b                                       
 2.88E+05   5% 5.1E+03 MM14+Lip13a+Lip13b+MM12                             
 7.14E+04   6% 1.3E+03 MM09+Lip09                                          
 2.96E+04   9% 523.136 MM20+Lip20                                          
   6 lines in following misc. output table
  FWHM = 0.153 ppm    S/N = 148                                            
  Data shift = 0.015 ppm                                                   
  Ph:  72 deg      10.8 deg/ppm                                            
  alphaB,S = 8.5E+01,   2.9E+02                                            
    7 spline knots.   Ns = 9(2)                                            
  ( 8) 2 infls.   ( 1) 1 extrs.                                            
  498 points on ppm-axis = NY
      4.000000     3.992357     3.984714     3.977070     3.969427     3.961784     3.954141     3.946497     3.938854     3.931211
      3.923568     3.915925     3.908281     3.900638     3.892995     3.885352     3.877708     3.870065     3.862422     3.854779
      3.847136     3.839492     3.831849     3.824206     3.816563     3.808919     3.801276     3.793633     3.785990     3.778347
      3.770703     3.763060     3.755417     3.747774     3.740130     3.732487     3.724844     3.717201     3.709558     3.701914
      3.694271     3.686628     3.678985     3.671341     3.663698     3.656055     3.648412     3.640769     3.633125     3.625482
      3.617839     3.610196     3.602552     3.594909     3.587266     3.579623     3.571980     3.564336     3.556693     3.549050
      3.541407     3.533763     3.526120     3.518477     3.510834     3.503191     3.495547     3.487904     3.480261     3.472618
      3.464974     3.457331     3.449688     3.442045     3.434402     3.426758     3.419115     3.411472     3.403829     3.396185
      3.388542     3.380899     3.373256     3.365613     3.357969     3.350326     3.342683     3.335040     3.327396     3.319753
      3.312110     3.304467     3.296824     3.289180     3.281537     3.273894     3.266251     3.258607     3.250964     3.243321
      3.235678     3.228034     3.220391     3.212748     3.205105     3.197462     3.189818     3.182175     3.174532     3.166889
      3.159245     3.151602     3.143959     3.136316     3.128673     3.121029     3.113386     3.105743     3.098100     3.090456
      3.082813     3.075170     3.067527     3.059884     3.052240     3.044597     3.036954     3.029311     3.021667     3.014024
      3.006381     2.998738     2.991095     2.983451     2.975808     2.968165     2.960522     2.952878     2.945235     2.937592
      2.929949     2.922306     2.914662     2.907019     2.899376     2.891733     2.884089     2.876446     2.868803     2.861160
      2.853517     2.845873     2.838230     2.830587     2.822944     2.815300     2.807657     2.800014     2.792371     2.784728
      2.777084     2.769441     2.761798     2.754155     2.746511     2.738868     2.731225     2.723582     2.715939     2.708295
      2.700652     2.693009     2.685366     2.677722     2.670079     2.662436     2.654793     2.647150     2.639506     2.631863
      2.624220     2.616577     2.608933     2.601290     2.593647     2.586004     2.578361     2.570717     2.563074     2.555431
      2.547788     2.540144     2.532501     2.524858     2.517215     2.509572     2.501928     2.494285     2.486642     2.478999
      2.471355     2.463712     2.456069     2.448426     2.440783     2.433139     2.425496     2.417853     2.410210     2.402566
      2.394923     2.387280     2.379637     2.371994     2.364350     2.356707     2.349064     2.341421     2.333777     2.326134
      2.318491     2.310848     2.303205     2.295561     2.287918     2.280275     2.272632     2.264988     2.257345     2.249702
      2.242059     2.234416     2.226772     2.219129     2.211486     2.203843     2.196199     2.188556     2.180913     2.173270
      2.165627     2.157983     2.150340     2.142697     2.135054     2.127410     2.119767     2.112124     2.104481     2.096838
      2.089194     2.081551     2.073908     2.066265     2.058621     2.050978     2.043335     2.035692     2.028049     2.020405
      2.012762     2.005119     1.997476     1.989833     1.982190     1.974546     1.966903     1.959260     1.951617     1.943974
      1.936331     1.928688     1.921045     1.913402     1.905759     1.898115     1.890472     1.882829     1.875186     1.867543
      1.859900     1.852257     1.844614     1.836971     1.829327     1.821684     1.814041     1.806398     1.798755     1.791112
      1.783469     1.775826     1.768183     1.760540     1.752896     1.745253     1.737610     1.729967     1.722324     1.714681
      1.707038     1.699395     1.691752     1.684108     1.676465     1.668822     1.661179     1.653536     1.645893     1.638250
      1.630607     1.622964     1.615321     1.607677     1.600034     1.592391     1.584748     1.577105     1.569462     1.561819
      1.554176     1.546533     1.538890     1.531246     1.523603     1.515960     1.508317     1.500674     1.493031     1.485388
      1.477745     1.470102     1.462458     1.454815     1.447172     1.439529     1.431886     1.424243     1.416600     1.408957
      1.401314     1.393671     1.386027     1.378384     1.370741     1.363098     1.355455     1.347812     1.340169     1.332526
      1.324883     1.317240     1.309596     1.301953     1.294310     1.286667     1.279024     1.271381     1.263738     1.256095
      1.248452     1.240808     1.233165     1.225522     1.217879     1.210236     1.202593     1.194950     1.187307     1.179664
      1.172021     1.164377     1.156734     1.149091     1.141448     1.133805     1.126162     1.118519     1.110876     1.103233
      1.095590     1.087946     1.080303     1.072660     1.065017     1.057374     1.049731     1.042088     1.034445     1.026802
      1.019158     1.011515     1.003872     0.996229     0.988586     0.980943     0.973300     0.965657     0.958014     0.950371
      0.942727     0.935084     0.927441     0.919798     0.912155     0.904512     0.896869     0.889226     0.881583     0.873940
      0.866296     0.858653     0.851010     0.843367     0.835724     0.828081     0.820438     0.812795     0.805152     0.797508
      0.789865     0.782222     0.774579     0.766936     0.759293     0.751650     0.744007     0.736364     0.728721     0.721077
      0.713434     0.705791     0.698148     0.690505     0.682862     0.675219     0.667576     0.659933     0.652290     0.644646
      0.637003     0.629360     0.621717     0.614074     0.606431     0.598788     0.591145     0.583502     0.575858     0.568215
      0.560572     0.552929     0.545286     0.537643     0.530000     0.522357     0.514714     0.507071     0.499427     0.491784
      0.484141     0.476498     0.468855     0.461212     0.453569     0.445925     0.438282     0.430639     0.422996     0.415353
      0.407710     0.400067     0.392424     0.384780     0.377137     0.369494     0.361851     0.354208     0.346565     0.338922
      0.331278     0.323635     0.315992     0.308349     0.300706     0.293063     0.285420     0.277777     0.270133     0.262490
      0.254847     0.247204     0.239561     0.231918     0.224275     0.216631     0.208988     0.201345
 NY phased data points follow
   4.87543E+01  4.67053E+01  4.78562E+01  5.13623E+01  4.44173E+01  4.95727E+01  4.93679E+01  4.97618E+01  4.76197E+01  4.83416E+01
   5.08671E+01  4.97214E+01  5.22815E+01  4.78440E+01  4.72563E+01  4.69174E+01  4.51966E+01  4.86355E+01  4.84003E+01  4.80959E+01
   5.13673E+01  5.10296E+01  4.71698E+01  4.68611E+01  5.07508E+01  4.73267E+01  5.03979E+01  4.78826E+01  5.25369E+01  4.97200E+01
   5.25963E+01  4.71682E+01  4.70381E+01  4.99697E+01  4.77401E+01  4.85947E+01  4.78777E+01  5.09217E+01  4.67694E+01  5.19043E+01
   4.83676E+01  5.07082E+01  4.78495E+01  5.28979E+01  4.93479E+01  5.19758E+01  5.23422E+01  5.07046E+01  4.91690E+01  4.84264E+01
   5.15904E+01  5.18791E+01  4.83060E+01  5.19131E+01  4.96460E+01  4.99041E+01  5.06196E+01  4.91684E+01  4.95708E+01  5.11224E+01
   5.11450E+01  5.05939E+01  4.70912E+01  4.76337E+01  5.01026E+01  5.02201E+01  4.82491E+01  5.09127E+01  5.23324E+01  4.66296E+01
   5.02794E+01  5.05023E+01  5.33907E+01  4.90959E+01  5.47080E+01  4.73769E+01  5.05643E+01  4.94067E+01  5.10710E+01  4.74454E+01
   4.78923E+01  5.07653E+01  4.85643E+01  5.27560E+01  4.73013E+01  5.04624E+01  4.77908E+01  5.01560E+01  5.00582E+01  5.00989E+01
   5.10892E+01  5.10185E+01  5.05837E+01  4.78868E+01  5.20398E+01  5.31795E+01  5.13182E+01  5.23612E+01  5.04852E+01  5.26561E+01
   5.08649E+01  5.73206E+01  5.48956E+01  5.08312E+01  5.22709E+01  5.01216E+01  5.42269E+01  5.12575E+01  4.82134E+01  5.12157E+01
   5.36000E+01  5.13226E+01  5.24750E+01  5.42891E+01  5.02294E+01  4.89191E+01  5.33867E+01  5.37202E+01  5.22903E+01  5.36103E+01
   5.66414E+01  5.57308E+01  5.38372E+01  5.67931E+01  5.46388E+01  5.62361E+01  5.49110E+01  5.86660E+01  5.30538E+01  5.65047E+01
   5.09530E+01  5.24484E+01  5.68235E+01  5.37747E+01  5.59331E+01  5.70638E+01  5.50157E+01  5.52666E+01  5.91218E+01  5.45982E+01
   5.61820E+01  6.27734E+01  5.54623E+01  5.78398E+01  5.65136E+01  5.57498E+01  5.83235E+01  6.10612E+01  5.79711E+01  5.80446E+01
   5.74160E+01  5.97127E+01  5.73823E+01  5.89841E+01  5.66607E+01  6.01573E+01  5.61879E+01  5.74737E+01  6.11562E+01  6.20048E+01
   6.06804E+01  5.72726E+01  5.75623E+01  5.78339E+01  6.27995E+01  6.00320E+01  6.19502E+01  5.67884E+01  5.99760E+01  5.89234E+01
   6.31163E+01  6.19753E+01  5.87650E+01  6.31741E+01  6.08792E+01  6.00446E+01  6.47474E+01  6.38245E+01  6.25393E+01  6.25169E+01
   6.58410E+01  6.43739E+01  6.34644E+01  6.49930E+01  6.65063E+01  6.82912E+01  6.59808E+01  6.43589E+01  6.65383E+01  6.82582E+01
   7.04453E+01  7.15414E+01  7.25249E+01  7.12613E+01  7.41141E+01  6.93937E+01  7.44211E+01  7.66930E+01  7.78890E+01  7.52356E+01
   7.74186E+01  7.90270E+01  8.01020E+01  8.54608E+01  7.95550E+01  8.24112E+01  8.20265E+01  8.36749E+01  8.46986E+01  8.61006E+01
   8.59255E+01  8.55922E+01  8.58382E+01  8.76705E+01  9.07843E+01  9.27516E+01  9.32086E+01  9.12997E+01  8.98309E+01  9.08600E+01
   8.89304E+01  9.08965E+01  9.04568E+01  8.98331E+01  9.48027E+01  9.34915E+01  9.31388E+01  9.48528E+01  9.75789E+01  9.85131E+01
   9.83502E+01  9.55709E+01  9.89409E+01  9.86555E+01  9.80243E+01  1.00159E+02  1.03958E+02  1.00612E+02  1.02921E+02  1.01858E+02
   9.92533E+01  1.03936E+02  1.01520E+02  1.00979E+02  1.04163E+02  1.03428E+02  1.02764E+02  1.02627E+02  1.01570E+02  1.03727E+02
   1.02554E+02  1.02479E+02  1.04108E+02  1.05074E+02  1.03146E+02  1.06414E+02  1.07293E+02  1.10296E+02  1.08415E+02  1.10833E+02
   1.18329E+02  1.19298E+02  1.16086E+02  1.14685E+02  1.16107E+02  1.18156E+02  1.20649E+02  1.25894E+02  1.27080E+02  1.28862E+02
   1.36103E+02  1.35792E+02  1.40550E+02  1.40117E+02  1.48741E+02  1.46429E+02  1.48291E+02  1.50199E+02  1.59241E+02  1.58118E+02
   1.61021E+02  1.68157E+02  1.70122E+02  1.71477E+02  1.78064E+02  1.83171E+02  1.88343E+02  1.92395E+02  1.97729E+02  2.07183E+02
   2.11872E+02  2.11939E+02  2.20922E+02  2.26661E+02  2.34366E+02  2.44083E+02  2.52484E+02  2.63553E+02  2.66688E+02  2.81554E+02
   2.87358E+02  3.01455E+02  3.15007E+02  3.29002E+02  3.46505E+02  3.54928E+02  3.73405E+02  3.92203E+02  4.11269E+02  4.23599E+02
   4.47549E+02  4.63898E+02  4.85758E+02  5.04670E+02  5.29897E+02  5.58263E+02  5.84282E+02  6.12988E+02  6.46009E+02  6.77088E+02
   7.12298E+02  7.47568E+02  7.88778E+02  8.26949E+02  8.62883E+02  9.10036E+02  9.52689E+02  9.94220E+02  1.04222E+03  1.08488E+03
   1.12850E+03  1.17374E+03  1.20591E+03  1.24268E+03  1.27386E+03  1.30120E+03  1.31981E+03  1.33388E+03  1.34324E+03  1.34345E+03
   1.33822E+03  1.32848E+03  1.30797E+03  1.28553E+03  1.25505E+03  1.21453E+03  1.17757E+03  1.13211E+03  1.08299E+03  1.03299E+03
   9.75084E+02  9.24548E+02  8.66455E+02  8.11430E+02  7.58437E+02  7.13136E+02  6.65265E+02  6.25453E+02  5.83954E+02  5.47577E+02
   5.17826E+02  4.85733E+02  4.59317E+02  4.39427E+02  4.19336E+02  3.98347E+02  3.78519E+02  3.58350E+02  3.48635E+02  3.34065E+02
   3.22888E+02  3.12178E+02  3.01531E+02  2.90584E+02  2.84744E+02  2.79920E+02  2.70583E+02  2.64693E+02  2.62292E+02  2.54210E+02
   2.49309E+02  2.46791E+02  2.43729E+02  2.41157E+02  2.37475E+02  2.34875E+02  2.29871E+02  2.31193E+02  2.27551E+02  2.26276E+02
   2.26119E+02  2.20643E+02  2.20464E+02  2.19080E+02  2.22645E+02  2.19617E+02  2.16053E+02  2.17435E+02  2.15118E+02  2.14188E+02
   2.11575E+02  2.07406E+02  2.05437E+02  2.02161E+02  1.98394E+02  1.99890E+02  1.91587E+02  1.88484E+02  1.89065E+02  1.84090E+02
   1.82534E+02  1.77278E+02  1.75321E+02  1.69955E+02  1.69661E+02  1.66089E+02  1.62419E+02  1.60216E+02  1.57385E+02  1.54514E+02
   1.48659E+02  1.43264E+02  1.41648E+02  1.43233E+02  1.38575E+02  1.40543E+02  1.35349E+02  1.31267E+02  1.26452E+02  1.26867E+02
   1.20491E+02  1.19952E+02  1.17367E+02  1.12367E+02  1.13992E+02  1.08999E+02  1.08738E+02  1.08607E+02  1.06285E+02  1.03191E+02
   9.94872E+01  9.94967E+01  9.89050E+01  9.76234E+01  9.63110E+01  9.26578E+01  9.18873E+01  8.96102E+01  9.03677E+01  8.91195E+01
   8.48796E+01  8.59945E+01  8.10140E+01  8.14550E+01  8.12991E+01  7.73547E+01  7.78443E+01  7.49153E+01  7.49493E+01  7.31054E+01
   7.37312E+01  7.09510E+01  6.96412E+01  7.39333E+01  6.94612E+01  6.76140E+01  6.60788E+01  6.63349E+01  6.59955E+01  6.08896E+01
   6.20018E+01  6.09099E+01  6.35736E+01  6.22295E+01  6.20830E+01  5.86414E+01  5.66876E+01  6.07708E+01  5.77122E+01  5.43926E+01
   5.57349E+01  5.48913E+01  5.43723E+01  5.30612E+01  5.24200E+01  5.21004E+01  5.07544E+01  5.22917E+01  4.96309E+01  4.91992E+01
   5.07484E+01  5.24316E+01  4.54574E+01  5.05881E+01  4.73427E+01  5.04550E+01  4.74506E+01  4.27096E+01
 NY points of the fit to the data follow
   4.96305E+01  5.21743E+01  4.89709E+01  5.11783E+01  4.90059E+01  5.09812E+01  4.96879E+01  5.10116E+01  4.86096E+01  4.98733E+01
   4.79974E+01  4.98863E+01  4.81272E+01  4.99151E+01  4.80570E+01  5.12034E+01  4.84775E+01  5.13491E+01  4.79674E+01  5.08484E+01
   4.71021E+01  5.01652E+01  4.57541E+01  4.94823E+01  4.55790E+01  4.93674E+01  4.58551E+01  4.98161E+01  4.69290E+01  5.08993E+01
   4.83039E+01  5.15802E+01  4.94628E+01  5.20584E+01  5.00424E+01  5.19448E+01  5.05558E+01  5.21091E+01  5.11286E+01  5.18847E+01
   5.11965E+01  5.17256E+01  5.11466E+01  5.10429E+01  5.05241E+01  4.99990E+01  4.95030E+01  4.86378E+01  4.81370E+01  4.75022E+01
   4.75331E+01  4.70809E+01  4.75832E+01  4.73521E+01  4.82567E+01  4.82482E+01  4.91174E+01  4.88384E+01  4.94916E+01  4.89558E+01
   4.93985E+01  4.87020E+01  4.90057E+01  4.83427E+01  4.87283E+01  4.81217E+01  4.85180E+01  4.79714E+01  4.83638E+01  4.77936E+01
   4.80808E+01  4.74830E+01  4.76869E+01  4.71296E+01  4.72846E+01  4.67826E+01  4.69318E+01  4.64948E+01  4.66514E+01  4.63289E+01
   4.65040E+01  4.63140E+01  4.65787E+01  4.65940E+01  4.71098E+01  4.75680E+01  4.79060E+01  4.84752E+01  4.87901E+01  4.96365E+01
   4.99543E+01  5.11426E+01  5.12603E+01  5.26408E+01  5.24464E+01  5.38747E+01  5.34032E+01  5.48827E+01  5.41094E+01  5.55218E+01
   5.44270E+01  5.56119E+01  5.43300E+01  5.52914E+01  5.39175E+01  5.46250E+01  5.33316E+01  5.38469E+01  5.27000E+01  5.30165E+01
   5.21277E+01  5.23908E+01  5.17775E+01  5.20030E+01  5.17359E+01  5.20500E+01  5.20023E+01  5.23211E+01  5.24678E+01  5.28940E+01
   5.31594E+01  5.37194E+01  5.40532E+01  5.47136E+01  5.50014E+01  5.56473E+01  5.58338E+01  5.64396E+01  5.65572E+01  5.71362E+01
   5.71959E+01  5.77067E+01  5.77208E+01  5.81853E+01  5.81849E+01  5.86119E+01  5.86084E+01  5.89957E+01  5.89998E+01  5.93165E+01
   5.93345E+01  5.96010E+01  5.96251E+01  5.98264E+01  5.98681E+01  6.00244E+01  6.00841E+01  6.01992E+01  6.02695E+01  6.03538E+01
   6.04160E+01  6.04511E+01  6.05210E+01  6.05460E+01  6.06259E+01  6.06568E+01  6.07354E+01  6.07564E+01  6.08390E+01  6.08795E+01
   6.09785E+01  6.10599E+01  6.11680E+01  6.12728E+01  6.13809E+01  6.14899E+01  6.15909E+01  6.16815E+01  6.17999E+01  6.18961E+01
   6.20430E+01  6.21674E+01  6.23826E+01  6.25220E+01  6.27801E+01  6.28759E+01  6.31482E+01  6.32432E+01  6.35281E+01  6.35901E+01
   6.39690E+01  6.41210E+01  6.45521E+01  6.48015E+01  6.52827E+01  6.55756E+01  6.60492E+01  6.64856E+01  6.69347E+01  6.74776E+01
   6.78633E+01  6.84393E+01  6.86368E+01  6.94995E+01  6.97751E+01  7.08022E+01  7.09872E+01  7.20836E+01  7.21522E+01  7.33736E+01
   7.34099E+01  7.47230E+01  7.48042E+01  7.61393E+01  7.62448E+01  7.75966E+01  7.78288E+01  7.91976E+01  7.96035E+01  8.09271E+01
   8.14726E+01  8.27208E+01  8.33912E+01  8.44768E+01  8.52250E+01  8.62480E+01  8.70893E+01  8.79445E+01  8.87003E+01  8.95741E+01
   9.03787E+01  9.11587E+01  9.19189E+01  9.26786E+01  9.32562E+01  9.38335E+01  9.42919E+01  9.48508E+01  9.52908E+01  9.57804E+01
   9.61793E+01  9.65760E+01  9.70321E+01  9.74247E+01  9.80562E+01  9.83737E+01  9.91455E+01  9.93896E+01  1.00306E+02  1.00439E+02
   1.01505E+02  1.01616E+02  1.02832E+02  1.02909E+02  1.04217E+02  1.04348E+02  1.05727E+02  1.05879E+02  1.07293E+02  1.07547E+02
   1.08951E+02  1.09281E+02  1.10652E+02  1.11109E+02  1.12463E+02  1.13044E+02  1.14369E+02  1.15073E+02  1.16372E+02  1.17194E+02
   1.18510E+02  1.19441E+02  1.20791E+02  1.21836E+02  1.23241E+02  1.24410E+02  1.25920E+02  1.27279E+02  1.28933E+02  1.30516E+02
   1.32352E+02  1.34193E+02  1.36249E+02  1.38381E+02  1.40700E+02  1.43147E+02  1.45776E+02  1.48582E+02  1.51580E+02  1.54792E+02
   1.58228E+02  1.61910E+02  1.65852E+02  1.70073E+02  1.74587E+02  1.79409E+02  1.84555E+02  1.90035E+02  1.95862E+02  2.02043E+02
   2.08585E+02  2.15490E+02  2.22759E+02  2.30389E+02  2.38375E+02  2.46711E+02  2.55393E+02  2.64417E+02  2.73787E+02  2.83516E+02
   2.93634E+02  3.04189E+02  3.15265E+02  3.26986E+02  3.39540E+02  3.53206E+02  3.68414E+02  3.85846E+02  4.06385E+02  4.28539E+02
   4.46691E+02  4.67231E+02  4.86285E+02  5.09663E+02  5.31208E+02  5.57671E+02  5.80359E+02  6.14996E+02  6.43179E+02  6.80322E+02
   7.10685E+02  7.50586E+02  7.83216E+02  8.27265E+02  8.63648E+02  9.10164E+02  9.50707E+02  9.97466E+02  1.04023E+03  1.08716E+03
   1.12891E+03  1.17039E+03  1.20939E+03  1.24208E+03  1.27526E+03  1.29801E+03  1.32069E+03  1.33275E+03  1.34384E+03  1.34236E+03
   1.34063E+03  1.32558E+03  1.30951E+03  1.28409E+03  1.25467E+03  1.21800E+03  1.17697E+03  1.13201E+03  1.08162E+03  1.03136E+03
   9.75097E+02  9.23399E+02  8.66202E+02  8.14842E+02  7.60224E+02  7.13667E+02  6.64863E+02  6.24311E+02  5.83536E+02  5.49507E+02
   5.15966E+02  4.87205E+02  4.60019E+02  4.36904E+02  4.15220E+02  3.95798E+02  3.78611E+02  3.62787E+02  3.48991E+02  3.35883E+02
   3.24237E+02  3.12993E+02  3.03304E+02  2.93487E+02  2.85209E+02  2.77124E+02  2.70228E+02  2.64139E+02  2.58642E+02  2.53654E+02
   2.49142E+02  2.45090E+02  2.41492E+02  2.38339E+02  2.35615E+02  2.33293E+02  2.31336E+02  2.29696E+02  2.28313E+02  2.27123E+02
   2.26058E+02  2.25049E+02  2.24030E+02  2.22941E+02  2.21731E+02  2.20361E+02  2.18799E+02  2.17027E+02  2.15038E+02  2.12834E+02
   2.10426E+02  2.07832E+02  2.05075E+02  2.02180E+02  1.99175E+02  1.96087E+02  1.92943E+02  1.89767E+02  1.86578E+02  1.83395E+02
   1.80232E+02  1.77099E+02  1.74004E+02  1.70951E+02  1.67943E+02  1.64979E+02  1.62059E+02  1.59181E+02  1.56341E+02  1.53538E+02
   1.50767E+02  1.48027E+02  1.45315E+02  1.42630E+02  1.39970E+02  1.37336E+02  1.34727E+02  1.32145E+02  1.29590E+02  1.27063E+02
   1.24567E+02  1.22104E+02  1.19675E+02  1.17284E+02  1.14931E+02  1.12620E+02  1.10353E+02  1.08130E+02  1.05955E+02  1.03828E+02
   1.01751E+02  9.97248E+01  9.77504E+01  9.58286E+01  9.39596E+01  9.21439E+01  9.03812E+01  8.86717E+01  8.70147E+01  8.54101E+01
   8.38570E+01  8.23550E+01  8.09029E+01  7.95002E+01  7.81454E+01  7.68378E+01  7.55761E+01  7.43594E+01  7.31860E+01  7.20552E+01
   7.09653E+01  6.99155E+01  6.89042E+01  6.79305E+01  6.69927E+01  6.60899E+01  6.52208E+01  6.43843E+01  6.35791E+01  6.28042E+01
   6.20583E+01  6.13405E+01  6.06495E+01  5.99846E+01  5.93444E+01  5.87283E+01  5.81350E+01  5.75639E+01  5.70137E+01  5.64840E+01
   5.59735E+01  5.54817E+01  5.50075E+01  5.45504E+01  5.41094E+01  5.36840E+01  5.32731E+01  5.28763E+01  5.24925E+01  5.21215E+01
   5.17621E+01  5.14140E+01  5.10760E+01  5.07478E+01  5.04283E+01  5.01170E+01  4.98128E+01  4.95152E+01
 NY background values follow
    -5.505E+01   -5.532E+01   -5.560E+01   -5.587E+01   -5.614E+01   -5.641E+01   -5.667E+01   -5.694E+01   -5.720E+01   -5.746E+01
    -5.772E+01   -5.798E+01   -5.824E+01   -5.849E+01   -5.875E+01   -5.900E+01   -5.925E+01   -5.950E+01   -5.974E+01   -5.999E+01
    -6.023E+01   -6.047E+01   -6.071E+01   -6.095E+01   -6.118E+01   -6.142E+01   -6.165E+01   -6.188E+01   -6.211E+01   -6.234E+01
    -6.257E+01   -6.279E+01   -6.301E+01   -6.323E+01   -6.345E+01   -6.367E+01   -6.388E+01   -6.410E+01   -6.431E+01   -6.452E+01
    -6.473E+01   -6.494E+01   -6.514E+01   -6.535E+01   -6.555E+01   -6.575E+01   -6.595E+01   -6.614E+01   -6.634E+01   -6.653E+01
    -6.672E+01   -6.691E+01   -6.710E+01   -6.729E+01   -6.747E+01   -6.765E+01   -6.784E+01   -6.802E+01   -6.819E+01   -6.837E+01
    -6.854E+01   -6.872E+01   -6.889E+01   -6.906E+01   -6.922E+01   -6.939E+01   -6.955E+01   -6.972E+01   -6.988E+01   -7.004E+01
    -7.019E+01   -7.035E+01   -7.050E+01   -7.066E+01   -7.081E+01   -7.095E+01   -7.110E+01   -7.125E+01   -7.139E+01   -7.153E+01
    -7.167E+01   -7.181E+01   -7.195E+01   -7.208E+01   -7.222E+01   -7.235E+01   -7.248E+01   -7.261E+01   -7.273E+01   -7.286E+01
    -7.298E+01   -7.310E+01   -7.322E+01   -7.334E+01   -7.345E+01   -7.357E+01   -7.368E+01   -7.379E+01   -7.390E+01   -7.401E+01
    -7.412E+01   -7.422E+01   -7.432E+01   -7.442E+01   -7.452E+01   -7.462E+01   -7.472E+01   -7.481E+01   -7.490E+01   -7.499E+01
    -7.508E+01   -7.517E+01   -7.526E+01   -7.534E+01   -7.542E+01   -7.550E+01   -7.558E+01   -7.566E+01   -7.573E+01   -7.581E+01
    -7.588E+01   -7.595E+01   -7.602E+01   -7.608E+01   -7.615E+01   -7.621E+01   -7.628E+01   -7.634E+01   -7.639E+01   -7.645E+01
    -7.651E+01   -7.656E+01   -7.661E+01   -7.666E+01   -7.671E+01   -7.676E+01   -7.680E+01   -7.685E+01   -7.689E+01   -7.693E+01
    -7.697E+01   -7.700E+01   -7.704E+01   -7.707E+01   -7.710E+01   -7.714E+01   -7.716E+01   -7.719E+01   -7.722E+01   -7.724E+01
    -7.726E+01   -7.728E+01   -7.730E+01   -7.732E+01   -7.734E+01   -7.735E+01   -7.736E+01   -7.738E+01   -7.738E+01   -7.739E+01
    -7.740E+01   -7.740E+01   -7.741E+01   -7.741E+01   -7.741E+01   -7.741E+01   -7.741E+01   -7.740E+01   -7.740E+01   -7.739E+01
    -7.738E+01   -7.737E+01   -7.736E+01   -7.734E+01   -7.733E+01   -7.731E+01   -7.729E+01   -7.728E+01   -7.725E+01   -7.723E+01
    -7.721E+01   -7.718E+01   -7.716E+01   -7.713E+01   -7.710E+01   -7.707E+01   -7.703E+01   -7.700E+01   -7.696E+01   -7.693E+01
    -7.689E+01   -7.685E+01   -7.681E+01   -7.677E+01   -7.672E+01   -7.668E+01   -7.663E+01   -7.658E+01   -7.653E+01   -7.648E+01
    -7.643E+01   -7.637E+01   -7.632E+01   -7.626E+01   -7.621E+01   -7.615E+01   -7.609E+01   -7.602E+01   -7.596E+01   -7.590E+01
    -7.583E+01   -7.576E+01   -7.569E+01   -7.563E+01   -7.555E+01   -7.548E+01   -7.541E+01   -7.533E+01   -7.526E+01   -7.518E+01
    -7.510E+01   -7.502E+01   -7.494E+01   -7.486E+01   -7.477E+01   -7.469E+01   -7.460E+01   -7.451E+01   -7.443E+01   -7.434E+01
    -7.425E+01   -7.415E+01   -7.406E+01   -7.396E+01   -7.387E+01   -7.377E+01   -7.367E+01   -7.357E+01   -7.347E+01   -7.337E+01
    -7.327E+01   -7.317E+01   -7.306E+01   -7.295E+01   -7.285E+01   -7.274E+01   -7.263E+01   -7.252E+01   -7.241E+01   -7.229E+01
    -7.218E+01   -7.207E+01   -7.195E+01   -7.183E+01   -7.171E+01   -7.159E+01   -7.147E+01   -7.135E+01   -7.123E+01   -7.111E+01
    -7.098E+01   -7.086E+01   -7.073E+01   -7.060E+01   -7.048E+01   -7.035E+01   -7.022E+01   -7.008E+01   -6.995E+01   -6.982E+01
    -6.968E+01   -6.955E+01   -6.941E+01   -6.927E+01   -6.914E+01   -6.900E+01   -6.886E+01   -6.871E+01   -6.857E+01   -6.843E+01
    -6.829E+01   -6.814E+01   -6.799E+01   -6.785E+01   -6.770E+01   -6.755E+01   -6.740E+01   -6.725E+01   -6.710E+01   -6.695E+01
    -6.679E+01   -6.664E+01   -6.649E+01   -6.633E+01   -6.617E+01   -6.602E+01   -6.586E+01   -6.570E+01   -6.554E+01   -6.538E+01
    -6.522E+01   -6.505E+01   -6.489E+01   -6.473E+01   -6.456E+01   -6.440E+01   -6.423E+01   -6.406E+01   -6.389E+01   -6.373E+01
    -6.356E+01   -6.339E+01   -6.321E+01   -6.304E+01   -6.287E+01   -6.270E+01   -6.252E+01   -6.235E+01   -6.217E+01   -6.200E+01
    -6.182E+01   -6.164E+01   -6.146E+01   -6.128E+01   -6.110E+01   -6.092E+01   -6.074E+01   -6.056E+01   -6.038E+01   -6.019E+01
    -6.001E+01   -5.982E+01   -5.964E+01   -5.945E+01   -5.927E+01   -5.908E+01   -5.889E+01   -5.870E+01   -5.851E+01   -5.832E+01
    -5.813E+01   -5.794E+01   -5.775E+01   -5.756E+01   -5.736E+01   -5.717E+01   -5.698E+01   -5.678E+01   -5.659E+01   -5.639E+01
    -5.620E+01   -5.600E+01   -5.580E+01   -5.560E+01   -5.540E+01   -5.521E+01   -5.501E+01   -5.481E+01   -5.460E+01   -5.440E+01
    -5.420E+01   -5.400E+01   -5.380E+01   -5.359E+01   -5.339E+01   -5.319E+01   -5.298E+01   -5.278E+01   -5.257E+01   -5.236E+01
    -5.216E+01   -5.195E+01   -5.174E+01   -5.154E+01   -5.133E+01   -5.112E+01   -5.091E+01   -5.070E+01   -5.049E+01   -5.028E+01
    -5.007E+01   -4.986E+01   -4.965E+01   -4.943E+01   -4.922E+01   -4.901E+01   -4.880E+01   -4.858E+01   -4.837E+01   -4.816E+01
    -4.794E+01   -4.773E+01   -4.751E+01   -4.730E+01   -4.708E+01   -4.686E+01   -4.665E+01   -4.643E+01   -4.621E+01   -4.600E+01
    -4.578E+01   -4.556E+01   -4.534E+01   -4.512E+01   -4.491E+01   -4.469E+01   -4.447E+01   -4.425E+01   -4.403E+01   -4.381E+01
    -4.359E+01   -4.337E+01   -4.315E+01   -4.293E+01   -4.271E+01   -4.249E+01   -4.226E+01   -4.204E+01   -4.182E+01   -4.160E+01
    -4.138E+01   -4.115E+01   -4.093E+01   -4.071E+01   -4.049E+01   -4.026E+01   -4.004E+01   -3.982E+01   -3.959E+01   -3.937E+01
    -3.915E+01   -3.892E+01   -3.870E+01   -3.848E+01   -3.825E+01   -3.803E+01   -3.780E+01   -3.758E+01   -3.736E+01   -3.713E+01
    -3.691E+01   -3.668E+01   -3.646E+01   -3.623E+01   -3.601E+01   -3.579E+01   -3.556E+01   -3.534E+01   -3.511E+01   -3.489E+01
    -3.466E+01   -3.444E+01   -3.421E+01   -3.399E+01   -3.376E+01   -3.354E+01   -3.331E+01   -3.309E+01   -3.287E+01   -3.264E+01
    -3.242E+01   -3.219E+01   -3.197E+01   -3.174E+01   -3.152E+01   -3.130E+01   -3.107E+01   -3.085E+01   -3.062E+01   -3.040E+01
    -3.018E+01   -2.995E+01   -2.973E+01   -2.951E+01   -2.928E+01   -2.906E+01   -2.884E+01   -2.861E+01   -2.839E+01   -2.817E+01
    -2.795E+01   -2.773E+01   -2.750E+01   -2.728E+01   -2.706E+01   -2.684E+01   -2.662E+01   -2.640E+01   -2.618E+01   -2.596E+01
    -2.573E+01   -2.551E+01   -2.529E+01   -2.508E+01   -2.486E+01   -2.464E+01   -2.442E+01   -2.420E+01
 Ala      Conc. = 5.00E+04
