 LCModel (Version 6.3-1L) Copyright: S.W. Provencher.          Ref.: Magn. Reson. Med. 30:672-679 (1993).                
 Slice#1 Row#10 Col#11  K_02_press_1_raw_act
 36 lines in following concentration table = NCONC+1
    Conc.  %SD /Cr+PCr  Metabolite                                         
  178.303  42%   0.204 Ala                                                 
    0.000 999%   0.000 Asp                                                 
   88.303 204%   0.101 Cr                                                  
  787.021  24%   0.899 PCr                                                 
   62.516 182% 7.1E-02 GABA                                                
   75.663 160% 8.6E-02 Glc                                                 
  374.540  40%   0.428 Gln                                                 
 1.32E+03  14%   1.504 Glu                                                 
  314.219   6%   0.359 GPC                                                 
    0.000 999%   0.000 PCh                                                 
  217.506  25%   0.248 GSH                                                 
  719.917  24%   0.822 Ins                                                 
   27.866 282% 3.2E-02 Lac                                                 
 2.05E+03   6%   2.345 NAA                                                 
  577.716  18%   0.660 NAAG                                                
   50.156  42% 5.7E-02 Scyllo                                              
  304.585  50%   0.348 Tau                                                 
  579.041  14%   0.662 -CrCH2                                              
  314.219   6%   0.359 GPC+PCh                                             
 2.63E+03   3%   3.005 NAA+NAAG                                            
  875.324   6%   1.000 Cr+PCr                                              
 1.69E+03  14%   1.932 Glu+Gln                                             
 1.17E+03  48%   1.336 Lip13a                                              
    0.000 999%   0.000 Lip13b                                              
   81.757 332% 9.3E-02 Lip09                                               
 1.47E+03  19%   1.677 MM09                                                
  208.793  88%   0.239 Lip20                                               
 2.74E+03  13%   3.130 MM20                                                
  459.424  43%   0.525 MM12                                                
 1.81E+03  25%   2.070 MM14                                                
  949.427  24%   1.085 MM17                                                
 1.17E+03  48%   1.336 Lip13a+Lip13b                                       
 3.44E+03  10%   3.931 MM14+Lip13a+Lip13b+MM12                             
 1.55E+03  11%   1.771 MM09+Lip09                                          
 2.95E+03  11%   3.369 MM20+Lip20                                          
   6 lines in following misc. output table
  FWHM = 0.038 ppm    S/N =  16                                            
  Data shift = 0.000 ppm                                                   
  Ph:   5 deg      -0.1 deg/ppm                                            
  alphaB,S = 5.4E+00,   4.7E+01                                            
   14 spline knots.   Ns = 6(1)                                            
  ( 6) 3 infls.   ( 3) 1 extrs.                                            
  498 points on ppm-axis = NY
      4.000000     3.992357     3.984714     3.977070     3.969427     3.961784     3.954141     3.946497     3.938854     3.931211
      3.923568     3.915925     3.908281     3.900638     3.892995     3.885352     3.877708     3.870065     3.862422     3.854779
      3.847136     3.839492     3.831849     3.824206     3.816563     3.808919     3.801276     3.793633     3.785990     3.778347
      3.770703     3.763060     3.755417     3.747774     3.740130     3.732487     3.724844     3.717201     3.709558     3.701914
      3.694271     3.686628     3.678985     3.671341     3.663698     3.656055     3.648412     3.640769     3.633125     3.625482
      3.617839     3.610196     3.602552     3.594909     3.587266     3.579623     3.571980     3.564336     3.556693     3.549050
      3.541407     3.533763     3.526120     3.518477     3.510834     3.503191     3.495547     3.487904     3.480261     3.472618
      3.464974     3.457331     3.449688     3.442045     3.434402     3.426758     3.419115     3.411472     3.403829     3.396185
      3.388542     3.380899     3.373256     3.365613     3.357969     3.350326     3.342683     3.335040     3.327396     3.319753
      3.312110     3.304467     3.296824     3.289180     3.281537     3.273894     3.266251     3.258607     3.250964     3.243321
      3.235678     3.228034     3.220391     3.212748     3.205105     3.197462     3.189818     3.182175     3.174532     3.166889
      3.159245     3.151602     3.143959     3.136316     3.128673     3.121029     3.113386     3.105743     3.098100     3.090456
      3.082813     3.075170     3.067527     3.059884     3.052240     3.044597     3.036954     3.029311     3.021667     3.014024
      3.006381     2.998738     2.991095     2.983451     2.975808     2.968165     2.960522     2.952878     2.945235     2.937592
      2.929949     2.922306     2.914662     2.907019     2.899376     2.891733     2.884089     2.876446     2.868803     2.861160
      2.853517     2.845873     2.838230     2.830587     2.822944     2.815300     2.807657     2.800014     2.792371     2.784728
      2.777084     2.769441     2.761798     2.754155     2.746511     2.738868     2.731225     2.723582     2.715939     2.708295
      2.700652     2.693009     2.685366     2.677722     2.670079     2.662436     2.654793     2.647150     2.639506     2.631863
      2.624220     2.616577     2.608933     2.601290     2.593647     2.586004     2.578361     2.570717     2.563074     2.555431
      2.547788     2.540144     2.532501     2.524858     2.517215     2.509572     2.501928     2.494285     2.486642     2.478999
      2.471355     2.463712     2.456069     2.448426     2.440783     2.433139     2.425496     2.417853     2.410210     2.402566
      2.394923     2.387280     2.379637     2.371994     2.364350     2.356707     2.349064     2.341421     2.333777     2.326134
      2.318491     2.310848     2.303205     2.295561     2.287918     2.280275     2.272632     2.264988     2.257345     2.249702
      2.242059     2.234416     2.226772     2.219129     2.211486     2.203843     2.196199     2.188556     2.180913     2.173270
      2.165627     2.157983     2.150340     2.142697     2.135054     2.127410     2.119767     2.112124     2.104481     2.096838
      2.089194     2.081551     2.073908     2.066265     2.058621     2.050978     2.043335     2.035692     2.028049     2.020405
      2.012762     2.005119     1.997476     1.989833     1.982190     1.974546     1.966903     1.959260     1.951617     1.943974
      1.936331     1.928688     1.921045     1.913402     1.905759     1.898115     1.890472     1.882829     1.875186     1.867543
      1.859900     1.852257     1.844614     1.836971     1.829327     1.821684     1.814041     1.806398     1.798755     1.791112
      1.783469     1.775826     1.768183     1.760540     1.752896     1.745253     1.737610     1.729967     1.722324     1.714681
      1.707038     1.699395     1.691752     1.684108     1.676465     1.668822     1.661179     1.653536     1.645893     1.638250
      1.630607     1.622964     1.615321     1.607677     1.600034     1.592391     1.584748     1.577105     1.569462     1.561819
      1.554176     1.546533     1.538890     1.531246     1.523603     1.515960     1.508317     1.500674     1.493031     1.485388
      1.477745     1.470102     1.462458     1.454815     1.447172     1.439529     1.431886     1.424243     1.416600     1.408957
      1.401314     1.393671     1.386027     1.378384     1.370741     1.363098     1.355455     1.347812     1.340169     1.332526
      1.324883     1.317240     1.309596     1.301953     1.294310     1.286667     1.279024     1.271381     1.263738     1.256095
      1.248452     1.240808     1.233165     1.225522     1.217879     1.210236     1.202593     1.194950     1.187307     1.179664
      1.172021     1.164377     1.156734     1.149091     1.141448     1.133805     1.126162     1.118519     1.110876     1.103233
      1.095590     1.087946     1.080303     1.072660     1.065017     1.057374     1.049731     1.042088     1.034445     1.026802
      1.019158     1.011515     1.003872     0.996229     0.988586     0.980943     0.973300     0.965657     0.958014     0.950371
      0.942727     0.935084     0.927441     0.919798     0.912155     0.904512     0.896869     0.889226     0.881583     0.873940
      0.866296     0.858653     0.851010     0.843367     0.835724     0.828081     0.820438     0.812795     0.805152     0.797508
      0.789865     0.782222     0.774579     0.766936     0.759293     0.751650     0.744007     0.736364     0.728721     0.721077
      0.713434     0.705791     0.698148     0.690505     0.682862     0.675219     0.667576     0.659933     0.652290     0.644646
      0.637003     0.629360     0.621717     0.614074     0.606431     0.598788     0.591145     0.583502     0.575858     0.568215
      0.560572     0.552929     0.545286     0.537643     0.530000     0.522357     0.514714     0.507071     0.499427     0.491784
      0.484141     0.476498     0.468855     0.461212     0.453569     0.445925     0.438282     0.430639     0.422996     0.415353
      0.407710     0.400067     0.392424     0.384780     0.377137     0.369494     0.361851     0.354208     0.346565     0.338922
      0.331278     0.323635     0.315992     0.308349     0.300706     0.293063     0.285420     0.277777     0.270133     0.262490
      0.254847     0.247204     0.239561     0.231918     0.224275     0.216631     0.208988     0.201345
 NY phased data points follow
   8.10773E+00  5.59786E+00  4.42868E+00  5.13553E+00  5.17301E+00  6.28421E+00  6.44609E+00  8.34695E+00  1.06312E+01  8.10010E+00
   1.22763E+01  9.15094E+00  9.42665E+00  7.45686E+00  8.51891E+00  4.15141E+00  8.75683E+00  3.72898E+00  3.13945E+00  4.34687E+00
   5.39685E+00  5.70494E+00  3.55499E+00  6.33885E+00  4.07043E+00  5.99534E+00  3.24064E+00  4.60959E+00  5.06356E+00  5.98507E+00
   5.04117E+00  6.18577E+00  8.60126E+00  4.64741E+00  6.59015E+00  3.16660E+00  6.09345E+00  5.28061E+00  2.95004E+00  7.65484E+00
   6.71967E+00  6.27722E+00  6.85733E+00  4.80078E+00  1.04078E+01  9.27986E+00  6.52719E+00  1.36099E+01  8.80229E+00  1.29399E+01
   7.71464E+00  6.77793E+00  5.91261E+00  7.13065E+00  7.94480E+00  6.41930E+00  6.86642E+00  7.32689E+00  9.23352E+00  6.98590E+00
   3.26214E+00  5.39312E+00  1.41546E+00 -2.38794E-02  1.77923E+00  6.68250E-01  1.70655E+00  2.15447E+00  2.08881E+00  1.84578E+00
   2.92439E+00  4.19402E+00  3.68303E+00  5.55299E+00  4.12055E+00  3.26687E+00  3.69632E+00  5.13136E+00  2.11449E+00  5.64868E+00
   8.65251E-01  3.12758E+00  1.21375E+00  2.79744E+00  2.83854E+00  4.22907E+00  4.29677E+00  3.77494E+00  5.03796E+00  3.67363E+00
   4.99720E+00  6.88963E+00  5.74167E+00  4.73547E+00  1.19091E+00  9.25628E+00  4.89327E+00  1.29446E+01  1.06753E+01  1.18719E+01
   1.73189E+01  2.36826E+01  3.83300E+01  3.78785E+01  3.88065E+01  2.90903E+01  1.80639E+01  1.61027E+01  9.67503E+00  4.20256E+00
   6.40324E+00  6.42140E+00  6.28948E+00  5.71453E+00  4.88832E+00  2.57530E+00  6.65745E+00  3.55346E+00  8.02598E+00  5.85203E+00
   9.66881E+00  4.84443E+00  5.06487E+00  1.00962E+01  1.58785E+01  2.22887E+01  3.63642E+01  4.27556E+01  3.94356E+01  3.39370E+01
   2.28950E+01  1.74788E+01  1.09551E+01  6.75559E+00  4.92344E+00  5.67180E+00  3.15698E+00  3.86256E+00  1.67436E+00  8.02841E+00
   4.46146E+00  6.29425E+00  3.60430E+00  6.95728E+00  5.27120E+00  3.41310E+00  3.96011E+00  2.47693E+00  4.72632E+00  5.40610E+00
   4.34455E+00  1.71154E+00  3.22223E+00  2.45689E+00  6.44448E+00  5.17788E+00  6.12038E+00  5.17235E+00  5.30274E+00  7.00588E+00
   7.86149E+00  1.97740E+00  2.97577E+00 -1.52654E+00  2.28377E+00 -7.88598E-01 -9.47036E-01 -3.50678E+00 -5.48535E+00 -8.17176E+00
  -8.92455E+00 -7.76676E+00 -8.41463E+00 -9.35242E+00 -1.02953E+01 -1.23656E+01 -1.32242E+01 -9.80955E+00 -7.36629E+00 -7.84114E+00
  -8.17312E+00 -8.39973E+00 -7.04611E+00 -3.68447E+00 -4.24379E+00 -1.54608E+00 -2.17339E+00 -7.24660E+00 -2.36359E+00 -3.52254E+00
  -2.02958E+00  2.71451E-01  1.41305E+00 -4.26283E-01 -3.55452E+00 -3.85286E+00 -7.10835E+00 -1.13894E+01 -1.21073E+01 -1.17106E+01
  -5.73424E+00 -3.19004E+00  4.00396E-01  4.42568E+00  7.81922E+00  7.86166E+00  4.73723E+00  8.72165E-01 -7.48435E-01 -7.34505E-01
  -1.56537E+00  3.21959E+00  1.24751E+00  9.18648E+00  1.44824E+01  1.75445E+01  1.64292E+01  1.16870E+01  1.04123E+01  3.86868E+00
   1.63910E+00 -2.75457E+00 -6.08017E+00 -2.32103E+00  2.09996E+00  4.34760E+00  9.67545E+00  1.13036E+01  1.10312E+01  9.41276E+00
   8.51071E+00  6.34208E+00  8.67805E+00  7.38426E+00  1.00996E+01  7.80226E+00  8.96863E+00  8.62511E+00  1.01063E+01  8.61308E+00
   4.20920E+00  3.76504E+00 -1.90191E+00  2.33026E+00  6.10143E+00  1.09908E+01  1.40740E+01  1.38780E+01  1.43331E+01  1.60524E+01
   2.05322E+01  1.82585E+01  2.24384E+01  2.88043E+01  3.73586E+01  4.98992E+01  5.71583E+01  6.33652E+01  7.63113E+01  9.79296E+01
   1.11213E+02  1.03407E+02  7.97375E+01  5.39281E+01  3.00018E+01  1.82771E+01  1.34958E+01  1.07441E+01  4.47602E+00  5.31675E+00
   5.99264E+00  4.56169E+00  5.65490E+00  5.50006E+00  7.79413E+00  8.54490E+00  6.21319E+00  4.30617E+00  6.89591E+00  5.29988E+00
   5.17495E+00  6.32934E+00  4.62424E+00  7.20211E+00  3.55021E+00  3.45436E+00  6.22612E+00  4.68028E+00  6.52129E+00  8.08571E+00
   5.33334E+00  5.95934E+00  5.66856E+00  7.04689E+00  4.66641E+00  2.57035E+00  5.99840E+00  4.50781E+00  4.10360E+00  4.66655E+00
   2.86693E+00  3.62417E+00  7.62159E+00  6.20179E+00  5.99045E-01  5.23751E+00  7.02070E+00  4.23904E+00  7.58230E+00  7.53397E+00
   7.64500E+00  6.76317E+00  6.61568E+00  9.80198E+00  6.30249E+00  7.64514E+00  1.16350E+01  1.34051E+01  1.28633E+01  1.10318E+01
   1.15150E+01  1.50520E+01  1.03137E+01  9.32638E+00  7.91376E+00  8.57917E+00  9.03428E+00  8.39347E+00  6.56568E+00  4.70227E+00
   5.50474E+00  8.06275E+00  8.11799E+00  7.12955E+00  1.06906E+01  9.42309E+00  9.35182E+00  1.33517E+01  1.37375E+01  1.01001E+01
   1.31323E+01  1.58473E+01  1.58396E+01  1.62211E+01  1.91109E+01  1.78845E+01  2.02929E+01  1.73474E+01  1.65899E+01  1.32657E+01
   1.47096E+01  1.33266E+01  1.56361E+01  9.76708E+00  1.17643E+01  1.03294E+01  9.37182E+00  7.96400E+00  8.78834E+00  9.28397E+00
   1.01700E+01  8.38099E+00  1.19968E+01  7.18011E+00  9.86703E+00  9.87410E+00  9.63963E+00  7.93938E+00  1.00829E+01  8.15524E+00
   9.39979E+00  9.64241E+00  7.04980E+00  7.91455E+00  5.19957E+00  9.65668E+00  7.57047E+00  5.33246E+00  5.11211E+00  4.09210E+00
   7.08884E+00  5.13470E+00  4.46280E+00  3.73850E+00  2.62241E+00  2.71090E+00  2.97859E+00  4.25380E+00  5.63174E+00  3.47417E+00
   6.84351E+00  7.80018E+00  9.40387E+00  1.12751E+01  7.59640E+00  1.13196E+01  1.30343E+01  1.62185E+01  1.42349E+01  1.11072E+01
   1.46653E+01  9.96106E+00  1.41138E+01  1.37855E+01  1.17699E+01  1.36259E+01  1.42553E+01  1.41473E+01  1.29099E+01  7.77982E+00
   8.55593E+00  1.13949E+01  1.13437E+01  9.25228E+00  1.04186E+01  6.54623E+00  6.06990E+00  8.77366E+00  5.55780E+00  2.02721E+00
   7.99969E+00  5.20574E+00  1.78923E+00  3.45073E+00  4.40355E+00  2.15247E+00  2.99692E+00  3.15224E+00 -9.22756E-01  4.16955E+00
   5.48017E-02  2.34636E+00  1.21056E-01 -7.60950E-01  2.09309E+00  1.28139E-02 -2.03883E-01  1.83738E+00  1.15622E-01  1.87654E+00
   1.57987E+00  1.73073E+00  1.10755E+00  8.56682E-01  1.45295E+00  1.12618E+00  2.37522E+00  3.30366E+00  8.43814E-01  3.72471E+00
   4.19328E-01  2.88772E+00  2.64718E+00  1.76024E+00 -2.68919E-01  5.22921E-01  2.96177E+00  2.23272E+00  3.61750E+00  2.80663E+00
   1.73854E+00  7.50036E-01 -1.09253E+00  2.83510E+00  2.14191E+00  1.88309E+00 -1.35031E+00  9.88399E-02  9.38599E-01  8.94633E-01
  -3.56809E-01  1.65739E+00  3.23631E+00  9.34316E-01 -1.64857E-01  5.29764E+00  2.79502E+00 -9.31177E-02  2.75635E+00 -1.19192E+00
   9.53749E-01 -1.52369E+00 -3.59469E-01  1.88281E+00 -3.11007E-01  6.23572E+00  3.59501E+00 -6.78355E-01  3.11573E+00  1.72515E+00
   6.24653E-01  1.60835E+00 -1.71790E+00  8.84738E-01 -9.49090E-02 -9.29563E-01 -6.61599E-01  1.65821E+00
 NY points of the fit to the data follow
   3.19624E+00  3.05286E+00  3.21949E+00  3.63043E+00  4.35895E+00  5.27250E+00  6.45751E+00  7.96429E+00  9.62008E+00  1.10415E+01
   1.16495E+01  1.11979E+01  9.84080E+00  8.14651E+00  6.70022E+00  5.74942E+00  5.21420E+00  4.89153E+00  4.68581E+00  4.65414E+00
   4.73611E+00  4.85857E+00  4.81975E+00  4.85217E+00  5.05799E+00  4.87390E+00  4.38477E+00  4.28807E+00  5.28320E+00  7.23066E+00
   9.24678E+00  1.07751E+01  1.14769E+01  1.11188E+01  9.69875E+00  7.43005E+00  4.98925E+00  3.17710E+00  2.37570E+00  2.47636E+00
   3.20120E+00  4.27544E+00  5.31355E+00  6.06077E+00  6.80043E+00  7.99529E+00  9.54094E+00  1.06249E+01  1.04543E+01  8.99458E+00
   6.89811E+00  4.94397E+00  3.58222E+00  2.94309E+00  2.85963E+00  3.05226E+00  3.36234E+00  3.77095E+00  4.33513E+00  4.94602E+00
   5.32498E+00  5.24470E+00  4.67288E+00  3.92979E+00  3.30946E+00  3.02585E+00  3.12957E+00  3.40267E+00  3.63753E+00  3.86477E+00
   4.15290E+00  4.43929E+00  4.71214E+00  5.02410E+00  5.33246E+00  5.43450E+00  5.10299E+00  4.31999E+00  3.34948E+00  2.61201E+00
   2.46273E+00  2.88177E+00  3.40890E+00  3.90033E+00  4.45951E+00  5.02819E+00  5.23824E+00  4.73317E+00  3.69606E+00  2.70991E+00
   2.20430E+00  2.12047E+00  2.16242E+00  2.16953E+00  2.12962E+00  2.35917E+00  3.45512E+00  6.29619E+00  9.41713E+00  1.24505E+01
   1.76732E+01  2.63929E+01  3.60310E+01  4.10443E+01  3.83254E+01  2.97909E+01  1.99132E+01  1.22227E+01  7.62549E+00  5.30693E+00
   4.13289E+00  3.53124E+00  3.23873E+00  3.08025E+00  2.98624E+00  2.94116E+00  2.93199E+00  2.93189E+00  2.95270E+00  3.08059E+00
   3.63626E+00  5.66991E+00  8.56050E+00  1.14206E+01  1.62059E+01  2.45404E+01  3.46180E+01  4.12161E+01  4.03190E+01  3.28571E+01
   2.31439E+01  1.50975E+01  1.00227E+01  7.15747E+00  5.24656E+00  3.77441E+00  2.80552E+00  2.40892E+00  2.60922E+00  3.21779E+00
   3.90413E+00  4.35681E+00  4.42869E+00  4.17999E+00  3.77442E+00  3.37789E+00  3.07174E+00  2.85565E+00  2.66069E+00  2.46772E+00
   2.28098E+00  2.06260E+00  1.80284E+00  1.56032E+00  1.39158E+00  1.31013E+00  1.45142E+00  1.63936E+00  1.48804E+00  8.17239E-01
  -2.53468E-01 -9.74026E-01 -7.86242E-01  8.92543E-02  8.44738E-01  8.20128E-01 -1.08162E-02 -1.17749E+00 -2.15801E+00 -2.71508E+00
  -2.90340E+00 -2.82414E+00 -2.75282E+00 -3.12947E+00 -3.97321E+00 -4.79243E+00 -4.79474E+00 -3.91538E+00 -2.93960E+00 -2.67035E+00
  -3.12650E+00 -3.66616E+00 -3.52916E+00 -2.82425E+00 -2.19109E+00 -1.86570E+00 -1.41671E+00 -3.34008E-01  1.39728E+00  3.27448E+00
   4.65990E+00  5.16195E+00  4.67370E+00  3.71777E+00  2.81807E+00  2.17700E+00  1.76361E+00  1.62832E+00  1.95216E+00  2.67438E+00
   3.70788E+00  4.90619E+00  6.08216E+00  6.88885E+00  6.75568E+00  5.64689E+00  3.58664E+00  7.98069E-01 -1.85091E+00 -3.55489E+00
  -3.69286E+00 -2.61547E+00 -6.10065E-01  2.56891E+00  6.57777E+00  1.00202E+01  1.10498E+01  9.14973E+00  5.45311E+00  1.25460E+00
  -2.76409E+00 -5.78953E+00 -6.70332E+00 -4.85597E+00 -9.34841E-01  3.34533E+00  6.61563E+00  8.42118E+00  8.87776E+00  8.34793E+00
   7.34290E+00  6.59158E+00  6.50774E+00  7.05702E+00  7.93935E+00  8.87039E+00  9.61621E+00  9.93080E+00  9.83270E+00  9.31253E+00
   8.40305E+00  7.39864E+00  6.95422E+00  7.55593E+00  9.04401E+00  1.07941E+01  1.22241E+01  1.30971E+01  1.34636E+01  1.39914E+01
   1.54319E+01  1.71588E+01  2.00211E+01  2.60512E+01  3.80842E+01  5.04948E+01  5.74947E+01  6.45097E+01  7.86317E+01  9.77437E+01
   1.08963E+02  1.02258E+02  8.04335E+01  5.42918E+01  3.34071E+01  2.07608E+01  1.43963E+01  1.11859E+01  9.41159E+00  8.41415E+00
   7.72566E+00  7.28888E+00  7.11550E+00  7.11476E+00  7.07310E+00  6.82160E+00  6.36496E+00  5.83078E+00  5.31933E+00  4.88123E+00
   4.54599E+00  4.33033E+00  4.21760E+00  4.15590E+00  4.08606E+00  3.98726E+00  3.87012E+00  3.74445E+00  3.62955E+00  3.56323E+00
   3.58302E+00  3.69417E+00  3.85302E+00  4.00896E+00  4.14803E+00  4.27253E+00  4.38868E+00  4.51003E+00  4.65937E+00  4.86334E+00
   5.12968E+00  5.44399E+00  5.78010E+00  6.11650E+00  6.44048E+00  6.74746E+00  7.03431E+00  7.29830E+00  7.53664E+00  7.74835E+00
   7.93112E+00  8.08346E+00  8.20322E+00  8.29189E+00  8.35356E+00  8.39635E+00  8.42856E+00  8.46065E+00  8.50467E+00  8.58067E+00
   8.72561E+00  8.99160E+00  9.25326E+00  9.49084E+00  9.88128E+00  1.03578E+01  1.05354E+01  1.00160E+01  8.86605E+00  7.72356E+00
   7.12570E+00  7.06132E+00  7.47428E+00  8.45597E+00  1.00620E+01  1.19750E+01  1.35867E+01  1.44961E+01  1.47404E+01  1.46292E+01
   1.44609E+01  1.43768E+01  1.43590E+01  1.43573E+01  1.43802E+01  1.44041E+01  1.43595E+01  1.41720E+01  1.38401E+01  1.34669E+01
   1.31331E+01  1.28558E+01  1.26445E+01  1.25159E+01  1.24619E+01  1.24149E+01  1.22844E+01  1.20285E+01  1.16702E+01  1.12647E+01
   1.08538E+01  1.04542E+01  1.00631E+01  9.67740E+00  9.29568E+00  8.91848E+00  8.54660E+00  8.18207E+00  7.82620E+00  7.48188E+00
   7.15166E+00  6.83914E+00  6.54649E+00  6.27639E+00  6.03067E+00  5.81257E+00  5.62477E+00  5.47064E+00  5.35215E+00  5.27204E+00
   5.23247E+00  5.23708E+00  5.28865E+00  5.39038E+00  5.54392E+00  5.75145E+00  6.01412E+00  6.33351E+00  6.70901E+00  7.13908E+00
   7.61933E+00  8.14463E+00  8.70735E+00  9.29879E+00  9.90693E+00  1.05184E+01  1.11172E+01  1.16878E+01  1.22135E+01  1.26790E+01
   1.30684E+01  1.33685E+01  1.35677E+01  1.36589E+01  1.36379E+01  1.35049E+01  1.32626E+01  1.29177E+01  1.24800E+01  1.19627E+01
   1.13803E+01  1.07486E+01  1.00827E+01  9.39838E+00  8.70975E+00  8.03060E+00  7.37176E+00  6.74242E+00  6.14865E+00  5.59552E+00
   5.08569E+00  4.62103E+00  4.20080E+00  3.82364E+00  3.48655E+00  3.18716E+00  2.92219E+00  2.68889E+00  2.48334E+00  2.30237E+00
   2.14243E+00  2.00140E+00  1.87674E+00  1.76670E+00  1.66867E+00  1.58109E+00  1.50215E+00  1.43136E+00  1.36750E+00  1.30997E+00
   1.25729E+00  1.20903E+00  1.16445E+00  1.12379E+00  1.08637E+00  1.05197E+00  1.01962E+00  9.89417E-01  9.61059E-01  9.34985E-01
   9.10578E-01  8.87758E-01  8.65816E-01  8.45155E-01  8.25611E-01  8.07604E-01  7.90472E-01  7.74208E-01  7.58309E-01  7.43339E-01
   7.29144E-01  7.16026E-01  7.03288E-01  6.91034E-01  6.78954E-01  6.67683E-01  6.56985E-01  6.47032E-01  6.37133E-01  6.27531E-01
   6.18062E-01  6.09348E-01  6.01033E-01  5.93202E-01  5.85239E-01  5.77535E-01  5.70001E-01  5.63171E-01  5.56559E-01  5.50212E-01
   5.43637E-01  5.37357E-01  5.31296E-01  5.25863E-01  5.20470E-01  5.15200E-01  5.09708E-01  5.04597E-01  4.99736E-01  4.95389E-01
   4.90924E-01  4.86513E-01  4.81954E-01  4.77875E-01  4.74043E-01  4.70599E-01  4.66930E-01  4.63339E-01
 NY background values follow
     1.519E+00    1.513E+00    1.508E+00    1.502E+00    1.496E+00    1.491E+00    1.485E+00    1.480E+00    1.474E+00    1.468E+00
     1.463E+00    1.457E+00    1.451E+00    1.446E+00    1.440E+00    1.434E+00    1.429E+00    1.423E+00    1.418E+00    1.412E+00
     1.406E+00    1.401E+00    1.395E+00    1.389E+00    1.384E+00    1.378E+00    1.372E+00    1.367E+00    1.361E+00    1.356E+00
     1.350E+00    1.344E+00    1.339E+00    1.333E+00    1.327E+00    1.322E+00    1.316E+00    1.311E+00    1.305E+00    1.299E+00
     1.294E+00    1.288E+00    1.282E+00    1.277E+00    1.271E+00    1.266E+00    1.260E+00    1.254E+00    1.249E+00    1.243E+00
     1.238E+00    1.232E+00    1.226E+00    1.221E+00    1.215E+00    1.210E+00    1.204E+00    1.198E+00    1.193E+00    1.187E+00
     1.182E+00    1.176E+00    1.170E+00    1.165E+00    1.159E+00    1.154E+00    1.148E+00    1.143E+00    1.137E+00    1.131E+00
     1.126E+00    1.120E+00    1.115E+00    1.109E+00    1.104E+00    1.098E+00    1.092E+00    1.087E+00    1.081E+00    1.076E+00
     1.070E+00    1.065E+00    1.059E+00    1.054E+00    1.048E+00    1.043E+00    1.037E+00    1.032E+00    1.026E+00    1.021E+00
     1.015E+00    1.010E+00    1.004E+00    9.985E-01    9.930E-01    9.875E-01    9.820E-01    9.766E-01    9.711E-01    9.656E-01
     9.602E-01    9.547E-01    9.492E-01    9.438E-01    9.383E-01    9.329E-01    9.275E-01    9.221E-01    9.166E-01    9.112E-01
     9.058E-01    9.004E-01    8.950E-01    8.897E-01    8.843E-01    8.789E-01    8.735E-01    8.682E-01    8.629E-01    8.575E-01
     8.522E-01    8.469E-01    8.416E-01    8.363E-01    8.310E-01    8.257E-01    8.204E-01    8.151E-01    8.099E-01    8.046E-01
     7.994E-01    7.942E-01    7.890E-01    7.838E-01    7.786E-01    7.734E-01    7.682E-01    7.631E-01    7.579E-01    7.528E-01
     7.477E-01    7.426E-01    7.375E-01    7.324E-01    7.273E-01    7.223E-01    7.173E-01    7.122E-01    7.072E-01    7.023E-01
     6.973E-01    6.923E-01    6.874E-01    6.825E-01    6.776E-01    6.727E-01    6.679E-01    6.631E-01    6.582E-01    6.535E-01
     6.487E-01    6.440E-01    6.392E-01    6.345E-01    6.299E-01    6.252E-01    6.206E-01    6.160E-01    6.114E-01    6.069E-01
     6.024E-01    5.979E-01    5.934E-01    5.890E-01    5.846E-01    5.802E-01    5.759E-01    5.716E-01    5.673E-01    5.630E-01
     5.588E-01    5.546E-01    5.505E-01    5.463E-01    5.422E-01    5.382E-01    5.342E-01    5.302E-01    5.262E-01    5.223E-01
     5.184E-01    5.145E-01    5.107E-01    5.068E-01    5.031E-01    4.993E-01    4.956E-01    4.919E-01    4.882E-01    4.846E-01
     4.810E-01    4.775E-01    4.739E-01    4.704E-01    4.669E-01    4.635E-01    4.600E-01    4.566E-01    4.533E-01    4.499E-01
     4.466E-01    4.433E-01    4.401E-01    4.369E-01    4.337E-01    4.305E-01    4.273E-01    4.242E-01    4.211E-01    4.180E-01
     4.150E-01    4.120E-01    4.090E-01    4.060E-01    4.031E-01    4.002E-01    3.973E-01    3.944E-01    3.916E-01    3.888E-01
     3.860E-01    3.833E-01    3.805E-01    3.778E-01    3.751E-01    3.725E-01    3.698E-01    3.672E-01    3.646E-01    3.621E-01
     3.595E-01    3.570E-01    3.545E-01    3.520E-01    3.496E-01    3.472E-01    3.448E-01    3.424E-01    3.400E-01    3.377E-01
     3.354E-01    3.331E-01    3.309E-01    3.286E-01    3.264E-01    3.242E-01    3.220E-01    3.199E-01    3.178E-01    3.157E-01
     3.136E-01    3.115E-01    3.095E-01    3.075E-01    3.055E-01    3.035E-01    3.015E-01    2.996E-01    2.977E-01    2.958E-01
     2.939E-01    2.921E-01    2.903E-01    2.884E-01    2.867E-01    2.849E-01    2.831E-01    2.814E-01    2.797E-01    2.780E-01
     2.764E-01    2.747E-01    2.731E-01    2.715E-01    2.699E-01    2.683E-01    2.668E-01    2.652E-01    2.637E-01    2.622E-01
     2.607E-01    2.593E-01    2.579E-01    2.564E-01    2.550E-01    2.536E-01    2.523E-01    2.509E-01    2.496E-01    2.483E-01
     2.470E-01    2.457E-01    2.444E-01    2.432E-01    2.420E-01    2.408E-01    2.396E-01    2.384E-01    2.372E-01    2.361E-01
     2.349E-01    2.338E-01    2.327E-01    2.317E-01    2.306E-01    2.295E-01    2.285E-01    2.275E-01    2.265E-01    2.255E-01
     2.245E-01    2.236E-01    2.226E-01    2.217E-01    2.208E-01    2.199E-01    2.190E-01    2.181E-01    2.173E-01    2.164E-01
     2.156E-01    2.148E-01    2.140E-01    2.132E-01    2.124E-01    2.117E-01    2.110E-01    2.102E-01    2.095E-01    2.088E-01
     2.081E-01    2.075E-01    2.068E-01    2.061E-01    2.055E-01    2.049E-01    2.043E-01    2.037E-01    2.031E-01    2.025E-01
     2.020E-01    2.015E-01    2.009E-01    2.004E-01    1.999E-01    1.994E-01    1.989E-01    1.985E-01    1.980E-01    1.976E-01
     1.971E-01    1.967E-01    1.963E-01    1.959E-01    1.955E-01    1.952E-01    1.948E-01    1.944E-01    1.941E-01    1.938E-01
     1.935E-01    1.932E-01    1.929E-01    1.926E-01    1.923E-01    1.921E-01    1.918E-01    1.916E-01    1.913E-01    1.911E-01
     1.909E-01    1.907E-01    1.905E-01    1.904E-01    1.902E-01    1.900E-01    1.899E-01    1.898E-01    1.896E-01    1.895E-01
     1.894E-01    1.893E-01    1.892E-01    1.892E-01    1.891E-01    1.890E-01    1.890E-01    1.890E-01    1.889E-01    1.889E-01
     1.889E-01    1.889E-01    1.889E-01    1.889E-01    1.889E-01    1.890E-01    1.890E-01    1.891E-01    1.891E-01    1.892E-01
     1.893E-01    1.894E-01    1.895E-01    1.896E-01    1.897E-01    1.898E-01    1.899E-01    1.900E-01    1.902E-01    1.903E-01
     1.905E-01    1.906E-01    1.908E-01    1.910E-01    1.911E-01    1.913E-01    1.915E-01    1.917E-01    1.919E-01    1.921E-01
     1.923E-01    1.925E-01    1.927E-01    1.930E-01    1.932E-01    1.934E-01    1.937E-01    1.939E-01    1.942E-01    1.944E-01
     1.947E-01    1.949E-01    1.952E-01    1.955E-01    1.957E-01    1.960E-01    1.963E-01    1.966E-01    1.969E-01    1.972E-01
     1.974E-01    1.977E-01    1.980E-01    1.983E-01    1.986E-01    1.989E-01    1.992E-01    1.995E-01    1.998E-01    2.001E-01
     2.004E-01    2.008E-01    2.011E-01    2.014E-01    2.017E-01    2.020E-01    2.023E-01    2.026E-01    2.030E-01    2.033E-01
     2.036E-01    2.039E-01    2.043E-01    2.046E-01    2.049E-01    2.052E-01    2.056E-01    2.059E-01    2.062E-01    2.066E-01
     2.069E-01    2.072E-01    2.075E-01    2.079E-01    2.082E-01    2.085E-01    2.089E-01    2.092E-01    2.095E-01    2.099E-01
     2.102E-01    2.105E-01    2.108E-01    2.112E-01    2.115E-01    2.118E-01    2.122E-01    2.125E-01
 Ala      Conc. = 1.78E+02
