 LCModel (Version 6.3-1L) Copyright: S.W. Provencher.          Ref.: Magn. Reson. Med. 30:672-679 (1993).                
 Slice#3 Row#1 Col#9  K_02_press_1_raw_act
 36 lines in following concentration table = NCONC+1
    Conc.  %SD /Cr+PCr  Metabolite                                         
    0.000 999%   0.000 Ala                                                 
   25.202  71%   0.153 Asp                                                 
  165.096  19%   1.000 Cr                                                  
    0.000 999%   0.000 PCr                                                 
   13.720  79% 8.3E-02 GABA                                                
   14.411  75% 8.7E-02 Glc                                                 
   56.856 265%   0.344 Gln                                                 
  226.187  73%   1.370 Glu                                                 
   38.280  33%   0.232 GPC                                                 
    0.000 999%   0.000 PCh                                                 
   46.674 102%   0.283 GSH                                                 
  481.048  31%   2.914 Ins                                                 
   77.279 108%   0.468 Lac                                                 
    0.000 999%   0.000 NAA                                                 
  177.649  23%   1.076 NAAG                                                
    5.257  68% 3.2E-02 Scyllo                                              
   20.686  86%   0.125 Tau                                                 
    0.000 999%   0.000 -CrCH2                                              
   38.280  33%   0.232 GPC+PCh                                             
  177.649  23%   1.076 NAA+NAAG                                            
  165.096  19%   1.000 Cr+PCr                                              
  283.043  81%   1.714 Glu+Gln                                             
 3.30E+03  11%  19.962 Lip13a                                              
   64.191 174%   0.389 Lip13b                                              
  661.737  33%   4.008 Lip09                                               
  141.716 114%   0.858 MM09                                                
  270.804  61%   1.640 Lip20                                               
   19.390 999%   0.117 MM20                                                
   64.682 133%   0.392 MM12                                                
  856.104  21%   5.185 MM14                                                
  582.864  21%   3.530 MM17                                                
 3.36E+03  10%  20.351 Lip13a+Lip13b                                       
 4.28E+03   6%  25.928 MM14+Lip13a+Lip13b+MM12                             
  803.453  17%   4.867 MM09+Lip09                                          
  290.194  74%   1.758 MM20+Lip20                                          
   6 lines in following misc. output table
  FWHM = 0.061 ppm    S/N =   3                                            
  Data shift = 0.031 ppm                                                   
  Ph:  98 deg      10.4 deg/ppm                                            
  alphaB,S = 4.0E+01,   4.9E+01                                            
   14 spline knots.   Ns = 5(1)                                            
  ( 8) 3 infls.   ( 9) 3 extrs.                                            
  498 points on ppm-axis = NY
      4.000000     3.992357     3.984714     3.977070     3.969427     3.961784     3.954141     3.946497     3.938854     3.931211
      3.923568     3.915925     3.908281     3.900638     3.892995     3.885352     3.877708     3.870065     3.862422     3.854779
      3.847136     3.839492     3.831849     3.824206     3.816563     3.808919     3.801276     3.793633     3.785990     3.778347
      3.770703     3.763060     3.755417     3.747774     3.740130     3.732487     3.724844     3.717201     3.709558     3.701914
      3.694271     3.686628     3.678985     3.671341     3.663698     3.656055     3.648412     3.640769     3.633125     3.625482
      3.617839     3.610196     3.602552     3.594909     3.587266     3.579623     3.571980     3.564336     3.556693     3.549050
      3.541407     3.533763     3.526120     3.518477     3.510834     3.503191     3.495547     3.487904     3.480261     3.472618
      3.464974     3.457331     3.449688     3.442045     3.434402     3.426758     3.419115     3.411472     3.403829     3.396185
      3.388542     3.380899     3.373256     3.365613     3.357969     3.350326     3.342683     3.335040     3.327396     3.319753
      3.312110     3.304467     3.296824     3.289180     3.281537     3.273894     3.266251     3.258607     3.250964     3.243321
      3.235678     3.228034     3.220391     3.212748     3.205105     3.197462     3.189818     3.182175     3.174532     3.166889
      3.159245     3.151602     3.143959     3.136316     3.128673     3.121029     3.113386     3.105743     3.098100     3.090456
      3.082813     3.075170     3.067527     3.059884     3.052240     3.044597     3.036954     3.029311     3.021667     3.014024
      3.006381     2.998738     2.991095     2.983451     2.975808     2.968165     2.960522     2.952878     2.945235     2.937592
      2.929949     2.922306     2.914662     2.907019     2.899376     2.891733     2.884089     2.876446     2.868803     2.861160
      2.853517     2.845873     2.838230     2.830587     2.822944     2.815300     2.807657     2.800014     2.792371     2.784728
      2.777084     2.769441     2.761798     2.754155     2.746511     2.738868     2.731225     2.723582     2.715939     2.708295
      2.700652     2.693009     2.685366     2.677722     2.670079     2.662436     2.654793     2.647150     2.639506     2.631863
      2.624220     2.616577     2.608933     2.601290     2.593647     2.586004     2.578361     2.570717     2.563074     2.555431
      2.547788     2.540144     2.532501     2.524858     2.517215     2.509572     2.501928     2.494285     2.486642     2.478999
      2.471355     2.463712     2.456069     2.448426     2.440783     2.433139     2.425496     2.417853     2.410210     2.402566
      2.394923     2.387280     2.379637     2.371994     2.364350     2.356707     2.349064     2.341421     2.333777     2.326134
      2.318491     2.310848     2.303205     2.295561     2.287918     2.280275     2.272632     2.264988     2.257345     2.249702
      2.242059     2.234416     2.226772     2.219129     2.211486     2.203843     2.196199     2.188556     2.180913     2.173270
      2.165627     2.157983     2.150340     2.142697     2.135054     2.127410     2.119767     2.112124     2.104481     2.096838
      2.089194     2.081551     2.073908     2.066265     2.058621     2.050978     2.043335     2.035692     2.028049     2.020405
      2.012762     2.005119     1.997476     1.989833     1.982190     1.974546     1.966903     1.959260     1.951617     1.943974
      1.936331     1.928688     1.921045     1.913402     1.905759     1.898115     1.890472     1.882829     1.875186     1.867543
      1.859900     1.852257     1.844614     1.836971     1.829327     1.821684     1.814041     1.806398     1.798755     1.791112
      1.783469     1.775826     1.768183     1.760540     1.752896     1.745253     1.737610     1.729967     1.722324     1.714681
      1.707038     1.699395     1.691752     1.684108     1.676465     1.668822     1.661179     1.653536     1.645893     1.638250
      1.630607     1.622964     1.615321     1.607677     1.600034     1.592391     1.584748     1.577105     1.569462     1.561819
      1.554176     1.546533     1.538890     1.531246     1.523603     1.515960     1.508317     1.500674     1.493031     1.485388
      1.477745     1.470102     1.462458     1.454815     1.447172     1.439529     1.431886     1.424243     1.416600     1.408957
      1.401314     1.393671     1.386027     1.378384     1.370741     1.363098     1.355455     1.347812     1.340169     1.332526
      1.324883     1.317240     1.309596     1.301953     1.294310     1.286667     1.279024     1.271381     1.263738     1.256095
      1.248452     1.240808     1.233165     1.225522     1.217879     1.210236     1.202593     1.194950     1.187307     1.179664
      1.172021     1.164377     1.156734     1.149091     1.141448     1.133805     1.126162     1.118519     1.110876     1.103233
      1.095590     1.087946     1.080303     1.072660     1.065017     1.057374     1.049731     1.042088     1.034445     1.026802
      1.019158     1.011515     1.003872     0.996229     0.988586     0.980943     0.973300     0.965657     0.958014     0.950371
      0.942727     0.935084     0.927441     0.919798     0.912155     0.904512     0.896869     0.889226     0.881583     0.873940
      0.866296     0.858653     0.851010     0.843367     0.835724     0.828081     0.820438     0.812795     0.805152     0.797508
      0.789865     0.782222     0.774579     0.766936     0.759293     0.751650     0.744007     0.736364     0.728721     0.721077
      0.713434     0.705791     0.698148     0.690505     0.682862     0.675219     0.667576     0.659933     0.652290     0.644646
      0.637003     0.629360     0.621717     0.614074     0.606431     0.598788     0.591145     0.583502     0.575858     0.568215
      0.560572     0.552929     0.545286     0.537643     0.530000     0.522357     0.514714     0.507071     0.499427     0.491784
      0.484141     0.476498     0.468855     0.461212     0.453569     0.445925     0.438282     0.430639     0.422996     0.415353
      0.407710     0.400067     0.392424     0.384780     0.377137     0.369494     0.361851     0.354208     0.346565     0.338922
      0.331278     0.323635     0.315992     0.308349     0.300706     0.293063     0.285420     0.277777     0.270133     0.262490
      0.254847     0.247204     0.239561     0.231918     0.224275     0.216631     0.208988     0.201345
 NY phased data points follow
   5.36864E+00  1.05666E+01  7.07368E+00  3.24268E+00  8.77213E+00  1.07529E+01  4.49270E+00  3.17822E+00  9.45548E+00  8.83328E+00
   1.11390E+01  1.10761E+01  1.21516E+01  7.98188E+00  5.39228E+00  7.01131E+00  1.00380E+01  1.37279E+00  3.98782E+00  5.36620E+00
   5.58686E+00  1.49310E+00  4.07196E+00  4.13764E+00  3.70623E+00  3.35235E+00  2.83694E+00  5.97676E+00  6.91260E+00  3.81705E+00
   4.64032E+00  2.17778E+00  4.83644E+00  5.66129E+00  3.90516E+00  3.07427E+00  9.42139E+00  8.68360E+00  6.87643E+00  6.01299E+00
   4.72129E+00  4.07722E+00  1.06325E+00  3.69476E+00  1.13933E+00  5.81134E+00  5.16440E+00  5.15776E+00  4.84484E+00  3.80744E+00
   6.73655E+00  9.37744E-01  8.97538E+00  3.85786E+00  6.05179E+00  3.68221E+00  5.60167E+00  3.49773E+00  4.80972E+00  1.83147E-01
   3.51592E+00  1.75341E+00  2.34341E+00  9.62413E-01  1.62066E+00  3.42884E+00  4.10749E+00  7.51133E-01  4.12832E+00 -8.18546E-01
   2.05478E+00  1.72679E+00  3.95777E+00  8.01057E-01  5.17499E+00  7.63412E+00  2.62049E+00  4.75548E+00  2.93917E+00  2.81144E-01
  -9.23791E-01  1.78138E+00  6.81387E+00  4.71352E-01  5.75258E+00  2.92442E+00  6.20008E+00  3.45347E+00  1.02566E+00 -2.43934E-01
   9.26993E-01  2.83071E+00  1.62906E+00  5.08233E+00  5.35613E-01  4.68534E+00  4.07401E+00  4.09230E+00  3.49767E+00  5.60223E+00
   3.39701E+00  4.05385E+00  5.76173E+00  4.73621E+00  2.41233E+00  7.69076E+00 -1.06931E+00  1.54830E+00 -9.89697E-02  6.41422E+00
   2.32490E+00  7.17406E-02 -6.25766E-01 -3.52155E-01  6.55009E-01 -9.10484E-03  3.16993E+00  1.73337E-01  1.52022E+00  1.99193E+00
   2.03694E+00  1.03171E-01 -2.27062E+00  4.55886E+00  3.92278E+00  5.31124E+00  4.33348E+00  5.41720E+00  6.80768E+00  4.85914E+00
   1.73078E-01  3.16598E+00  3.73678E+00  7.09066E+00 -1.17479E+00  4.49654E+00 -4.06811E-01  8.86674E-01  4.65659E+00 -9.55910E-01
   2.70065E+00  2.97138E+00 -1.49933E-01 -1.19512E+00 -9.40618E-02 -4.53086E-01  4.71099E+00 -5.28884E-01  5.12650E+00  6.82608E+00
   7.47082E-01 -2.15347E+00  1.59704E+00  1.61984E+00  5.93627E-01 -1.57605E+00  1.09575E+00  1.54039E-01 -8.94751E-02  2.03259E+00
  -2.76458E-01 -1.25604E+00  2.45664E-01 -4.95962E-01  2.08579E+00  1.45703E+00  2.34030E+00  1.00453E+00  1.82183E-01  1.96066E-01
   7.83439E-01  4.28489E+00  1.91791E+00  8.48975E-01 -1.66342E-01  2.08208E+00 -1.59107E+00  3.61929E+00 -1.09318E-01  3.17443E+00
   2.93830E+00  4.88811E+00  4.60153E+00  2.63261E-01  4.83592E+00  9.00629E-01 -1.62472E-01 -3.83491E+00 -1.35649E+00  2.24878E+00
   2.50665E+00 -2.07745E+00  3.89414E+00  1.69699E+00  1.12485E+00  2.25315E+00  1.82030E+00  1.48117E+00  1.44538E+00 -2.39681E+00
   2.70632E+00 -4.67682E+00 -1.30859E+00  3.81842E+00  1.36154E+00 -1.32582E-01 -9.08335E-01  3.19209E+00 -2.38219E+00  2.72702E+00
  -3.87261E-01  2.20144E+00  6.34565E-01 -9.53043E-01  1.88285E-01  2.51229E+00  5.64242E+00  2.23965E+00  2.23696E+00  5.43952E-01
   3.16188E+00  1.23657E+00  8.51542E-01 -1.43821E+00  1.21802E+00  4.05637E+00  2.16673E+00  2.18797E+00  4.02023E+00  2.49886E+00
  -1.35545E+00  2.46470E+00  1.96641E+00  1.64451E+00  4.36274E+00  4.07936E+00  4.10228E+00  7.94832E+00  2.55813E+00  3.84853E+00
  -9.62734E-01  5.42177E+00  2.57865E-01 -1.08924E+00  5.63641E+00  8.75237E-01  5.43196E+00  3.11504E-01  2.65980E+00  1.74147E+00
   2.42260E+00  6.90982E+00  4.77241E+00  5.95480E+00  6.56768E+00  5.91879E+00  7.58188E+00  4.10861E+00  9.31853E+00  3.95534E+00
   9.29418E+00  1.32303E+01  1.72440E+00  5.75908E-01 -1.54357E+00  2.27968E+00  2.40120E+00 -4.42169E-01  1.30460E+00  1.71763E+00
   4.18522E+00 -1.63525E-01  4.74524E-01  3.03688E+00  9.00363E-01  1.92039E+00  1.23143E+00 -2.68974E+00  2.31515E+00  3.09841E+00
  -1.68734E-01  3.45462E+00 -6.03009E-01 -1.52253E+00  3.17794E+00  1.95235E+00  1.66536E+00  3.28348E+00  4.45019E+00  2.76881E+00
   3.00746E+00  3.78126E+00  7.04138E-01  3.29670E+00  5.69409E+00  1.55864E+00  3.68393E+00  1.27270E+00  5.20971E+00  4.40088E+00
   4.34953E+00  1.96930E+00  5.72236E+00  5.65843E+00  7.05323E+00  2.07332E+00  3.01973E+00  2.48863E+00  2.31964E+00  7.89513E+00
   7.98530E+00  7.41254E+00  8.60406E+00  1.24912E+01  9.46836E+00  1.18815E+01  1.01102E+01  6.45574E+00  2.21571E+00  5.45064E+00
   4.69407E+00  5.53352E+00  3.63676E+00  4.96900E+00  4.05392E+00  9.88242E+00  1.02672E+01  8.49687E+00  1.27696E+01  1.14209E+01
   9.26183E+00  9.20680E+00  1.19890E+01  9.76684E+00  1.22622E+01  8.19689E+00  4.09211E+00  1.18177E+01  7.99596E+00  1.18750E+01
   1.16398E+01  1.17147E+01  7.63000E+00  1.06454E+01  1.07413E+01  9.78499E+00  8.90376E+00  8.50069E+00  1.13451E+01  1.04915E+01
   1.22196E+01  1.11829E+01  9.80640E+00  1.33133E+01  8.16255E+00  1.50780E+01  1.65700E+01  1.54407E+01  1.78253E+01  1.54847E+01
   1.26131E+01  1.65104E+01  1.11521E+01  1.51464E+01  1.13688E+01  1.51088E+01  1.02210E+01  1.38021E+01  1.56184E+01  1.41946E+01
   1.07873E+01  1.00732E+01  1.20973E+01  1.24776E+01  1.13853E+01  1.00405E+01  5.61662E+00  1.09826E+01  1.01242E+01  8.54486E+00
   8.31819E+00  5.79750E+00  8.02916E+00  1.04042E+01  6.87321E+00  6.85487E+00  1.07612E+01  1.05352E+01  8.70833E+00  8.82329E+00
   7.47324E+00  9.68245E+00  1.39693E+00  8.40379E+00  9.93027E+00  7.65212E+00  8.75946E+00  9.26297E+00  4.65027E+00  5.32542E+00
   6.92443E+00  7.65324E+00  7.23637E+00  7.19576E+00  7.77953E+00  6.50884E+00  7.11123E+00  7.28091E+00  5.84833E+00  8.71746E+00
   7.12606E+00  7.07644E+00  5.89468E+00  9.32194E+00  7.58122E+00  4.93381E+00  5.47412E+00  5.62826E+00  5.85376E+00  5.45799E+00
   4.18986E+00  9.06679E+00  6.26220E+00  5.13902E+00  5.13824E+00  2.72832E+00  5.91785E+00  2.25492E+00  3.53796E+00  6.66455E+00
   2.41253E+00  5.13829E+00  2.14200E+00  1.98760E+00  5.71298E+00  6.24336E-01  6.09699E+00  4.41972E+00  3.36037E+00  5.99789E+00
   1.94675E+00  2.13812E+00  3.78923E+00  3.27966E+00  2.29757E+00  6.50211E+00  6.26634E-01  5.06315E+00  2.34401E+00  1.58403E+00
   2.63421E+00  2.97810E+00  5.98971E+00  5.09834E+00  8.35106E+00  5.11188E+00  3.03366E-01  3.40652E+00  1.60737E+00  2.92743E-02
   2.20404E+00  4.39798E-01  5.98249E+00  9.19870E-01  2.78771E+00  2.64221E+00  2.05832E+00  5.68572E+00  2.75730E+00  4.04176E+00
   1.13583E+00  4.71618E-01  2.52105E+00  7.58919E+00  5.13608E+00  2.05170E+00  1.72178E+00  1.54822E-01  1.90081E+00  2.99810E+00
   3.81144E+00 -2.65458E-01 -3.03142E+00  1.45895E-01  1.58449E+00  6.30769E-01  4.84143E+00  2.24451E+00  1.85106E+00  1.27501E+00
   4.15313E+00  4.07132E+00 -1.72581E+00  7.11231E-01  5.90188E+00  3.96242E+00  1.55597E+00  7.28154E+00
 NY points of the fit to the data follow
   3.93516E+00  3.71984E+00  3.54514E+00  3.46948E+00  3.51220E+00  3.64669E+00  4.04067E+00  4.76191E+00  5.54648E+00  6.17535E+00
   6.55218E+00  6.66306E+00  6.53345E+00  6.22043E+00  5.77707E+00  5.19289E+00  4.43552E+00  3.63223E+00  3.15981E+00  3.08900E+00
   3.11213E+00  3.14663E+00  3.17749E+00  3.17852E+00  3.17140E+00  3.24584E+00  3.41551E+00  3.64397E+00  3.91443E+00  4.19723E+00
   4.43334E+00  4.55998E+00  4.59118E+00  4.56959E+00  4.47734E+00  4.22929E+00  3.87777E+00  3.57298E+00  3.32719E+00  3.12980E+00
   3.02107E+00  3.03206E+00  3.20660E+00  3.64359E+00  4.35453E+00  5.15267E+00  5.78947E+00  6.09852E+00  6.05976E+00  5.75264E+00
   5.27180E+00  4.67457E+00  3.98809E+00  3.22466E+00  2.55605E+00  2.32598E+00  2.58014E+00  3.05908E+00  3.52093E+00  3.85946E+00
   4.03219E+00  4.03441E+00  3.90265E+00  3.70929E+00  3.50447E+00  3.28373E+00  3.06941E+00  2.97442E+00  3.04319E+00  3.23755E+00
   3.48132E+00  3.69439E+00  3.83221E+00  3.87043E+00  3.81908E+00  3.71766E+00  3.58989E+00  3.44661E+00  3.28190E+00  3.14764E+00
   3.07517E+00  3.04614E+00  3.02130E+00  2.93111E+00  2.73724E+00  2.46323E+00  2.16795E+00  1.90693E+00  1.71908E+00  1.62877E+00
   1.63490E+00  1.71820E+00  1.89995E+00  2.18565E+00  2.48325E+00  2.68302E+00  2.78672E+00  2.98966E+00  3.49959E+00  4.13443E+00
   4.67528E+00  5.02421E+00  5.16185E+00  5.10490E+00  4.91818E+00  4.62669E+00  4.20248E+00  3.57773E+00  2.81693E+00  2.27058E+00
   2.14645E+00  2.14525E+00  2.14875E+00  2.15480E+00  2.16188E+00  2.16446E+00  2.16053E+00  2.15408E+00  2.15089E+00  2.16148E+00
   2.20879E+00  2.37052E+00  2.94701E+00  4.03418E+00  5.26281E+00  6.31686E+00  7.03502E+00  7.36624E+00  7.33652E+00  7.02694E+00
   6.49040E+00  5.69065E+00  4.56091E+00  3.28686E+00  2.45513E+00  2.18700E+00  2.08688E+00  2.05221E+00  2.05272E+00  2.07494E+00
   2.12851E+00  2.21767E+00  2.30818E+00  2.37489E+00  2.40942E+00  2.40578E+00  2.37577E+00  2.33841E+00  2.30209E+00  2.26766E+00
   2.21756E+00  2.16065E+00  2.11363E+00  2.09107E+00  2.09633E+00  2.11058E+00  2.12067E+00  2.12089E+00  2.11226E+00  2.10060E+00
   2.08615E+00  2.05402E+00  1.99938E+00  1.93733E+00  1.87411E+00  1.81447E+00  1.77494E+00  1.75646E+00  1.75845E+00  1.77932E+00
   1.80218E+00  1.80562E+00  1.79001E+00  1.76550E+00  1.74642E+00  1.73481E+00  1.71350E+00  1.65636E+00  1.57240E+00  1.51300E+00
   1.50107E+00  1.53145E+00  1.57723E+00  1.61782E+00  1.66405E+00  1.72509E+00  1.81098E+00  1.92937E+00  2.05569E+00  2.13278E+00
   2.13424E+00  2.08802E+00  1.99830E+00  1.86027E+00  1.70876E+00  1.58829E+00  1.51690E+00  1.50564E+00  1.56418E+00  1.69154E+00
   1.85867E+00  2.02763E+00  2.17308E+00  2.25670E+00  2.22920E+00  2.04282E+00  1.75717E+00  1.47368E+00  1.24857E+00  1.12604E+00
   1.13371E+00  1.32341E+00  1.67224E+00  2.07803E+00  2.44545E+00  2.71360E+00  2.81286E+00  2.64264E+00  2.23748E+00  1.73845E+00
   1.27048E+00  8.98791E-01  6.99197E-01  7.66519E-01  1.02851E+00  1.36423E+00  1.70894E+00  2.02811E+00  2.28585E+00  2.40196E+00
   2.36875E+00  2.28810E+00  2.24968E+00  2.25341E+00  2.29029E+00  2.33400E+00  2.37164E+00  2.38364E+00  2.29708E+00  2.12385E+00
   1.93874E+00  1.79930E+00  1.72578E+00  1.71269E+00  1.75804E+00  1.84058E+00  1.92849E+00  2.00778E+00  2.09670E+00  2.19045E+00
   2.35650E+00  3.01254E+00  4.18829E+00  5.49436E+00  6.60777E+00  7.39507E+00  7.81288E+00  7.85592E+00  7.58191E+00  7.05920E+00
   6.25314E+00  5.08130E+00  3.82382E+00  3.11863E+00  2.88120E+00  2.72974E+00  2.57255E+00  2.41661E+00  2.27882E+00  2.17031E+00
   2.10008E+00  2.07293E+00  2.06123E+00  2.04053E+00  2.01886E+00  1.99266E+00  1.95475E+00  1.90322E+00  1.84530E+00  1.78867E+00
   1.73766E+00  1.70541E+00  1.70065E+00  1.71694E+00  1.73729E+00  1.75696E+00  1.77877E+00  1.80829E+00  1.84694E+00  1.89854E+00
   1.97093E+00  2.06899E+00  2.18884E+00  2.33119E+00  2.49236E+00  2.67022E+00  2.86506E+00  3.07331E+00  3.29160E+00  3.52594E+00
   3.77731E+00  4.04050E+00  4.30980E+00  4.58027E+00  4.84739E+00  5.10434E+00  5.34122E+00  5.55381E+00  5.74127E+00  5.90228E+00
   6.03721E+00  6.14748E+00  6.23551E+00  6.30490E+00  6.36014E+00  6.40638E+00  6.44901E+00  6.49333E+00  6.54427E+00  6.60615E+00
   6.68238E+00  6.77511E+00  6.88533E+00  7.01293E+00  7.15675E+00  7.31474E+00  7.48417E+00  7.66184E+00  7.84441E+00  8.02865E+00
   8.21168E+00  8.39119E+00  8.56557E+00  8.73411E+00  8.89704E+00  9.05560E+00  9.21204E+00  9.36964E+00  9.53295E+00  9.70854E+00
   9.90719E+00  1.01531E+01  1.04955E+01  1.08952E+01  1.12420E+01  1.14882E+01  1.16348E+01  1.17001E+01  1.17001E+01  1.16581E+01
   1.16794E+01  1.18321E+01  1.21005E+01  1.24966E+01  1.30590E+01  1.36714E+01  1.41793E+01  1.45594E+01  1.48160E+01  1.49331E+01
   1.48568E+01  1.45793E+01  1.42458E+01  1.39316E+01  1.36162E+01  1.32918E+01  1.29576E+01  1.26147E+01  1.22642E+01  1.19077E+01
   1.15470E+01  1.11843E+01  1.08221E+01  1.04632E+01  1.01105E+01  9.76708E+00  9.43577E+00  9.11924E+00  8.81983E+00  8.53958E+00
   8.28022E+00  8.04323E+00  7.82978E+00  7.64072E+00  7.47667E+00  7.33798E+00  7.22480E+00  7.13702E+00  7.07427E+00  7.03585E+00
   7.02077E+00  7.02769E+00  7.05493E+00  7.10044E+00  7.16174E+00  7.23600E+00  7.32003E+00  7.41036E+00  7.50333E+00  7.59516E+00
   7.68200E+00  7.76011E+00  7.82600E+00  7.87652E+00  7.90900E+00  7.92128E+00  7.91180E+00  7.87967E+00  7.82468E+00  7.74725E+00
   7.64841E+00  7.52970E+00  7.39307E+00  7.24082E+00  7.07548E+00  6.89968E+00  6.71608E+00  6.52723E+00  6.33552E+00  6.14317E+00
   5.95213E+00  5.76410E+00  5.58045E+00  5.40230E+00  5.23049E+00  5.06562E+00  4.90812E+00  4.75817E+00  4.61582E+00  4.48099E+00
   4.35349E+00  4.23309E+00  4.11948E+00  4.01233E+00  3.91126E+00  3.81589E+00  3.72588E+00  3.64086E+00  3.56049E+00  3.48444E+00
   3.41239E+00  3.34404E+00  3.27914E+00  3.21743E+00  3.15870E+00  3.10270E+00  3.04925E+00  2.99816E+00  2.94927E+00  2.90245E+00
   2.85754E+00  2.81441E+00  2.77294E+00  2.73303E+00  2.69459E+00  2.65752E+00  2.62174E+00  2.58716E+00  2.55371E+00  2.52134E+00
   2.48999E+00  2.45959E+00  2.43009E+00  2.40143E+00  2.37358E+00  2.34650E+00  2.32016E+00  2.29450E+00  2.26948E+00  2.24509E+00
   2.22128E+00  2.19805E+00  2.17536E+00  2.15317E+00  2.13146E+00  2.11022E+00  2.08943E+00  2.06906E+00  2.04910E+00  2.02952E+00
   2.01030E+00  1.99144E+00  1.97292E+00  1.95472E+00  1.93682E+00  1.91921E+00  1.90187E+00  1.88480E+00  1.86799E+00  1.85142E+00
   1.83507E+00  1.81892E+00  1.80297E+00  1.78722E+00  1.77164E+00  1.75622E+00  1.74094E+00  1.72578E+00
 NY background values follow
     2.235E+00    2.232E+00    2.229E+00    2.226E+00    2.223E+00    2.220E+00    2.217E+00    2.214E+00    2.211E+00    2.209E+00
     2.206E+00    2.203E+00    2.200E+00    2.197E+00    2.194E+00    2.191E+00    2.188E+00    2.185E+00    2.182E+00    2.179E+00
     2.176E+00    2.173E+00    2.170E+00    2.167E+00    2.164E+00    2.161E+00    2.158E+00    2.155E+00    2.152E+00    2.149E+00
     2.146E+00    2.143E+00    2.140E+00    2.137E+00    2.134E+00    2.131E+00    2.128E+00    2.125E+00    2.122E+00    2.119E+00
     2.116E+00    2.113E+00    2.110E+00    2.107E+00    2.104E+00    2.100E+00    2.097E+00    2.094E+00    2.091E+00    2.088E+00
     2.085E+00    2.082E+00    2.079E+00    2.076E+00    2.072E+00    2.069E+00    2.066E+00    2.063E+00    2.060E+00    2.057E+00
     2.054E+00    2.050E+00    2.047E+00    2.044E+00    2.041E+00    2.038E+00    2.035E+00    2.031E+00    2.028E+00    2.025E+00
     2.022E+00    2.019E+00    2.015E+00    2.012E+00    2.009E+00    2.006E+00    2.003E+00    1.999E+00    1.996E+00    1.993E+00
     1.990E+00    1.986E+00    1.983E+00    1.980E+00    1.977E+00    1.973E+00    1.970E+00    1.967E+00    1.964E+00    1.960E+00
     1.957E+00    1.954E+00    1.950E+00    1.947E+00    1.944E+00    1.940E+00    1.937E+00    1.934E+00    1.931E+00    1.927E+00
     1.924E+00    1.921E+00    1.917E+00    1.914E+00    1.911E+00    1.907E+00    1.904E+00    1.901E+00    1.897E+00    1.894E+00
     1.891E+00    1.887E+00    1.884E+00    1.880E+00    1.877E+00    1.874E+00    1.870E+00    1.867E+00    1.864E+00    1.860E+00
     1.857E+00    1.853E+00    1.850E+00    1.847E+00    1.843E+00    1.840E+00    1.836E+00    1.833E+00    1.830E+00    1.826E+00
     1.823E+00    1.819E+00    1.816E+00    1.812E+00    1.809E+00    1.806E+00    1.802E+00    1.799E+00    1.795E+00    1.792E+00
     1.788E+00    1.785E+00    1.781E+00    1.778E+00    1.775E+00    1.771E+00    1.768E+00    1.764E+00    1.761E+00    1.757E+00
     1.754E+00    1.750E+00    1.747E+00    1.743E+00    1.740E+00    1.736E+00    1.733E+00    1.729E+00    1.726E+00    1.722E+00
     1.719E+00    1.715E+00    1.712E+00    1.708E+00    1.705E+00    1.701E+00    1.698E+00    1.694E+00    1.691E+00    1.687E+00
     1.683E+00    1.680E+00    1.676E+00    1.673E+00    1.669E+00    1.666E+00    1.662E+00    1.659E+00    1.655E+00    1.652E+00
     1.648E+00    1.644E+00    1.641E+00    1.637E+00    1.634E+00    1.630E+00    1.627E+00    1.623E+00    1.619E+00    1.616E+00
     1.612E+00    1.609E+00    1.605E+00    1.602E+00    1.598E+00    1.594E+00    1.591E+00    1.587E+00    1.584E+00    1.580E+00
     1.576E+00    1.573E+00    1.569E+00    1.566E+00    1.562E+00    1.558E+00    1.555E+00    1.551E+00    1.547E+00    1.544E+00
     1.540E+00    1.537E+00    1.533E+00    1.529E+00    1.526E+00    1.522E+00    1.519E+00    1.515E+00    1.511E+00    1.508E+00
     1.504E+00    1.500E+00    1.497E+00    1.493E+00    1.489E+00    1.486E+00    1.482E+00    1.478E+00    1.475E+00    1.471E+00
     1.468E+00    1.464E+00    1.460E+00    1.457E+00    1.453E+00    1.449E+00    1.446E+00    1.442E+00    1.438E+00    1.435E+00
     1.431E+00    1.427E+00    1.424E+00    1.420E+00    1.416E+00    1.413E+00    1.409E+00    1.405E+00    1.402E+00    1.398E+00
     1.394E+00    1.391E+00    1.387E+00    1.383E+00    1.379E+00    1.376E+00    1.372E+00    1.368E+00    1.365E+00    1.361E+00
     1.357E+00    1.354E+00    1.350E+00    1.346E+00    1.343E+00    1.339E+00    1.335E+00    1.332E+00    1.328E+00    1.324E+00
     1.320E+00    1.317E+00    1.313E+00    1.309E+00    1.306E+00    1.302E+00    1.298E+00    1.295E+00    1.291E+00    1.287E+00
     1.283E+00    1.280E+00    1.276E+00    1.272E+00    1.269E+00    1.265E+00    1.261E+00    1.257E+00    1.254E+00    1.250E+00
     1.246E+00    1.243E+00    1.239E+00    1.235E+00    1.231E+00    1.228E+00    1.224E+00    1.220E+00    1.217E+00    1.213E+00
     1.209E+00    1.205E+00    1.202E+00    1.198E+00    1.194E+00    1.191E+00    1.187E+00    1.183E+00    1.179E+00    1.176E+00
     1.172E+00    1.168E+00    1.165E+00    1.161E+00    1.157E+00    1.153E+00    1.150E+00    1.146E+00    1.142E+00    1.139E+00
     1.135E+00    1.131E+00    1.127E+00    1.124E+00    1.120E+00    1.116E+00    1.113E+00    1.109E+00    1.105E+00    1.101E+00
     1.098E+00    1.094E+00    1.090E+00    1.087E+00    1.083E+00    1.079E+00    1.075E+00    1.072E+00    1.068E+00    1.064E+00
     1.061E+00    1.057E+00    1.053E+00    1.049E+00    1.046E+00    1.042E+00    1.038E+00    1.035E+00    1.031E+00    1.027E+00
     1.023E+00    1.020E+00    1.016E+00    1.012E+00    1.009E+00    1.005E+00    1.001E+00    9.976E-01    9.939E-01    9.902E-01
     9.865E-01    9.828E-01    9.791E-01    9.754E-01    9.717E-01    9.680E-01    9.643E-01    9.606E-01    9.569E-01    9.532E-01
     9.495E-01    9.458E-01    9.421E-01    9.384E-01    9.347E-01    9.310E-01    9.273E-01    9.236E-01    9.200E-01    9.163E-01
     9.126E-01    9.089E-01    9.052E-01    9.015E-01    8.979E-01    8.942E-01    8.905E-01    8.868E-01    8.832E-01    8.795E-01
     8.758E-01    8.721E-01    8.685E-01    8.648E-01    8.611E-01    8.575E-01    8.538E-01    8.501E-01    8.465E-01    8.428E-01
     8.392E-01    8.355E-01    8.318E-01    8.282E-01    8.245E-01    8.209E-01    8.172E-01    8.136E-01    8.099E-01    8.063E-01
     8.026E-01    7.990E-01    7.953E-01    7.917E-01    7.881E-01    7.844E-01    7.808E-01    7.772E-01    7.735E-01    7.699E-01
     7.663E-01    7.626E-01    7.590E-01    7.554E-01    7.518E-01    7.481E-01    7.445E-01    7.409E-01    7.373E-01    7.337E-01
     7.301E-01    7.265E-01    7.229E-01    7.192E-01    7.156E-01    7.120E-01    7.084E-01    7.048E-01    7.012E-01    6.977E-01
     6.941E-01    6.905E-01    6.869E-01    6.833E-01    6.797E-01    6.761E-01    6.726E-01    6.690E-01    6.654E-01    6.618E-01
     6.583E-01    6.547E-01    6.511E-01    6.476E-01    6.440E-01    6.404E-01    6.369E-01    6.333E-01    6.298E-01    6.262E-01
     6.227E-01    6.191E-01    6.156E-01    6.120E-01    6.085E-01    6.050E-01    6.014E-01    5.979E-01    5.944E-01    5.908E-01
     5.873E-01    5.838E-01    5.803E-01    5.768E-01    5.733E-01    5.697E-01    5.662E-01    5.627E-01    5.592E-01    5.557E-01
     5.522E-01    5.487E-01    5.452E-01    5.417E-01    5.383E-01    5.348E-01    5.313E-01    5.278E-01    5.243E-01    5.209E-01
     5.174E-01    5.139E-01    5.105E-01    5.070E-01    5.035E-01    5.001E-01    4.966E-01    4.932E-01
 Asp      Conc. = 2.52E+01
