 LCModel (Version 6.3-1L) Copyright: S.W. Provencher.          Ref.: Magn. Reson. Med. 30:672-679 (1993).                
 Slice#3 Row#13 Col#4  K_02_press_1_raw_act
 36 lines in following concentration table = NCONC+1
    Conc.  %SD /Cr+PCr  Metabolite                                         
 1.12E+03  21%   3.172 Ala                                                 
    0.000 999%   0.000 Asp                                                 
  352.293  14%   1.000 Cr                                                  
    0.000 999%   0.000 PCr                                                 
   41.505 121%   0.118 GABA                                                
    2.009 999% 5.7E-03 Glc                                                 
 6.90E+03   8%  19.583 Gln                                                 
 6.98E+03   9%  19.815 Glu                                                 
  180.466  10%   0.512 GPC                                                 
    0.000 999%   0.000 PCh                                                 
    0.000 999%   0.000 GSH                                                 
    0.000 999%   0.000 Ins                                                 
  131.830 194%   0.374 Lac                                                 
    0.000 999%   0.000 NAA                                                 
  267.567  23%   0.760 NAAG                                                
   26.607  57% 7.6E-02 Scyllo                                              
   14.284 579% 4.1E-02 Tau                                                 
    0.000 999%   0.000 -CrCH2                                              
  180.466  10%   0.512 GPC+PCh                                             
  267.567  23%   0.760 NAA+NAAG                                            
  352.293  14%   1.000 Cr+PCr                                              
 1.39E+04   8%  39.397 Glu+Gln                                             
    0.000 999%   0.000 Lip13a                                              
    0.000 999%   0.000 Lip13b                                              
    0.000 999%   0.000 Lip09                                               
  673.713  19%   1.912 MM09                                                
    8.853 324% 2.5E-02 Lip20                                               
 1.04E+03  21%   2.947 MM20                                                
  199.674  28%   0.567 MM12                                                
  810.602  16%   2.301 MM14                                                
  331.888  33%   0.942 MM17                                                
    0.000 999%   0.000 Lip13a+Lip13b                                       
 1.01E+03  15%   2.868 MM14+Lip13a+Lip13b+MM12                             
  673.713  19%   1.912 MM09+Lip09                                          
 1.05E+03  21%   2.972 MM20+Lip20                                          
   6 lines in following misc. output table
  FWHM = 0.138 ppm    S/N =   3                                            
  Data shift = 0.023 ppm                                                   
  Ph: -48 deg     -17.2 deg/ppm                                            
  alphaB,S = 4.1E-01,   2.0E+02                                            
   14 spline knots.   Ns = 7(2)                                            
  ( 9) 2 infls.   ( 1) 1 extrs.                                            
  498 points on ppm-axis = NY
      4.000000     3.992357     3.984714     3.977070     3.969427     3.961784     3.954141     3.946497     3.938854     3.931211
      3.923568     3.915925     3.908281     3.900638     3.892995     3.885352     3.877708     3.870065     3.862422     3.854779
      3.847136     3.839492     3.831849     3.824206     3.816563     3.808919     3.801276     3.793633     3.785990     3.778347
      3.770703     3.763060     3.755417     3.747774     3.740130     3.732487     3.724844     3.717201     3.709558     3.701914
      3.694271     3.686628     3.678985     3.671341     3.663698     3.656055     3.648412     3.640769     3.633125     3.625482
      3.617839     3.610196     3.602552     3.594909     3.587266     3.579623     3.571980     3.564336     3.556693     3.549050
      3.541407     3.533763     3.526120     3.518477     3.510834     3.503191     3.495547     3.487904     3.480261     3.472618
      3.464974     3.457331     3.449688     3.442045     3.434402     3.426758     3.419115     3.411472     3.403829     3.396185
      3.388542     3.380899     3.373256     3.365613     3.357969     3.350326     3.342683     3.335040     3.327396     3.319753
      3.312110     3.304467     3.296824     3.289180     3.281537     3.273894     3.266251     3.258607     3.250964     3.243321
      3.235678     3.228034     3.220391     3.212748     3.205105     3.197462     3.189818     3.182175     3.174532     3.166889
      3.159245     3.151602     3.143959     3.136316     3.128673     3.121029     3.113386     3.105743     3.098100     3.090456
      3.082813     3.075170     3.067527     3.059884     3.052240     3.044597     3.036954     3.029311     3.021667     3.014024
      3.006381     2.998738     2.991095     2.983451     2.975808     2.968165     2.960522     2.952878     2.945235     2.937592
      2.929949     2.922306     2.914662     2.907019     2.899376     2.891733     2.884089     2.876446     2.868803     2.861160
      2.853517     2.845873     2.838230     2.830587     2.822944     2.815300     2.807657     2.800014     2.792371     2.784728
      2.777084     2.769441     2.761798     2.754155     2.746511     2.738868     2.731225     2.723582     2.715939     2.708295
      2.700652     2.693009     2.685366     2.677722     2.670079     2.662436     2.654793     2.647150     2.639506     2.631863
      2.624220     2.616577     2.608933     2.601290     2.593647     2.586004     2.578361     2.570717     2.563074     2.555431
      2.547788     2.540144     2.532501     2.524858     2.517215     2.509572     2.501928     2.494285     2.486642     2.478999
      2.471355     2.463712     2.456069     2.448426     2.440783     2.433139     2.425496     2.417853     2.410210     2.402566
      2.394923     2.387280     2.379637     2.371994     2.364350     2.356707     2.349064     2.341421     2.333777     2.326134
      2.318491     2.310848     2.303205     2.295561     2.287918     2.280275     2.272632     2.264988     2.257345     2.249702
      2.242059     2.234416     2.226772     2.219129     2.211486     2.203843     2.196199     2.188556     2.180913     2.173270
      2.165627     2.157983     2.150340     2.142697     2.135054     2.127410     2.119767     2.112124     2.104481     2.096838
      2.089194     2.081551     2.073908     2.066265     2.058621     2.050978     2.043335     2.035692     2.028049     2.020405
      2.012762     2.005119     1.997476     1.989833     1.982190     1.974546     1.966903     1.959260     1.951617     1.943974
      1.936331     1.928688     1.921045     1.913402     1.905759     1.898115     1.890472     1.882829     1.875186     1.867543
      1.859900     1.852257     1.844614     1.836971     1.829327     1.821684     1.814041     1.806398     1.798755     1.791112
      1.783469     1.775826     1.768183     1.760540     1.752896     1.745253     1.737610     1.729967     1.722324     1.714681
      1.707038     1.699395     1.691752     1.684108     1.676465     1.668822     1.661179     1.653536     1.645893     1.638250
      1.630607     1.622964     1.615321     1.607677     1.600034     1.592391     1.584748     1.577105     1.569462     1.561819
      1.554176     1.546533     1.538890     1.531246     1.523603     1.515960     1.508317     1.500674     1.493031     1.485388
      1.477745     1.470102     1.462458     1.454815     1.447172     1.439529     1.431886     1.424243     1.416600     1.408957
      1.401314     1.393671     1.386027     1.378384     1.370741     1.363098     1.355455     1.347812     1.340169     1.332526
      1.324883     1.317240     1.309596     1.301953     1.294310     1.286667     1.279024     1.271381     1.263738     1.256095
      1.248452     1.240808     1.233165     1.225522     1.217879     1.210236     1.202593     1.194950     1.187307     1.179664
      1.172021     1.164377     1.156734     1.149091     1.141448     1.133805     1.126162     1.118519     1.110876     1.103233
      1.095590     1.087946     1.080303     1.072660     1.065017     1.057374     1.049731     1.042088     1.034445     1.026802
      1.019158     1.011515     1.003872     0.996229     0.988586     0.980943     0.973300     0.965657     0.958014     0.950371
      0.942727     0.935084     0.927441     0.919798     0.912155     0.904512     0.896869     0.889226     0.881583     0.873940
      0.866296     0.858653     0.851010     0.843367     0.835724     0.828081     0.820438     0.812795     0.805152     0.797508
      0.789865     0.782222     0.774579     0.766936     0.759293     0.751650     0.744007     0.736364     0.728721     0.721077
      0.713434     0.705791     0.698148     0.690505     0.682862     0.675219     0.667576     0.659933     0.652290     0.644646
      0.637003     0.629360     0.621717     0.614074     0.606431     0.598788     0.591145     0.583502     0.575858     0.568215
      0.560572     0.552929     0.545286     0.537643     0.530000     0.522357     0.514714     0.507071     0.499427     0.491784
      0.484141     0.476498     0.468855     0.461212     0.453569     0.445925     0.438282     0.430639     0.422996     0.415353
      0.407710     0.400067     0.392424     0.384780     0.377137     0.369494     0.361851     0.354208     0.346565     0.338922
      0.331278     0.323635     0.315992     0.308349     0.300706     0.293063     0.285420     0.277777     0.270133     0.262490
      0.254847     0.247204     0.239561     0.231918     0.224275     0.216631     0.208988     0.201345
 NY phased data points follow
  -3.93356E+02 -3.88328E+02 -3.80082E+02 -3.73139E+02 -3.69706E+02 -3.61681E+02 -3.56366E+02 -3.52131E+02 -3.46111E+02 -3.41401E+02
  -3.37136E+02 -3.29453E+02 -3.26789E+02 -3.25332E+02 -3.20158E+02 -3.14481E+02 -3.15013E+02 -3.09076E+02 -3.06277E+02 -3.02992E+02
  -3.00541E+02 -2.94393E+02 -2.92519E+02 -2.87856E+02 -2.84348E+02 -2.82678E+02 -2.79567E+02 -2.76923E+02 -2.73266E+02 -2.70635E+02
  -2.68229E+02 -2.61635E+02 -2.59622E+02 -2.57427E+02 -2.52915E+02 -2.49236E+02 -2.48157E+02 -2.45864E+02 -2.43707E+02 -2.37877E+02
  -2.34935E+02 -2.32833E+02 -2.33884E+02 -2.29891E+02 -2.25583E+02 -2.22741E+02 -2.20823E+02 -2.18609E+02 -2.17200E+02 -2.13512E+02
  -2.13304E+02 -2.12454E+02 -2.10080E+02 -2.06962E+02 -2.03719E+02 -2.04004E+02 -2.02551E+02 -1.97227E+02 -1.98850E+02 -1.95768E+02
  -1.95588E+02 -1.93791E+02 -1.93931E+02 -1.90347E+02 -1.90347E+02 -1.91848E+02 -1.85251E+02 -1.87020E+02 -1.84843E+02 -1.84242E+02
  -1.81552E+02 -1.80272E+02 -1.79019E+02 -1.78297E+02 -1.74803E+02 -1.75737E+02 -1.71226E+02 -1.69918E+02 -1.69030E+02 -1.66091E+02
  -1.66973E+02 -1.64241E+02 -1.62897E+02 -1.61832E+02 -1.62189E+02 -1.58588E+02 -1.58908E+02 -1.55777E+02 -1.56191E+02 -1.53924E+02
  -1.53328E+02 -1.48530E+02 -1.50283E+02 -1.48573E+02 -1.48966E+02 -1.46908E+02 -1.42001E+02 -1.43054E+02 -1.39427E+02 -1.38147E+02
  -1.36870E+02 -1.34237E+02 -1.32539E+02 -1.32989E+02 -1.31119E+02 -1.30509E+02 -1.29780E+02 -1.31409E+02 -1.27453E+02 -1.28921E+02
  -1.26573E+02 -1.27231E+02 -1.26061E+02 -1.26147E+02 -1.26281E+02 -1.22917E+02 -1.23861E+02 -1.24190E+02 -1.20997E+02 -1.20965E+02
  -1.20394E+02 -1.18344E+02 -1.19875E+02 -1.17796E+02 -1.16731E+02 -1.15032E+02 -1.12290E+02 -1.10969E+02 -1.09577E+02 -1.08874E+02
  -1.09795E+02 -1.07273E+02 -1.10143E+02 -1.09403E+02 -1.09798E+02 -1.08113E+02 -1.07395E+02 -1.06310E+02 -1.07722E+02 -1.05308E+02
  -1.03545E+02 -1.02051E+02 -1.05092E+02 -1.03004E+02 -1.02132E+02 -1.01096E+02 -1.02220E+02 -1.01664E+02 -9.89504E+01 -9.91500E+01
  -9.93369E+01 -9.61321E+01 -9.59908E+01 -9.55612E+01 -9.47730E+01 -9.33236E+01 -9.40284E+01 -9.34570E+01 -9.26702E+01 -9.16353E+01
  -8.89566E+01 -8.96610E+01 -8.77886E+01 -8.84468E+01 -9.02264E+01 -8.68008E+01 -8.53358E+01 -8.74292E+01 -8.73707E+01 -8.71438E+01
  -8.49692E+01 -8.40387E+01 -8.34917E+01 -8.49236E+01 -8.46256E+01 -8.13995E+01 -8.31504E+01 -8.27946E+01 -7.99970E+01 -8.02895E+01
  -8.17110E+01 -8.15102E+01 -8.38800E+01 -8.08024E+01 -8.26694E+01 -8.17132E+01 -8.20867E+01 -7.90898E+01 -7.98112E+01 -8.15393E+01
  -7.92294E+01 -7.77615E+01 -7.92921E+01 -7.67756E+01 -7.47825E+01 -7.52957E+01 -7.60429E+01 -7.52042E+01 -7.39762E+01 -7.43546E+01
  -7.22588E+01 -7.06520E+01 -7.06985E+01 -6.85785E+01 -7.16377E+01 -6.94161E+01 -6.86126E+01 -7.02320E+01 -6.87783E+01 -6.75101E+01
  -6.91407E+01 -6.88738E+01 -6.66534E+01 -6.94854E+01 -6.59597E+01 -6.72026E+01 -6.33112E+01 -6.20352E+01 -6.28637E+01 -6.40029E+01
  -6.38750E+01 -6.16978E+01 -6.46308E+01 -6.07414E+01 -6.09940E+01 -6.08571E+01 -5.79301E+01 -5.95462E+01 -6.19509E+01 -5.88953E+01
  -5.89855E+01 -5.87874E+01 -6.04425E+01 -5.55528E+01 -5.67943E+01 -5.48253E+01 -5.86380E+01 -5.66725E+01 -5.67218E+01 -5.43243E+01
  -5.38219E+01 -5.36034E+01 -5.58497E+01 -5.29416E+01 -5.59103E+01 -5.51599E+01 -5.35340E+01 -5.14141E+01 -5.21964E+01 -5.14595E+01
  -4.98070E+01 -5.01580E+01 -4.94643E+01 -4.81459E+01 -4.83559E+01 -4.77803E+01 -4.88152E+01 -4.39249E+01 -4.41315E+01 -4.20323E+01
  -4.11733E+01 -4.10130E+01 -4.07109E+01 -4.51743E+01 -3.98928E+01 -4.33536E+01 -4.16712E+01 -4.15970E+01 -4.52538E+01 -4.09937E+01
  -4.22462E+01 -4.10970E+01 -4.18993E+01 -4.04865E+01 -3.98377E+01 -4.06806E+01 -4.01675E+01 -3.95984E+01 -4.28817E+01 -4.09173E+01
  -4.14284E+01 -4.01980E+01 -3.94536E+01 -4.04156E+01 -3.79464E+01 -3.87877E+01 -3.72897E+01 -4.05174E+01 -3.64456E+01 -3.74701E+01
  -3.62316E+01 -3.80928E+01 -3.65355E+01 -3.64674E+01 -3.54037E+01 -3.66475E+01 -3.53464E+01 -3.36230E+01 -3.60846E+01 -3.57970E+01
  -3.30275E+01 -3.23466E+01 -3.17035E+01 -3.16683E+01 -3.15025E+01 -2.94791E+01 -3.10067E+01 -2.96412E+01 -2.86942E+01 -3.00199E+01
  -2.76359E+01 -2.78068E+01 -2.67792E+01 -2.63864E+01 -2.50438E+01 -2.72734E+01 -2.67664E+01 -2.53410E+01 -2.20820E+01 -2.75854E+01
  -2.39107E+01 -2.10926E+01 -2.11590E+01 -2.29842E+01 -2.53711E+01 -2.29931E+01 -2.13424E+01 -2.61272E+01 -2.36224E+01 -2.70070E+01
  -2.15554E+01 -2.56941E+01 -2.28021E+01 -2.40960E+01 -2.21350E+01 -2.40690E+01 -2.32659E+01 -2.38538E+01 -2.27959E+01 -2.32308E+01
  -2.33701E+01 -2.20949E+01 -2.40487E+01 -2.26344E+01 -2.55158E+01 -2.59843E+01 -2.63056E+01 -2.16796E+01 -2.34431E+01 -2.31569E+01
  -2.53513E+01 -2.56008E+01 -2.59940E+01 -2.53891E+01 -2.69821E+01 -2.69262E+01 -2.67782E+01 -2.64187E+01 -2.72640E+01 -2.80407E+01
  -2.55869E+01 -2.86625E+01 -2.85635E+01 -2.96707E+01 -2.81164E+01 -2.78990E+01 -3.01407E+01 -2.76695E+01 -2.76640E+01 -2.60315E+01
  -2.67607E+01 -2.69433E+01 -2.55358E+01 -2.65544E+01 -2.76075E+01 -2.68036E+01 -2.73552E+01 -2.88089E+01 -2.76448E+01 -2.67498E+01
  -2.82162E+01 -2.75573E+01 -2.84668E+01 -2.65690E+01 -2.97177E+01 -2.71158E+01 -2.88832E+01 -2.47153E+01 -2.64435E+01 -2.68759E+01
  -2.75197E+01 -2.55756E+01 -2.67742E+01 -2.70752E+01 -2.40326E+01 -2.47969E+01 -2.56018E+01 -2.53408E+01 -2.44603E+01 -2.41509E+01
  -2.53006E+01 -2.54757E+01 -2.31640E+01 -2.17872E+01 -2.23262E+01 -2.51722E+01 -2.37527E+01 -2.30667E+01 -2.03984E+01 -2.28887E+01
  -2.16062E+01 -2.34148E+01 -2.02227E+01 -2.23038E+01 -2.09231E+01 -2.25121E+01 -2.04772E+01 -1.93227E+01 -2.20182E+01 -2.02098E+01
  -2.05647E+01 -2.13146E+01 -2.02479E+01 -1.95279E+01 -2.08666E+01 -2.06499E+01 -2.09166E+01 -2.09900E+01 -2.02096E+01 -2.02396E+01
  -2.07169E+01 -1.65372E+01 -1.82132E+01 -2.09790E+01 -1.80771E+01 -2.13249E+01 -1.85122E+01 -1.96894E+01 -1.70306E+01 -1.78451E+01
  -1.90438E+01 -1.82375E+01 -1.94989E+01 -1.67586E+01 -1.76600E+01 -1.74486E+01 -1.74272E+01 -1.57884E+01 -1.71188E+01 -1.61657E+01
  -1.54032E+01 -1.57180E+01 -1.55972E+01 -1.65397E+01 -1.50610E+01 -1.40115E+01 -1.38258E+01 -1.26837E+01 -1.34103E+01 -1.32753E+01
  -1.38542E+01 -1.30180E+01 -1.29755E+01 -1.32418E+01 -1.47823E+01 -1.33033E+01 -1.34409E+01 -1.23535E+01 -1.25568E+01 -1.40271E+01
  -1.60860E+01 -1.35221E+01 -1.56026E+01 -1.29226E+01 -1.18444E+01 -1.37038E+01 -1.20295E+01 -1.23721E+01 -1.34275E+01 -1.32313E+01
  -1.36597E+01 -9.10550E+00 -1.33739E+01 -1.18353E+01 -1.32891E+01 -1.25562E+01 -1.23601E+01 -1.26327E+01 -1.29103E+01 -1.19578E+01
  -1.07174E+01 -1.19843E+01 -1.15431E+01 -9.78167E+00 -1.16815E+01 -1.38989E+01 -1.20091E+01 -1.39828E+01
 NY points of the fit to the data follow
  -3.84671E+02 -3.79984E+02 -3.75691E+02 -3.70923E+02 -3.66680E+02 -3.61897E+02 -3.57674E+02 -3.52874E+02 -3.48626E+02 -3.43739E+02
  -3.39353E+02 -3.34640E+02 -3.30452E+02 -3.26118E+02 -3.22581E+02 -3.18603E+02 -3.15409E+02 -3.10948E+02 -3.07752E+02 -3.03156E+02
  -3.00043E+02 -2.95359E+02 -2.92819E+02 -2.88324E+02 -2.86094E+02 -2.81676E+02 -2.79474E+02 -2.75190E+02 -2.72932E+02 -2.68599E+02
  -2.65981E+02 -2.61952E+02 -2.58952E+02 -2.55576E+02 -2.52407E+02 -2.49790E+02 -2.46594E+02 -2.44605E+02 -2.41250E+02 -2.39555E+02
  -2.36005E+02 -2.34273E+02 -2.30535E+02 -2.28980E+02 -2.25540E+02 -2.24245E+02 -2.21699E+02 -2.20598E+02 -2.18442E+02 -2.16546E+02
  -2.14223E+02 -2.12102E+02 -2.09751E+02 -2.07717E+02 -2.06002E+02 -2.04367E+02 -2.02943E+02 -2.01350E+02 -1.99759E+02 -1.98125E+02
  -1.96509E+02 -1.94852E+02 -1.93235E+02 -1.91613E+02 -1.90009E+02 -1.88415E+02 -1.86854E+02 -1.85307E+02 -1.83772E+02 -1.82261E+02
  -1.80761E+02 -1.79288E+02 -1.77790E+02 -1.76335E+02 -1.74875E+02 -1.73450E+02 -1.72028E+02 -1.70627E+02 -1.69243E+02 -1.67864E+02
  -1.66527E+02 -1.65169E+02 -1.63883E+02 -1.62546E+02 -1.61307E+02 -1.59988E+02 -1.58798E+02 -1.57486E+02 -1.56267E+02 -1.54579E+02
  -1.53142E+02 -1.51492E+02 -1.49936E+02 -1.48304E+02 -1.46581E+02 -1.45010E+02 -1.43118E+02 -1.41706E+02 -1.39692E+02 -1.38522E+02
  -1.36443E+02 -1.35549E+02 -1.33467E+02 -1.32909E+02 -1.30892E+02 -1.30773E+02 -1.29001E+02 -1.29209E+02 -1.27699E+02 -1.28075E+02
  -1.26805E+02 -1.27177E+02 -1.25987E+02 -1.25879E+02 -1.24837E+02 -1.24426E+02 -1.23537E+02 -1.22748E+02 -1.22006E+02 -1.20838E+02
  -1.20189E+02 -1.18303E+02 -1.17614E+02 -1.15653E+02 -1.15126E+02 -1.13175E+02 -1.12832E+02 -1.10997E+02 -1.10863E+02 -1.09307E+02
  -1.09320E+02 -1.08059E+02 -1.08129E+02 -1.07141E+02 -1.07188E+02 -1.06423E+02 -1.06371E+02 -1.05738E+02 -1.05569E+02 -1.05044E+02
  -1.04752E+02 -1.04300E+02 -1.03880E+02 -1.03465E+02 -1.02804E+02 -1.02086E+02 -1.01384E+02 -1.00661E+02 -9.99673E+01 -9.92484E+01
  -9.85718E+01 -9.78624E+01 -9.72071E+01 -9.65096E+01 -9.58712E+01 -9.51910E+01 -9.45734E+01 -9.38955E+01 -9.32891E+01 -9.26184E+01
  -9.20282E+01 -9.13734E+01 -9.07976E+01 -9.01548E+01 -8.95919E+01 -8.89602E+01 -8.84085E+01 -8.77910E+01 -8.72506E+01 -8.66406E+01
  -8.60926E+01 -8.54941E+01 -8.49434E+01 -8.43550E+01 -8.38011E+01 -8.32251E+01 -8.26577E+01 -8.20889E+01 -8.15452E+01 -8.11440E+01
  -8.06792E+01 -8.05227E+01 -8.02782E+01 -8.02480E+01 -8.01453E+01 -8.01531E+01 -7.99215E+01 -7.95419E+01 -7.91532E+01 -7.85339E+01
  -7.78058E+01 -7.68427E+01 -7.60108E+01 -7.51072E+01 -7.46698E+01 -7.46203E+01 -7.45458E+01 -7.41250E+01 -7.42130E+01 -7.36223E+01
  -7.37125E+01 -7.26612E+01 -7.21655E+01 -7.11326E+01 -7.07837E+01 -6.98777E+01 -6.97332E+01 -6.92281E+01 -6.96413E+01 -6.93713E+01
  -6.93348E+01 -6.85081E+01 -6.80923E+01 -6.71319E+01 -6.65306E+01 -6.55642E+01 -6.49937E+01 -6.43644E+01 -6.40288E+01 -6.32827E+01
  -6.33291E+01 -6.29981E+01 -6.28857E+01 -6.19971E+01 -6.15278E+01 -6.01766E+01 -5.97184E+01 -5.91958E+01 -5.94841E+01 -5.85137E+01
  -5.90323E+01 -5.77833E+01 -5.84269E+01 -5.67201E+01 -5.67202E+01 -5.51205E+01 -5.53569E+01 -5.39757E+01 -5.45551E+01 -5.36370E+01
  -5.50843E+01 -5.46991E+01 -5.58548E+01 -5.52512E+01 -5.62051E+01 -5.52836E+01 -5.55955E+01 -5.41945E+01 -5.39691E+01 -5.23654E+01
  -5.17689E+01 -5.00214E+01 -4.95996E+01 -4.83040E+01 -4.79111E+01 -4.64393E+01 -4.60488E+01 -4.43733E+01 -4.39617E+01 -4.23881E+01
  -4.27144E+01 -4.14802E+01 -4.21872E+01 -4.11940E+01 -4.21180E+01 -4.12814E+01 -4.22309E+01 -4.14872E+01 -4.23319E+01 -4.17140E+01
  -4.23767E+01 -4.16951E+01 -4.20727E+01 -4.13215E+01 -4.13365E+01 -4.07807E+01 -4.09441E+01 -4.05603E+01 -4.05566E+01 -4.01893E+01
  -4.00480E+01 -3.97152E+01 -3.93839E+01 -3.91607E+01 -3.88072E+01 -3.85729E+01 -3.82150E+01 -3.79945E+01 -3.76492E+01 -3.74433E+01
  -3.71327E+01 -3.68732E+01 -3.64958E+01 -3.61648E+01 -3.57531E+01 -3.53761E+01 -3.49400E+01 -3.45258E+01 -3.40908E+01 -3.36704E+01
  -3.32224E+01 -3.27859E+01 -3.23297E+01 -3.18849E+01 -3.14261E+01 -3.09800E+01 -3.05281E+01 -3.00845E+01 -2.96357E+01 -2.91858E+01
  -2.87185E+01 -2.82268E+01 -2.76737E+01 -2.69816E+01 -2.61853E+01 -2.58334E+01 -2.50476E+01 -2.49740E+01 -2.41425E+01 -2.44521E+01
  -2.36678E+01 -2.44743E+01 -2.32654E+01 -2.43530E+01 -2.29701E+01 -2.44091E+01 -2.28583E+01 -2.46136E+01 -2.29448E+01 -2.49318E+01
  -2.32612E+01 -2.51937E+01 -2.35209E+01 -2.51871E+01 -2.35794E+01 -2.48800E+01 -2.33921E+01 -2.42672E+01 -2.31333E+01 -2.37578E+01
  -2.30877E+01 -2.34439E+01 -2.32258E+01 -2.33593E+01 -2.35080E+01 -2.32699E+01 -2.35086E+01 -2.35063E+01 -2.41080E+01 -2.42029E+01
  -2.50049E+01 -2.51538E+01 -2.61416E+01 -2.63232E+01 -2.68462E+01 -2.67829E+01 -2.71408E+01 -2.70137E+01 -2.72810E+01 -2.71533E+01
  -2.73534E+01 -2.72526E+01 -2.73974E+01 -2.73323E+01 -2.74099E+01 -2.73548E+01 -2.74407E+01 -2.74425E+01 -2.75241E+01 -2.75673E+01
  -2.76424E+01 -2.77249E+01 -2.77760E+01 -2.78112E+01 -2.78359E+01 -2.78513E+01 -2.78578E+01 -2.78548E+01 -2.78418E+01 -2.78181E+01
  -2.77827E+01 -2.77349E+01 -2.76738E+01 -2.75984E+01 -2.75079E+01 -2.74016E+01 -2.72786E+01 -2.71383E+01 -2.69802E+01 -2.68038E+01
  -2.66090E+01 -2.63960E+01 -2.61650E+01 -2.59170E+01 -2.56532E+01 -2.53751E+01 -2.50851E+01 -2.47857E+01 -2.44801E+01 -2.41716E+01
  -2.38641E+01 -2.35614E+01 -2.32677E+01 -2.29867E+01 -2.27219E+01 -2.24766E+01 -2.22531E+01 -2.20532E+01 -2.18780E+01 -2.17279E+01
  -2.16025E+01 -2.15006E+01 -2.14199E+01 -2.13577E+01 -2.13106E+01 -2.12749E+01 -2.12468E+01 -2.12222E+01 -2.11975E+01 -2.11691E+01
  -2.11339E+01 -2.10893E+01 -2.10331E+01 -2.09638E+01 -2.08804E+01 -2.07822E+01 -2.06692E+01 -2.05416E+01 -2.04000E+01 -2.02453E+01
  -2.00783E+01 -1.99004E+01 -1.97126E+01 -1.95162E+01 -1.93125E+01 -1.91026E+01 -1.88877E+01 -1.86689E+01 -1.84473E+01 -1.82238E+01
  -1.79993E+01 -1.77747E+01 -1.75506E+01 -1.73280E+01 -1.71073E+01 -1.68893E+01 -1.66746E+01 -1.64637E+01 -1.62572E+01 -1.60555E+01
  -1.58591E+01 -1.56686E+01 -1.54844E+01 -1.53067E+01 -1.51356E+01 -1.49709E+01 -1.48125E+01 -1.46604E+01 -1.45143E+01 -1.43742E+01
  -1.42400E+01 -1.41114E+01 -1.39884E+01 -1.38709E+01 -1.37586E+01 -1.36514E+01 -1.35492E+01 -1.34518E+01 -1.33590E+01 -1.32708E+01
  -1.31869E+01 -1.31072E+01 -1.30315E+01 -1.29597E+01 -1.28916E+01 -1.28270E+01 -1.27657E+01 -1.27077E+01 -1.26526E+01 -1.26005E+01
  -1.25510E+01 -1.25040E+01 -1.24593E+01 -1.24168E+01 -1.23763E+01 -1.23375E+01 -1.23004E+01 -1.22647E+01 -1.22302E+01 -1.21968E+01
  -1.21642E+01 -1.21323E+01 -1.21008E+01 -1.20696E+01 -1.20383E+01 -1.20068E+01 -1.19749E+01 -1.19421E+01
 NY background values follow
    -3.866E+02   -3.825E+02   -3.785E+02   -3.744E+02   -3.704E+02   -3.664E+02   -3.624E+02   -3.584E+02   -3.545E+02   -3.505E+02
    -3.466E+02   -3.428E+02   -3.389E+02   -3.351E+02   -3.313E+02   -3.275E+02   -3.238E+02   -3.200E+02   -3.163E+02   -3.127E+02
    -3.091E+02   -3.055E+02   -3.019E+02   -2.984E+02   -2.949E+02   -2.914E+02   -2.880E+02   -2.846E+02   -2.813E+02   -2.780E+02
    -2.747E+02   -2.715E+02   -2.683E+02   -2.651E+02   -2.620E+02   -2.589E+02   -2.559E+02   -2.530E+02   -2.500E+02   -2.471E+02
    -2.443E+02   -2.415E+02   -2.388E+02   -2.361E+02   -2.335E+02   -2.309E+02   -2.283E+02   -2.259E+02   -2.234E+02   -2.211E+02
    -2.187E+02   -2.164E+02   -2.142E+02   -2.120E+02   -2.099E+02   -2.077E+02   -2.057E+02   -2.037E+02   -2.017E+02   -1.998E+02
    -1.979E+02   -1.960E+02   -1.942E+02   -1.924E+02   -1.906E+02   -1.889E+02   -1.872E+02   -1.856E+02   -1.839E+02   -1.824E+02
    -1.808E+02   -1.793E+02   -1.777E+02   -1.763E+02   -1.748E+02   -1.734E+02   -1.720E+02   -1.706E+02   -1.692E+02   -1.679E+02
    -1.666E+02   -1.653E+02   -1.640E+02   -1.627E+02   -1.614E+02   -1.602E+02   -1.590E+02   -1.578E+02   -1.566E+02   -1.554E+02
    -1.542E+02   -1.530E+02   -1.519E+02   -1.507E+02   -1.496E+02   -1.484E+02   -1.473E+02   -1.462E+02   -1.451E+02   -1.440E+02
    -1.429E+02   -1.418E+02   -1.407E+02   -1.396E+02   -1.386E+02   -1.375E+02   -1.365E+02   -1.354E+02   -1.344E+02   -1.334E+02
    -1.324E+02   -1.314E+02   -1.304E+02   -1.294E+02   -1.284E+02   -1.274E+02   -1.264E+02   -1.255E+02   -1.245E+02   -1.235E+02
    -1.226E+02   -1.217E+02   -1.207E+02   -1.198E+02   -1.189E+02   -1.180E+02   -1.171E+02   -1.162E+02   -1.153E+02   -1.144E+02
    -1.135E+02   -1.126E+02   -1.117E+02   -1.109E+02   -1.100E+02   -1.092E+02   -1.083E+02   -1.075E+02   -1.067E+02   -1.058E+02
    -1.050E+02   -1.042E+02   -1.034E+02   -1.026E+02   -1.018E+02   -1.010E+02   -1.002E+02   -9.943E+01   -9.866E+01   -9.790E+01
    -9.714E+01   -9.639E+01   -9.565E+01   -9.492E+01   -9.420E+01   -9.348E+01   -9.277E+01   -9.207E+01   -9.137E+01   -9.069E+01
    -9.001E+01   -8.934E+01   -8.868E+01   -8.802E+01   -8.738E+01   -8.675E+01   -8.612E+01   -8.550E+01   -8.490E+01   -8.430E+01
    -8.371E+01   -8.313E+01   -8.256E+01   -8.200E+01   -8.144E+01   -8.090E+01   -8.037E+01   -7.985E+01   -7.934E+01   -7.884E+01
    -7.835E+01   -7.787E+01   -7.740E+01   -7.694E+01   -7.649E+01   -7.605E+01   -7.562E+01   -7.520E+01   -7.478E+01   -7.438E+01
    -7.398E+01   -7.360E+01   -7.321E+01   -7.284E+01   -7.248E+01   -7.212E+01   -7.177E+01   -7.142E+01   -7.108E+01   -7.075E+01
    -7.042E+01   -7.010E+01   -6.978E+01   -6.946E+01   -6.915E+01   -6.885E+01   -6.855E+01   -6.825E+01   -6.796E+01   -6.767E+01
    -6.738E+01   -6.709E+01   -6.681E+01   -6.653E+01   -6.625E+01   -6.597E+01   -6.569E+01   -6.541E+01   -6.514E+01   -6.486E+01
    -6.459E+01   -6.431E+01   -6.403E+01   -6.376E+01   -6.348E+01   -6.320E+01   -6.292E+01   -6.263E+01   -6.235E+01   -6.206E+01
    -6.177E+01   -6.148E+01   -6.119E+01   -6.089E+01   -6.060E+01   -6.030E+01   -6.000E+01   -5.969E+01   -5.939E+01   -5.908E+01
    -5.877E+01   -5.846E+01   -5.815E+01   -5.784E+01   -5.752E+01   -5.720E+01   -5.688E+01   -5.656E+01   -5.624E+01   -5.591E+01
    -5.558E+01   -5.525E+01   -5.492E+01   -5.458E+01   -5.425E+01   -5.391E+01   -5.357E+01   -5.323E+01   -5.288E+01   -5.253E+01
    -5.218E+01   -5.183E+01   -5.148E+01   -5.113E+01   -5.077E+01   -5.041E+01   -5.005E+01   -4.968E+01   -4.932E+01   -4.895E+01
    -4.858E+01   -4.821E+01   -4.783E+01   -4.746E+01   -4.708E+01   -4.670E+01   -4.632E+01   -4.594E+01   -4.556E+01   -4.517E+01
    -4.479E+01   -4.441E+01   -4.403E+01   -4.365E+01   -4.326E+01   -4.289E+01   -4.251E+01   -4.213E+01   -4.176E+01   -4.139E+01
    -4.102E+01   -4.065E+01   -4.028E+01   -3.992E+01   -3.957E+01   -3.921E+01   -3.886E+01   -3.852E+01   -3.818E+01   -3.784E+01
    -3.751E+01   -3.718E+01   -3.686E+01   -3.655E+01   -3.624E+01   -3.594E+01   -3.564E+01   -3.535E+01   -3.507E+01   -3.480E+01
    -3.453E+01   -3.427E+01   -3.402E+01   -3.378E+01   -3.354E+01   -3.332E+01   -3.310E+01   -3.289E+01   -3.269E+01   -3.251E+01
    -3.233E+01   -3.215E+01   -3.199E+01   -3.184E+01   -3.169E+01   -3.155E+01   -3.142E+01   -3.129E+01   -3.118E+01   -3.107E+01
    -3.096E+01   -3.087E+01   -3.078E+01   -3.069E+01   -3.061E+01   -3.054E+01   -3.047E+01   -3.041E+01   -3.035E+01   -3.030E+01
    -3.025E+01   -3.021E+01   -3.017E+01   -3.013E+01   -3.010E+01   -3.007E+01   -3.005E+01   -3.003E+01   -3.001E+01   -2.999E+01
    -2.998E+01   -2.997E+01   -2.996E+01   -2.995E+01   -2.994E+01   -2.994E+01   -2.994E+01   -2.993E+01   -2.993E+01   -2.993E+01
    -2.993E+01   -2.993E+01   -2.993E+01   -2.993E+01   -2.993E+01   -2.992E+01   -2.992E+01   -2.992E+01   -2.991E+01   -2.991E+01
    -2.990E+01   -2.989E+01   -2.988E+01   -2.987E+01   -2.985E+01   -2.983E+01   -2.981E+01   -2.979E+01   -2.976E+01   -2.973E+01
    -2.970E+01   -2.967E+01   -2.963E+01   -2.959E+01   -2.954E+01   -2.949E+01   -2.943E+01   -2.937E+01   -2.931E+01   -2.924E+01
    -2.917E+01   -2.909E+01   -2.900E+01   -2.892E+01   -2.882E+01   -2.872E+01   -2.861E+01   -2.850E+01   -2.838E+01   -2.825E+01
    -2.812E+01   -2.798E+01   -2.783E+01   -2.768E+01   -2.752E+01   -2.735E+01   -2.717E+01   -2.699E+01   -2.680E+01   -2.660E+01
    -2.639E+01   -2.618E+01   -2.596E+01   -2.573E+01   -2.550E+01   -2.526E+01   -2.502E+01   -2.477E+01   -2.452E+01   -2.426E+01
    -2.401E+01   -2.374E+01   -2.348E+01   -2.321E+01   -2.294E+01   -2.266E+01   -2.239E+01   -2.211E+01   -2.184E+01   -2.156E+01
    -2.128E+01   -2.100E+01   -2.073E+01   -2.045E+01   -2.017E+01   -1.990E+01   -1.963E+01   -1.936E+01   -1.909E+01   -1.882E+01
    -1.856E+01   -1.830E+01   -1.805E+01   -1.780E+01   -1.755E+01   -1.731E+01   -1.708E+01   -1.685E+01   -1.662E+01   -1.641E+01
    -1.619E+01   -1.599E+01   -1.579E+01   -1.560E+01   -1.542E+01   -1.525E+01   -1.508E+01   -1.492E+01   -1.476E+01   -1.461E+01
    -1.447E+01   -1.434E+01   -1.421E+01   -1.408E+01   -1.397E+01   -1.385E+01   -1.375E+01   -1.364E+01   -1.355E+01   -1.345E+01
    -1.337E+01   -1.328E+01   -1.320E+01   -1.313E+01   -1.306E+01   -1.299E+01   -1.293E+01   -1.287E+01   -1.281E+01   -1.276E+01
    -1.270E+01   -1.266E+01   -1.261E+01   -1.257E+01   -1.253E+01   -1.249E+01   -1.245E+01   -1.241E+01   -1.238E+01   -1.235E+01
    -1.232E+01   -1.229E+01   -1.226E+01   -1.223E+01   -1.220E+01   -1.217E+01   -1.214E+01   -1.211E+01
 Ala      Conc. = 1.12E+03
