 LCModel (Version 6.3-1L) Copyright: S.W. Provencher.          Ref.: Magn. Reson. Med. 30:672-679 (1993).                
 Slice#2 Row#8 Col#2  K_02_press_1_raw_act
 36 lines in following concentration table = NCONC+1
    Conc.  %SD /Cr+PCr  Metabolite                                         
   38.913 139% 6.1E-02 Ala                                                 
    0.000 999%   0.000 Asp                                                 
  107.854  92%   0.170 Cr                                                  
  527.314  20%   0.830 PCr                                                 
    0.000 999%   0.000 GABA                                                
   54.487 124% 8.6E-02 Glc                                                 
  265.651  42%   0.418 Gln                                                 
  824.880  15%   1.299 Glu                                                 
  200.606   6%   0.316 GPC                                                 
    0.000 999%   0.000 PCh                                                 
  269.115  15%   0.424 GSH                                                 
  709.933  21%   1.118 Ins                                                 
    0.000 999%   0.000 Lac                                                 
  958.690   5%   1.509 NAA                                                 
  177.738  27%   0.280 NAAG                                                
   42.967  34% 6.8E-02 Scyllo                                              
    0.000 999%   0.000 Tau                                                 
  148.270  42%   0.233 -CrCH2                                              
  200.606   6%   0.316 GPC+PCh                                             
 1.14E+03   4%   1.789 NAA+NAAG                                            
  635.167   5%   1.000 Cr+PCr                                              
 1.09E+03  16%   1.717 Glu+Gln                                             
   79.323 208%   0.125 Lip13a                                              
    0.000 999%   0.000 Lip13b                                              
    0.000 999%   0.000 Lip09                                               
  292.290  37%   0.460 MM09                                                
   16.140 324% 2.5E-02 Lip20                                               
  462.414  37%   0.728 MM20                                                
   89.847  45%   0.141 MM12                                                
  269.514  42%   0.424 MM14                                                
  124.102  63%   0.195 MM17                                                
   79.323 208%   0.125 Lip13a+Lip13b                                       
  438.684  50%   0.691 MM14+Lip13a+Lip13b+MM12                             
  292.290  37%   0.460 MM09+Lip09                                          
  478.554  37%   0.753 MM20+Lip20                                          
   6 lines in following misc. output table
  FWHM = 0.046 ppm    S/N =   9                                            
  Data shift =-0.008 ppm                                                   
  Ph: -45 deg     -21.8 deg/ppm                                            
  alphaB,S = 5.4E-01,   1.0E+02                                            
   14 spline knots.   Ns = 6(1)                                            
  ( 8) 4 infls.   ( 5) 1 extrs.                                            
  498 points on ppm-axis = NY
      4.000000     3.992357     3.984714     3.977070     3.969427     3.961784     3.954141     3.946497     3.938854     3.931211
      3.923568     3.915925     3.908281     3.900638     3.892995     3.885352     3.877708     3.870065     3.862422     3.854779
      3.847136     3.839492     3.831849     3.824206     3.816563     3.808919     3.801276     3.793633     3.785990     3.778347
      3.770703     3.763060     3.755417     3.747774     3.740130     3.732487     3.724844     3.717201     3.709558     3.701914
      3.694271     3.686628     3.678985     3.671341     3.663698     3.656055     3.648412     3.640769     3.633125     3.625482
      3.617839     3.610196     3.602552     3.594909     3.587266     3.579623     3.571980     3.564336     3.556693     3.549050
      3.541407     3.533763     3.526120     3.518477     3.510834     3.503191     3.495547     3.487904     3.480261     3.472618
      3.464974     3.457331     3.449688     3.442045     3.434402     3.426758     3.419115     3.411472     3.403829     3.396185
      3.388542     3.380899     3.373256     3.365613     3.357969     3.350326     3.342683     3.335040     3.327396     3.319753
      3.312110     3.304467     3.296824     3.289180     3.281537     3.273894     3.266251     3.258607     3.250964     3.243321
      3.235678     3.228034     3.220391     3.212748     3.205105     3.197462     3.189818     3.182175     3.174532     3.166889
      3.159245     3.151602     3.143959     3.136316     3.128673     3.121029     3.113386     3.105743     3.098100     3.090456
      3.082813     3.075170     3.067527     3.059884     3.052240     3.044597     3.036954     3.029311     3.021667     3.014024
      3.006381     2.998738     2.991095     2.983451     2.975808     2.968165     2.960522     2.952878     2.945235     2.937592
      2.929949     2.922306     2.914662     2.907019     2.899376     2.891733     2.884089     2.876446     2.868803     2.861160
      2.853517     2.845873     2.838230     2.830587     2.822944     2.815300     2.807657     2.800014     2.792371     2.784728
      2.777084     2.769441     2.761798     2.754155     2.746511     2.738868     2.731225     2.723582     2.715939     2.708295
      2.700652     2.693009     2.685366     2.677722     2.670079     2.662436     2.654793     2.647150     2.639506     2.631863
      2.624220     2.616577     2.608933     2.601290     2.593647     2.586004     2.578361     2.570717     2.563074     2.555431
      2.547788     2.540144     2.532501     2.524858     2.517215     2.509572     2.501928     2.494285     2.486642     2.478999
      2.471355     2.463712     2.456069     2.448426     2.440783     2.433139     2.425496     2.417853     2.410210     2.402566
      2.394923     2.387280     2.379637     2.371994     2.364350     2.356707     2.349064     2.341421     2.333777     2.326134
      2.318491     2.310848     2.303205     2.295561     2.287918     2.280275     2.272632     2.264988     2.257345     2.249702
      2.242059     2.234416     2.226772     2.219129     2.211486     2.203843     2.196199     2.188556     2.180913     2.173270
      2.165627     2.157983     2.150340     2.142697     2.135054     2.127410     2.119767     2.112124     2.104481     2.096838
      2.089194     2.081551     2.073908     2.066265     2.058621     2.050978     2.043335     2.035692     2.028049     2.020405
      2.012762     2.005119     1.997476     1.989833     1.982190     1.974546     1.966903     1.959260     1.951617     1.943974
      1.936331     1.928688     1.921045     1.913402     1.905759     1.898115     1.890472     1.882829     1.875186     1.867543
      1.859900     1.852257     1.844614     1.836971     1.829327     1.821684     1.814041     1.806398     1.798755     1.791112
      1.783469     1.775826     1.768183     1.760540     1.752896     1.745253     1.737610     1.729967     1.722324     1.714681
      1.707038     1.699395     1.691752     1.684108     1.676465     1.668822     1.661179     1.653536     1.645893     1.638250
      1.630607     1.622964     1.615321     1.607677     1.600034     1.592391     1.584748     1.577105     1.569462     1.561819
      1.554176     1.546533     1.538890     1.531246     1.523603     1.515960     1.508317     1.500674     1.493031     1.485388
      1.477745     1.470102     1.462458     1.454815     1.447172     1.439529     1.431886     1.424243     1.416600     1.408957
      1.401314     1.393671     1.386027     1.378384     1.370741     1.363098     1.355455     1.347812     1.340169     1.332526
      1.324883     1.317240     1.309596     1.301953     1.294310     1.286667     1.279024     1.271381     1.263738     1.256095
      1.248452     1.240808     1.233165     1.225522     1.217879     1.210236     1.202593     1.194950     1.187307     1.179664
      1.172021     1.164377     1.156734     1.149091     1.141448     1.133805     1.126162     1.118519     1.110876     1.103233
      1.095590     1.087946     1.080303     1.072660     1.065017     1.057374     1.049731     1.042088     1.034445     1.026802
      1.019158     1.011515     1.003872     0.996229     0.988586     0.980943     0.973300     0.965657     0.958014     0.950371
      0.942727     0.935084     0.927441     0.919798     0.912155     0.904512     0.896869     0.889226     0.881583     0.873940
      0.866296     0.858653     0.851010     0.843367     0.835724     0.828081     0.820438     0.812795     0.805152     0.797508
      0.789865     0.782222     0.774579     0.766936     0.759293     0.751650     0.744007     0.736364     0.728721     0.721077
      0.713434     0.705791     0.698148     0.690505     0.682862     0.675219     0.667576     0.659933     0.652290     0.644646
      0.637003     0.629360     0.621717     0.614074     0.606431     0.598788     0.591145     0.583502     0.575858     0.568215
      0.560572     0.552929     0.545286     0.537643     0.530000     0.522357     0.514714     0.507071     0.499427     0.491784
      0.484141     0.476498     0.468855     0.461212     0.453569     0.445925     0.438282     0.430639     0.422996     0.415353
      0.407710     0.400067     0.392424     0.384780     0.377137     0.369494     0.361851     0.354208     0.346565     0.338922
      0.331278     0.323635     0.315992     0.308349     0.300706     0.293063     0.285420     0.277777     0.270133     0.262490
      0.254847     0.247204     0.239561     0.231918     0.224275     0.216631     0.208988     0.201345
 NY phased data points follow
  -8.66646E+01 -8.63412E+01 -8.42299E+01 -8.35550E+01 -7.80931E+01 -7.67396E+01 -6.88966E+01 -6.64870E+01 -5.92766E+01 -6.24621E+01
  -5.99598E+01 -6.24628E+01 -6.25934E+01 -6.30687E+01 -6.73452E+01 -7.02196E+01 -6.84203E+01 -6.58017E+01 -6.65317E+01 -6.53300E+01
  -6.33672E+01 -5.96959E+01 -5.66425E+01 -5.87908E+01 -5.62451E+01 -5.49991E+01 -5.29652E+01 -4.93359E+01 -5.09410E+01 -5.02623E+01
  -4.93720E+01 -4.95739E+01 -4.77142E+01 -5.11672E+01 -4.73408E+01 -4.91602E+01 -4.52186E+01 -4.73309E+01 -4.74029E+01 -4.65646E+01
  -4.18710E+01 -4.33040E+01 -4.09958E+01 -4.53274E+01 -3.93166E+01 -3.73883E+01 -3.69398E+01 -3.33993E+01 -3.44806E+01 -3.81873E+01
  -3.65287E+01 -3.99475E+01 -3.91292E+01 -3.80707E+01 -3.81551E+01 -3.92297E+01 -3.71511E+01 -3.18837E+01 -3.57987E+01 -3.86814E+01
  -3.69858E+01 -3.72790E+01 -3.60775E+01 -3.64290E+01 -3.54265E+01 -3.49213E+01 -3.42364E+01 -3.56134E+01 -3.18825E+01 -3.17489E+01
  -2.90310E+01 -3.17442E+01 -2.55586E+01 -2.88004E+01 -2.80746E+01 -2.75247E+01 -3.02193E+01 -2.52406E+01 -2.57258E+01 -2.75135E+01
  -2.53639E+01 -2.48289E+01 -2.41215E+01 -2.64940E+01 -2.19050E+01 -2.09660E+01 -1.95044E+01 -2.21941E+01 -2.14174E+01 -1.94484E+01
  -1.96891E+01 -2.03862E+01 -1.75632E+01 -1.78275E+01 -1.56421E+01 -1.93236E+01 -1.31126E+01 -1.41558E+01 -1.01724E+01 -9.43101E+00
  -6.17665E+00  1.12808E+00  4.07777E+00  6.67265E+00  5.18609E+00  3.77070E-01 -9.94502E+00 -1.31751E+01 -1.65761E+01 -1.45375E+01
  -1.40296E+01 -1.41919E+01 -1.29235E+01 -1.06857E+01 -1.06730E+01 -8.99427E+00 -1.33908E+01 -7.88745E+00 -7.99178E+00 -8.20953E+00
  -2.31137E+00 -3.29585E+00 -8.70333E-01  2.84726E+00  5.50867E+00  1.07406E+01  1.40477E+01  1.39761E+01  1.82998E+01  1.45102E+01
   4.91317E+00 -1.73361E+00 -3.37945E+00 -4.02193E+00 -3.50103E+00 -3.64431E+00 -2.40527E+00 -3.24206E+00 -1.85629E+00 -4.82164E+00
  -5.44939E+00 -4.80566E+00 -3.40141E+00 -3.04883E+00 -3.20951E+00 -3.83997E+00 -7.70987E-01  2.24518E+00 -3.17969E+00 -2.06087E+00
  -1.95189E+00 -2.84967E+00 -3.49776E+00 -8.04983E-01 -3.24760E-01 -2.12462E+00 -1.21918E+00 -1.76920E+00 -1.36166E+00 -1.53334E+00
   1.64613E+00 -1.20257E+00 -7.66639E-01 -3.44651E+00 -7.39271E-01 -1.07833E+00  1.03042E+00 -1.57715E+00 -1.23417E-01  1.43664E+00
  -1.41311E+00 -6.52991E-01 -1.90212E+00 -1.45488E+00 -1.91277E+00 -2.89547E+00 -3.12658E+00 -1.62912E+00 -6.36284E+00 -7.15986E+00
  -1.11893E+00 -2.44651E+00 -1.71228E-01 -1.75045E+00 -4.15499E-01 -1.06410E-01 -5.05372E-01  1.67096E+00  1.60459E+00  2.40375E+00
   5.58748E+00  1.00703E+01  8.32249E+00  5.36731E+00  8.29192E+00  8.85288E+00  6.58243E+00  3.92443E+00  5.07528E+00  4.75795E+00
   5.17923E+00  3.69527E+00  6.79415E+00  9.21902E+00  1.00663E+01  6.89641E+00  5.37888E+00  5.66114E+00  4.81557E+00  3.45563E+00
   2.53450E+00  8.12816E+00  7.65466E+00  9.11364E+00  1.16435E+01  1.46898E+01  1.39099E+01  1.15874E+01  1.35582E+01  7.19077E+00
   6.33917E+00  3.27319E+00  8.90510E+00  4.17718E+00  9.50516E+00  7.75238E+00  1.09436E+01  1.49204E+01  1.41754E+01  1.59044E+01
   1.18584E+01  1.16766E+01  1.30244E+01  1.42200E+01  9.37327E+00  1.06866E+01  9.24652E+00  1.04951E+01  1.07830E+01  1.28987E+01
   1.25579E+01  1.23679E+01  1.31137E+01  1.06467E+01  1.20531E+01  1.22772E+01  1.38759E+01  1.65386E+01  1.85602E+01  1.59311E+01
   1.85311E+01  1.99033E+01  2.04938E+01  2.34917E+01  2.51597E+01  3.15545E+01  3.52158E+01  4.07504E+01  4.25055E+01  4.81894E+01
   5.23626E+01  5.64955E+01  4.85889E+01  3.87688E+01  2.91101E+01  2.13340E+01  1.71554E+01  1.71920E+01  1.84114E+01  1.97544E+01
   1.87810E+01  1.83231E+01  1.63139E+01  1.91003E+01  1.84689E+01  1.97144E+01  1.70998E+01  1.74194E+01  1.86207E+01  2.07311E+01
   1.75235E+01  1.74514E+01  1.59608E+01  1.76021E+01  1.66340E+01  1.57789E+01  1.94596E+01  1.73502E+01  1.56855E+01  1.40286E+01
   1.81907E+01  1.85286E+01  1.64587E+01  1.77841E+01  2.04956E+01  1.65244E+01  1.76364E+01  1.71850E+01  1.92325E+01  2.00105E+01
   1.91559E+01  2.02718E+01  2.05056E+01  1.95737E+01  2.11456E+01  2.23278E+01  1.95378E+01  2.15329E+01  2.17791E+01  2.02234E+01
   1.97631E+01  1.66969E+01  2.03352E+01  2.23651E+01  2.09002E+01  2.27017E+01  2.25322E+01  2.27440E+01  1.99653E+01  2.29632E+01
   1.88848E+01  2.13773E+01  1.89099E+01  2.13378E+01  2.04511E+01  2.29053E+01  1.99249E+01  2.19203E+01  2.11019E+01  1.95679E+01
   2.22822E+01  1.86122E+01  2.16227E+01  2.53159E+01  2.20966E+01  2.45174E+01  2.06248E+01  2.19649E+01  2.24369E+01  2.20475E+01
   2.29501E+01  2.19284E+01  2.15643E+01  1.97616E+01  1.70361E+01  2.19385E+01  2.25812E+01  1.95979E+01  1.80047E+01  1.90455E+01
   2.08731E+01  2.13230E+01  2.32157E+01  2.23438E+01  2.12588E+01  1.79552E+01  2.12781E+01  2.30442E+01  1.94603E+01  1.80314E+01
   1.92595E+01  2.04512E+01  2.15417E+01  1.83243E+01  2.03524E+01  1.78276E+01  2.31868E+01  1.96807E+01  2.04926E+01  2.25855E+01
   2.09651E+01  1.83305E+01  1.99241E+01  2.04590E+01  2.05492E+01  2.19978E+01  2.01070E+01  2.07557E+01  1.86181E+01  1.92423E+01
   1.97281E+01  2.08269E+01  1.66274E+01  1.80128E+01  1.70581E+01  1.69056E+01  1.67910E+01  1.91851E+01  1.87218E+01  1.77299E+01
   1.85920E+01  1.30318E+01  2.09506E+01  1.70435E+01  2.14807E+01  1.88650E+01  1.81643E+01  1.85373E+01  2.19235E+01  1.90198E+01
   2.07028E+01  2.06663E+01  1.95759E+01  1.68871E+01  2.03025E+01  1.91526E+01  1.55507E+01  1.98165E+01  1.83651E+01  1.91961E+01
   2.18208E+01  2.10031E+01  1.63545E+01  1.79527E+01  1.85403E+01  1.80461E+01  1.73371E+01  1.79501E+01  1.93689E+01  1.67977E+01
   1.75165E+01  1.84784E+01  1.77706E+01  1.53098E+01  1.63065E+01  1.75939E+01  1.75415E+01  1.77891E+01  1.56796E+01  1.59223E+01
   1.63375E+01  2.10679E+01  1.57158E+01  1.52006E+01  1.64356E+01  1.88090E+01  1.57836E+01  2.02155E+01  1.95106E+01  2.07541E+01
   1.53979E+01  1.72083E+01  1.38260E+01  1.64624E+01  1.75679E+01  1.77080E+01  1.62097E+01  1.65994E+01  1.79217E+01  1.58576E+01
   1.80162E+01  1.79443E+01  1.71163E+01  1.50644E+01  1.64115E+01  1.54944E+01  1.73388E+01  1.63992E+01  1.55325E+01  1.85723E+01
   1.90668E+01  1.42952E+01  1.58171E+01  1.90803E+01  1.70051E+01  1.43494E+01  1.86908E+01  1.77578E+01  1.80487E+01  1.97660E+01
   1.75412E+01  1.98554E+01  1.89691E+01  1.44811E+01  1.44746E+01  1.66090E+01  1.96778E+01  1.76239E+01  1.59712E+01  1.69669E+01
   1.70860E+01  1.53342E+01  1.76647E+01  1.60638E+01  1.39955E+01  1.59158E+01  1.64062E+01  1.67654E+01  1.57909E+01  1.52316E+01
   1.80294E+01  1.56948E+01  1.49851E+01  1.44541E+01  1.62435E+01  1.61258E+01  1.63988E+01  1.74794E+01
 NY points of the fit to the data follow
  -8.17324E+01 -8.08657E+01 -7.96814E+01 -7.78120E+01 -7.53532E+01 -7.26259E+01 -6.97398E+01 -6.67714E+01 -6.39284E+01 -6.16712E+01
  -6.05611E+01 -6.09300E+01 -6.25282E+01 -6.45371E+01 -6.60494E+01 -6.65989E+01 -6.63045E+01 -6.56433E+01 -6.48994E+01 -6.41199E+01
  -6.33111E+01 -6.24715E+01 -6.16381E+01 -6.05397E+01 -5.90832E+01 -5.75384E+01 -5.58643E+01 -5.39380E+01 -5.18613E+01 -4.99178E+01
  -4.84684E+01 -4.77176E+01 -4.76927E+01 -4.81874E+01 -4.88298E+01 -4.93815E+01 -4.97743E+01 -4.99987E+01 -4.99657E+01 -4.94802E+01
  -4.84026E+01 -4.67360E+01 -4.47581E+01 -4.28277E+01 -4.10947E+01 -3.95601E+01 -3.82548E+01 -3.73848E+01 -3.72280E+01 -3.78546E+01
  -3.89619E+01 -4.00107E+01 -4.04944E+01 -4.02036E+01 -3.93419E+01 -3.82290E+01 -3.70876E+01 -3.60162E+01 -3.50531E+01 -3.42507E+01
  -3.36811E+01 -3.33904E+01 -3.33652E+01 -3.34581E+01 -3.34612E+01 -3.31525E+01 -3.24729E+01 -3.15610E+01 -3.05840E+01 -2.96690E+01
  -2.88726E+01 -2.82127E+01 -2.76913E+01 -2.72959E+01 -2.69959E+01 -2.67346E+01 -2.64452E+01 -2.60921E+01 -2.56808E+01 -2.52392E+01
  -2.47314E+01 -2.41164E+01 -2.35338E+01 -2.30054E+01 -2.24838E+01 -2.19778E+01 -2.15704E+01 -2.13426E+01 -2.12978E+01 -2.13216E+01
  -2.11934E+01 -2.07973E+01 -2.01727E+01 -1.94665E+01 -1.88185E+01 -1.81700E+01 -1.67336E+01 -1.39013E+01 -1.06240E+01 -7.15471E+00
  -3.25117E+00  8.86071E-01  4.25014E+00  5.45163E+00  3.57116E+00 -1.00240E+00 -6.51120E+00 -1.09028E+01 -1.31275E+01 -1.35163E+01
  -1.31459E+01 -1.27480E+01 -1.23527E+01 -1.19614E+01 -1.15855E+01 -1.12202E+01 -1.08542E+01 -1.04694E+01 -1.00275E+01 -9.43973E+00
  -8.23154E+00 -5.39306E+00 -1.61963E+00  2.31049E+00  6.45171E+00  1.08125E+01  1.47085E+01  1.68663E+01  1.60303E+01  1.19792E+01
   6.09630E+00  5.72578E-01 -3.04582E+00 -4.62260E+00 -5.13089E+00 -5.46687E+00 -5.67032E+00 -5.51392E+00 -4.93306E+00 -4.06495E+00
  -3.18218E+00 -2.53631E+00 -2.22498E+00 -2.20772E+00 -2.35790E+00 -2.51805E+00 -2.58879E+00 -2.56311E+00 -2.49250E+00 -2.42438E+00
  -2.35902E+00 -2.29072E+00 -2.20359E+00 -2.07705E+00 -1.91662E+00 -1.77481E+00 -1.65878E+00 -1.55000E+00 -1.46984E+00 -1.42479E+00
  -1.43996E+00 -1.48292E+00 -1.43481E+00 -1.22892E+00 -9.29186E-01 -6.77235E-01 -6.05747E-01 -7.41492E-01 -9.77536E-01 -1.16753E+00
  -1.25418E+00 -1.25500E+00 -1.17754E+00 -1.10764E+00 -1.09850E+00 -1.14386E+00 -1.14479E+00 -9.65002E-01 -6.16186E-01 -2.50704E-01
  -1.73237E-02  2.47812E-02  2.49196E-02  2.22609E-01  6.88069E-01  1.34454E+00  2.09744E+00  2.91476E+00  3.80115E+00  4.70739E+00
   5.42661E+00  5.71546E+00  5.51181E+00  4.96993E+00  4.35067E+00  3.92620E+00  3.87123E+00  4.23229E+00  4.98310E+00  5.98034E+00
   7.03190E+00  7.94718E+00  8.58318E+00  8.88408E+00  8.72040E+00  8.13493E+00  7.25402E+00  6.14444E+00  5.05130E+00  4.36663E+00
   4.49083E+00  5.48061E+00  7.03533E+00  8.89277E+00  1.07364E+01  1.21441E+01  1.26119E+01  1.18360E+01  1.00493E+01  7.82596E+00
   5.75872E+00  4.41314E+00  4.13615E+00  4.97604E+00  6.70620E+00  8.87826E+00  1.09497E+01  1.24162E+01  1.30534E+01  1.30121E+01
   1.26674E+01  1.24331E+01  1.24602E+01  1.27357E+01  1.31904E+01  1.36487E+01  1.39068E+01  1.37712E+01  1.33425E+01  1.28531E+01
   1.24374E+01  1.21754E+01  1.22026E+01  1.26059E+01  1.33260E+01  1.41870E+01  1.49905E+01  1.55742E+01  1.58980E+01  1.62000E+01
   1.69061E+01  1.79841E+01  1.93621E+01  2.12810E+01  2.49230E+01  3.06699E+01  3.63711E+01  4.11897E+01  4.55441E+01  4.96370E+01
   5.25504E+01  5.25752E+01  4.83026E+01  4.00878E+01  3.04857E+01  2.27156E+01  1.84160E+01  1.70293E+01  1.68579E+01  1.67964E+01
   1.67965E+01  1.68600E+01  1.69742E+01  1.71343E+01  1.73160E+01  1.74631E+01  1.75424E+01  1.75575E+01  1.75378E+01  1.75229E+01
   1.75434E+01  1.76036E+01  1.76903E+01  1.77903E+01  1.78920E+01  1.79846E+01  1.80641E+01  1.81337E+01  1.82040E+01  1.82862E+01
   1.83851E+01  1.85004E+01  1.86271E+01  1.87547E+01  1.88749E+01  1.89833E+01  1.90810E+01  1.91737E+01  1.92679E+01  1.93671E+01
   1.94723E+01  1.95828E+01  1.96951E+01  1.98038E+01  1.99042E+01  1.99942E+01  2.00745E+01  2.01469E+01  2.02126E+01  2.02729E+01
   2.03287E+01  2.03808E+01  2.04297E+01  2.04764E+01  2.05224E+01  2.05690E+01  2.06180E+01  2.06709E+01  2.07301E+01  2.07994E+01
   2.08870E+01  2.10047E+01  2.11217E+01  2.12078E+01  2.12681E+01  2.13007E+01  2.12836E+01  2.11900E+01  2.10154E+01  2.08227E+01
   2.07013E+01  2.06904E+01  2.07952E+01  2.09922E+01  2.12397E+01  2.14903E+01  2.17007E+01  2.18241E+01  2.18307E+01  2.17393E+01
   2.16059E+01  2.14842E+01  2.13954E+01  2.13274E+01  2.12641E+01  2.12025E+01  2.11417E+01  2.10817E+01  2.10224E+01  2.09638E+01
   2.09060E+01  2.08490E+01  2.07926E+01  2.07369E+01  2.06815E+01  2.06263E+01  2.05709E+01  2.05149E+01  2.04579E+01  2.03997E+01
   2.03400E+01  2.02785E+01  2.02150E+01  2.01494E+01  2.00817E+01  2.00120E+01  1.99406E+01  1.98676E+01  1.97933E+01  1.97182E+01
   1.96427E+01  1.95673E+01  1.94925E+01  1.94189E+01  1.93470E+01  1.92774E+01  1.92107E+01  1.91477E+01  1.90887E+01  1.90345E+01
   1.89856E+01  1.89427E+01  1.89065E+01  1.88775E+01  1.88563E+01  1.88434E+01  1.88393E+01  1.88444E+01  1.88589E+01  1.88829E+01
   1.89161E+01  1.89580E+01  1.90080E+01  1.90649E+01  1.91271E+01  1.91929E+01  1.92599E+01  1.93259E+01  1.93881E+01  1.94437E+01
   1.94902E+01  1.95247E+01  1.95450E+01  1.95493E+01  1.95361E+01  1.95046E+01  1.94546E+01  1.93866E+01  1.93017E+01  1.92014E+01
   1.90879E+01  1.89636E+01  1.88310E+01  1.86931E+01  1.85526E+01  1.84121E+01  1.82740E+01  1.81404E+01  1.80129E+01  1.78930E+01
   1.77815E+01  1.76790E+01  1.75858E+01  1.75019E+01  1.74270E+01  1.73607E+01  1.73024E+01  1.72516E+01  1.72075E+01  1.71694E+01
   1.71366E+01  1.71086E+01  1.70848E+01  1.70645E+01  1.70474E+01  1.70329E+01  1.70207E+01  1.70104E+01  1.70017E+01  1.69945E+01
   1.69883E+01  1.69830E+01  1.69785E+01  1.69745E+01  1.69710E+01  1.69677E+01  1.69646E+01  1.69615E+01  1.69583E+01  1.69550E+01
   1.69514E+01  1.69474E+01  1.69429E+01  1.69380E+01  1.69325E+01  1.69266E+01  1.69201E+01  1.69130E+01  1.69054E+01  1.68972E+01
   1.68885E+01  1.68793E+01  1.68695E+01  1.68592E+01  1.68484E+01  1.68371E+01  1.68252E+01  1.68129E+01  1.68001E+01  1.67867E+01
   1.67729E+01  1.67586E+01  1.67439E+01  1.67287E+01  1.67130E+01  1.66970E+01  1.66805E+01  1.66636E+01  1.66463E+01  1.66286E+01
   1.66105E+01  1.65921E+01  1.65733E+01  1.65542E+01  1.65348E+01  1.65150E+01  1.64950E+01  1.64746E+01  1.64540E+01  1.64331E+01
   1.64120E+01  1.63906E+01  1.63691E+01  1.63473E+01  1.63254E+01  1.63033E+01  1.62810E+01  1.62587E+01
 NY background values follow
    -8.334E+01   -8.243E+01   -8.152E+01   -8.061E+01   -7.971E+01   -7.881E+01   -7.791E+01   -7.701E+01   -7.611E+01   -7.522E+01
    -7.433E+01   -7.345E+01   -7.257E+01   -7.169E+01   -7.082E+01   -6.994E+01   -6.908E+01   -6.821E+01   -6.736E+01   -6.650E+01
    -6.565E+01   -6.481E+01   -6.397E+01   -6.313E+01   -6.230E+01   -6.148E+01   -6.066E+01   -5.984E+01   -5.903E+01   -5.823E+01
    -5.743E+01   -5.664E+01   -5.586E+01   -5.508E+01   -5.431E+01   -5.354E+01   -5.278E+01   -5.203E+01   -5.129E+01   -5.055E+01
    -4.982E+01   -4.910E+01   -4.838E+01   -4.767E+01   -4.697E+01   -4.628E+01   -4.560E+01   -4.492E+01   -4.426E+01   -4.360E+01
    -4.294E+01   -4.230E+01   -4.166E+01   -4.103E+01   -4.041E+01   -3.980E+01   -3.919E+01   -3.859E+01   -3.799E+01   -3.740E+01
    -3.682E+01   -3.625E+01   -3.568E+01   -3.512E+01   -3.456E+01   -3.401E+01   -3.346E+01   -3.293E+01   -3.239E+01   -3.186E+01
    -3.134E+01   -3.082E+01   -3.031E+01   -2.980E+01   -2.930E+01   -2.880E+01   -2.830E+01   -2.781E+01   -2.733E+01   -2.685E+01
    -2.637E+01   -2.590E+01   -2.543E+01   -2.496E+01   -2.450E+01   -2.404E+01   -2.358E+01   -2.313E+01   -2.268E+01   -2.223E+01
    -2.179E+01   -2.135E+01   -2.091E+01   -2.047E+01   -2.004E+01   -1.961E+01   -1.918E+01   -1.876E+01   -1.834E+01   -1.792E+01
    -1.751E+01   -1.710E+01   -1.669E+01   -1.628E+01   -1.588E+01   -1.549E+01   -1.509E+01   -1.470E+01   -1.432E+01   -1.394E+01
    -1.356E+01   -1.319E+01   -1.282E+01   -1.245E+01   -1.209E+01   -1.174E+01   -1.139E+01   -1.104E+01   -1.070E+01   -1.036E+01
    -1.003E+01   -9.701E+00   -9.379E+00   -9.061E+00   -8.749E+00   -8.442E+00   -8.140E+00   -7.843E+00   -7.552E+00   -7.267E+00
    -6.987E+00   -6.712E+00   -6.444E+00   -6.181E+00   -5.924E+00   -5.673E+00   -5.428E+00   -5.189E+00   -4.956E+00   -4.729E+00
    -4.507E+00   -4.290E+00   -4.079E+00   -3.872E+00   -3.671E+00   -3.474E+00   -3.281E+00   -3.093E+00   -2.908E+00   -2.728E+00
    -2.552E+00   -2.379E+00   -2.209E+00   -2.043E+00   -1.879E+00   -1.719E+00   -1.561E+00   -1.406E+00   -1.254E+00   -1.103E+00
    -9.547E-01   -8.081E-01   -6.632E-01   -5.197E-01   -3.776E-01   -2.367E-01   -9.677E-02    4.235E-02    1.808E-01    3.188E-01
     4.565E-01    5.941E-01    7.317E-01    8.696E-01    1.008E+00    1.147E+00    1.286E+00    1.427E+00    1.568E+00    1.711E+00
     1.855E+00    2.001E+00    2.149E+00    2.298E+00    2.449E+00    2.601E+00    2.755E+00    2.910E+00    3.066E+00    3.224E+00
     3.383E+00    3.544E+00    3.705E+00    3.867E+00    4.031E+00    4.195E+00    4.360E+00    4.526E+00    4.693E+00    4.860E+00
     5.028E+00    5.197E+00    5.366E+00    5.536E+00    5.706E+00    5.876E+00    6.046E+00    6.217E+00    6.388E+00    6.559E+00
     6.730E+00    6.901E+00    7.072E+00    7.242E+00    7.413E+00    7.583E+00    7.753E+00    7.922E+00    8.091E+00    8.260E+00
     8.428E+00    8.595E+00    8.762E+00    8.927E+00    9.092E+00    9.257E+00    9.420E+00    9.582E+00    9.743E+00    9.903E+00
     1.006E+01    1.022E+01    1.038E+01    1.053E+01    1.069E+01    1.084E+01    1.100E+01    1.115E+01    1.130E+01    1.145E+01
     1.160E+01    1.175E+01    1.189E+01    1.204E+01    1.218E+01    1.233E+01    1.247E+01    1.261E+01    1.275E+01    1.289E+01
     1.303E+01    1.317E+01    1.331E+01    1.344E+01    1.358E+01    1.371E+01    1.384E+01    1.397E+01    1.410E+01    1.423E+01
     1.436E+01    1.449E+01    1.461E+01    1.474E+01    1.486E+01    1.499E+01    1.511E+01    1.523E+01    1.535E+01    1.547E+01
     1.558E+01    1.570E+01    1.582E+01    1.593E+01    1.604E+01    1.616E+01    1.627E+01    1.638E+01    1.648E+01    1.659E+01
     1.670E+01    1.680E+01    1.690E+01    1.701E+01    1.711E+01    1.720E+01    1.730E+01    1.740E+01    1.749E+01    1.758E+01
     1.768E+01    1.777E+01    1.785E+01    1.794E+01    1.802E+01    1.811E+01    1.819E+01    1.827E+01    1.835E+01    1.842E+01
     1.850E+01    1.857E+01    1.864E+01    1.871E+01    1.877E+01    1.884E+01    1.890E+01    1.896E+01    1.902E+01    1.907E+01
     1.913E+01    1.918E+01    1.923E+01    1.928E+01    1.932E+01    1.937E+01    1.941E+01    1.945E+01    1.948E+01    1.952E+01
     1.955E+01    1.958E+01    1.960E+01    1.963E+01    1.965E+01    1.967E+01    1.969E+01    1.971E+01    1.972E+01    1.973E+01
     1.974E+01    1.975E+01    1.976E+01    1.976E+01    1.977E+01    1.977E+01    1.977E+01    1.976E+01    1.976E+01    1.975E+01
     1.974E+01    1.973E+01    1.972E+01    1.971E+01    1.969E+01    1.968E+01    1.966E+01    1.964E+01    1.962E+01    1.959E+01
     1.957E+01    1.954E+01    1.951E+01    1.948E+01    1.945E+01    1.942E+01    1.939E+01    1.935E+01    1.931E+01    1.928E+01
     1.924E+01    1.920E+01    1.916E+01    1.911E+01    1.907E+01    1.902E+01    1.898E+01    1.893E+01    1.888E+01    1.883E+01
     1.879E+01    1.874E+01    1.868E+01    1.863E+01    1.858E+01    1.853E+01    1.848E+01    1.843E+01    1.837E+01    1.832E+01
     1.827E+01    1.821E+01    1.816E+01    1.811E+01    1.806E+01    1.801E+01    1.795E+01    1.790E+01    1.785E+01    1.780E+01
     1.775E+01    1.770E+01    1.766E+01    1.761E+01    1.756E+01    1.752E+01    1.748E+01    1.743E+01    1.739E+01    1.735E+01
     1.731E+01    1.728E+01    1.724E+01    1.721E+01    1.717E+01    1.714E+01    1.711E+01    1.709E+01    1.706E+01    1.704E+01
     1.702E+01    1.700E+01    1.698E+01    1.696E+01    1.695E+01    1.693E+01    1.692E+01    1.691E+01    1.690E+01    1.689E+01
     1.688E+01    1.688E+01    1.687E+01    1.687E+01    1.686E+01    1.686E+01    1.686E+01    1.686E+01    1.686E+01    1.686E+01
     1.686E+01    1.686E+01    1.686E+01    1.687E+01    1.687E+01    1.687E+01    1.688E+01    1.688E+01    1.688E+01    1.689E+01
     1.689E+01    1.689E+01    1.690E+01    1.690E+01    1.690E+01    1.691E+01    1.691E+01    1.691E+01    1.691E+01    1.691E+01
     1.691E+01    1.691E+01    1.691E+01    1.691E+01    1.691E+01    1.691E+01    1.690E+01    1.690E+01    1.689E+01    1.689E+01
     1.688E+01    1.687E+01    1.686E+01    1.686E+01    1.685E+01    1.684E+01    1.683E+01    1.682E+01    1.680E+01    1.679E+01
     1.678E+01    1.677E+01    1.675E+01    1.674E+01    1.672E+01    1.671E+01    1.669E+01    1.668E+01    1.666E+01    1.664E+01
     1.663E+01    1.661E+01    1.659E+01    1.657E+01    1.655E+01    1.653E+01    1.651E+01    1.649E+01    1.647E+01    1.645E+01
     1.643E+01    1.641E+01    1.639E+01    1.637E+01    1.634E+01    1.632E+01    1.630E+01    1.628E+01
 Ala      Conc. = 3.89E+01
