 LCModel (Version 6.3-1L) Copyright: S.W. Provencher.          Ref.: Magn. Reson. Med. 30:672-679 (1993).                
 Slice#1 Row#13 Col#7  K_02_press_1_raw_act
 36 lines in following concentration table = NCONC+1
    Conc.  %SD /Cr+PCr  Metabolite                                         
   48.562 151% 7.1E-02 Ala                                                 
    0.000 999%   0.000 Asp                                                 
   60.193 290% 8.8E-02 Cr                                                  
  625.375  29%   0.912 PCr                                                 
   23.111 335% 3.4E-02 GABA                                                
   73.015 104%   0.107 Glc                                                 
  187.256  82%   0.273 Gln                                                 
  876.731  21%   1.279 Glu                                                 
  158.273   8%   0.231 GPC                                                 
    0.000 999%   0.000 PCh                                                 
  238.773  21%   0.348 GSH                                                 
  837.849  21%   1.222 Ins                                                 
  103.247  79%   0.151 Lac                                                 
 1.41E+03   3%   2.062 NAA                                                 
    0.000 999%   0.000 NAAG                                                
   49.870  32% 7.3E-02 Scyllo                                              
  233.828  48%   0.341 Tau                                                 
  356.176  21%   0.520 -CrCH2                                              
  158.273   8%   0.231 GPC+PCh                                             
 1.41E+03   3%   2.062 NAA+NAAG                                            
  685.568   5%   1.000 Cr+PCr                                              
 1.06E+03  24%   1.552 Glu+Gln                                             
  301.187  48%   0.439 Lip13a                                              
    0.000 999%   0.000 Lip13b                                              
    0.000 999%   0.000 Lip09                                               
  334.867  30%   0.488 MM09                                                
   60.473  80% 8.8E-02 Lip20                                               
  595.870  28%   0.869 MM20                                                
   98.193  42%   0.143 MM12                                                
  453.990  27%   0.662 MM14                                                
  217.755  38%   0.318 MM17                                                
  301.187  48%   0.439 Lip13a+Lip13b                                       
  853.369  23%   1.245 MM14+Lip13a+Lip13b+MM12                             
  334.867  30%   0.488 MM09+Lip09                                          
  656.343  26%   0.957 MM20+Lip20                                          
   6 lines in following misc. output table
  FWHM = 0.061 ppm    S/N =  10                                            
  Data shift =-0.031 ppm                                                   
  Ph: -51 deg     -15.3 deg/ppm                                            
  alphaB,S = 9.1E-01,   8.8E+01                                            
   14 spline knots.   Ns = 7(1)                                            
  (12) 2 infls.   (13) 1 extrs.                                            
  498 points on ppm-axis = NY
      4.000000     3.992357     3.984714     3.977070     3.969427     3.961784     3.954141     3.946497     3.938854     3.931211
      3.923568     3.915925     3.908281     3.900638     3.892995     3.885352     3.877708     3.870065     3.862422     3.854779
      3.847136     3.839492     3.831849     3.824206     3.816563     3.808919     3.801276     3.793633     3.785990     3.778347
      3.770703     3.763060     3.755417     3.747774     3.740130     3.732487     3.724844     3.717201     3.709558     3.701914
      3.694271     3.686628     3.678985     3.671341     3.663698     3.656055     3.648412     3.640769     3.633125     3.625482
      3.617839     3.610196     3.602552     3.594909     3.587266     3.579623     3.571980     3.564336     3.556693     3.549050
      3.541407     3.533763     3.526120     3.518477     3.510834     3.503191     3.495547     3.487904     3.480261     3.472618
      3.464974     3.457331     3.449688     3.442045     3.434402     3.426758     3.419115     3.411472     3.403829     3.396185
      3.388542     3.380899     3.373256     3.365613     3.357969     3.350326     3.342683     3.335040     3.327396     3.319753
      3.312110     3.304467     3.296824     3.289180     3.281537     3.273894     3.266251     3.258607     3.250964     3.243321
      3.235678     3.228034     3.220391     3.212748     3.205105     3.197462     3.189818     3.182175     3.174532     3.166889
      3.159245     3.151602     3.143959     3.136316     3.128673     3.121029     3.113386     3.105743     3.098100     3.090456
      3.082813     3.075170     3.067527     3.059884     3.052240     3.044597     3.036954     3.029311     3.021667     3.014024
      3.006381     2.998738     2.991095     2.983451     2.975808     2.968165     2.960522     2.952878     2.945235     2.937592
      2.929949     2.922306     2.914662     2.907019     2.899376     2.891733     2.884089     2.876446     2.868803     2.861160
      2.853517     2.845873     2.838230     2.830587     2.822944     2.815300     2.807657     2.800014     2.792371     2.784728
      2.777084     2.769441     2.761798     2.754155     2.746511     2.738868     2.731225     2.723582     2.715939     2.708295
      2.700652     2.693009     2.685366     2.677722     2.670079     2.662436     2.654793     2.647150     2.639506     2.631863
      2.624220     2.616577     2.608933     2.601290     2.593647     2.586004     2.578361     2.570717     2.563074     2.555431
      2.547788     2.540144     2.532501     2.524858     2.517215     2.509572     2.501928     2.494285     2.486642     2.478999
      2.471355     2.463712     2.456069     2.448426     2.440783     2.433139     2.425496     2.417853     2.410210     2.402566
      2.394923     2.387280     2.379637     2.371994     2.364350     2.356707     2.349064     2.341421     2.333777     2.326134
      2.318491     2.310848     2.303205     2.295561     2.287918     2.280275     2.272632     2.264988     2.257345     2.249702
      2.242059     2.234416     2.226772     2.219129     2.211486     2.203843     2.196199     2.188556     2.180913     2.173270
      2.165627     2.157983     2.150340     2.142697     2.135054     2.127410     2.119767     2.112124     2.104481     2.096838
      2.089194     2.081551     2.073908     2.066265     2.058621     2.050978     2.043335     2.035692     2.028049     2.020405
      2.012762     2.005119     1.997476     1.989833     1.982190     1.974546     1.966903     1.959260     1.951617     1.943974
      1.936331     1.928688     1.921045     1.913402     1.905759     1.898115     1.890472     1.882829     1.875186     1.867543
      1.859900     1.852257     1.844614     1.836971     1.829327     1.821684     1.814041     1.806398     1.798755     1.791112
      1.783469     1.775826     1.768183     1.760540     1.752896     1.745253     1.737610     1.729967     1.722324     1.714681
      1.707038     1.699395     1.691752     1.684108     1.676465     1.668822     1.661179     1.653536     1.645893     1.638250
      1.630607     1.622964     1.615321     1.607677     1.600034     1.592391     1.584748     1.577105     1.569462     1.561819
      1.554176     1.546533     1.538890     1.531246     1.523603     1.515960     1.508317     1.500674     1.493031     1.485388
      1.477745     1.470102     1.462458     1.454815     1.447172     1.439529     1.431886     1.424243     1.416600     1.408957
      1.401314     1.393671     1.386027     1.378384     1.370741     1.363098     1.355455     1.347812     1.340169     1.332526
      1.324883     1.317240     1.309596     1.301953     1.294310     1.286667     1.279024     1.271381     1.263738     1.256095
      1.248452     1.240808     1.233165     1.225522     1.217879     1.210236     1.202593     1.194950     1.187307     1.179664
      1.172021     1.164377     1.156734     1.149091     1.141448     1.133805     1.126162     1.118519     1.110876     1.103233
      1.095590     1.087946     1.080303     1.072660     1.065017     1.057374     1.049731     1.042088     1.034445     1.026802
      1.019158     1.011515     1.003872     0.996229     0.988586     0.980943     0.973300     0.965657     0.958014     0.950371
      0.942727     0.935084     0.927441     0.919798     0.912155     0.904512     0.896869     0.889226     0.881583     0.873940
      0.866296     0.858653     0.851010     0.843367     0.835724     0.828081     0.820438     0.812795     0.805152     0.797508
      0.789865     0.782222     0.774579     0.766936     0.759293     0.751650     0.744007     0.736364     0.728721     0.721077
      0.713434     0.705791     0.698148     0.690505     0.682862     0.675219     0.667576     0.659933     0.652290     0.644646
      0.637003     0.629360     0.621717     0.614074     0.606431     0.598788     0.591145     0.583502     0.575858     0.568215
      0.560572     0.552929     0.545286     0.537643     0.530000     0.522357     0.514714     0.507071     0.499427     0.491784
      0.484141     0.476498     0.468855     0.461212     0.453569     0.445925     0.438282     0.430639     0.422996     0.415353
      0.407710     0.400067     0.392424     0.384780     0.377137     0.369494     0.361851     0.354208     0.346565     0.338922
      0.331278     0.323635     0.315992     0.308349     0.300706     0.293063     0.285420     0.277777     0.270133     0.262490
      0.254847     0.247204     0.239561     0.231918     0.224275     0.216631     0.208988     0.201345
 NY phased data points follow
  -2.35436E+01 -2.03684E+01 -2.40103E+01 -1.86180E+01 -1.87644E+01 -2.05827E+01 -1.88414E+01 -1.21286E+01 -1.40141E+01 -1.35396E+01
  -1.00216E+01 -9.77298E+00 -1.30740E+01 -1.16185E+01 -1.38729E+01 -1.50544E+01 -1.49982E+01 -2.01563E+01 -1.75843E+01 -1.96937E+01
  -2.04263E+01 -1.95600E+01 -1.55542E+01 -1.81698E+01 -1.27586E+01 -1.64088E+01 -1.07051E+01 -1.19536E+01 -9.62338E+00 -1.25853E+01
  -9.54223E+00 -1.13862E+01 -1.10142E+01 -1.40042E+01 -1.18602E+01 -1.06439E+01 -1.24914E+01 -1.25246E+01 -1.26798E+01 -1.29838E+01
  -1.23770E+01 -1.33587E+01 -1.08613E+01 -9.14378E+00 -1.30013E+01 -7.47458E+00 -7.92293E+00 -9.96166E+00 -7.28917E+00 -8.27198E+00
  -7.75599E+00 -6.83354E+00 -3.97985E+00 -9.26322E+00 -1.10156E+01 -9.47557E+00 -1.17602E+01 -9.90597E+00 -8.79310E+00 -8.92815E+00
  -7.44974E+00 -8.82916E+00 -7.77301E+00 -1.03169E+01 -6.75828E+00 -8.69999E+00 -1.29087E+01 -8.89676E+00 -9.24053E+00 -1.11591E+01
  -9.94178E+00 -1.20309E+01 -9.16650E+00 -6.52937E+00 -8.39983E+00 -9.71830E+00 -7.74093E+00 -4.87388E+00 -1.07426E+01 -6.82964E+00
  -1.01567E+01 -6.87670E+00 -1.14799E+01 -9.36869E+00 -8.28673E+00 -8.28575E+00 -9.93669E+00 -4.83519E+00 -9.32154E+00 -5.46081E+00
  -5.26369E+00 -6.51988E+00 -4.76522E+00 -6.17044E+00 -4.99296E+00 -6.06111E+00 -5.03387E+00 -1.30446E+00 -2.37325E+00  2.38027E-01
   7.55623E-01  9.48310E-01  5.74220E+00  3.98811E+00  6.08467E+00  6.35436E+00  1.71075E+00  1.64607E+00 -4.53338E+00 -7.19462E-01
  -3.33084E+00 -1.04035E+01 -6.19529E+00 -7.89303E+00 -4.43511E+00 -4.12573E+00 -5.35908E+00 -4.87191E+00 -4.23081E+00 -4.27067E+00
   2.11316E-02 -4.00777E+00  2.30030E-01  5.35151E+00  1.02591E+01  9.55865E+00  1.48296E+01  1.46561E+01  1.69429E+01  1.36443E+01
   9.68690E+00  8.83120E+00  3.16494E+00  2.24741E+00 -9.61989E-01 -3.02469E+00 -4.86922E+00 -4.41297E+00 -3.67481E+00 -4.52797E+00
  -2.84897E+00 -3.09150E+00 -4.41652E+00 -1.56014E+00 -1.50735E+00 -1.53762E+00 -6.18630E+00 -4.06675E+00 -3.84972E+00 -3.20592E+00
  -3.72873E+00 -1.13906E+00 -3.72283E+00 -3.57011E+00 -1.51488E+00 -4.81770E+00 -4.36081E+00 -2.93148E+00 -2.68881E+00 -1.52070E+00
   4.05982E-01 -3.71327E+00 -2.63821E+00 -2.16915E+00 -4.40439E+00 -1.44098E+00 -2.65213E+00 -5.28652E+00 -1.96055E+00 -7.67375E+00
  -5.61841E+00 -5.65968E+00 -8.57773E+00 -1.00621E+01 -7.89939E+00 -8.83826E+00 -9.73100E+00 -7.51296E+00 -7.65102E+00 -5.94597E+00
  -7.30106E+00 -1.48067E+00 -5.63447E+00 -2.41644E+00 -3.57789E+00 -5.33293E+00 -3.90035E+00 -7.33283E+00 -5.52256E+00 -6.80609E+00
  -6.63464E+00 -1.63016E+00  2.16243E-01 -1.04392E+00 -2.16458E+00 -3.39959E+00 -5.16520E+00 -3.44253E+00 -3.16956E+00 -9.41910E-01
  -6.46842E+00 -1.06389E+00  2.58255E+00  1.67662E+00  2.65755E+00  3.23861E-02 -2.42249E+00  2.10257E-01 -4.86171E-01 -1.08452E+00
  -6.78899E-01  5.25301E-01  4.33031E+00  5.71037E+00  6.89209E+00  4.84199E+00  3.65245E+00  1.65732E+00  3.82676E+00  1.34793E+00
  -9.43031E-01 -3.40530E+00  5.17249E-01  1.29561E+00 -8.51535E-01  6.00539E-01  2.12889E+00 -2.12689E-02  3.51761E+00  2.97867E+00
   5.61276E+00  7.83601E+00  2.74853E+00  6.37120E+00  3.05961E+00  5.90591E+00  2.70554E+00  4.83927E+00  2.10087E+00  6.23601E+00
   1.83254E+00  1.11791E+00  2.07914E+00  4.99201E-01  1.52334E+00  2.64090E+00  5.92541E+00  4.75442E+00  6.35863E+00  4.18115E+00
   6.12428E+00  5.77556E+00  6.52145E+00  9.25734E+00  7.72246E+00  1.50618E+01  1.88556E+01  2.95791E+01  4.04096E+01  4.81907E+01
   4.69965E+01  4.84653E+01  4.09797E+01  3.64506E+01  3.14672E+01  2.36549E+01  1.66688E+01  9.32937E+00  8.62462E+00  5.45662E+00
   5.30344E+00  5.24027E+00  5.77750E+00  3.89659E+00  5.06587E+00  4.85279E+00  2.39017E+00  4.28221E+00  5.52528E+00  3.61500E+00
   6.00633E+00  6.40119E+00  4.96653E+00  1.73908E+00  3.80038E+00  1.83783E+00  6.08222E+00  5.52892E+00  4.64346E+00  1.16969E+00
   7.39157E+00  1.61602E+00  2.09829E+00  3.55940E+00  4.22342E+00  4.82458E+00  6.32255E+00  7.67796E+00  2.55130E+00  6.59495E+00
   4.34512E+00  2.82978E+00  7.21427E+00  5.10178E+00  5.12961E+00  5.50508E+00  7.79266E-01  7.54917E+00  5.91303E+00  3.89275E+00
   5.64709E+00  6.33950E+00  6.09987E+00  5.51062E+00  4.19262E+00  4.51616E+00  5.10711E+00  7.97382E+00  3.01106E+00  6.66382E+00
   5.72862E+00  5.40664E+00  5.54377E+00  3.09813E+00  4.69994E+00  5.19539E+00  3.99079E+00  6.22466E+00  5.51092E+00  7.38362E+00
   4.53938E+00  8.82968E+00  3.29474E+00  5.46618E+00  4.38135E+00  7.90071E+00  6.82207E+00  4.04726E+00  8.51081E+00  5.65899E+00
   8.60489E+00  8.84129E+00  4.10519E+00  7.73541E+00  1.05072E+01  4.18478E+00  1.03653E+01  8.86374E+00  7.10199E+00  4.56977E+00
   4.20208E+00  7.39303E+00  8.53562E+00  3.43750E+00  3.44829E+00  3.35719E+00  5.24197E+00  8.52099E-01  4.57272E+00  2.79228E+00
   7.77626E+00  5.87302E+00  5.37222E+00  5.09260E+00  6.62670E+00  5.97511E+00  1.69676E+00  2.22308E+00  2.92799E+00  5.73833E+00
   5.71807E+00  1.35707E+00  7.41957E+00  4.08071E+00  3.43499E+00  6.21502E-01  2.41600E+00  4.46576E+00  4.06180E+00  3.37887E+00
  -2.45090E+00  2.08811E+00  2.03758E+00  3.98613E+00  1.42713E+00 -1.15032E+00  3.96728E-01  7.75273E-01  1.38315E+00  4.23576E-01
   3.41122E+00  1.33630E+00  2.37969E-01  3.02807E+00  2.34227E+00  4.13867E+00  5.45127E+00  4.85099E+00  2.50004E+00  3.54731E+00
   2.65715E+00  3.55063E+00  4.63225E+00  1.67931E+00  1.66481E+00  2.83007E+00  6.03366E+00  1.32199E+00  3.67981E+00  4.24167E+00
   5.10828E+00  6.16822E+00  3.97586E+00  4.10167E+00  2.45424E+00  2.15514E+00  9.65624E-01  2.05398E+00  1.71958E+00  6.36629E+00
   5.00003E+00  1.41835E+00  4.10030E+00  1.73187E+00  3.64158E+00  2.82709E+00  1.18948E+00  2.71968E-01  5.09990E-01  5.52425E-01
   8.04153E-01  2.76970E+00  2.89941E+00  6.78737E-01  7.67215E-01  1.68155E+00  2.13251E+00  3.70666E+00  2.87904E-01  1.37667E+00
   7.73458E-01  2.39875E-01  1.80423E+00  3.07407E+00  1.96286E+00  1.57640E+00  2.17943E+00  1.30439E+00  3.62251E+00  1.33175E+00
   2.27773E+00  9.20536E-01  9.13742E-01  9.92448E-01  1.80166E-01  1.83316E+00  2.19805E+00  3.20727E+00  1.41069E+00  4.15901E+00
   1.07779E+00  3.21608E+00  3.89855E+00  3.19434E+00  7.11416E-01  4.62431E+00 -1.32742E+00  1.91262E+00  1.73570E+00  3.63654E+00
   2.38642E+00  3.19318E+00  5.78005E+00 -4.25974E-01  2.23822E+00  4.05430E+00 -3.87718E-01  5.86695E+00  1.48203E+00  3.20037E+00
   3.72895E+00  1.01481E+00  3.28151E+00  1.43564E+00  3.78504E-01 -4.89614E-01  2.31016E+00  1.07474E+00  3.16561E+00  3.19388E+00
   2.22107E-01  3.94098E-01  3.03425E+00  5.05057E-03  2.47676E+00  1.87563E+00  1.74475E+00  2.57467E+00
 NY points of the fit to the data follow
  -1.91978E+01 -1.95604E+01 -1.96239E+01 -1.93274E+01 -1.87876E+01 -1.78238E+01 -1.63472E+01 -1.46224E+01 -1.31106E+01 -1.20724E+01
  -1.15776E+01 -1.16141E+01 -1.20280E+01 -1.26727E+01 -1.35132E+01 -1.44500E+01 -1.53220E+01 -1.60116E+01 -1.63457E+01 -1.63806E+01
  -1.63145E+01 -1.62380E+01 -1.60807E+01 -1.57662E+01 -1.53834E+01 -1.48088E+01 -1.39075E+01 -1.27695E+01 -1.16389E+01 -1.06678E+01
  -9.92017E+00 -9.50766E+00 -9.49768E+00 -9.84214E+00 -1.04922E+01 -1.13416E+01 -1.22250E+01 -1.30189E+01 -1.35914E+01 -1.38690E+01
  -1.38470E+01 -1.34734E+01 -1.27662E+01 -1.17398E+01 -1.04649E+01 -9.16289E+00 -8.14552E+00 -7.64143E+00 -7.68637E+00 -8.15976E+00
  -8.90471E+00 -9.77499E+00 -1.06323E+01 -1.13610E+01 -1.18571E+01 -1.20002E+01 -1.17475E+01 -1.11889E+01 -1.05410E+01 -1.00008E+01
  -9.66722E+00 -9.55769E+00 -9.60238E+00 -9.72343E+00 -9.86251E+00 -9.94501E+00 -9.95257E+00 -9.88424E+00 -9.67851E+00 -9.30994E+00
  -8.86390E+00 -8.41126E+00 -7.99536E+00 -7.68196E+00 -7.53809E+00 -7.55618E+00 -7.69987E+00 -7.92658E+00 -8.14964E+00 -8.28614E+00
  -8.28420E+00 -8.17558E+00 -7.98180E+00 -7.69545E+00 -7.38382E+00 -7.17723E+00 -7.16220E+00 -7.30070E+00 -7.51680E+00 -7.74708E+00
  -7.95506E+00 -8.12990E+00 -8.24057E+00 -8.26056E+00 -8.14133E+00 -7.71733E+00 -6.73205E+00 -5.36629E+00 -3.54110E+00 -1.06108E+00
   1.72611E+00  4.07273E+00  5.44528E+00  5.77330E+00  5.18339E+00  3.92915E+00  2.28571E+00  3.89168E-01 -1.61002E+00 -3.44220E+00
  -4.86822E+00 -5.73980E+00 -6.07710E+00 -6.19001E+00 -6.24189E+00 -6.26511E+00 -6.27137E+00 -6.24316E+00 -6.14303E+00 -5.77227E+00
  -4.60509E+00 -2.68857E+00  3.15317E-02  3.83155E+00  8.28815E+00  1.22464E+01  1.47769E+01  1.56762E+01  1.50871E+01  1.33460E+01
   1.08606E+01  7.82179E+00  4.42210E+00  1.12388E+00 -1.58124E+00 -3.37119E+00 -4.14077E+00 -4.30743E+00 -4.23064E+00 -4.03111E+00
  -3.78310E+00 -3.53474E+00 -3.31934E+00 -3.18147E+00 -3.14292E+00 -3.18610E+00 -3.28943E+00 -3.42110E+00 -3.54112E+00 -3.62898E+00
  -3.67644E+00 -3.69022E+00 -3.67492E+00 -3.63789E+00 -3.61929E+00 -3.62835E+00 -3.67083E+00 -3.76858E+00 -3.89402E+00 -4.00156E+00
  -4.03018E+00 -3.94635E+00 -3.79579E+00 -3.67006E+00 -3.63003E+00 -3.66383E+00 -3.74098E+00 -3.85150E+00 -3.99935E+00 -4.21476E+00
  -4.50794E+00 -4.80379E+00 -5.07169E+00 -5.28172E+00 -5.38833E+00 -5.37082E+00 -5.26248E+00 -5.14428E+00 -5.05724E+00 -4.98260E+00
  -4.91172E+00 -4.82477E+00 -4.71690E+00 -4.60362E+00 -4.42972E+00 -4.08432E+00 -3.49879E+00 -2.71798E+00 -1.88063E+00 -1.12779E+00
  -5.61664E-01 -2.08850E-01 -2.72202E-02 -5.94296E-03 -1.22682E-01 -3.12166E-01 -4.79021E-01 -4.96225E-01 -3.15162E-01  5.94525E-02
   5.82829E-01  1.16653E+00  1.66604E+00  1.91163E+00  1.86111E+00  1.50792E+00  8.61270E-01  6.92922E-02 -6.45346E-01 -1.06915E+00
  -1.13307E+00 -7.48416E-01  1.26002E-01  1.27174E+00  2.28710E+00  2.81909E+00  2.72725E+00  2.07039E+00  9.64354E-01 -4.05931E-01
  -1.66808E+00 -2.48127E+00 -2.68152E+00 -2.27232E+00 -1.39708E+00 -2.54436E-01  8.98006E-01  1.87293E+00  2.58139E+00  3.01182E+00
   3.24251E+00  3.33302E+00  3.37245E+00  3.47378E+00  3.64572E+00  3.78754E+00  3.79646E+00  3.66948E+00  3.43415E+00  3.11500E+00
   2.79330E+00  2.62321E+00  2.67753E+00  2.91141E+00  3.25679E+00  3.65298E+00  4.03587E+00  4.33746E+00  4.55431E+00  4.72576E+00
   4.90919E+00  5.15299E+00  5.65026E+00  7.30402E+00  1.06587E+01  1.53666E+01  2.20486E+01  3.06302E+01  3.91230E+01  4.50712E+01
   4.74808E+01  4.65811E+01  4.29618E+01  3.75654E+01  3.11922E+01  2.42291E+01  1.73623E+01  1.15416E+01  7.38605E+00  5.19733E+00
   4.47698E+00  4.22584E+00  4.13507E+00  4.12152E+00  4.13278E+00  4.14023E+00  4.13441E+00  4.10512E+00  4.04940E+00  3.97424E+00
   3.89157E+00  3.81345E+00  3.75380E+00  3.71998E+00  3.70853E+00  3.71505E+00  3.73601E+00  3.76685E+00  3.80343E+00  3.84337E+00
   3.88615E+00  3.93357E+00  3.98619E+00  4.04437E+00  4.10768E+00  4.17538E+00  4.24614E+00  4.31832E+00  4.39006E+00  4.46002E+00
   4.52629E+00  4.58722E+00  4.64118E+00  4.68687E+00  4.72320E+00  4.74985E+00  4.76685E+00  4.77489E+00  4.77482E+00  4.76807E+00
   4.75623E+00  4.74149E+00  4.72609E+00  4.71255E+00  4.70311E+00  4.70027E+00  4.70642E+00  4.72442E+00  4.75765E+00  4.81196E+00
   4.89635E+00  5.00231E+00  5.11731E+00  5.23883E+00  5.34235E+00  5.39115E+00  5.37030E+00  5.29585E+00  5.20436E+00  5.13205E+00
   5.09570E+00  5.11966E+00  5.22760E+00  5.41953E+00  5.66279E+00  5.91757E+00  6.15400E+00  6.34418E+00  6.48098E+00  6.58145E+00
   6.66793E+00  6.74577E+00  6.79434E+00  6.82864E+00  6.83225E+00  6.73445E+00  6.47492E+00  6.07127E+00  5.60891E+00  5.16881E+00
   4.79621E+00  4.55544E+00  4.49513E+00  4.60920E+00  4.83573E+00  5.09989E+00  5.34408E+00  5.51227E+00  5.57112E+00  5.53439E+00
   5.41096E+00  5.21626E+00  4.98212E+00  4.74260E+00  4.53313E+00  4.36534E+00  4.22013E+00  4.08761E+00  3.96399E+00  3.84788E+00
   3.73853E+00  3.63582E+00  3.53967E+00  3.45030E+00  3.36783E+00  3.29257E+00  3.22461E+00  3.16420E+00  3.11143E+00  3.06660E+00
   3.02984E+00  3.00146E+00  2.98159E+00  2.97055E+00  2.96853E+00  2.97593E+00  2.99297E+00  3.01996E+00  3.05699E+00  3.10422E+00
   3.16149E+00  3.22869E+00  3.30522E+00  3.39039E+00  3.48296E+00  3.58159E+00  3.68437E+00  3.78926E+00  3.89370E+00  3.99503E+00
   4.09027E+00  4.17657E+00  4.25098E+00  4.31093E+00  4.35396E+00  4.37824E+00  4.38231E+00  4.36556E+00  4.32785E+00  4.26987E+00
   4.19276E+00  4.09841E+00  3.98903E+00  3.86739E+00  3.73627E+00  3.59873E+00  3.45757E+00  3.31562E+00  3.17533E+00  3.03898E+00
   2.90827E+00  2.78469E+00  2.66915E+00  2.56238E+00  2.46463E+00  2.37602E+00  2.29626E+00  2.22503E+00  2.16171E+00  2.10581E+00
   2.05660E+00  2.01353E+00  1.97585E+00  1.94301E+00  1.91437E+00  1.88950E+00  1.86787E+00  1.84914E+00  1.83285E+00  1.81876E+00
   1.80651E+00  1.79598E+00  1.78688E+00  1.77911E+00  1.77243E+00  1.76678E+00  1.76198E+00  1.75804E+00  1.75479E+00  1.75221E+00
   1.75016E+00  1.74866E+00  1.74760E+00  1.74703E+00  1.74682E+00  1.74701E+00  1.74748E+00  1.74830E+00  1.74937E+00  1.75077E+00
   1.75238E+00  1.75425E+00  1.75628E+00  1.75856E+00  1.76100E+00  1.76368E+00  1.76647E+00  1.76944E+00  1.77252E+00  1.77579E+00
   1.77917E+00  1.78271E+00  1.78632E+00  1.79007E+00  1.79390E+00  1.79787E+00  1.80192E+00  1.80609E+00  1.81029E+00  1.81461E+00
   1.81897E+00  1.82347E+00  1.82800E+00  1.83263E+00  1.83728E+00  1.84203E+00  1.84683E+00  1.85174E+00  1.85667E+00  1.86170E+00
   1.86674E+00  1.87190E+00  1.87711E+00  1.88245E+00  1.88782E+00  1.89330E+00  1.89884E+00  1.90455E+00
 NY background values follow
    -2.123E+01   -2.109E+01   -2.094E+01   -2.080E+01   -2.066E+01   -2.052E+01   -2.038E+01   -2.024E+01   -2.010E+01   -1.995E+01
    -1.981E+01   -1.967E+01   -1.953E+01   -1.939E+01   -1.925E+01   -1.911E+01   -1.897E+01   -1.883E+01   -1.868E+01   -1.854E+01
    -1.840E+01   -1.826E+01   -1.812E+01   -1.798E+01   -1.784E+01   -1.770E+01   -1.756E+01   -1.742E+01   -1.729E+01   -1.715E+01
    -1.701E+01   -1.687E+01   -1.673E+01   -1.659E+01   -1.646E+01   -1.632E+01   -1.618E+01   -1.605E+01   -1.591E+01   -1.577E+01
    -1.564E+01   -1.550E+01   -1.537E+01   -1.524E+01   -1.510E+01   -1.497E+01   -1.484E+01   -1.471E+01   -1.457E+01   -1.444E+01
    -1.431E+01   -1.418E+01   -1.405E+01   -1.392E+01   -1.379E+01   -1.367E+01   -1.354E+01   -1.341E+01   -1.328E+01   -1.316E+01
    -1.303E+01   -1.291E+01   -1.278E+01   -1.266E+01   -1.254E+01   -1.241E+01   -1.229E+01   -1.217E+01   -1.205E+01   -1.193E+01
    -1.181E+01   -1.169E+01   -1.157E+01   -1.145E+01   -1.134E+01   -1.122E+01   -1.110E+01   -1.099E+01   -1.087E+01   -1.076E+01
    -1.065E+01   -1.053E+01   -1.042E+01   -1.031E+01   -1.020E+01   -1.009E+01   -9.980E+00   -9.871E+00   -9.764E+00   -9.657E+00
    -9.550E+00   -9.444E+00   -9.340E+00   -9.235E+00   -9.132E+00   -9.029E+00   -8.927E+00   -8.826E+00   -8.725E+00   -8.625E+00
    -8.526E+00   -8.428E+00   -8.330E+00   -8.233E+00   -8.136E+00   -8.040E+00   -7.945E+00   -7.851E+00   -7.757E+00   -7.664E+00
    -7.572E+00   -7.480E+00   -7.389E+00   -7.299E+00   -7.209E+00   -7.120E+00   -7.032E+00   -6.944E+00   -6.857E+00   -6.771E+00
    -6.685E+00   -6.600E+00   -6.515E+00   -6.431E+00   -6.348E+00   -6.265E+00   -6.183E+00   -6.102E+00   -6.021E+00   -5.941E+00
    -5.861E+00   -5.782E+00   -5.704E+00   -5.626E+00   -5.549E+00   -5.472E+00   -5.396E+00   -5.321E+00   -5.246E+00   -5.171E+00
    -5.098E+00   -5.024E+00   -4.951E+00   -4.879E+00   -4.807E+00   -4.736E+00   -4.665E+00   -4.595E+00   -4.524E+00   -4.455E+00
    -4.386E+00   -4.317E+00   -4.248E+00   -4.180E+00   -4.112E+00   -4.045E+00   -3.977E+00   -3.910E+00   -3.844E+00   -3.777E+00
    -3.711E+00   -3.645E+00   -3.579E+00   -3.514E+00   -3.448E+00   -3.383E+00   -3.318E+00   -3.253E+00   -3.189E+00   -3.124E+00
    -3.059E+00   -2.995E+00   -2.931E+00   -2.866E+00   -2.802E+00   -2.738E+00   -2.673E+00   -2.609E+00   -2.545E+00   -2.480E+00
    -2.416E+00   -2.352E+00   -2.287E+00   -2.223E+00   -2.158E+00   -2.093E+00   -2.029E+00   -1.964E+00   -1.899E+00   -1.835E+00
    -1.770E+00   -1.706E+00   -1.641E+00   -1.577E+00   -1.512E+00   -1.448E+00   -1.384E+00   -1.320E+00   -1.256E+00   -1.192E+00
    -1.129E+00   -1.066E+00   -1.002E+00   -9.394E-01   -8.766E-01   -8.141E-01   -7.518E-01   -6.898E-01   -6.280E-01   -5.665E-01
    -5.053E-01   -4.444E-01   -3.839E-01   -3.236E-01   -2.637E-01   -2.042E-01   -1.450E-01   -8.622E-02   -2.783E-02    3.015E-02
     8.771E-02    1.448E-01    2.015E-01    2.577E-01    3.135E-01    3.687E-01    4.235E-01    4.777E-01    5.314E-01    5.846E-01
     6.373E-01    6.895E-01    7.411E-01    7.922E-01    8.428E-01    8.928E-01    9.422E-01    9.912E-01    1.040E+00    1.087E+00
     1.135E+00    1.181E+00    1.227E+00    1.273E+00    1.318E+00    1.362E+00    1.406E+00    1.450E+00    1.492E+00    1.534E+00
     1.576E+00    1.617E+00    1.657E+00    1.697E+00    1.736E+00    1.774E+00    1.812E+00    1.849E+00    1.886E+00    1.922E+00
     1.957E+00    1.992E+00    2.026E+00    2.060E+00    2.092E+00    2.125E+00    2.156E+00    2.187E+00    2.217E+00    2.247E+00
     2.276E+00    2.304E+00    2.331E+00    2.358E+00    2.384E+00    2.410E+00    2.435E+00    2.459E+00    2.483E+00    2.505E+00
     2.528E+00    2.549E+00    2.570E+00    2.590E+00    2.610E+00    2.629E+00    2.647E+00    2.665E+00    2.682E+00    2.698E+00
     2.714E+00    2.729E+00    2.743E+00    2.757E+00    2.770E+00    2.782E+00    2.794E+00    2.805E+00    2.816E+00    2.826E+00
     2.835E+00    2.844E+00    2.852E+00    2.859E+00    2.866E+00    2.872E+00    2.877E+00    2.882E+00    2.886E+00    2.890E+00
     2.893E+00    2.895E+00    2.897E+00    2.898E+00    2.898E+00    2.898E+00    2.897E+00    2.896E+00    2.894E+00    2.891E+00
     2.888E+00    2.885E+00    2.880E+00    2.875E+00    2.870E+00    2.864E+00    2.858E+00    2.851E+00    2.843E+00    2.836E+00
     2.827E+00    2.819E+00    2.810E+00    2.800E+00    2.790E+00    2.780E+00    2.769E+00    2.758E+00    2.746E+00    2.735E+00
     2.722E+00    2.710E+00    2.697E+00    2.684E+00    2.671E+00    2.658E+00    2.644E+00    2.630E+00    2.615E+00    2.601E+00
     2.586E+00    2.572E+00    2.557E+00    2.541E+00    2.526E+00    2.511E+00    2.495E+00    2.479E+00    2.464E+00    2.448E+00
     2.432E+00    2.416E+00    2.400E+00    2.384E+00    2.368E+00    2.352E+00    2.336E+00    2.320E+00    2.304E+00    2.288E+00
     2.272E+00    2.256E+00    2.240E+00    2.224E+00    2.208E+00    2.193E+00    2.177E+00    2.162E+00    2.146E+00    2.131E+00
     2.116E+00    2.101E+00    2.086E+00    2.072E+00    2.057E+00    2.043E+00    2.029E+00    2.015E+00    2.002E+00    1.989E+00
     1.975E+00    1.963E+00    1.950E+00    1.938E+00    1.926E+00    1.914E+00    1.902E+00    1.891E+00    1.880E+00    1.870E+00
     1.860E+00    1.850E+00    1.840E+00    1.831E+00    1.823E+00    1.814E+00    1.806E+00    1.799E+00    1.792E+00    1.785E+00
     1.779E+00    1.773E+00    1.767E+00    1.762E+00    1.757E+00    1.753E+00    1.749E+00    1.745E+00    1.742E+00    1.739E+00
     1.736E+00    1.734E+00    1.732E+00    1.730E+00    1.728E+00    1.727E+00    1.726E+00    1.726E+00    1.725E+00    1.725E+00
     1.725E+00    1.725E+00    1.726E+00    1.727E+00    1.728E+00    1.729E+00    1.731E+00    1.732E+00    1.734E+00    1.736E+00
     1.739E+00    1.741E+00    1.743E+00    1.746E+00    1.749E+00    1.752E+00    1.755E+00    1.758E+00    1.762E+00    1.765E+00
     1.769E+00    1.773E+00    1.776E+00    1.780E+00    1.784E+00    1.788E+00    1.792E+00    1.797E+00    1.801E+00    1.805E+00
     1.810E+00    1.814E+00    1.819E+00    1.823E+00    1.828E+00    1.832E+00    1.837E+00    1.842E+00    1.847E+00    1.852E+00
     1.856E+00    1.861E+00    1.866E+00    1.871E+00    1.876E+00    1.881E+00    1.886E+00    1.891E+00    1.896E+00    1.901E+00
     1.907E+00    1.912E+00    1.917E+00    1.922E+00    1.927E+00    1.932E+00    1.937E+00    1.942E+00    1.947E+00    1.952E+00
     1.957E+00    1.962E+00    1.967E+00    1.972E+00    1.977E+00    1.982E+00    1.987E+00    1.991E+00
 Ala      Conc. = 4.86E+01
