 LCModel (Version 6.3-1L) Copyright: S.W. Provencher.          Ref.: Magn. Reson. Med. 30:672-679 (1993).                
 Slice#1 Row#12 Col#6  K_02_press_1_raw_act
 36 lines in following concentration table = NCONC+1
    Conc.  %SD /Cr+PCr  Metabolite                                         
  106.918 117% 7.4E-02 Ala                                                 
    0.000 999%   0.000 Asp                                                 
  439.802  62%   0.303 Cr                                                  
 1.01E+03  28%   0.697 PCr                                                 
    0.000 999%   0.000 GABA                                                
    0.000 999%   0.000 Glc                                                 
  564.217  45%   0.389 Gln                                                 
 1.20E+03  23%   0.830 Glu                                                 
  399.296  52%   0.275 GPC                                                 
   17.730 999% 1.2E-02 PCh                                                 
  377.586  21%   0.260 GSH                                                 
 1.81E+03  17%   1.250 Ins                                                 
  365.517  38%   0.252 Lac                                                 
 2.62E+03   6%   1.807 NAA                                                 
   61.378 292% 4.2E-02 NAAG                                                
  146.279  19%   0.101 Scyllo                                              
  153.662 148%   0.106 Tau                                                 
  425.359  29%   0.293 -CrCH2                                              
  417.025   6%   0.287 GPC+PCh                                             
 2.68E+03   3%   1.849 NAA+NAAG                                            
 1.45E+03   4%   1.000 Cr+PCr                                              
 1.77E+03  24%   1.219 Glu+Gln                                             
 1.71E+03  36%   1.182 Lip13a                                              
    0.000 999%   0.000 Lip13b                                              
  251.941 107%   0.174 Lip09                                               
 1.55E+03  20%   1.069 MM09                                                
  398.964  45%   0.275 Lip20                                               
 3.05E+03  14%   2.105 MM20                                                
  606.905  35%   0.418 MM12                                                
 1.35E+03  28%   0.933 MM14                                                
  934.055  25%   0.644 MM17                                                
 1.71E+03  36%   1.182 Lip13a+Lip13b                                       
 3.67E+03  13%   2.533 MM14+Lip13a+Lip13b+MM12                             
 1.80E+03  12%   1.242 MM09+Lip09                                          
 3.45E+03  12%   2.381 MM20+Lip20                                          
   6 lines in following misc. output table
  FWHM = 0.061 ppm    S/N =  14                                            
  Data shift =-0.008 ppm                                                   
  Ph: -46 deg     -11.4 deg/ppm                                            
  alphaB,S = 1.3E+00,   1.6E+02                                            
   14 spline knots.   Ns = 8(1)                                            
  (14) 4 infls.   (11) 1 extrs.                                            
  498 points on ppm-axis = NY
      4.000000     3.992357     3.984714     3.977070     3.969427     3.961784     3.954141     3.946497     3.938854     3.931211
      3.923568     3.915925     3.908281     3.900638     3.892995     3.885352     3.877708     3.870065     3.862422     3.854779
      3.847136     3.839492     3.831849     3.824206     3.816563     3.808919     3.801276     3.793633     3.785990     3.778347
      3.770703     3.763060     3.755417     3.747774     3.740130     3.732487     3.724844     3.717201     3.709558     3.701914
      3.694271     3.686628     3.678985     3.671341     3.663698     3.656055     3.648412     3.640769     3.633125     3.625482
      3.617839     3.610196     3.602552     3.594909     3.587266     3.579623     3.571980     3.564336     3.556693     3.549050
      3.541407     3.533763     3.526120     3.518477     3.510834     3.503191     3.495547     3.487904     3.480261     3.472618
      3.464974     3.457331     3.449688     3.442045     3.434402     3.426758     3.419115     3.411472     3.403829     3.396185
      3.388542     3.380899     3.373256     3.365613     3.357969     3.350326     3.342683     3.335040     3.327396     3.319753
      3.312110     3.304467     3.296824     3.289180     3.281537     3.273894     3.266251     3.258607     3.250964     3.243321
      3.235678     3.228034     3.220391     3.212748     3.205105     3.197462     3.189818     3.182175     3.174532     3.166889
      3.159245     3.151602     3.143959     3.136316     3.128673     3.121029     3.113386     3.105743     3.098100     3.090456
      3.082813     3.075170     3.067527     3.059884     3.052240     3.044597     3.036954     3.029311     3.021667     3.014024
      3.006381     2.998738     2.991095     2.983451     2.975808     2.968165     2.960522     2.952878     2.945235     2.937592
      2.929949     2.922306     2.914662     2.907019     2.899376     2.891733     2.884089     2.876446     2.868803     2.861160
      2.853517     2.845873     2.838230     2.830587     2.822944     2.815300     2.807657     2.800014     2.792371     2.784728
      2.777084     2.769441     2.761798     2.754155     2.746511     2.738868     2.731225     2.723582     2.715939     2.708295
      2.700652     2.693009     2.685366     2.677722     2.670079     2.662436     2.654793     2.647150     2.639506     2.631863
      2.624220     2.616577     2.608933     2.601290     2.593647     2.586004     2.578361     2.570717     2.563074     2.555431
      2.547788     2.540144     2.532501     2.524858     2.517215     2.509572     2.501928     2.494285     2.486642     2.478999
      2.471355     2.463712     2.456069     2.448426     2.440783     2.433139     2.425496     2.417853     2.410210     2.402566
      2.394923     2.387280     2.379637     2.371994     2.364350     2.356707     2.349064     2.341421     2.333777     2.326134
      2.318491     2.310848     2.303205     2.295561     2.287918     2.280275     2.272632     2.264988     2.257345     2.249702
      2.242059     2.234416     2.226772     2.219129     2.211486     2.203843     2.196199     2.188556     2.180913     2.173270
      2.165627     2.157983     2.150340     2.142697     2.135054     2.127410     2.119767     2.112124     2.104481     2.096838
      2.089194     2.081551     2.073908     2.066265     2.058621     2.050978     2.043335     2.035692     2.028049     2.020405
      2.012762     2.005119     1.997476     1.989833     1.982190     1.974546     1.966903     1.959260     1.951617     1.943974
      1.936331     1.928688     1.921045     1.913402     1.905759     1.898115     1.890472     1.882829     1.875186     1.867543
      1.859900     1.852257     1.844614     1.836971     1.829327     1.821684     1.814041     1.806398     1.798755     1.791112
      1.783469     1.775826     1.768183     1.760540     1.752896     1.745253     1.737610     1.729967     1.722324     1.714681
      1.707038     1.699395     1.691752     1.684108     1.676465     1.668822     1.661179     1.653536     1.645893     1.638250
      1.630607     1.622964     1.615321     1.607677     1.600034     1.592391     1.584748     1.577105     1.569462     1.561819
      1.554176     1.546533     1.538890     1.531246     1.523603     1.515960     1.508317     1.500674     1.493031     1.485388
      1.477745     1.470102     1.462458     1.454815     1.447172     1.439529     1.431886     1.424243     1.416600     1.408957
      1.401314     1.393671     1.386027     1.378384     1.370741     1.363098     1.355455     1.347812     1.340169     1.332526
      1.324883     1.317240     1.309596     1.301953     1.294310     1.286667     1.279024     1.271381     1.263738     1.256095
      1.248452     1.240808     1.233165     1.225522     1.217879     1.210236     1.202593     1.194950     1.187307     1.179664
      1.172021     1.164377     1.156734     1.149091     1.141448     1.133805     1.126162     1.118519     1.110876     1.103233
      1.095590     1.087946     1.080303     1.072660     1.065017     1.057374     1.049731     1.042088     1.034445     1.026802
      1.019158     1.011515     1.003872     0.996229     0.988586     0.980943     0.973300     0.965657     0.958014     0.950371
      0.942727     0.935084     0.927441     0.919798     0.912155     0.904512     0.896869     0.889226     0.881583     0.873940
      0.866296     0.858653     0.851010     0.843367     0.835724     0.828081     0.820438     0.812795     0.805152     0.797508
      0.789865     0.782222     0.774579     0.766936     0.759293     0.751650     0.744007     0.736364     0.728721     0.721077
      0.713434     0.705791     0.698148     0.690505     0.682862     0.675219     0.667576     0.659933     0.652290     0.644646
      0.637003     0.629360     0.621717     0.614074     0.606431     0.598788     0.591145     0.583502     0.575858     0.568215
      0.560572     0.552929     0.545286     0.537643     0.530000     0.522357     0.514714     0.507071     0.499427     0.491784
      0.484141     0.476498     0.468855     0.461212     0.453569     0.445925     0.438282     0.430639     0.422996     0.415353
      0.407710     0.400067     0.392424     0.384780     0.377137     0.369494     0.361851     0.354208     0.346565     0.338922
      0.331278     0.323635     0.315992     0.308349     0.300706     0.293063     0.285420     0.277777     0.270133     0.262490
      0.254847     0.247204     0.239561     0.231918     0.224275     0.216631     0.208988     0.201345
 NY phased data points follow
  -2.61941E+01 -2.59731E+01 -2.63650E+01 -2.83999E+01 -2.41910E+01 -2.40535E+01 -1.72031E+01 -1.58873E+01 -1.11481E+01 -1.00612E+01
  -2.37634E+00 -3.21449E+00 -2.57915E+00 -3.57141E+00 -9.48226E+00 -1.65375E+01 -1.78961E+01 -1.73926E+01 -2.55572E+01 -2.67020E+01
  -2.60757E+01 -2.44738E+01 -2.50783E+01 -2.51106E+01 -2.26782E+01 -2.05711E+01 -1.88054E+01 -1.83263E+01 -1.62335E+01 -1.46549E+01
  -1.52688E+01 -1.51260E+01 -1.26888E+01 -1.66224E+01 -1.48576E+01 -1.21991E+01 -1.63748E+01 -1.79580E+01 -1.87309E+01 -1.34319E+01
  -1.50494E+01 -1.22841E+01 -1.33506E+01 -1.37090E+01 -1.12791E+01 -1.08902E+01 -9.68462E+00 -9.36512E+00 -9.36555E+00 -6.39058E+00
  -8.29665E+00 -1.19711E+01 -1.53219E+01 -8.29582E+00 -1.64065E+01 -1.61967E+01 -8.89052E+00 -1.31562E+01 -1.09437E+01 -1.32075E+01
  -1.19832E+01 -9.57990E+00 -1.35611E+01 -1.64098E+01 -1.95736E+01 -2.01264E+01 -1.66908E+01 -1.59283E+01 -1.57139E+01 -1.97652E+01
  -1.33947E+01 -1.13775E+01 -1.52184E+01 -1.21477E+01 -1.68839E+01 -1.45553E+01 -1.24934E+01 -1.60795E+01 -1.63531E+01 -1.37273E+01
  -1.53283E+01 -1.50288E+01 -1.39424E+01 -1.35296E+01 -1.08409E+01 -1.33023E+01 -1.36381E+01 -1.14613E+01 -1.53509E+01 -8.29627E+00
  -1.02438E+01 -8.82088E+00 -9.37894E+00 -5.59438E+00 -5.49139E+00 -4.31834E+00 -2.70157E+00 -4.25049E+00  6.54666E-01 -2.64673E-02
   7.49757E+00  5.84251E+00  1.35891E+01  1.87102E+01  2.32901E+01  1.74990E+01  1.26204E+01  8.36608E+00  1.99431E+00 -9.94329E+00
  -7.62804E+00 -7.08956E+00 -6.02975E+00 -5.66441E+00 -9.87201E+00 -8.39088E+00 -1.10678E+01 -6.56396E+00 -3.13898E+00 -4.81080E+00
  -2.76642E+00 -7.38206E-01  6.16016E+00  8.03335E+00  1.78909E+01  2.00976E+01  2.51282E+01  3.15905E+01  3.33453E+01  3.33428E+01
   2.38594E+01  1.97409E+01  9.62883E+00  4.19609E+00  3.21163E+00 -3.70939E+00 -3.08249E+00 -5.36744E+00 -6.66761E+00 -6.18363E+00
  -3.41280E+00 -2.63964E+00 -6.73172E+00 -9.20574E+00 -9.28438E+00 -8.37832E+00 -7.91919E+00 -7.07725E+00 -6.07240E+00 -7.48927E+00
  -1.85304E+00 -4.61444E+00 -8.05963E+00 -5.27390E+00 -1.11546E+01 -8.41109E+00 -6.89850E+00 -2.43200E+00 -5.67996E+00 -2.55862E+00
  -3.65363E+00 -5.46338E+00 -4.45377E+00 -5.96186E+00 -6.06913E+00 -6.39562E+00 -7.39794E+00 -1.13376E+01 -1.16169E+01 -1.05778E+01
  -1.76548E+01 -1.35425E+01 -1.35884E+01 -1.47740E+01 -2.09342E+01 -1.88423E+01 -1.97334E+01 -1.40332E+01 -1.87195E+01 -1.51559E+01
  -1.31027E+01 -1.54277E+01 -1.07827E+01 -9.67406E+00 -9.74919E+00 -1.39348E+01 -1.42264E+01 -1.13159E+01 -1.45215E+01 -8.20613E+00
  -8.66192E+00 -1.21416E+01 -6.66875E+00 -5.28645E+00 -9.37850E+00 -4.79317E+00 -9.94665E+00 -9.59433E+00 -1.12033E+01 -7.53339E+00
  -6.17138E+00 -9.83099E+00 -4.52648E+00 -2.75253E+00  6.43188E-03 -5.38052E+00 -1.93694E+00 -1.94542E+00 -3.80468E+00 -6.71776E+00
  -5.93635E+00 -4.75404E+00  2.51563E-01 -1.18161E+00  3.26282E-01  3.58270E+00  7.66043E+00  1.15179E+00  1.72154E+00  1.26363E+00
   1.03944E+00 -9.75574E-01 -4.49287E+00 -2.79876E+00 -3.79041E+00 -2.70360E+00 -1.63526E+00 -4.19036E-01  6.11265E+00  7.83479E+00
   6.99563E+00  8.01002E+00  4.25272E+00  2.77250E+00  4.18734E+00  4.74861E+00  3.69569E+00  2.88007E+00  5.29311E+00  3.61679E+00
   1.20834E+00 -1.34007E-01  1.54060E+00  1.04293E+00  2.60242E+00  2.89456E+00  8.66415E+00  1.06489E+01  8.19424E+00  1.14124E+01
   9.44840E+00  1.65973E+01  1.53750E+01  2.49184E+01  2.80281E+01  4.05249E+01  5.42232E+01  6.05732E+01  6.83291E+01  7.59784E+01
   8.12950E+01  8.39890E+01  8.06665E+01  6.46539E+01  4.87788E+01  3.40272E+01  2.65330E+01  1.43134E+01  1.17079E+01  3.19002E+00
   6.87266E+00  9.62424E-01 -4.53446E-01  2.89272E+00  1.59420E+00  4.21094E+00  4.35700E+00  5.18858E+00  5.07391E+00  5.65999E+00
   2.37559E+00  1.95439E+00  4.59431E+00 -1.23178E+00  2.51336E+00  1.59986E+00  6.96872E-02  5.96854E-01 -2.48607E+00 -6.76424E+00
   2.01674E+00  3.49494E+00  2.46374E+00  2.88927E+00  3.33944E+00  1.77280E+00  2.84487E+00 -1.59897E+00  1.83082E+00  3.26029E+00
   3.60949E+00  6.30429E+00  2.97694E+00  3.75168E+00  9.60676E+00  7.41597E+00  7.50192E+00  6.01568E+00  9.98461E+00  6.01358E+00
   4.65664E+00  7.53210E+00  1.08264E+01  8.17742E+00  1.12916E+01  1.12114E+01  1.05359E+01  5.11457E+00  8.15798E+00  1.99394E+00
   4.15668E+00  4.24783E+00  3.23955E+00  3.62860E+00  3.39540E+00  6.40489E+00  4.25919E+00  7.31790E+00  5.67951E+00  6.96985E+00
   1.26451E+00  7.14801E+00  1.03201E+01  9.01587E+00  9.82947E+00  1.04056E+01  1.25365E+01  1.17689E+01  1.49001E+01  1.39834E+01
   1.35532E+01  1.85620E+01  1.67338E+01  1.42720E+01  1.57603E+01  1.44310E+01  1.36743E+01  1.15239E+01  1.21615E+01  1.28458E+01
   8.54987E+00  9.17034E+00  1.20937E+01  6.56495E+00  7.03700E+00  1.08010E+01  1.04920E+01  8.24439E+00  1.29527E+01  9.82542E+00
   6.91342E+00  1.59615E+01  1.19663E+01  1.15376E+01  1.19785E+01  1.07047E+01  1.43903E+01  1.51751E+01  1.29033E+01  8.04918E+00
   1.29972E+01  8.20761E+00  1.26219E+01  8.53662E+00  6.23515E+00  1.01419E+01  9.52322E+00  4.78445E+00  8.03492E+00  9.26468E+00
   5.80029E+00  3.50197E+00  4.56437E+00  4.02637E+00  1.09938E+01  5.06076E+00  3.58221E+00  4.50935E+00  2.78328E+00  5.26382E+00
   6.33380E+00  8.03158E+00  6.85870E+00  1.02326E+01  1.08259E+01  1.24395E+01  1.14274E+01  1.15072E+01  1.42377E+01  1.20277E+01
   1.26660E+01  1.27899E+01  1.25012E+01  1.67670E+01  1.36226E+01  1.64805E+01  1.51997E+01  1.96255E+01  1.69920E+01  1.87489E+01
   1.29951E+01  1.42017E+01  1.16676E+01  1.25161E+01  1.08677E+01  1.17372E+01  5.24545E+00  1.11086E+01  1.03743E+01  9.14729E+00
   9.65416E+00  4.27183E+00  3.76201E+00  6.74366E+00  4.14285E+00  6.64770E+00  4.17372E+00  1.96489E+00  4.43596E+00  5.56144E+00
   3.42096E+00  4.55599E+00  2.22345E+00  2.07581E+00  2.47064E+00  8.60965E+00  5.51001E+00  4.07195E+00  1.17846E+00  1.47588E+00
   2.70788E+00  3.08662E+00 -3.81874E-01  2.06418E+00  2.35610E+00  3.46267E+00  5.07956E+00  3.19536E+00  6.30402E+00  4.97357E+00
   1.42653E+00  1.67341E+00  6.68501E-01  3.61471E+00  3.98618E+00  2.01752E+00  1.47868E+00  5.78790E+00  4.06445E+00  5.99569E-01
   3.91099E+00  5.67836E+00  6.45003E+00  3.75125E+00  4.89017E+00  3.47324E+00  8.52873E-01  3.21460E+00  1.20885E+00  4.58870E+00
   6.38033E+00  2.66700E+00  8.40213E-01  4.55925E+00 -3.07715E-01  7.62876E-01  5.06343E+00  4.27041E-01  5.62031E+00  3.44698E+00
  -3.06265E-01  4.74146E-01  5.60973E+00  5.13595E+00  2.48360E+00  3.12845E+00  3.24135E+00  5.10299E+00  5.06489E+00  5.83687E+00
   1.38095E+00  3.39434E+00  2.61506E-01  2.93315E+00  2.70812E+00  3.50829E+00  8.32708E-01  4.91175E+00
 NY points of the fit to the data follow
  -2.61650E+01 -2.66989E+01 -2.61170E+01 -2.46549E+01 -2.26284E+01 -2.01511E+01 -1.73924E+01 -1.45567E+01 -1.16519E+01 -8.65233E+00
  -5.90630E+00 -4.20772E+00 -4.32155E+00 -6.32910E+00 -9.51510E+00 -1.29124E+01 -1.58430E+01 -1.80470E+01 -1.96179E+01 -2.06501E+01
  -2.12756E+01 -2.16317E+01 -2.15839E+01 -2.12782E+01 -2.07994E+01 -2.00977E+01 -1.91845E+01 -1.81055E+01 -1.68841E+01 -1.54424E+01
  -1.38990E+01 -1.26327E+01 -1.19918E+01 -1.21315E+01 -1.29504E+01 -1.41979E+01 -1.56637E+01 -1.71187E+01 -1.81893E+01 -1.85132E+01
  -1.80509E+01 -1.69926E+01 -1.54737E+01 -1.37141E+01 -1.19637E+01 -1.03449E+01 -8.92868E+00 -7.93706E+00 -7.80258E+00 -8.85690E+00
  -1.08785E+01 -1.31829E+01 -1.51419E+01 -1.63814E+01 -1.68749E+01 -1.67861E+01 -1.62994E+01 -1.55977E+01 -1.48469E+01 -1.41776E+01
  -1.37303E+01 -1.36240E+01 -1.39227E+01 -1.44814E+01 -1.50694E+01 -1.54778E+01 -1.55661E+01 -1.53068E+01 -1.47787E+01 -1.41450E+01
  -1.35404E+01 -1.30452E+01 -1.27342E+01 -1.26490E+01 -1.27639E+01 -1.30039E+01 -1.32863E+01 -1.35668E+01 -1.38685E+01 -1.40480E+01
  -1.39535E+01 -1.37224E+01 -1.33814E+01 -1.29304E+01 -1.24435E+01 -1.19666E+01 -1.14761E+01 -1.09585E+01 -1.05096E+01 -1.03806E+01
  -1.06940E+01 -1.13106E+01 -1.19894E+01 -1.24859E+01 -1.22200E+01 -1.04313E+01 -7.77218E+00 -4.62895E+00 -9.65917E-01  2.99548E+00
   7.07715E+00  1.13093E+01  1.55155E+01  1.87829E+01  1.97290E+01  1.74930E+01  1.25750E+01  6.50308E+00  7.77501E-01 -3.77797E+00
  -7.01867E+00 -9.14798E+00 -1.03730E+01 -1.08844E+01 -1.10748E+01 -1.11467E+01 -1.11342E+01 -1.09801E+01 -1.02837E+01 -7.98841E+00
  -4.27610E+00  7.06773E-02  5.00129E+00  1.03541E+01  1.57905E+01  2.12591E+01  2.66945E+01  3.12271E+01  3.32628E+01  3.14808E+01
   2.59915E+01  1.84756E+01  1.09545E+01  4.69490E+00  3.84511E-02 -3.26433E+00 -5.48337E+00 -6.70789E+00 -7.21815E+00 -7.30477E+00
  -7.09312E+00 -6.72611E+00 -6.37441E+00 -6.16572E+00 -6.15184E+00 -6.31403E+00 -6.57782E+00 -6.86646E+00 -7.12321E+00 -7.32324E+00
  -7.46816E+00 -7.56653E+00 -7.66122E+00 -7.83409E+00 -8.03991E+00 -8.23672E+00 -8.38750E+00 -8.45193E+00 -8.52218E+00 -8.65242E+00
  -8.85054E+00 -9.08402E+00 -9.25379E+00 -9.25958E+00 -9.12633E+00 -9.02394E+00 -9.13632E+00 -9.54652E+00 -1.02071E+01 -1.08964E+01
  -1.14434E+01 -1.18537E+01 -1.21622E+01 -1.24438E+01 -1.26820E+01 -1.28605E+01 -1.29516E+01 -1.28867E+01 -1.26682E+01 -1.24406E+01
  -1.22665E+01 -1.21491E+01 -1.19904E+01 -1.16431E+01 -1.10715E+01 -1.03770E+01 -9.63935E+00 -8.78687E+00 -7.73687E+00 -6.54454E+00
  -5.46422E+00 -4.67176E+00 -4.26196E+00 -4.23748E+00 -4.47952E+00 -4.76636E+00 -4.92293E+00 -4.90022E+00 -4.64667E+00 -4.14602E+00
  -3.45144E+00 -2.67727E+00 -2.06243E+00 -1.70587E+00 -1.73805E+00 -2.31671E+00 -3.32851E+00 -4.56081E+00 -5.71877E+00 -6.51247E+00
  -6.83005E+00 -6.53290E+00 -5.61994E+00 -4.27033E+00 -2.77834E+00 -1.43828E+00 -4.58814E-01 -6.69956E-02 -4.85620E-01 -1.62548E+00
  -3.09377E+00 -4.44433E+00 -5.35459E+00 -5.61843E+00 -5.08761E+00 -3.76589E+00 -1.94634E+00 -1.24222E-01  1.30797E+00  2.29513E+00
   2.88008E+00  3.13302E+00  3.23094E+00  3.35833E+00  3.59912E+00  3.91367E+00  4.27478E+00  4.67285E+00  5.03989E+00  5.25240E+00
   5.27550E+00  5.16227E+00  5.01657E+00  4.98881E+00  5.22840E+00  5.82953E+00  6.74248E+00  7.81882E+00  8.92572E+00  9.95996E+00
   1.09695E+01  1.26937E+01  1.74394E+01  2.45495E+01  3.25258E+01  4.13771E+01  5.06694E+01  5.96060E+01  6.80390E+01  7.60102E+01
   8.21524E+01  8.36273E+01  7.81172E+01  6.61378E+01  5.10127E+01  3.64434E+01  2.46401E+01  1.61065E+01  1.03584E+01  6.79593E+00
   5.04212E+00  4.22301E+00  3.68212E+00  3.27981E+00  2.97831E+00  2.73938E+00  2.51342E+00  2.27272E+00  2.01157E+00  1.73984E+00
   1.47336E+00  1.22707E+00  1.01431E+00  8.46095E-01  7.27356E-01  6.53075E-01  6.15319E-01  6.09895E-01  6.37855E-01  7.02993E-01
   8.09960E-01  9.62417E-01  1.16476E+00  1.41895E+00  1.72439E+00  2.07877E+00  2.47906E+00  2.92022E+00  3.39582E+00  3.89764E+00
   4.41607E+00  4.93926E+00  5.45365E+00  5.94409E+00  6.39552E+00  6.79365E+00  7.12642E+00  7.38449E+00  7.56222E+00  7.65765E+00
   7.67318E+00  7.61493E+00  7.49276E+00  7.31946E+00  7.11063E+00  6.88374E+00  6.65831E+00  6.45580E+00  6.30346E+00  6.23154E+00
   6.21210E+00  6.21862E+00  6.26182E+00  6.33625E+00  6.42907E+00  6.53340E+00  6.63527E+00  6.74101E+00  6.85305E+00  6.96226E+00
   7.12868E+00  7.43337E+00  7.90679E+00  8.53318E+00  9.28624E+00  1.01305E+01  1.10045E+01  1.18255E+01  1.25324E+01  1.31682E+01
   1.37539E+01  1.41559E+01  1.43995E+01  1.45077E+01  1.44387E+01  1.41745E+01  1.37051E+01  1.30737E+01  1.23012E+01  1.13059E+01
   1.02393E+01  9.42239E+00  9.08128E+00  9.26530E+00  9.93002E+00  1.09618E+01  1.21392E+01  1.31562E+01  1.37311E+01  1.37635E+01
   1.33905E+01  1.28114E+01  1.21772E+01  1.15640E+01  1.09975E+01  1.05001E+01  1.00745E+01  9.68421E+00  9.31072E+00  8.94778E+00
   8.59417E+00  8.25096E+00  7.92076E+00  7.60671E+00  7.31238E+00  7.04129E+00  6.79714E+00  6.58348E+00  6.40388E+00  6.26155E+00
   6.15960E+00  6.10080E+00  6.08801E+00  6.12386E+00  6.21097E+00  6.35151E+00  6.54750E+00  6.80039E+00  7.11129E+00  7.48039E+00
   7.90698E+00  8.38881E+00  8.92225E+00  9.50171E+00  1.01199E+01  1.07673E+01  1.14324E+01  1.21016E+01  1.27598E+01  1.33906E+01
   1.39771E+01  1.45024E+01  1.49505E+01  1.53065E+01  1.55583E+01  1.56966E+01  1.57156E+01  1.56135E+01  1.53920E+01  1.50571E+01
   1.46180E+01  1.40871E+01  1.34793E+01  1.28107E+01  1.20984E+01  1.13594E+01  1.06101E+01  9.86553E+00  9.13885E+00  8.44104E+00
   7.78086E+00  7.16465E+00  6.59675E+00  6.07932E+00  5.61288E+00  5.19634E+00  4.82763E+00  4.50377E+00  4.22142E+00  3.97679E+00
   3.76608E+00  3.58541E+00  3.43123E+00  3.30019E+00  3.18934E+00  3.09590E+00  3.01749E+00  2.95191E+00  2.89744E+00  2.85248E+00
   2.81580E+00  2.78619E+00  2.76270E+00  2.74443E+00  2.73080E+00  2.72117E+00  2.71514E+00  2.71215E+00  2.71188E+00  2.71395E+00
   2.71820E+00  2.72434E+00  2.73224E+00  2.74159E+00  2.75231E+00  2.76421E+00  2.77728E+00  2.79135E+00  2.80638E+00  2.82218E+00
   2.83874E+00  2.85596E+00  2.87388E+00  2.89239E+00  2.91145E+00  2.93095E+00  2.95092E+00  2.97131E+00  2.99216E+00  3.01336E+00
   3.03492E+00  3.05674E+00  3.07890E+00  3.10135E+00  3.12414E+00  3.14716E+00  3.17043E+00  3.19390E+00  3.21764E+00  3.24162E+00
   3.26586E+00  3.29027E+00  3.31489E+00  3.33969E+00  3.36476E+00  3.39004E+00  3.41558E+00  3.44127E+00  3.46721E+00  3.49336E+00
   3.51981E+00  3.54652E+00  3.57352E+00  3.60074E+00  3.62831E+00  3.65620E+00  3.68453E+00  3.71325E+00
 NY background values follow
    -2.877E+01   -2.862E+01   -2.847E+01   -2.832E+01   -2.817E+01   -2.801E+01   -2.786E+01   -2.771E+01   -2.756E+01   -2.741E+01
    -2.726E+01   -2.711E+01   -2.696E+01   -2.681E+01   -2.666E+01   -2.651E+01   -2.635E+01   -2.620E+01   -2.605E+01   -2.590E+01
    -2.575E+01   -2.560E+01   -2.545E+01   -2.530E+01   -2.515E+01   -2.500E+01   -2.485E+01   -2.470E+01   -2.455E+01   -2.440E+01
    -2.425E+01   -2.410E+01   -2.395E+01   -2.380E+01   -2.365E+01   -2.350E+01   -2.335E+01   -2.321E+01   -2.306E+01   -2.291E+01
    -2.276E+01   -2.262E+01   -2.247E+01   -2.232E+01   -2.218E+01   -2.203E+01   -2.189E+01   -2.174E+01   -2.160E+01   -2.145E+01
    -2.131E+01   -2.116E+01   -2.102E+01   -2.088E+01   -2.074E+01   -2.059E+01   -2.045E+01   -2.031E+01   -2.017E+01   -2.003E+01
    -1.989E+01   -1.975E+01   -1.961E+01   -1.947E+01   -1.934E+01   -1.920E+01   -1.906E+01   -1.893E+01   -1.879E+01   -1.866E+01
    -1.852E+01   -1.839E+01   -1.826E+01   -1.812E+01   -1.799E+01   -1.786E+01   -1.773E+01   -1.760E+01   -1.747E+01   -1.734E+01
    -1.721E+01   -1.708E+01   -1.696E+01   -1.683E+01   -1.671E+01   -1.658E+01   -1.646E+01   -1.633E+01   -1.621E+01   -1.609E+01
    -1.597E+01   -1.585E+01   -1.573E+01   -1.561E+01   -1.549E+01   -1.538E+01   -1.526E+01   -1.515E+01   -1.503E+01   -1.492E+01
    -1.480E+01   -1.469E+01   -1.458E+01   -1.447E+01   -1.436E+01   -1.425E+01   -1.414E+01   -1.404E+01   -1.393E+01   -1.382E+01
    -1.372E+01   -1.362E+01   -1.351E+01   -1.341E+01   -1.331E+01   -1.321E+01   -1.311E+01   -1.301E+01   -1.291E+01   -1.281E+01
    -1.272E+01   -1.262E+01   -1.253E+01   -1.243E+01   -1.234E+01   -1.225E+01   -1.216E+01   -1.207E+01   -1.198E+01   -1.189E+01
    -1.180E+01   -1.171E+01   -1.163E+01   -1.154E+01   -1.146E+01   -1.137E+01   -1.129E+01   -1.121E+01   -1.113E+01   -1.105E+01
    -1.097E+01   -1.089E+01   -1.081E+01   -1.073E+01   -1.066E+01   -1.058E+01   -1.051E+01   -1.043E+01   -1.036E+01   -1.029E+01
    -1.022E+01   -1.014E+01   -1.007E+01   -1.000E+01   -9.932E+00   -9.863E+00   -9.794E+00   -9.726E+00   -9.658E+00   -9.591E+00
    -9.524E+00   -9.457E+00   -9.391E+00   -9.326E+00   -9.260E+00   -9.195E+00   -9.131E+00   -9.066E+00   -9.002E+00   -8.938E+00
    -8.875E+00   -8.812E+00   -8.748E+00   -8.686E+00   -8.623E+00   -8.560E+00   -8.498E+00   -8.436E+00   -8.373E+00   -8.311E+00
    -8.249E+00   -8.187E+00   -8.125E+00   -8.063E+00   -8.002E+00   -7.940E+00   -7.878E+00   -7.816E+00   -7.755E+00   -7.693E+00
    -7.632E+00   -7.570E+00   -7.509E+00   -7.448E+00   -7.387E+00   -7.326E+00   -7.265E+00   -7.204E+00   -7.144E+00   -7.083E+00
    -7.023E+00   -6.963E+00   -6.903E+00   -6.843E+00   -6.783E+00   -6.724E+00   -6.665E+00   -6.606E+00   -6.547E+00   -6.488E+00
    -6.430E+00   -6.371E+00   -6.313E+00   -6.256E+00   -6.198E+00   -6.141E+00   -6.084E+00   -6.027E+00   -5.970E+00   -5.914E+00
    -5.858E+00   -5.802E+00   -5.747E+00   -5.692E+00   -5.637E+00   -5.583E+00   -5.528E+00   -5.474E+00   -5.421E+00   -5.368E+00
    -5.315E+00   -5.262E+00   -5.210E+00   -5.158E+00   -5.106E+00   -5.054E+00   -5.003E+00   -4.952E+00   -4.901E+00   -4.851E+00
    -4.801E+00   -4.751E+00   -4.702E+00   -4.652E+00   -4.603E+00   -4.554E+00   -4.506E+00   -4.457E+00   -4.409E+00   -4.362E+00
    -4.314E+00   -4.266E+00   -4.219E+00   -4.172E+00   -4.126E+00   -4.079E+00   -4.033E+00   -3.987E+00   -3.941E+00   -3.895E+00
    -3.849E+00   -3.804E+00   -3.759E+00   -3.714E+00   -3.669E+00   -3.625E+00   -3.580E+00   -3.536E+00   -3.492E+00   -3.448E+00
    -3.404E+00   -3.360E+00   -3.317E+00   -3.273E+00   -3.230E+00   -3.187E+00   -3.144E+00   -3.101E+00   -3.059E+00   -3.016E+00
    -2.974E+00   -2.932E+00   -2.890E+00   -2.848E+00   -2.806E+00   -2.764E+00   -2.722E+00   -2.681E+00   -2.640E+00   -2.598E+00
    -2.557E+00   -2.516E+00   -2.476E+00   -2.435E+00   -2.394E+00   -2.354E+00   -2.313E+00   -2.273E+00   -2.233E+00   -2.193E+00
    -2.153E+00   -2.113E+00   -2.073E+00   -2.033E+00   -1.994E+00   -1.954E+00   -1.915E+00   -1.876E+00   -1.837E+00   -1.798E+00
    -1.759E+00   -1.720E+00   -1.681E+00   -1.642E+00   -1.604E+00   -1.565E+00   -1.527E+00   -1.488E+00   -1.450E+00   -1.412E+00
    -1.374E+00   -1.336E+00   -1.298E+00   -1.260E+00   -1.222E+00   -1.184E+00   -1.147E+00   -1.109E+00   -1.072E+00   -1.034E+00
    -9.970E-01   -9.598E-01   -9.227E-01   -8.857E-01   -8.488E-01   -8.119E-01   -7.752E-01   -7.385E-01   -7.019E-01   -6.655E-01
    -6.291E-01   -5.928E-01   -5.565E-01   -5.204E-01   -4.844E-01   -4.485E-01   -4.126E-01   -3.769E-01   -3.412E-01   -3.056E-01
    -2.702E-01   -2.348E-01   -1.995E-01   -1.643E-01   -1.292E-01   -9.422E-02   -5.932E-02   -2.451E-02    1.020E-02    4.481E-02
     7.932E-02    1.137E-01    1.481E-01    1.823E-01    2.164E-01    2.504E-01    2.844E-01    3.182E-01    3.520E-01    3.857E-01
     4.192E-01    4.527E-01    4.862E-01    5.195E-01    5.528E-01    5.860E-01    6.191E-01    6.521E-01    6.851E-01    7.179E-01
     7.508E-01    7.835E-01    8.162E-01    8.488E-01    8.814E-01    9.139E-01    9.464E-01    9.787E-01    1.011E+00    1.043E+00
     1.076E+00    1.108E+00    1.140E+00    1.172E+00    1.204E+00    1.236E+00    1.268E+00    1.300E+00    1.332E+00    1.364E+00
     1.395E+00    1.427E+00    1.459E+00    1.491E+00    1.522E+00    1.554E+00    1.586E+00    1.617E+00    1.649E+00    1.680E+00
     1.712E+00    1.743E+00    1.775E+00    1.806E+00    1.838E+00    1.869E+00    1.900E+00    1.932E+00    1.963E+00    1.994E+00
     2.025E+00    2.056E+00    2.087E+00    2.118E+00    2.149E+00    2.180E+00    2.211E+00    2.242E+00    2.273E+00    2.303E+00
     2.334E+00    2.364E+00    2.395E+00    2.425E+00    2.456E+00    2.486E+00    2.516E+00    2.546E+00    2.576E+00    2.606E+00
     2.636E+00    2.666E+00    2.696E+00    2.725E+00    2.755E+00    2.785E+00    2.814E+00    2.843E+00    2.872E+00    2.901E+00
     2.930E+00    2.959E+00    2.988E+00    3.017E+00    3.045E+00    3.074E+00    3.102E+00    3.131E+00    3.159E+00    3.187E+00
     3.215E+00    3.243E+00    3.271E+00    3.299E+00    3.326E+00    3.354E+00    3.382E+00    3.409E+00    3.437E+00    3.464E+00
     3.491E+00    3.518E+00    3.546E+00    3.573E+00    3.600E+00    3.627E+00    3.654E+00    3.681E+00    3.708E+00    3.734E+00
     3.761E+00    3.788E+00    3.815E+00    3.841E+00    3.868E+00    3.895E+00    3.921E+00    3.948E+00    3.974E+00    4.001E+00
     4.027E+00    4.054E+00    4.080E+00    4.107E+00    4.133E+00    4.160E+00    4.186E+00    4.213E+00
 Ala      Conc. = 1.07E+02
