 LCModel (Version 6.3-1L) Copyright: S.W. Provencher.          Ref.: Magn. Reson. Med. 30:672-679 (1993).                
 Slice#3 Row#2 Col#4  K_02_press_1_raw_act
 36 lines in following concentration table = NCONC+1
    Conc.  %SD /Cr+PCr  Metabolite                                         
 1.09E+04  18%  28.522 Ala                                                 
   45.063  20%   0.118 Asp                                                 
    0.000 999%   0.000 Cr                                                  
  381.894 170%   1.000 PCr                                                 
   27.038  20% 7.1E-02 GABA                                                
   27.040  20% 7.1E-02 Glc                                                 
 3.32E+03  31%   8.698 Gln                                                 
 4.30E+03  32%  11.258 Glu                                                 
    0.000 999%   0.000 GPC                                                 
  173.125  21%   0.453 PCh                                                 
   89.349 202%   0.234 GSH                                                 
  805.746  61%   2.110 Ins                                                 
    0.000 999%   0.000 Lac                                                 
    0.000 999%   0.000 NAA                                                 
    0.000 999%   0.000 NAAG                                                
    9.015  20% 2.4E-02 Scyllo                                              
   45.072  20%   0.118 Tau                                                 
   38.190  26%   0.100 -CrCH2                                              
  173.125  21%   0.453 GPC+PCh                                             
    0.000 999%   0.000 NAA+NAAG                                            
  381.894  26%   1.000 Cr+PCr                                              
 7.62E+03  29%  19.956 Glu+Gln                                             
 2.83E+04  13%  74.235 Lip13a                                              
  299.578  93%   0.784 Lip13b                                              
 7.69E+03  18%  20.145 Lip09                                               
 2.92E+03  26%   7.656 MM09                                                
    0.000 999%   0.000 Lip20                                               
  432.148  90%   1.132 MM20                                                
 1.22E+03  53%   3.183 MM12                                                
 1.65E+04   4%  43.287+MM14                                                
 1.14E+04  11%  29.802+MM17                                                
 2.86E+04  13%  75.019 Lip13a+Lip13b                                       
 4.64E+04   7% 121.489 MM14+Lip13a+Lip13b+MM12                             
 1.06E+04  13%  27.801 MM09+Lip09                                          
  432.148  90%   1.132 MM20+Lip20                                          
   6 lines in following misc. output table
  FWHM = 0.122 ppm    S/N =  25                                            
  Data shift = 0.237 ppm                                                   
  Ph:  54 deg     -18.1 deg/ppm                                            
  alphaB,S = 1.4E+01,   2.1E+02                                            
    6 spline knots.   Ns = 9(2)                                            
  (11) 3 infls.   ( 7) 1 extrs.                                            
  498 points on ppm-axis = NY
      4.000000     3.992357     3.984714     3.977070     3.969427     3.961784     3.954141     3.946497     3.938854     3.931211
      3.923568     3.915925     3.908281     3.900638     3.892995     3.885352     3.877708     3.870065     3.862422     3.854779
      3.847136     3.839492     3.831849     3.824206     3.816563     3.808919     3.801276     3.793633     3.785990     3.778347
      3.770703     3.763060     3.755417     3.747774     3.740130     3.732487     3.724844     3.717201     3.709558     3.701914
      3.694271     3.686628     3.678985     3.671341     3.663698     3.656055     3.648412     3.640769     3.633125     3.625482
      3.617839     3.610196     3.602552     3.594909     3.587266     3.579623     3.571980     3.564336     3.556693     3.549050
      3.541407     3.533763     3.526120     3.518477     3.510834     3.503191     3.495547     3.487904     3.480261     3.472618
      3.464974     3.457331     3.449688     3.442045     3.434402     3.426758     3.419115     3.411472     3.403829     3.396185
      3.388542     3.380899     3.373256     3.365613     3.357969     3.350326     3.342683     3.335040     3.327396     3.319753
      3.312110     3.304467     3.296824     3.289180     3.281537     3.273894     3.266251     3.258607     3.250964     3.243321
      3.235678     3.228034     3.220391     3.212748     3.205105     3.197462     3.189818     3.182175     3.174532     3.166889
      3.159245     3.151602     3.143959     3.136316     3.128673     3.121029     3.113386     3.105743     3.098100     3.090456
      3.082813     3.075170     3.067527     3.059884     3.052240     3.044597     3.036954     3.029311     3.021667     3.014024
      3.006381     2.998738     2.991095     2.983451     2.975808     2.968165     2.960522     2.952878     2.945235     2.937592
      2.929949     2.922306     2.914662     2.907019     2.899376     2.891733     2.884089     2.876446     2.868803     2.861160
      2.853517     2.845873     2.838230     2.830587     2.822944     2.815300     2.807657     2.800014     2.792371     2.784728
      2.777084     2.769441     2.761798     2.754155     2.746511     2.738868     2.731225     2.723582     2.715939     2.708295
      2.700652     2.693009     2.685366     2.677722     2.670079     2.662436     2.654793     2.647150     2.639506     2.631863
      2.624220     2.616577     2.608933     2.601290     2.593647     2.586004     2.578361     2.570717     2.563074     2.555431
      2.547788     2.540144     2.532501     2.524858     2.517215     2.509572     2.501928     2.494285     2.486642     2.478999
      2.471355     2.463712     2.456069     2.448426     2.440783     2.433139     2.425496     2.417853     2.410210     2.402566
      2.394923     2.387280     2.379637     2.371994     2.364350     2.356707     2.349064     2.341421     2.333777     2.326134
      2.318491     2.310848     2.303205     2.295561     2.287918     2.280275     2.272632     2.264988     2.257345     2.249702
      2.242059     2.234416     2.226772     2.219129     2.211486     2.203843     2.196199     2.188556     2.180913     2.173270
      2.165627     2.157983     2.150340     2.142697     2.135054     2.127410     2.119767     2.112124     2.104481     2.096838
      2.089194     2.081551     2.073908     2.066265     2.058621     2.050978     2.043335     2.035692     2.028049     2.020405
      2.012762     2.005119     1.997476     1.989833     1.982190     1.974546     1.966903     1.959260     1.951617     1.943974
      1.936331     1.928688     1.921045     1.913402     1.905759     1.898115     1.890472     1.882829     1.875186     1.867543
      1.859900     1.852257     1.844614     1.836971     1.829327     1.821684     1.814041     1.806398     1.798755     1.791112
      1.783469     1.775826     1.768183     1.760540     1.752896     1.745253     1.737610     1.729967     1.722324     1.714681
      1.707038     1.699395     1.691752     1.684108     1.676465     1.668822     1.661179     1.653536     1.645893     1.638250
      1.630607     1.622964     1.615321     1.607677     1.600034     1.592391     1.584748     1.577105     1.569462     1.561819
      1.554176     1.546533     1.538890     1.531246     1.523603     1.515960     1.508317     1.500674     1.493031     1.485388
      1.477745     1.470102     1.462458     1.454815     1.447172     1.439529     1.431886     1.424243     1.416600     1.408957
      1.401314     1.393671     1.386027     1.378384     1.370741     1.363098     1.355455     1.347812     1.340169     1.332526
      1.324883     1.317240     1.309596     1.301953     1.294310     1.286667     1.279024     1.271381     1.263738     1.256095
      1.248452     1.240808     1.233165     1.225522     1.217879     1.210236     1.202593     1.194950     1.187307     1.179664
      1.172021     1.164377     1.156734     1.149091     1.141448     1.133805     1.126162     1.118519     1.110876     1.103233
      1.095590     1.087946     1.080303     1.072660     1.065017     1.057374     1.049731     1.042088     1.034445     1.026802
      1.019158     1.011515     1.003872     0.996229     0.988586     0.980943     0.973300     0.965657     0.958014     0.950371
      0.942727     0.935084     0.927441     0.919798     0.912155     0.904512     0.896869     0.889226     0.881583     0.873940
      0.866296     0.858653     0.851010     0.843367     0.835724     0.828081     0.820438     0.812795     0.805152     0.797508
      0.789865     0.782222     0.774579     0.766936     0.759293     0.751650     0.744007     0.736364     0.728721     0.721077
      0.713434     0.705791     0.698148     0.690505     0.682862     0.675219     0.667576     0.659933     0.652290     0.644646
      0.637003     0.629360     0.621717     0.614074     0.606431     0.598788     0.591145     0.583502     0.575858     0.568215
      0.560572     0.552929     0.545286     0.537643     0.530000     0.522357     0.514714     0.507071     0.499427     0.491784
      0.484141     0.476498     0.468855     0.461212     0.453569     0.445925     0.438282     0.430639     0.422996     0.415353
      0.407710     0.400067     0.392424     0.384780     0.377137     0.369494     0.361851     0.354208     0.346565     0.338922
      0.331278     0.323635     0.315992     0.308349     0.300706     0.293063     0.285420     0.277777     0.270133     0.262490
      0.254847     0.247204     0.239561     0.231918     0.224275     0.216631     0.208988     0.201345
 NY phased data points follow
   4.52410E+00  7.64318E+00  8.72538E+00  2.01366E+00  3.67531E+00  2.91070E+00  4.95778E+00  6.49296E+00  2.04490E+00 -8.14945E-01
   1.82709E+00  1.91481E+00  4.79845E+00  4.05434E+00  6.76318E+00  5.82581E-01  2.35131E+00  3.52687E+00  5.08889E+00  9.43093E-01
   2.54913E+00  1.87589E+00  2.95576E+00  5.20127E-01  3.59575E+00  3.21902E+00 -3.02324E-01 -1.16888E-01  1.81010E+00 -2.66796E-01
   9.20844E-01  4.36426E+00  3.69581E+00  7.37360E-01 -8.07638E-02 -2.87558E-01 -1.51637E+00 -1.49332E+00  1.40876E+00  3.33951E+00
  -2.21918E+00  3.93401E-02 -1.45330E-01 -2.11585E+00 -1.38570E+00 -1.48159E+00 -1.37531E+00 -4.32574E+00  7.58092E-01 -4.57126E+00
  -1.01473E+00 -6.53413E-01 -1.27809E+00 -4.41094E+00 -2.02948E+00 -3.06520E+00 -4.57616E+00 -2.98827E+00 -2.49838E+00 -6.34690E+00
  -6.28658E+00 -3.26389E+00 -7.03010E-01 -6.15351E+00 -6.90592E+00 -6.74376E+00 -5.69056E+00 -3.92800E+00 -5.54254E+00 -6.67881E+00
  -2.02086E+00 -4.23789E+00 -5.25739E+00 -4.39156E+00 -3.56830E+00 -3.20570E+00 -3.99796E+00 -8.49261E+00 -4.35455E+00 -3.75468E+00
  -6.38722E+00 -3.98699E+00 -3.33689E+00 -2.85564E+00 -2.95626E+00 -8.59628E+00 -2.06353E-01 -5.12069E+00 -7.91585E+00 -4.62573E+00
  -7.06452E+00 -4.73662E+00 -6.61275E+00 -5.83158E+00 -6.77684E+00 -6.17803E+00 -9.60622E+00 -8.25211E+00 -5.11390E-01 -2.83562E+00
  -6.69726E+00 -2.82752E+00 -5.00657E+00 -6.39557E+00 -5.60278E+00 -8.46438E+00 -4.70439E+00 -9.96765E+00 -4.25254E+00 -8.67716E+00
  -3.41015E+00 -2.40544E+00 -4.77266E+00 -6.31290E+00 -6.07102E+00 -8.67973E+00 -4.73567E+00 -4.61785E+00 -6.83383E+00 -8.82369E+00
  -5.88103E+00 -6.70830E+00 -1.10438E+01 -6.41293E+00 -5.73571E+00 -9.62463E+00 -5.37355E+00 -5.00832E+00 -7.42374E+00 -5.04519E+00
  -7.40187E+00 -9.81269E+00 -1.07999E+01 -7.60240E+00 -8.29306E+00 -1.08037E+01 -1.02646E+01 -5.50386E+00 -1.04118E+01 -1.16079E+01
  -1.15910E+01 -1.26611E+01 -1.26670E+01 -9.16970E+00 -7.96203E+00 -1.10311E+01 -1.19568E+01 -9.11337E+00 -9.45908E+00 -1.24240E+01
  -1.38904E+01 -1.07521E+01 -9.69913E+00 -1.35306E+01 -1.15906E+01 -1.27005E+01 -1.12384E+01 -1.62942E+01 -1.50000E+01 -1.23754E+01
  -1.12027E+01 -1.69341E+01 -1.60473E+01 -1.64913E+01 -1.21402E+01 -1.51049E+01 -1.75154E+01 -1.28446E+01 -1.55928E+01 -1.61614E+01
  -1.68013E+01 -1.57167E+01 -1.60386E+01 -1.39760E+01 -1.46808E+01 -1.26862E+01 -1.72690E+01 -1.55110E+01 -1.64901E+01 -1.85332E+01
  -1.67438E+01 -1.80724E+01 -1.44504E+01 -1.76265E+01 -1.63714E+01 -1.30331E+01 -1.43645E+01 -1.69222E+01 -1.59624E+01 -1.48946E+01
  -1.59907E+01 -1.76717E+01 -1.61477E+01 -1.55536E+01 -1.54995E+01 -1.42003E+01 -1.36022E+01 -1.17716E+01 -1.13616E+01 -1.23483E+01
  -1.31039E+01 -1.34203E+01 -1.64196E+01 -1.39999E+01 -1.04741E+01 -9.69631E+00 -1.18203E+01 -9.61221E+00 -8.26049E+00 -9.80813E+00
  -1.32840E+01 -1.10531E+01 -7.39642E+00 -8.62484E+00 -9.63699E+00 -1.11457E+01 -1.45298E+01 -1.30049E+01 -1.30951E+01 -1.10771E+01
  -1.05224E+01 -1.63386E+01 -1.16117E+01 -1.25479E+01 -1.31082E+01 -1.60078E+01 -1.06665E+01 -6.73525E+00 -9.11378E+00 -1.27764E+01
  -6.38299E+00 -4.73772E+00  8.56137E-01 -1.58038E-01 -6.40790E+00 -2.34971E+00 -2.14456E+00 -6.77732E+00 -5.52188E+00 -3.79588E+00
  -2.82905E+00 -4.36834E+00 -2.51073E+00 -4.45102E+00 -8.28252E-01 -1.41219E+00 -2.52223E+00 -1.32933E+00 -3.21484E+00 -2.12006E+00
  -4.49717E+00 -2.04905E+00 -3.90776E+00 -5.38275E+00 -6.47205E+00 -6.77036E+00 -3.34518E+00 -4.96159E+00 -4.03954E+00 -2.33356E+00
  -4.23558E+00 -2.42028E+00 -4.24770E+00  2.50232E+00 -3.17365E-01  2.99254E+00 -8.99481E-01 -1.42109E+00  4.10688E+00  1.12319E+00
   3.23971E+00  5.30774E+00  6.49880E+00  1.08465E+01  7.83096E+00  9.65757E+00  1.33168E+01  1.22058E+01  1.90823E+01  2.00313E+01
   2.15141E+01  2.25886E+01  2.57600E+01  2.31166E+01  3.23657E+01  3.17367E+01  3.73415E+01  4.02059E+01  4.02336E+01  4.42825E+01
   4.61508E+01  4.87291E+01  4.78957E+01  5.41080E+01  5.38185E+01  5.81161E+01  6.36932E+01  6.37240E+01  6.77966E+01  6.98982E+01
   6.95098E+01  7.59832E+01  7.76328E+01  8.15614E+01  8.05367E+01  8.07132E+01  8.04577E+01  7.71879E+01  7.90662E+01  8.14693E+01
   7.54369E+01  7.97415E+01  7.67451E+01  7.47719E+01  7.99829E+01  8.67758E+01  8.52494E+01  9.57060E+01  1.02593E+02  1.18657E+02
   1.26714E+02  1.39836E+02  1.47455E+02  1.58265E+02  1.66708E+02  1.73775E+02  1.75631E+02  1.72734E+02  1.68568E+02  1.68136E+02
   1.65521E+02  1.64858E+02  1.60542E+02  1.58091E+02  1.55245E+02  1.50201E+02  1.42555E+02  1.42704E+02  1.38428E+02  1.37071E+02
   1.32649E+02  1.34225E+02  1.30199E+02  1.30538E+02  1.24294E+02  1.23870E+02  1.22162E+02  1.20094E+02  1.21456E+02  1.18367E+02
   1.11851E+02  1.10031E+02  1.13950E+02  1.09024E+02  1.09543E+02  1.09825E+02  1.08846E+02  1.04288E+02  1.05260E+02  1.01198E+02
   1.02793E+02  1.02715E+02  1.02282E+02  9.90989E+01  9.41276E+01  9.27005E+01  9.45638E+01  9.08749E+01  9.18880E+01  9.58818E+01
   8.93176E+01  8.46541E+01  8.38964E+01  8.42378E+01  8.75750E+01  8.44242E+01  8.16601E+01  8.07479E+01  8.11362E+01  7.87485E+01
   7.81203E+01  7.37287E+01  7.25744E+01  7.11454E+01  7.21817E+01  7.22747E+01  7.12856E+01  6.55847E+01  7.12308E+01  6.76620E+01
   6.62084E+01  6.67046E+01  7.02486E+01  6.45148E+01  6.69038E+01  6.42772E+01  6.30914E+01  5.69677E+01  5.92044E+01  6.19063E+01
   6.21448E+01  5.90494E+01  5.77591E+01  5.90890E+01  5.74517E+01  5.95244E+01  5.30478E+01  5.42442E+01  5.46342E+01  5.42689E+01
   4.58251E+01  5.18249E+01  5.30868E+01  5.24987E+01  4.86466E+01  5.30088E+01  5.07752E+01  4.75534E+01  4.84963E+01  4.49890E+01
   4.89895E+01  4.84361E+01  4.63922E+01  4.62354E+01  4.40910E+01  4.59901E+01  4.61369E+01  3.98404E+01  4.51850E+01  4.32378E+01
   4.14381E+01  3.99437E+01  4.40734E+01  4.05313E+01  4.18261E+01  4.06605E+01  3.83547E+01  4.09055E+01  3.97016E+01  3.84258E+01
   3.82794E+01  3.75650E+01  4.05936E+01  3.83063E+01  4.13137E+01  3.83582E+01  3.50162E+01  3.74464E+01  3.57362E+01  3.65563E+01
   3.49619E+01  3.62910E+01  3.25494E+01  3.08318E+01  3.66556E+01  3.17043E+01  3.48336E+01  3.59039E+01  3.48234E+01  3.43471E+01
   3.21532E+01  3.11874E+01  3.01074E+01  2.99889E+01  3.13030E+01  3.22116E+01  3.29060E+01  3.41694E+01  3.10962E+01  2.99731E+01
   3.13372E+01  2.79627E+01  2.84730E+01  3.29209E+01  2.82516E+01  3.29222E+01  2.88375E+01  3.08287E+01  2.97528E+01  2.69200E+01
   3.00796E+01  2.79508E+01  2.68669E+01  2.71339E+01  2.92289E+01  2.89637E+01  3.03143E+01  2.92514E+01  2.89126E+01  2.83700E+01
   2.41644E+01  2.53918E+01  2.44691E+01  2.79742E+01  2.46911E+01  2.51720E+01  2.63985E+01  2.56557E+01
 NY points of the fit to the data follow
   2.93794E+00  2.80815E+00  2.91216E+00  3.11066E+00  3.45049E+00  4.14436E+00  4.94299E+00  5.09369E+00  5.16000E+00  4.27601E+00
   3.63248E+00  2.40116E+00  1.82937E+00  5.75403E-01  1.42727E+00  1.49726E+00  2.84766E+00  2.92448E+00  4.35166E+00  3.78541E+00
   5.31265E+00  4.03341E+00  5.30364E+00  3.21245E+00  3.86926E+00  1.08517E+00  1.65163E+00 -7.10561E-01  3.35936E-01 -1.03746E+00
   4.13124E-01 -1.51018E-01  7.16823E-01  2.69582E-01  3.30678E-01  3.16279E-01  2.30183E-01  1.07945E+00  7.13143E-01  1.85820E+00
   1.05117E+00  2.06738E+00  7.10052E-01  1.30330E+00 -1.14902E-01  7.70208E-01 -1.32733E-01  5.98749E-01 -2.46060E-01  7.02081E-02
  -8.37640E-01 -9.21559E-01 -1.97430E+00 -2.49436E+00 -2.81471E+00 -2.73319E+00 -2.80985E+00 -2.82722E+00 -2.90245E+00 -3.11093E+00
  -3.23744E+00 -3.65933E+00 -3.82199E+00 -4.20409E+00 -4.31032E+00 -4.65911E+00 -4.71672E+00 -5.06655E+00 -5.08580E+00 -5.40961E+00
  -5.37009E+00 -5.69251E+00 -5.67369E+00 -5.99013E+00 -5.97297E+00 -6.27007E+00 -6.26105E+00 -6.55323E+00 -6.56323E+00 -6.84539E+00
  -6.91787E+00 -7.19595E+00 -7.30354E+00 -7.58019E+00 -7.63541E+00 -7.58699E+00 -7.35277E+00 -7.55800E+00 -7.32578E+00 -7.76920E+00
  -7.57057E+00 -7.97356E+00 -7.71312E+00 -8.08822E+00 -7.76676E+00 -8.10259E+00 -7.71087E+00 -7.82821E+00 -7.19584E+00 -7.14904E+00
  -6.21745E+00 -6.22875E+00 -5.07920E+00 -5.42568E+00 -4.23645E+00 -4.98784E+00 -3.85924E+00 -4.83396E+00 -3.61805E+00 -4.49812E+00
  -3.59188E+00 -4.75891E+00 -4.30033E+00 -5.66599E+00 -5.53382E+00 -6.66726E+00 -6.73582E+00 -7.58886E+00 -7.80150E+00 -8.30589E+00
  -8.52859E+00 -8.56776E+00 -8.81148E+00 -8.39167E+00 -8.73731E+00 -7.71142E+00 -8.10367E+00 -7.03123E+00 -7.64750E+00 -6.69393E+00
  -7.47024E+00 -6.64437E+00 -7.56533E+00 -6.96032E+00 -7.99910E+00 -7.70594E+00 -8.76614E+00 -8.77301E+00 -9.70187E+00 -9.86373E+00
  -1.06110E+01 -1.08698E+01 -1.14231E+01 -1.16934E+01 -1.20899E+01 -1.23757E+01 -1.26570E+01 -1.29768E+01 -1.30507E+01 -1.31541E+01
  -1.31898E+01 -1.32756E+01 -1.33127E+01 -1.33889E+01 -1.34299E+01 -1.34841E+01 -1.35229E+01 -1.35697E+01 -1.36120E+01 -1.36553E+01
  -1.37002E+01 -1.37317E+01 -1.37700E+01 -1.37811E+01 -1.38084E+01 -1.38057E+01 -1.38214E+01 -1.38094E+01 -1.38153E+01 -1.37954E+01
  -1.37886E+01 -1.37555E+01 -1.37409E+01 -1.36985E+01 -1.36792E+01 -1.36410E+01 -1.36448E+01 -1.37013E+01 -1.37131E+01 -1.38917E+01
  -1.39320E+01 -1.40581E+01 -1.40564E+01 -1.40741E+01 -1.38288E+01 -1.36099E+01 -1.32389E+01 -1.30281E+01 -1.26797E+01 -1.27027E+01
  -1.25267E+01 -1.30900E+01 -1.32678E+01 -1.45569E+01 -1.43714E+01 -1.50716E+01 -1.42067E+01 -1.38491E+01 -1.29148E+01 -1.26392E+01
  -1.17535E+01 -1.17393E+01 -1.10398E+01 -1.16409E+01 -1.13397E+01 -1.22076E+01 -1.16499E+01 -1.27019E+01 -1.17416E+01 -1.26207E+01
  -1.14250E+01 -1.17086E+01 -1.06361E+01 -1.05914E+01 -1.00477E+01 -1.02374E+01 -1.02934E+01 -1.05249E+01 -1.09011E+01 -1.10963E+01
  -1.12739E+01 -1.10703E+01 -1.09636E+01 -1.05765E+01 -1.01425E+01 -9.84449E+00 -9.42020E+00 -9.10030E+00 -8.50455E+00 -7.96785E+00
  -7.10771E+00 -6.76931E+00 -6.20611E+00 -6.58530E+00 -5.88790E+00 -6.19656E+00 -5.23327E+00 -5.08820E+00 -4.39617E+00 -4.17100E+00
  -4.00376E+00 -3.50719E+00 -4.05488E+00 -3.61089E+00 -4.86891E+00 -4.02526E+00 -5.44987E+00 -4.30228E+00 -5.62919E+00 -4.28076E+00
  -5.35457E+00 -4.00270E+00 -4.84248E+00 -3.73996E+00 -4.16378E+00 -3.19852E+00 -3.12218E+00 -2.08597E+00 -1.72519E+00 -9.05715E-01
  -3.09913E-01  2.87755E-01  9.38173E-01  1.39889E+00  2.20462E+00  2.58274E+00  3.37284E+00  3.77469E+00  4.56654E+00  4.98481E+00
   5.85424E+00  6.27141E+00  7.15956E+00  7.69556E+00  8.83840E+00  9.68196E+00  1.10645E+01  1.22818E+01  1.39281E+01  1.54387E+01
   1.73630E+01  1.93083E+01  2.15795E+01  2.39766E+01  2.66472E+01  2.95390E+01  3.25500E+01  3.58122E+01  3.91526E+01  4.26715E+01
   4.61841E+01  4.97613E+01  5.32164E+01  5.65945E+01  5.97679E+01  6.27381E+01  6.53919E+01  6.77253E+01  6.96739E+01  7.12465E+01
   7.24302E+01  7.32547E+01  7.37776E+01  7.40861E+01  7.43040E+01  7.46197E+01  7.53420E+01  7.71085E+01  8.00271E+01  7.96737E+01
   8.03573E+01  7.92483E+01  7.94607E+01  7.98061E+01  8.15588E+01  8.31615E+01  9.00017E+01  9.70367E+01  1.06521E+02  1.16681E+02
   1.27495E+02  1.37331E+02  1.48534E+02  1.56372E+02  1.65270E+02  1.68958E+02  1.72829E+02  1.71842E+02  1.71881E+02  1.68886E+02
   1.67276E+02  1.63996E+02  1.60738E+02  1.58236E+02  1.52511E+02  1.51072E+02  1.43383E+02  1.43464E+02  1.36258E+02  1.38227E+02
   1.31739E+02  1.35051E+02  1.28785E+02  1.31597E+02  1.24675E+02  1.26047E+02  1.19768E+02  1.21629E+02  1.18046E+02  1.18441E+02
   1.15262E+02  1.15132E+02  1.12558E+02  1.11858E+02  1.08886E+02  1.06818E+02  1.05655E+02  1.04829E+02  1.04081E+02  1.03294E+02
   1.02413E+02  1.01426E+02  1.00335E+02  9.91567E+01  9.79025E+01  9.65850E+01  9.52088E+01  9.37803E+01  9.23018E+01  9.07812E+01
   8.92256E+01  8.76497E+01  8.60671E+01  8.44977E+01  8.29582E+01  8.14689E+01  8.00444E+01  7.87006E+01  7.74463E+01  7.62904E+01
   7.52336E+01  7.42765E+01  7.34118E+01  7.26326E+01  7.19250E+01  7.12766E+01  7.06694E+01  7.00887E+01  6.95158E+01  6.89372E+01
   6.83369E+01  6.77055E+01  6.70325E+01  6.63145E+01  6.55477E+01  6.47354E+01  6.38801E+01  6.29907E+01  6.20743E+01  6.11435E+01
   6.02073E+01  5.92791E+01  5.83678E+01  5.74850E+01  5.66369E+01  5.58322E+01  5.50733E+01  5.43649E+01  5.37056E+01  5.30963E+01
   5.25323E+01  5.20118E+01  5.15277E+01  5.10765E+01  5.06501E+01  5.02443E+01  4.98510E+01  4.94664E+01  4.90831E+01  4.86985E+01
   4.83062E+01  4.79050E+01  4.74902E+01  4.70618E+01  4.66165E+01  4.61560E+01  4.56781E+01  4.51855E+01  4.46772E+01  4.41568E+01
   4.36240E+01  4.30829E+01  4.25336E+01  4.19805E+01  4.14239E+01  4.08683E+01  4.03139E+01  3.97649E+01  3.92214E+01  3.86873E+01
   3.81623E+01  3.76500E+01  3.71497E+01  3.66647E+01  3.61939E+01  3.57400E+01  3.53017E+01  3.48815E+01  3.44775E+01  3.40921E+01
   3.37231E+01  3.33726E+01  3.30384E+01  3.27222E+01  3.24217E+01  3.21386E+01  3.18703E+01  3.16186E+01  3.13807E+01  3.11584E+01
   3.09491E+01  3.07541E+01  3.05711E+01  3.04015E+01  3.02428E+01  3.00964E+01  2.99599E+01  2.98348E+01  2.97187E+01  2.96130E+01
   2.95153E+01  2.94273E+01  2.93465E+01  2.92745E+01  2.92090E+01  2.91516E+01  2.90998E+01  2.90556E+01  2.90165E+01  2.89842E+01
   2.89564E+01  2.89350E+01  2.89175E+01  2.89059E+01  2.88978E+01  2.88951E+01  2.88955E+01  2.89009E+01  2.89090E+01  2.89218E+01
   2.89370E+01  2.89565E+01  2.89782E+01  2.90040E+01  2.90318E+01  2.90635E+01  2.90971E+01  2.91347E+01
 NY background values follow
    -1.613E+00   -1.698E+00   -1.783E+00   -1.869E+00   -1.956E+00   -2.043E+00   -2.130E+00   -2.218E+00   -2.307E+00   -2.396E+00
    -2.486E+00   -2.576E+00   -2.667E+00   -2.758E+00   -2.849E+00   -2.941E+00   -3.033E+00   -3.126E+00   -3.219E+00   -3.312E+00
    -3.406E+00   -3.500E+00   -3.594E+00   -3.689E+00   -3.784E+00   -3.880E+00   -3.975E+00   -4.071E+00   -4.167E+00   -4.264E+00
    -4.360E+00   -4.457E+00   -4.554E+00   -4.651E+00   -4.749E+00   -4.846E+00   -4.944E+00   -5.042E+00   -5.140E+00   -5.238E+00
    -5.336E+00   -5.434E+00   -5.533E+00   -5.631E+00   -5.730E+00   -5.828E+00   -5.927E+00   -6.025E+00   -6.124E+00   -6.223E+00
    -6.321E+00   -6.420E+00   -6.518E+00   -6.616E+00   -6.715E+00   -6.813E+00   -6.911E+00   -7.009E+00   -7.107E+00   -7.205E+00
    -7.302E+00   -7.400E+00   -7.497E+00   -7.594E+00   -7.691E+00   -7.788E+00   -7.884E+00   -7.980E+00   -8.076E+00   -8.172E+00
    -8.267E+00   -8.363E+00   -8.457E+00   -8.552E+00   -8.646E+00   -8.740E+00   -8.833E+00   -8.926E+00   -9.019E+00   -9.111E+00
    -9.203E+00   -9.295E+00   -9.386E+00   -9.477E+00   -9.567E+00   -9.657E+00   -9.746E+00   -9.835E+00   -9.923E+00   -1.001E+01
    -1.010E+01   -1.018E+01   -1.027E+01   -1.036E+01   -1.044E+01   -1.053E+01   -1.061E+01   -1.069E+01   -1.077E+01   -1.086E+01
    -1.094E+01   -1.102E+01   -1.110E+01   -1.118E+01   -1.126E+01   -1.133E+01   -1.141E+01   -1.149E+01   -1.156E+01   -1.164E+01
    -1.171E+01   -1.178E+01   -1.186E+01   -1.193E+01   -1.200E+01   -1.207E+01   -1.214E+01   -1.221E+01   -1.227E+01   -1.234E+01
    -1.240E+01   -1.247E+01   -1.253E+01   -1.259E+01   -1.266E+01   -1.272E+01   -1.278E+01   -1.284E+01   -1.289E+01   -1.295E+01
    -1.301E+01   -1.306E+01   -1.311E+01   -1.317E+01   -1.322E+01   -1.327E+01   -1.332E+01   -1.336E+01   -1.341E+01   -1.346E+01
    -1.350E+01   -1.354E+01   -1.359E+01   -1.363E+01   -1.367E+01   -1.371E+01   -1.374E+01   -1.378E+01   -1.381E+01   -1.385E+01
    -1.388E+01   -1.391E+01   -1.394E+01   -1.397E+01   -1.400E+01   -1.402E+01   -1.405E+01   -1.407E+01   -1.409E+01   -1.411E+01
    -1.413E+01   -1.415E+01   -1.416E+01   -1.418E+01   -1.419E+01   -1.420E+01   -1.421E+01   -1.422E+01   -1.422E+01   -1.423E+01
    -1.423E+01   -1.424E+01   -1.424E+01   -1.424E+01   -1.423E+01   -1.423E+01   -1.423E+01   -1.422E+01   -1.421E+01   -1.420E+01
    -1.419E+01   -1.418E+01   -1.417E+01   -1.415E+01   -1.414E+01   -1.412E+01   -1.410E+01   -1.408E+01   -1.406E+01   -1.404E+01
    -1.401E+01   -1.399E+01   -1.396E+01   -1.393E+01   -1.390E+01   -1.387E+01   -1.384E+01   -1.380E+01   -1.377E+01   -1.373E+01
    -1.370E+01   -1.366E+01   -1.362E+01   -1.358E+01   -1.353E+01   -1.349E+01   -1.345E+01   -1.340E+01   -1.335E+01   -1.330E+01
    -1.325E+01   -1.320E+01   -1.315E+01   -1.310E+01   -1.304E+01   -1.299E+01   -1.293E+01   -1.287E+01   -1.282E+01   -1.276E+01
    -1.269E+01   -1.263E+01   -1.257E+01   -1.250E+01   -1.244E+01   -1.237E+01   -1.230E+01   -1.223E+01   -1.216E+01   -1.209E+01
    -1.202E+01   -1.195E+01   -1.187E+01   -1.180E+01   -1.172E+01   -1.164E+01   -1.156E+01   -1.149E+01   -1.140E+01   -1.132E+01
    -1.124E+01   -1.116E+01   -1.107E+01   -1.099E+01   -1.090E+01   -1.081E+01   -1.073E+01   -1.064E+01   -1.055E+01   -1.045E+01
    -1.036E+01   -1.027E+01   -1.018E+01   -1.008E+01   -9.985E+00   -9.888E+00   -9.791E+00   -9.692E+00   -9.593E+00   -9.493E+00
    -9.392E+00   -9.290E+00   -9.187E+00   -9.084E+00   -8.979E+00   -8.874E+00   -8.768E+00   -8.661E+00   -8.554E+00   -8.445E+00
    -8.336E+00   -8.226E+00   -8.115E+00   -8.004E+00   -7.892E+00   -7.779E+00   -7.665E+00   -7.550E+00   -7.435E+00   -7.319E+00
    -7.202E+00   -7.085E+00   -6.967E+00   -6.848E+00   -6.728E+00   -6.608E+00   -6.487E+00   -6.366E+00   -6.243E+00   -6.120E+00
    -5.997E+00   -5.873E+00   -5.748E+00   -5.622E+00   -5.496E+00   -5.370E+00   -5.242E+00   -5.114E+00   -4.986E+00   -4.857E+00
    -4.727E+00   -4.597E+00   -4.466E+00   -4.335E+00   -4.203E+00   -4.070E+00   -3.937E+00   -3.804E+00   -3.669E+00   -3.535E+00
    -3.400E+00   -3.264E+00   -3.128E+00   -2.991E+00   -2.854E+00   -2.717E+00   -2.578E+00   -2.440E+00   -2.301E+00   -2.161E+00
    -2.022E+00   -1.881E+00   -1.740E+00   -1.599E+00   -1.458E+00   -1.316E+00   -1.173E+00   -1.030E+00   -8.871E-01   -7.435E-01
    -5.996E-01   -4.552E-01   -3.105E-01   -1.655E-01   -2.004E-02    1.257E-01    2.718E-01    4.182E-01    5.650E-01    7.121E-01
     8.595E-01    1.007E+00    1.155E+00    1.304E+00    1.452E+00    1.601E+00    1.750E+00    1.900E+00    2.049E+00    2.199E+00
     2.350E+00    2.500E+00    2.651E+00    2.802E+00    2.953E+00    3.105E+00    3.257E+00    3.409E+00    3.561E+00    3.713E+00
     3.866E+00    4.018E+00    4.171E+00    4.325E+00    4.478E+00    4.632E+00    4.785E+00    4.939E+00    5.093E+00    5.247E+00
     5.402E+00    5.556E+00    5.711E+00    5.866E+00    6.020E+00    6.175E+00    6.331E+00    6.486E+00    6.641E+00    6.797E+00
     6.952E+00    7.108E+00    7.264E+00    7.419E+00    7.575E+00    7.731E+00    7.887E+00    8.043E+00    8.199E+00    8.355E+00
     8.512E+00    8.668E+00    8.824E+00    8.980E+00    9.137E+00    9.293E+00    9.449E+00    9.606E+00    9.762E+00    9.918E+00
     1.007E+01    1.023E+01    1.039E+01    1.054E+01    1.070E+01    1.086E+01    1.101E+01    1.117E+01    1.132E+01    1.148E+01
     1.164E+01    1.179E+01    1.195E+01    1.210E+01    1.226E+01    1.241E+01    1.257E+01    1.272E+01    1.288E+01    1.303E+01
     1.319E+01    1.334E+01    1.350E+01    1.365E+01    1.381E+01    1.396E+01    1.411E+01    1.427E+01    1.442E+01    1.457E+01
     1.473E+01    1.488E+01    1.503E+01    1.519E+01    1.534E+01    1.549E+01    1.564E+01    1.579E+01    1.595E+01    1.610E+01
     1.625E+01    1.640E+01    1.655E+01    1.670E+01    1.685E+01    1.700E+01    1.715E+01    1.730E+01    1.745E+01    1.760E+01
     1.774E+01    1.789E+01    1.804E+01    1.819E+01    1.833E+01    1.848E+01    1.863E+01    1.877E+01    1.892E+01    1.907E+01
     1.921E+01    1.936E+01    1.950E+01    1.964E+01    1.979E+01    1.993E+01    2.007E+01    2.022E+01    2.036E+01    2.050E+01
     2.064E+01    2.078E+01    2.092E+01    2.106E+01    2.120E+01    2.134E+01    2.148E+01    2.162E+01    2.176E+01    2.189E+01
     2.203E+01    2.217E+01    2.230E+01    2.244E+01    2.257E+01    2.271E+01    2.284E+01    2.298E+01    2.311E+01    2.324E+01
     2.337E+01    2.351E+01    2.364E+01    2.377E+01    2.390E+01    2.403E+01    2.415E+01    2.428E+01
 Ala      Conc. = 1.09E+04
