 LCModel (Version 6.3-1L) Copyright: S.W. Provencher.          Ref.: Magn. Reson. Med. 30:672-679 (1993).                
 Slice#1 Row#6 Col#2  K_02_press_1_raw_act
 36 lines in following concentration table = NCONC+1
    Conc.  %SD /Cr+PCr  Metabolite                                         
    0.000 999%   0.000 Ala                                                 
   54.076 122%   0.138 Asp                                                 
  125.542 149%   0.321 Cr                                                  
  265.761  71%   0.679 PCr                                                 
   48.416  83%   0.124 GABA                                                
   41.798  96%   0.107 Glc                                                 
  176.830 140%   0.452 Gln                                                 
  728.161  38%   1.861 Glu                                                 
   86.875  17%   0.222 GPC                                                 
    0.000 999%   0.000 PCh                                                 
  104.842  58%   0.268 GSH                                                 
  213.539  93%   0.546 Ins                                                 
    0.000 999%   0.000 Lac                                                 
  588.331  15%   1.504 NAA                                                 
  126.645  75%   0.324 NAAG                                                
   13.762  85% 3.5E-02 Scyllo                                              
   83.187  77%   0.213 Tau                                                 
  130.039  52%   0.332 -CrCH2                                              
   86.875  17%   0.222 GPC+PCh                                             
  714.976   7%   1.827 NAA+NAAG                                            
  391.303  10%   1.000 Cr+PCr                                              
  904.991  49%   2.313 Glu+Gln                                             
    0.000 999%   0.000 Lip13a                                              
    0.000 999%   0.000 Lip13b                                              
    0.000 999%   0.000 Lip09                                               
  123.099  76%   0.315 MM09                                                
 2.58E-03 999% 6.6E-06 Lip20                                               
  184.756  76%   0.472 MM20                                                
   36.923  76% 9.4E-02 MM12                                                
   92.320  76%   0.236 MM14                                                
   46.224  76%   0.118 MM17                                                
    0.000 999%   0.000 Lip13a+Lip13b                                       
  129.243  76%   0.330 MM14+Lip13a+Lip13b+MM12                             
  123.099  76%   0.315 MM09+Lip09                                          
  184.759  76%   0.472 MM20+Lip20                                          
   6 lines in following misc. output table
  FWHM = 0.076 ppm    S/N =   4                                            
  Data shift = 0.076 ppm                                                   
  Ph: -12 deg      -1.1 deg/ppm                                            
  alphaB,S = 1.0E+00,   1.7E+02                                            
   14 spline knots.   Ns = 8(1)                                            
  (10) 2 infls.   (11) 1 extrs.                                            
  498 points on ppm-axis = NY
      4.000000     3.992357     3.984714     3.977070     3.969427     3.961784     3.954141     3.946497     3.938854     3.931211
      3.923568     3.915925     3.908281     3.900638     3.892995     3.885352     3.877708     3.870065     3.862422     3.854779
      3.847136     3.839492     3.831849     3.824206     3.816563     3.808919     3.801276     3.793633     3.785990     3.778347
      3.770703     3.763060     3.755417     3.747774     3.740130     3.732487     3.724844     3.717201     3.709558     3.701914
      3.694271     3.686628     3.678985     3.671341     3.663698     3.656055     3.648412     3.640769     3.633125     3.625482
      3.617839     3.610196     3.602552     3.594909     3.587266     3.579623     3.571980     3.564336     3.556693     3.549050
      3.541407     3.533763     3.526120     3.518477     3.510834     3.503191     3.495547     3.487904     3.480261     3.472618
      3.464974     3.457331     3.449688     3.442045     3.434402     3.426758     3.419115     3.411472     3.403829     3.396185
      3.388542     3.380899     3.373256     3.365613     3.357969     3.350326     3.342683     3.335040     3.327396     3.319753
      3.312110     3.304467     3.296824     3.289180     3.281537     3.273894     3.266251     3.258607     3.250964     3.243321
      3.235678     3.228034     3.220391     3.212748     3.205105     3.197462     3.189818     3.182175     3.174532     3.166889
      3.159245     3.151602     3.143959     3.136316     3.128673     3.121029     3.113386     3.105743     3.098100     3.090456
      3.082813     3.075170     3.067527     3.059884     3.052240     3.044597     3.036954     3.029311     3.021667     3.014024
      3.006381     2.998738     2.991095     2.983451     2.975808     2.968165     2.960522     2.952878     2.945235     2.937592
      2.929949     2.922306     2.914662     2.907019     2.899376     2.891733     2.884089     2.876446     2.868803     2.861160
      2.853517     2.845873     2.838230     2.830587     2.822944     2.815300     2.807657     2.800014     2.792371     2.784728
      2.777084     2.769441     2.761798     2.754155     2.746511     2.738868     2.731225     2.723582     2.715939     2.708295
      2.700652     2.693009     2.685366     2.677722     2.670079     2.662436     2.654793     2.647150     2.639506     2.631863
      2.624220     2.616577     2.608933     2.601290     2.593647     2.586004     2.578361     2.570717     2.563074     2.555431
      2.547788     2.540144     2.532501     2.524858     2.517215     2.509572     2.501928     2.494285     2.486642     2.478999
      2.471355     2.463712     2.456069     2.448426     2.440783     2.433139     2.425496     2.417853     2.410210     2.402566
      2.394923     2.387280     2.379637     2.371994     2.364350     2.356707     2.349064     2.341421     2.333777     2.326134
      2.318491     2.310848     2.303205     2.295561     2.287918     2.280275     2.272632     2.264988     2.257345     2.249702
      2.242059     2.234416     2.226772     2.219129     2.211486     2.203843     2.196199     2.188556     2.180913     2.173270
      2.165627     2.157983     2.150340     2.142697     2.135054     2.127410     2.119767     2.112124     2.104481     2.096838
      2.089194     2.081551     2.073908     2.066265     2.058621     2.050978     2.043335     2.035692     2.028049     2.020405
      2.012762     2.005119     1.997476     1.989833     1.982190     1.974546     1.966903     1.959260     1.951617     1.943974
      1.936331     1.928688     1.921045     1.913402     1.905759     1.898115     1.890472     1.882829     1.875186     1.867543
      1.859900     1.852257     1.844614     1.836971     1.829327     1.821684     1.814041     1.806398     1.798755     1.791112
      1.783469     1.775826     1.768183     1.760540     1.752896     1.745253     1.737610     1.729967     1.722324     1.714681
      1.707038     1.699395     1.691752     1.684108     1.676465     1.668822     1.661179     1.653536     1.645893     1.638250
      1.630607     1.622964     1.615321     1.607677     1.600034     1.592391     1.584748     1.577105     1.569462     1.561819
      1.554176     1.546533     1.538890     1.531246     1.523603     1.515960     1.508317     1.500674     1.493031     1.485388
      1.477745     1.470102     1.462458     1.454815     1.447172     1.439529     1.431886     1.424243     1.416600     1.408957
      1.401314     1.393671     1.386027     1.378384     1.370741     1.363098     1.355455     1.347812     1.340169     1.332526
      1.324883     1.317240     1.309596     1.301953     1.294310     1.286667     1.279024     1.271381     1.263738     1.256095
      1.248452     1.240808     1.233165     1.225522     1.217879     1.210236     1.202593     1.194950     1.187307     1.179664
      1.172021     1.164377     1.156734     1.149091     1.141448     1.133805     1.126162     1.118519     1.110876     1.103233
      1.095590     1.087946     1.080303     1.072660     1.065017     1.057374     1.049731     1.042088     1.034445     1.026802
      1.019158     1.011515     1.003872     0.996229     0.988586     0.980943     0.973300     0.965657     0.958014     0.950371
      0.942727     0.935084     0.927441     0.919798     0.912155     0.904512     0.896869     0.889226     0.881583     0.873940
      0.866296     0.858653     0.851010     0.843367     0.835724     0.828081     0.820438     0.812795     0.805152     0.797508
      0.789865     0.782222     0.774579     0.766936     0.759293     0.751650     0.744007     0.736364     0.728721     0.721077
      0.713434     0.705791     0.698148     0.690505     0.682862     0.675219     0.667576     0.659933     0.652290     0.644646
      0.637003     0.629360     0.621717     0.614074     0.606431     0.598788     0.591145     0.583502     0.575858     0.568215
      0.560572     0.552929     0.545286     0.537643     0.530000     0.522357     0.514714     0.507071     0.499427     0.491784
      0.484141     0.476498     0.468855     0.461212     0.453569     0.445925     0.438282     0.430639     0.422996     0.415353
      0.407710     0.400067     0.392424     0.384780     0.377137     0.369494     0.361851     0.354208     0.346565     0.338922
      0.331278     0.323635     0.315992     0.308349     0.300706     0.293063     0.285420     0.277777     0.270133     0.262490
      0.254847     0.247204     0.239561     0.231918     0.224275     0.216631     0.208988     0.201345
 NY phased data points follow
  -7.93095E+00 -1.18380E+01 -9.22230E+00 -9.69013E+00 -7.21452E+00 -4.15570E+00 -6.95377E+00 -7.12858E+00 -4.27285E+00 -3.03221E+00
   4.43563E-01 -2.40785E+00 -2.13245E+00 -7.12947E+00 -2.58459E+00 -6.82983E+00 -6.09028E+00 -8.08021E+00 -6.55520E+00 -6.74919E+00
  -7.64660E+00 -6.12622E+00 -3.94732E+00 -9.59775E+00 -5.61309E+00 -4.10656E+00 -5.29245E+00 -5.63239E+00 -7.10787E+00 -4.43291E+00
  -2.64653E+00 -3.91787E+00 -6.26030E+00 -6.85965E+00 -3.93963E+00 -4.39108E+00 -4.05693E+00 -5.79359E+00 -3.13082E+00 -4.02820E+00
  -2.62420E+00 -3.22842E+00 -4.38484E+00 -5.43225E+00 -7.98440E-02 -3.86318E+00 -3.99281E+00 -5.53015E+00 -5.00675E+00 -7.36700E+00
  -4.39555E+00 -3.29583E+00 -5.33457E+00 -4.74854E+00 -8.50264E+00 -4.64789E+00 -1.18235E+00 -7.75217E+00 -3.81075E+00 -5.04714E+00
  -7.59236E+00 -8.57269E+00 -6.89204E+00 -1.14444E-01 -6.80845E+00 -6.38344E+00 -7.58706E+00 -2.94342E+00 -6.19630E+00 -4.84480E+00
  -6.52984E+00 -4.66281E+00 -5.57207E+00 -5.52746E+00 -1.39981E+00 -5.20655E+00 -4.10069E+00 -5.46813E+00 -6.21549E+00 -7.36832E+00
  -4.61397E+00 -3.48862E+00 -6.15752E+00 -5.10971E+00 -2.76948E+00 -5.76057E+00 -5.50134E+00 -9.07991E+00 -3.05610E+00 -4.24731E+00
  -3.31726E+00 -3.65143E+00 -4.67658E+00 -9.33119E+00 -3.91123E+00 -4.30951E+00 -3.50687E+00 -5.45787E+00 -2.53932E+00 -9.29827E-02
   2.85400E+00  1.36320E+00  1.92422E-01  7.08132E-01  4.13660E+00 -1.24067E+00 -1.22947E+00  1.09415E+00 -1.33563E+00 -7.77823E+00
  -4.40534E+00 -1.82843E+00 -5.25126E+00  1.68396E+00 -4.38269E+00  1.42959E+00 -2.42792E+00 -7.44690E-01 -2.50734E+00 -5.24995E-01
  -4.90974E+00 -1.84877E+00  3.83686E+00  6.73386E-01  2.48956E+00  5.93610E+00  7.65259E+00  4.17184E+00  7.43743E+00  2.71799E+00
   3.34780E+00  7.34046E+00 -1.11916E+00 -2.29886E+00 -1.88797E-01 -4.68145E+00 -4.03325E+00  1.19041E+00 -3.30266E+00 -3.13292E+00
  -4.03325E+00 -1.52939E+00 -5.43745E+00 -4.19960E+00 -4.28754E+00 -5.83766E+00 -4.52390E+00 -3.05424E+00 -3.10290E+00 -4.26860E+00
  -7.33531E+00 -3.29956E+00 -6.17154E+00 -3.62129E-01 -1.79564E+00 -6.32150E+00 -3.07534E+00 -2.52207E+00 -5.97427E+00 -5.67896E+00
  -3.16565E+00 -6.33061E+00 -2.31916E+00 -3.55423E+00 -2.90236E+00 -6.37667E+00 -3.75192E+00 -4.02448E+00 -6.37069E+00 -6.41115E+00
  -6.87720E+00 -4.32566E+00 -4.65575E+00 -5.44624E+00 -7.29861E+00 -9.62142E+00 -6.62294E+00 -6.43984E+00 -1.01210E+01 -4.22778E+00
  -1.11880E+01 -6.78056E+00 -7.51927E+00 -3.57513E+00 -2.56655E+00 -7.71125E+00 -6.59853E+00 -6.93350E+00 -1.01308E+01 -4.79169E+00
  -3.29112E+00 -5.35063E+00 -3.72945E+00 -3.42763E+00 -2.43167E+00 -2.89242E+00 -1.67344E+00 -7.56199E+00 -7.08117E+00 -6.28534E+00
  -6.61628E+00 -4.42567E+00 -5.83145E+00 -4.95996E+00 -1.60183E+00 -7.69211E-01 -3.40203E+00 -2.24134E+00 -5.76123E+00 -3.33174E+00
  -3.20677E+00 -1.99313E+00  1.17836E+00 -2.83685E-01  1.02504E-01  2.37482E-01  3.52801E+00 -2.06639E+00  1.50051E+00 -2.20709E+00
  -3.02392E+00 -2.78605E+00 -4.17656E+00 -2.38904E+00 -4.39805E+00 -5.83523E-01  1.02158E+00 -8.73712E-01 -7.04889E-01  4.44470E-01
  -2.19020E+00 -1.48198E+00 -3.66874E+00  2.85583E+00 -1.77970E+00 -2.32324E+00  2.90159E+00  9.56755E-01 -4.33497E+00 -4.68956E-01
  -5.72346E-01 -9.28497E-01  2.85825E+00  3.33421E+00 -3.90173E-01  8.82373E-01 -9.29199E-01 -7.31306E-01  2.01210E+00  4.59176E+00
   1.20100E+00  1.64524E+00 -2.45933E+00  2.98717E+00  7.40454E+00  5.48855E+00  9.49375E+00  1.20420E+01  1.25708E+01  1.72291E+01
   1.46635E+01  1.28526E+01  1.56562E+01  1.35468E+01  8.07539E+00  4.59917E+00  5.51846E+00  6.21189E+00  2.39319E+00  3.81511E+00
  -1.74869E+00 -7.82391E-01 -3.87775E+00  2.08201E+00  8.92242E-01 -4.35213E-01 -1.25412E+00 -1.22906E+00 -7.91043E-01  7.47863E-01
  -2.05938E+00 -1.95641E+00 -1.88830E+00 -4.94745E+00 -1.36952E+00  7.68643E-01  1.19897E+00 -1.59830E+00 -2.09197E+00 -3.07486E-01
   1.43705E+00 -1.73961E+00 -6.26381E-01 -1.29896E+00 -5.52912E-01 -1.00617E+00 -4.74498E+00 -3.16096E+00 -2.71578E+00 -1.63210E+00
  -8.77064E-01  2.65937E+00 -3.31842E+00 -4.18320E-02 -2.10329E+00 -3.92055E+00 -1.49065E+00 -1.01050E+00 -2.85293E+00 -2.47568E+00
  -1.13764E+00 -3.10013E+00 -3.23791E-01 -3.10063E+00 -2.82378E+00 -4.78628E-04 -6.97164E-01 -1.58313E+00 -2.44386E-01 -3.08126E+00
   3.51233E-01 -4.08343E+00 -2.82985E+00 -2.57193E+00 -6.65745E+00 -8.93909E-01 -5.44733E+00 -1.38797E+00 -4.43764E+00 -2.45852E+00
  -3.01073E+00 -3.14752E+00  8.07376E-01 -2.17619E+00 -9.10194E-01 -3.69783E-02 -1.96271E+00  1.12585E+00 -4.34602E+00 -4.20823E+00
  -6.74546E+00 -1.70907E+00 -5.97619E+00 -4.30342E+00 -6.49836E+00 -3.99324E+00 -4.61051E+00 -4.32009E+00 -5.99410E+00 -5.51910E+00
  -5.97616E+00 -4.63072E+00 -9.69448E+00 -6.81734E+00 -3.47088E+00 -6.79233E+00 -7.78051E+00 -6.29133E+00 -2.74879E+00 -6.95167E+00
  -4.97313E+00 -3.32879E+00 -6.01533E+00 -2.61755E+00 -1.45564E+00 -7.91665E+00 -5.29758E+00 -6.72724E+00 -3.79312E+00 -3.00176E+00
  -1.53727E+00 -4.34817E+00  1.26308E-02 -5.34600E+00 -6.05870E+00 -3.63484E+00 -7.48186E+00 -5.26410E+00 -5.61375E+00 -6.09788E+00
  -6.29554E+00 -4.67482E+00 -5.96352E+00 -6.19334E+00 -3.05918E+00 -9.28999E+00 -2.27532E+00 -8.61094E+00 -8.25210E+00 -5.14489E+00
  -6.83769E+00 -7.66362E+00 -4.34499E+00 -6.25039E+00 -1.29766E+00 -2.14686E+00 -3.26213E+00 -1.00586E+01 -4.09956E+00 -6.16787E+00
  -4.17568E+00 -3.17054E+00 -1.79241E+00 -3.45506E+00 -6.03625E+00 -2.65704E-01 -4.16530E+00 -8.79073E+00 -3.61313E+00 -4.01475E+00
  -5.85891E+00 -6.18331E+00 -8.51140E+00 -6.21134E+00 -3.69542E+00 -5.21458E+00 -6.76742E+00 -5.29059E+00 -6.93406E+00 -5.94822E+00
  -1.51513E+00 -8.34341E+00 -2.44759E+00 -4.17347E+00 -2.31687E+00 -1.06648E+00 -3.81801E+00 -7.62779E+00 -5.20167E+00 -4.19635E+00
  -2.47434E+00 -4.41380E+00 -1.29454E+00 -4.76197E+00 -3.71900E+00 -9.91029E+00 -7.36546E+00 -2.87403E+00 -4.43340E+00 -5.97491E+00
  -3.89973E+00 -4.20702E+00 -2.85495E+00 -8.70522E+00 -4.70076E+00 -1.39675E+00 -4.67009E+00 -5.08685E+00 -1.99400E+00 -2.58788E+00
  -2.91673E+00 -5.95833E+00 -6.18973E+00 -5.14369E+00 -5.29485E+00 -1.84487E+00 -6.29373E+00 -3.09037E+00 -4.53436E+00 -1.39846E+00
  -6.06299E+00 -4.52640E+00 -5.33775E+00 -2.45757E+00 -1.09945E+00 -3.22353E+00 -2.95318E+00 -3.07291E+00 -1.13665E+00 -3.43748E+00
  -3.07533E+00 -5.57113E+00 -6.82802E+00 -2.83160E+00 -4.99303E+00 -3.05888E-01 -6.28766E+00 -2.07390E+00 -2.62772E+00 -3.32035E+00
  -3.18058E+00 -6.58006E-01 -6.69293E+00 -2.89719E+00 -4.68529E+00 -3.38652E+00 -5.98193E+00 -4.30110E+00 -3.54442E+00 -1.66439E+00
  -2.35862E+00 -3.30002E+00  1.61434E+00 -1.51414E+00 -3.62892E+00 -6.73526E+00 -3.62143E+00  3.81328E-01
 NY points of the fit to the data follow
  -7.83625E+00 -7.75274E+00 -7.52361E+00 -7.11245E+00 -6.53067E+00 -5.83485E+00 -5.08946E+00 -4.37363E+00 -3.76374E+00 -3.31915E+00
  -3.08178E+00 -3.06642E+00 -3.25372E+00 -3.60039E+00 -4.05144E+00 -4.54940E+00 -5.05088E+00 -5.51619E+00 -5.89709E+00 -6.14568E+00
  -6.30909E+00 -6.40662E+00 -6.42900E+00 -6.39323E+00 -6.29539E+00 -6.10402E+00 -5.79956E+00 -5.38924E+00 -4.93159E+00 -4.49871E+00
  -4.15732E+00 -3.96144E+00 -3.92842E+00 -4.05216E+00 -4.30518E+00 -4.62997E+00 -4.97192E+00 -5.30145E+00 -5.60615E+00 -5.82518E+00
  -5.88472E+00 -5.79955E+00 -5.61080E+00 -5.34549E+00 -5.05216E+00 -4.78894E+00 -4.61490E+00 -4.54940E+00 -4.59372E+00 -4.72972E+00
  -4.91295E+00 -5.10841E+00 -5.28743E+00 -5.42982E+00 -5.53501E+00 -5.60569E+00 -5.63489E+00 -5.61913E+00 -5.57156E+00 -5.51697E+00
  -5.47567E+00 -5.45301E+00 -5.44787E+00 -5.45676E+00 -5.46705E+00 -5.46882E+00 -5.45963E+00 -5.43529E+00 -5.38800E+00 -5.31444E+00
  -5.22095E+00 -5.12188E+00 -5.03349E+00 -4.97093E+00 -4.93949E+00 -4.93795E+00 -4.95902E+00 -4.99008E+00 -5.01106E+00 -5.00816E+00
  -4.99209E+00 -4.97192E+00 -4.94910E+00 -4.93249E+00 -4.92863E+00 -4.93525E+00 -4.95240E+00 -4.98785E+00 -5.03960E+00 -5.10148E+00
  -5.16490E+00 -5.21383E+00 -5.23795E+00 -5.22539E+00 -5.09460E+00 -4.66853E+00 -3.93674E+00 -2.99034E+00 -1.93055E+00 -8.56864E-01
   1.27912E-01  9.06779E-01  1.38167E+00  1.51249E+00  1.30989E+00  8.19106E-01  1.22777E-01 -6.88824E-01 -1.53354E+00 -2.34991E+00
  -3.11436E+00 -3.78631E+00 -4.25602E+00 -4.44864E+00 -4.52002E+00 -4.55932E+00 -4.57890E+00 -4.56269E+00 -4.39433E+00 -3.80523E+00
  -2.75971E+00 -1.37304E+00  2.29090E-01  1.90024E+00  3.47053E+00  4.75381E+00  5.58995E+00  5.89821E+00  5.67876E+00  4.98246E+00
   3.91489E+00  2.61663E+00  1.22214E+00 -1.64774E-01 -1.47107E+00 -2.61798E+00 -3.43631E+00 -3.78146E+00 -3.87198E+00 -3.87803E+00
  -3.84483E+00 -3.79427E+00 -3.74061E+00 -3.68916E+00 -3.64663E+00 -3.62926E+00 -3.64383E+00 -3.68940E+00 -3.75867E+00 -3.83496E+00
  -3.90199E+00 -3.95182E+00 -3.98364E+00 -4.01391E+00 -4.05395E+00 -4.10305E+00 -4.15626E+00 -4.20414E+00 -4.24227E+00 -4.27101E+00
  -4.28900E+00 -4.29709E+00 -4.30017E+00 -4.30319E+00 -4.31158E+00 -4.32822E+00 -4.35077E+00 -4.38053E+00 -4.42350E+00 -4.48345E+00
  -4.55404E+00 -4.63198E+00 -4.70955E+00 -4.77918E+00 -4.83727E+00 -4.87056E+00 -4.87661E+00 -4.86361E+00 -4.83783E+00 -4.80940E+00
  -4.77984E+00 -4.73000E+00 -4.64372E+00 -4.51111E+00 -4.32730E+00 -4.10331E+00 -3.86209E+00 -3.61659E+00 -3.37101E+00 -3.14503E+00
  -2.97158E+00 -2.87339E+00 -2.84295E+00 -2.85050E+00 -2.86390E+00 -2.86069E+00 -2.82042E+00 -2.72821E+00 -2.57252E+00 -2.36128E+00
  -2.13191E+00 -1.92687E+00 -1.81990E+00 -1.85681E+00 -2.03904E+00 -2.34637E+00 -2.72526E+00 -3.08756E+00 -3.30902E+00 -3.31083E+00
  -3.10163E+00 -2.72752E+00 -2.26041E+00 -1.80587E+00 -1.50299E+00 -1.47026E+00 -1.72201E+00 -2.19128E+00 -2.79511E+00 -3.43080E+00
  -4.00518E+00 -4.39877E+00 -4.54134E+00 -4.45806E+00 -4.19224E+00 -3.76779E+00 -3.21233E+00 -2.63648E+00 -2.14668E+00 -1.75791E+00
  -1.45595E+00 -1.24582E+00 -1.15837E+00 -1.17778E+00 -1.22904E+00 -1.29361E+00 -1.39017E+00 -1.50888E+00 -1.63191E+00 -1.74894E+00
  -1.84610E+00 -1.91866E+00 -1.96203E+00 -1.96810E+00 -1.94144E+00 -1.88462E+00 -1.79751E+00 -1.63861E+00 -1.32023E+00 -8.35342E-01
  -2.31928E-01  4.83976E-01  1.50240E+00  3.10563E+00  5.20008E+00  7.56332E+00  9.98258E+00  1.22300E+01  1.40656E+01  1.52487E+01
   1.56052E+01  1.51129E+01  1.38615E+01  1.20075E+01  9.77416E+00  7.42387E+00  5.18662E+00  3.12359E+00  1.24621E+00 -3.29972E-01
  -1.33284E+00 -1.69042E+00 -1.79911E+00 -1.83859E+00 -1.84848E+00 -1.85456E+00 -1.87479E+00 -1.90540E+00 -1.94623E+00 -1.99668E+00
  -2.05421E+00 -2.11451E+00 -2.17502E+00 -2.22919E+00 -2.26974E+00 -2.29657E+00 -2.31377E+00 -2.32527E+00 -2.33343E+00 -2.33953E+00
  -2.34568E+00 -2.35486E+00 -2.36623E+00 -2.37848E+00 -2.39169E+00 -2.40560E+00 -2.41900E+00 -2.43187E+00 -2.44456E+00 -2.45713E+00
  -2.46981E+00 -2.48281E+00 -2.49561E+00 -2.50856E+00 -2.52269E+00 -2.53853E+00 -2.55626E+00 -2.57593E+00 -2.59775E+00 -2.62189E+00
  -2.64761E+00 -2.67420E+00 -2.70113E+00 -2.72778E+00 -2.75370E+00 -2.77861E+00 -2.80227E+00 -2.82447E+00 -2.84503E+00 -2.86386E+00
  -2.88096E+00 -2.89641E+00 -2.91036E+00 -2.92302E+00 -2.93467E+00 -2.94562E+00 -2.95626E+00 -2.96695E+00 -2.97810E+00 -2.99007E+00
  -3.00321E+00 -3.01785E+00 -3.03430E+00 -3.05277E+00 -3.07345E+00 -3.09641E+00 -3.12166E+00 -3.14917E+00 -3.17882E+00 -3.21044E+00
  -3.24377E+00 -3.27854E+00 -3.31440E+00 -3.35103E+00 -3.38807E+00 -3.42518E+00 -3.46202E+00 -3.49825E+00 -3.53361E+00 -3.56788E+00
  -3.60088E+00 -3.63247E+00 -3.66255E+00 -3.69111E+00 -3.71816E+00 -3.74378E+00 -3.76806E+00 -3.79112E+00 -3.81312E+00 -3.83421E+00
  -3.85457E+00 -3.87436E+00 -3.89373E+00 -3.91279E+00 -3.93166E+00 -3.95041E+00 -3.96908E+00 -3.98769E+00 -4.00620E+00 -4.02452E+00
  -4.04257E+00 -4.06020E+00 -4.07728E+00 -4.09360E+00 -4.10897E+00 -4.12317E+00 -4.13597E+00 -4.14713E+00 -4.15641E+00 -4.16356E+00
  -4.16833E+00 -4.17045E+00 -4.16970E+00 -4.16583E+00 -4.15864E+00 -4.14794E+00 -4.13357E+00 -4.11546E+00 -4.09361E+00 -4.06809E+00
  -4.03909E+00 -4.00692E+00 -3.97203E+00 -3.93501E+00 -3.89663E+00 -3.85773E+00 -3.81931E+00 -3.78242E+00 -3.74821E+00 -3.71779E+00
  -3.69224E+00 -3.67255E+00 -3.65955E+00 -3.65386E+00 -3.65591E+00 -3.66584E+00 -3.68354E+00 -3.70864E+00 -3.74054E+00 -3.77840E+00
  -3.82127E+00 -3.86806E+00 -3.91762E+00 -3.96879E+00 -4.02046E+00 -4.07160E+00 -4.12131E+00 -4.16884E+00 -4.21355E+00 -4.25500E+00
  -4.29289E+00 -4.32705E+00 -4.35745E+00 -4.38413E+00 -4.40724E+00 -4.42697E+00 -4.44356E+00 -4.45726E+00 -4.46836E+00 -4.47709E+00
  -4.48373E+00 -4.48849E+00 -4.49160E+00 -4.49326E+00 -4.49363E+00 -4.49288E+00 -4.49111E+00 -4.48846E+00 -4.48502E+00 -4.48087E+00
  -4.47610E+00 -4.47075E+00 -4.46488E+00 -4.45853E+00 -4.45176E+00 -4.44460E+00 -4.43707E+00 -4.42920E+00 -4.42101E+00 -4.41253E+00
  -4.40379E+00 -4.39478E+00 -4.38554E+00 -4.37607E+00 -4.36638E+00 -4.35649E+00 -4.34642E+00 -4.33615E+00 -4.32571E+00 -4.31510E+00
  -4.30432E+00 -4.29340E+00 -4.28233E+00 -4.27111E+00 -4.25977E+00 -4.24828E+00 -4.23668E+00 -4.22496E+00 -4.21313E+00 -4.20118E+00
  -4.18913E+00 -4.17697E+00 -4.16472E+00 -4.15237E+00 -4.13994E+00 -4.12742E+00 -4.11481E+00 -4.10213E+00 -4.08937E+00 -4.07654E+00
  -4.06364E+00 -4.05067E+00 -4.03764E+00 -4.02455E+00 -4.01140E+00 -3.99819E+00 -3.98492E+00 -3.97159E+00 -3.95822E+00 -3.94478E+00
  -3.93130E+00 -3.91776E+00 -3.90417E+00 -3.89051E+00 -3.87679E+00 -3.86301E+00 -3.84916E+00 -3.83522E+00
 NY background values follow
    -8.369E+00   -8.335E+00   -8.301E+00   -8.267E+00   -8.233E+00   -8.198E+00   -8.164E+00   -8.130E+00   -8.096E+00   -8.062E+00
    -8.028E+00   -7.994E+00   -7.960E+00   -7.926E+00   -7.892E+00   -7.858E+00   -7.824E+00   -7.790E+00   -7.756E+00   -7.722E+00
    -7.688E+00   -7.654E+00   -7.620E+00   -7.587E+00   -7.553E+00   -7.519E+00   -7.485E+00   -7.452E+00   -7.418E+00   -7.384E+00
    -7.351E+00   -7.318E+00   -7.284E+00   -7.251E+00   -7.218E+00   -7.184E+00   -7.151E+00   -7.118E+00   -7.085E+00   -7.052E+00
    -7.019E+00   -6.986E+00   -6.954E+00   -6.921E+00   -6.889E+00   -6.856E+00   -6.824E+00   -6.792E+00   -6.759E+00   -6.727E+00
    -6.695E+00   -6.663E+00   -6.632E+00   -6.600E+00   -6.568E+00   -6.537E+00   -6.505E+00   -6.474E+00   -6.443E+00   -6.412E+00
    -6.381E+00   -6.350E+00   -6.319E+00   -6.288E+00   -6.258E+00   -6.227E+00   -6.197E+00   -6.167E+00   -6.137E+00   -6.107E+00
    -6.077E+00   -6.047E+00   -6.017E+00   -5.988E+00   -5.958E+00   -5.929E+00   -5.900E+00   -5.871E+00   -5.842E+00   -5.813E+00
    -5.784E+00   -5.755E+00   -5.727E+00   -5.699E+00   -5.670E+00   -5.642E+00   -5.614E+00   -5.587E+00   -5.559E+00   -5.531E+00
    -5.504E+00   -5.477E+00   -5.450E+00   -5.423E+00   -5.396E+00   -5.369E+00   -5.342E+00   -5.316E+00   -5.289E+00   -5.263E+00
    -5.237E+00   -5.211E+00   -5.185E+00   -5.160E+00   -5.134E+00   -5.109E+00   -5.083E+00   -5.058E+00   -5.033E+00   -5.008E+00
    -4.984E+00   -4.959E+00   -4.934E+00   -4.910E+00   -4.886E+00   -4.862E+00   -4.838E+00   -4.814E+00   -4.790E+00   -4.766E+00
    -4.743E+00   -4.720E+00   -4.696E+00   -4.673E+00   -4.650E+00   -4.627E+00   -4.605E+00   -4.582E+00   -4.559E+00   -4.537E+00
    -4.515E+00   -4.493E+00   -4.471E+00   -4.449E+00   -4.427E+00   -4.405E+00   -4.384E+00   -4.362E+00   -4.341E+00   -4.320E+00
    -4.299E+00   -4.278E+00   -4.257E+00   -4.236E+00   -4.216E+00   -4.195E+00   -4.175E+00   -4.154E+00   -4.134E+00   -4.114E+00
    -4.093E+00   -4.073E+00   -4.053E+00   -4.033E+00   -4.014E+00   -3.994E+00   -3.974E+00   -3.954E+00   -3.935E+00   -3.915E+00
    -3.895E+00   -3.876E+00   -3.856E+00   -3.837E+00   -3.818E+00   -3.798E+00   -3.779E+00   -3.760E+00   -3.740E+00   -3.721E+00
    -3.702E+00   -3.682E+00   -3.663E+00   -3.644E+00   -3.625E+00   -3.605E+00   -3.586E+00   -3.567E+00   -3.547E+00   -3.528E+00
    -3.509E+00   -3.489E+00   -3.470E+00   -3.451E+00   -3.431E+00   -3.412E+00   -3.393E+00   -3.373E+00   -3.354E+00   -3.335E+00
    -3.315E+00   -3.296E+00   -3.277E+00   -3.258E+00   -3.239E+00   -3.220E+00   -3.201E+00   -3.183E+00   -3.164E+00   -3.146E+00
    -3.127E+00   -3.109E+00   -3.091E+00   -3.073E+00   -3.056E+00   -3.038E+00   -3.021E+00   -3.004E+00   -2.987E+00   -2.970E+00
    -2.953E+00   -2.937E+00   -2.921E+00   -2.905E+00   -2.890E+00   -2.874E+00   -2.859E+00   -2.845E+00   -2.830E+00   -2.816E+00
    -2.802E+00   -2.789E+00   -2.775E+00   -2.763E+00   -2.750E+00   -2.738E+00   -2.726E+00   -2.714E+00   -2.703E+00   -2.693E+00
    -2.682E+00   -2.672E+00   -2.663E+00   -2.653E+00   -2.644E+00   -2.636E+00   -2.628E+00   -2.620E+00   -2.613E+00   -2.606E+00
    -2.599E+00   -2.593E+00   -2.587E+00   -2.582E+00   -2.577E+00   -2.572E+00   -2.568E+00   -2.564E+00   -2.560E+00   -2.557E+00
    -2.555E+00   -2.553E+00   -2.551E+00   -2.549E+00   -2.548E+00   -2.548E+00   -2.548E+00   -2.548E+00   -2.549E+00   -2.550E+00
    -2.551E+00   -2.553E+00   -2.556E+00   -2.558E+00   -2.562E+00   -2.565E+00   -2.569E+00   -2.574E+00   -2.579E+00   -2.584E+00
    -2.590E+00   -2.597E+00   -2.603E+00   -2.610E+00   -2.618E+00   -2.626E+00   -2.635E+00   -2.643E+00   -2.653E+00   -2.662E+00
    -2.673E+00   -2.683E+00   -2.694E+00   -2.705E+00   -2.717E+00   -2.729E+00   -2.741E+00   -2.754E+00   -2.767E+00   -2.780E+00
    -2.794E+00   -2.808E+00   -2.822E+00   -2.837E+00   -2.852E+00   -2.867E+00   -2.883E+00   -2.899E+00   -2.915E+00   -2.932E+00
    -2.948E+00   -2.965E+00   -2.983E+00   -3.000E+00   -3.018E+00   -3.036E+00   -3.054E+00   -3.073E+00   -3.091E+00   -3.110E+00
    -3.130E+00   -3.149E+00   -3.168E+00   -3.188E+00   -3.208E+00   -3.228E+00   -3.249E+00   -3.269E+00   -3.290E+00   -3.310E+00
    -3.331E+00   -3.352E+00   -3.373E+00   -3.395E+00   -3.416E+00   -3.438E+00   -3.459E+00   -3.481E+00   -3.502E+00   -3.524E+00
    -3.546E+00   -3.567E+00   -3.589E+00   -3.611E+00   -3.633E+00   -3.654E+00   -3.676E+00   -3.698E+00   -3.719E+00   -3.741E+00
    -3.762E+00   -3.783E+00   -3.805E+00   -3.826E+00   -3.847E+00   -3.868E+00   -3.889E+00   -3.909E+00   -3.930E+00   -3.950E+00
    -3.970E+00   -3.990E+00   -4.010E+00   -4.029E+00   -4.048E+00   -4.067E+00   -4.086E+00   -4.105E+00   -4.123E+00   -4.141E+00
    -4.159E+00   -4.176E+00   -4.193E+00   -4.210E+00   -4.226E+00   -4.242E+00   -4.258E+00   -4.274E+00   -4.289E+00   -4.304E+00
    -4.318E+00   -4.332E+00   -4.346E+00   -4.360E+00   -4.373E+00   -4.386E+00   -4.398E+00   -4.411E+00   -4.422E+00   -4.434E+00
    -4.445E+00   -4.456E+00   -4.466E+00   -4.476E+00   -4.486E+00   -4.495E+00   -4.505E+00   -4.513E+00   -4.522E+00   -4.530E+00
    -4.537E+00   -4.544E+00   -4.551E+00   -4.558E+00   -4.564E+00   -4.570E+00   -4.575E+00   -4.580E+00   -4.585E+00   -4.589E+00
    -4.593E+00   -4.597E+00   -4.600E+00   -4.603E+00   -4.605E+00   -4.607E+00   -4.609E+00   -4.610E+00   -4.611E+00   -4.611E+00
    -4.611E+00   -4.611E+00   -4.610E+00   -4.609E+00   -4.608E+00   -4.606E+00   -4.604E+00   -4.602E+00   -4.599E+00   -4.596E+00
    -4.593E+00   -4.589E+00   -4.585E+00   -4.581E+00   -4.576E+00   -4.571E+00   -4.566E+00   -4.561E+00   -4.555E+00   -4.549E+00
    -4.543E+00   -4.537E+00   -4.530E+00   -4.523E+00   -4.516E+00   -4.508E+00   -4.500E+00   -4.493E+00   -4.484E+00   -4.476E+00
    -4.468E+00   -4.459E+00   -4.450E+00   -4.441E+00   -4.431E+00   -4.422E+00   -4.412E+00   -4.402E+00   -4.392E+00   -4.382E+00
    -4.372E+00   -4.362E+00   -4.351E+00   -4.340E+00   -4.329E+00   -4.318E+00   -4.307E+00   -4.296E+00   -4.285E+00   -4.273E+00
    -4.262E+00   -4.250E+00   -4.238E+00   -4.227E+00   -4.215E+00   -4.203E+00   -4.190E+00   -4.178E+00   -4.166E+00   -4.154E+00
    -4.141E+00   -4.129E+00   -4.116E+00   -4.103E+00   -4.091E+00   -4.078E+00   -4.065E+00   -4.052E+00   -4.039E+00   -4.026E+00
    -4.013E+00   -4.000E+00   -3.987E+00   -3.974E+00   -3.961E+00   -3.948E+00   -3.935E+00   -3.922E+00   -3.909E+00   -3.896E+00
    -3.882E+00   -3.869E+00   -3.856E+00   -3.843E+00   -3.830E+00   -3.817E+00   -3.803E+00   -3.790E+00
 Asp      Conc. = 5.41E+01
