 LCModel (Version 6.3-1L) Copyright: S.W. Provencher.          Ref.: Magn. Reson. Med. 30:672-679 (1993).                
 Slice#2 Row#12 Col#11  K_02_press_1_raw_act
 36 lines in following concentration table = NCONC+1
    Conc.  %SD /Cr+PCr  Metabolite                                         
   84.478  89%   0.112 Ala                                                 
    0.000 999%   0.000 Asp                                                 
    0.000 999%   0.000 Cr                                                  
  756.583   5%   1.000 PCr                                                 
    0.000 999%   0.000 GABA                                                
    0.000 999%   0.000 Glc                                                 
  574.621  29%   0.759 Gln                                                 
  794.748  23%   1.050 Glu                                                 
  229.601   6%   0.303 GPC                                                 
    0.000 999%   0.000 PCh                                                 
  193.256  25%   0.255 GSH                                                 
  423.067  39%   0.559 Ins                                                 
    0.000 999%   0.000 Lac                                                 
 1.38E+03   4%   1.827 NAA                                                 
    0.000 999%   0.000 NAAG                                                
   40.398  41% 5.3E-02 Scyllo                                              
    0.000 999%   0.000 Tau                                                 
  463.443  14%   0.613 -CrCH2                                              
  229.601   6%   0.303 GPC+PCh                                             
 1.38E+03   4%   1.827 NAA+NAAG                                            
  756.583   5%   1.000 Cr+PCr                                              
 1.37E+03  20%   1.810 Glu+Gln                                             
    0.000 999%   0.000 Lip13a                                              
    0.000 999%   0.000 Lip13b                                              
    0.000 999%   0.000 Lip09                                               
 1.17E+03  11%   1.549 MM09                                                
 4.95E-03 999% 6.5E-06 Lip20                                               
 3.10E+03   8%   4.098 MM20                                                
   50.173 222% 6.6E-02 MM12                                                
    0.000 999%   0.000 MM14                                                
    0.000 999%   0.000 MM17                                                
    0.000 999%   0.000 Lip13a+Lip13b                                       
   50.173 222% 6.6E-02 MM14+Lip13a+Lip13b+MM12                             
 1.17E+03  11%   1.549 MM09+Lip09                                          
 3.10E+03   8%   4.098 MM20+Lip20                                          
   6 lines in following misc. output table
  FWHM = 0.061 ppm    S/N =  12                                            
  Data shift = 0.008 ppm                                                   
  Ph: -24 deg      -4.3 deg/ppm                                            
  alphaB,S = 6.3E-01,   2.0E+02                                            
   14 spline knots.   Ns = 8(1)                                            
  (14) 3 infls.   ( 7) 1 extrs.                                            
  498 points on ppm-axis = NY
      4.000000     3.992357     3.984714     3.977070     3.969427     3.961784     3.954141     3.946497     3.938854     3.931211
      3.923568     3.915925     3.908281     3.900638     3.892995     3.885352     3.877708     3.870065     3.862422     3.854779
      3.847136     3.839492     3.831849     3.824206     3.816563     3.808919     3.801276     3.793633     3.785990     3.778347
      3.770703     3.763060     3.755417     3.747774     3.740130     3.732487     3.724844     3.717201     3.709558     3.701914
      3.694271     3.686628     3.678985     3.671341     3.663698     3.656055     3.648412     3.640769     3.633125     3.625482
      3.617839     3.610196     3.602552     3.594909     3.587266     3.579623     3.571980     3.564336     3.556693     3.549050
      3.541407     3.533763     3.526120     3.518477     3.510834     3.503191     3.495547     3.487904     3.480261     3.472618
      3.464974     3.457331     3.449688     3.442045     3.434402     3.426758     3.419115     3.411472     3.403829     3.396185
      3.388542     3.380899     3.373256     3.365613     3.357969     3.350326     3.342683     3.335040     3.327396     3.319753
      3.312110     3.304467     3.296824     3.289180     3.281537     3.273894     3.266251     3.258607     3.250964     3.243321
      3.235678     3.228034     3.220391     3.212748     3.205105     3.197462     3.189818     3.182175     3.174532     3.166889
      3.159245     3.151602     3.143959     3.136316     3.128673     3.121029     3.113386     3.105743     3.098100     3.090456
      3.082813     3.075170     3.067527     3.059884     3.052240     3.044597     3.036954     3.029311     3.021667     3.014024
      3.006381     2.998738     2.991095     2.983451     2.975808     2.968165     2.960522     2.952878     2.945235     2.937592
      2.929949     2.922306     2.914662     2.907019     2.899376     2.891733     2.884089     2.876446     2.868803     2.861160
      2.853517     2.845873     2.838230     2.830587     2.822944     2.815300     2.807657     2.800014     2.792371     2.784728
      2.777084     2.769441     2.761798     2.754155     2.746511     2.738868     2.731225     2.723582     2.715939     2.708295
      2.700652     2.693009     2.685366     2.677722     2.670079     2.662436     2.654793     2.647150     2.639506     2.631863
      2.624220     2.616577     2.608933     2.601290     2.593647     2.586004     2.578361     2.570717     2.563074     2.555431
      2.547788     2.540144     2.532501     2.524858     2.517215     2.509572     2.501928     2.494285     2.486642     2.478999
      2.471355     2.463712     2.456069     2.448426     2.440783     2.433139     2.425496     2.417853     2.410210     2.402566
      2.394923     2.387280     2.379637     2.371994     2.364350     2.356707     2.349064     2.341421     2.333777     2.326134
      2.318491     2.310848     2.303205     2.295561     2.287918     2.280275     2.272632     2.264988     2.257345     2.249702
      2.242059     2.234416     2.226772     2.219129     2.211486     2.203843     2.196199     2.188556     2.180913     2.173270
      2.165627     2.157983     2.150340     2.142697     2.135054     2.127410     2.119767     2.112124     2.104481     2.096838
      2.089194     2.081551     2.073908     2.066265     2.058621     2.050978     2.043335     2.035692     2.028049     2.020405
      2.012762     2.005119     1.997476     1.989833     1.982190     1.974546     1.966903     1.959260     1.951617     1.943974
      1.936331     1.928688     1.921045     1.913402     1.905759     1.898115     1.890472     1.882829     1.875186     1.867543
      1.859900     1.852257     1.844614     1.836971     1.829327     1.821684     1.814041     1.806398     1.798755     1.791112
      1.783469     1.775826     1.768183     1.760540     1.752896     1.745253     1.737610     1.729967     1.722324     1.714681
      1.707038     1.699395     1.691752     1.684108     1.676465     1.668822     1.661179     1.653536     1.645893     1.638250
      1.630607     1.622964     1.615321     1.607677     1.600034     1.592391     1.584748     1.577105     1.569462     1.561819
      1.554176     1.546533     1.538890     1.531246     1.523603     1.515960     1.508317     1.500674     1.493031     1.485388
      1.477745     1.470102     1.462458     1.454815     1.447172     1.439529     1.431886     1.424243     1.416600     1.408957
      1.401314     1.393671     1.386027     1.378384     1.370741     1.363098     1.355455     1.347812     1.340169     1.332526
      1.324883     1.317240     1.309596     1.301953     1.294310     1.286667     1.279024     1.271381     1.263738     1.256095
      1.248452     1.240808     1.233165     1.225522     1.217879     1.210236     1.202593     1.194950     1.187307     1.179664
      1.172021     1.164377     1.156734     1.149091     1.141448     1.133805     1.126162     1.118519     1.110876     1.103233
      1.095590     1.087946     1.080303     1.072660     1.065017     1.057374     1.049731     1.042088     1.034445     1.026802
      1.019158     1.011515     1.003872     0.996229     0.988586     0.980943     0.973300     0.965657     0.958014     0.950371
      0.942727     0.935084     0.927441     0.919798     0.912155     0.904512     0.896869     0.889226     0.881583     0.873940
      0.866296     0.858653     0.851010     0.843367     0.835724     0.828081     0.820438     0.812795     0.805152     0.797508
      0.789865     0.782222     0.774579     0.766936     0.759293     0.751650     0.744007     0.736364     0.728721     0.721077
      0.713434     0.705791     0.698148     0.690505     0.682862     0.675219     0.667576     0.659933     0.652290     0.644646
      0.637003     0.629360     0.621717     0.614074     0.606431     0.598788     0.591145     0.583502     0.575858     0.568215
      0.560572     0.552929     0.545286     0.537643     0.530000     0.522357     0.514714     0.507071     0.499427     0.491784
      0.484141     0.476498     0.468855     0.461212     0.453569     0.445925     0.438282     0.430639     0.422996     0.415353
      0.407710     0.400067     0.392424     0.384780     0.377137     0.369494     0.361851     0.354208     0.346565     0.338922
      0.331278     0.323635     0.315992     0.308349     0.300706     0.293063     0.285420     0.277777     0.270133     0.262490
      0.254847     0.247204     0.239561     0.231918     0.224275     0.216631     0.208988     0.201345
 NY phased data points follow
   6.67582E+00  2.63641E+00  5.76498E+00  5.32890E+00  4.07613E+00  7.97107E+00  8.53603E+00  7.00787E+00  1.01397E+01  1.05356E+01
   1.09299E+01  1.01834E+01  1.28280E+01  1.07810E+01  1.00801E+01  1.05414E+01  7.88661E+00  5.83678E+00  6.15303E+00  8.70222E+00
   6.63073E+00  4.79218E+00  5.50566E+00  7.08647E+00  5.08446E+00  6.05015E+00  5.94780E+00  4.39302E+00  7.10339E+00  4.91144E+00
   7.30193E+00  8.68846E+00  8.06799E+00  8.11269E+00  8.24854E+00  6.52162E+00  7.31180E+00  7.12462E+00  1.01555E+01  8.52036E+00
   8.31187E+00  7.08557E+00  8.08988E+00  6.33641E+00  6.43835E+00  1.00738E+01  9.69863E+00  5.35568E+00  9.50576E+00  9.23567E+00
   6.82226E+00  8.43703E+00  8.88413E+00  5.65731E+00  4.35191E+00  5.66603E+00  6.70300E+00  6.76938E+00  7.46749E+00  7.09876E+00
   4.96273E+00  2.16119E+00  4.06428E+00  2.16679E+00  2.36495E+00  4.67319E+00  8.39300E-01 -9.84594E-02  2.35833E+00  1.85981E+00
   1.20735E+00  1.84314E+00  2.66604E-01  3.62682E+00  2.41931E+00  2.89453E+00  6.21162E-01  1.66922E+00  5.06400E-01  1.34063E+00
   3.23876E+00  7.50458E-01  1.99836E+00  1.82352E+00  2.63208E+00  3.11559E+00  3.34027E+00  3.49395E+00  3.07259E+00  3.61581E+00
   2.68911E+00  4.60484E+00  3.60413E+00  3.29531E-02  4.61804E+00  5.06726E+00  4.91115E+00  5.98114E+00  6.96806E+00  5.94947E+00
   1.05043E+01  1.37276E+01  1.78986E+01  1.93690E+01  2.20019E+01  1.98119E+01  1.66161E+01  1.43956E+01  1.17215E+01  1.00268E+01
   6.91522E+00  6.80156E+00  4.00404E+00  4.68115E+00  5.48924E+00  5.59984E+00  2.98103E+00  4.04577E+00  4.35420E+00  3.25422E+00
   5.84850E+00  5.60457E+00  6.64344E+00  8.41501E+00  1.20660E+01  1.68241E+01  2.13394E+01  2.50990E+01  2.58022E+01  2.37985E+01
   2.07464E+01  1.87750E+01  1.72028E+01  1.44615E+01  8.05150E+00  8.70576E+00  6.22985E+00  3.35713E+00  2.84574E+00  1.71020E+00
   5.66227E+00  5.44897E+00  1.56817E+00  2.07600E+00  1.47865E+00  3.15173E+00  3.87689E+00  9.09682E-01  3.54465E+00  4.05949E+00
   2.63521E+00  2.19503E+00  3.73464E+00  1.19206E+00  7.64678E-01 -1.22369E+00 -1.29622E+00 -6.30516E-01  1.64998E+00  8.21096E-01
   1.84239E+00 -2.37620E-01  4.02094E-01 -1.08809E+00 -1.32256E+00  2.12090E+00 -9.99928E-01 -2.02679E+00 -2.15979E+00 -5.81382E+00
  -4.14005E+00 -5.23456E+00 -4.81688E+00 -6.50375E+00 -7.25712E+00 -9.83359E+00 -8.45497E+00 -5.39077E+00 -8.39691E+00 -4.52754E+00
  -4.39779E+00 -8.61689E+00 -4.30933E+00 -3.85813E+00 -4.17816E+00 -3.72502E+00 -2.23895E+00 -6.58613E+00 -1.88997E+00 -1.65678E+00
  -3.87390E+00 -1.55231E+00 -1.52338E+00 -1.31299E+00 -1.27589E+00 -5.94158E+00 -1.11111E+00 -3.13731E+00 -4.12610E+00 -2.13142E+00
  -3.21357E+00 -2.42125E+00 -7.93416E-01 -1.06040E-01  3.73525E-01  1.58841E+00 -5.13910E-01  3.77833E+00 -2.82265E+00 -1.16565E+00
  -2.32132E+00  6.07697E-01  2.60598E+00  4.35391E+00  5.66035E+00  7.28802E+00  6.81957E+00  5.90285E+00  4.15219E+00  4.32798E+00
   5.74247E-01  8.38847E-01  2.50453E-01 -1.44131E+00  1.19325E+00  1.84468E+00  5.58920E+00  2.39237E+00  1.53291E+00  3.82152E+00
   4.97838E+00  3.98207E+00  2.03573E+00  5.85727E+00  3.17285E+00  4.76868E+00  2.51377E+00  3.30820E+00  4.22549E+00  4.08420E+00
   2.15792E+00  2.55882E+00  3.44384E+00  2.90755E+00  4.03094E+00  1.80991E+00  6.26776E+00  4.14196E+00  5.93343E+00  5.61439E+00
   6.54341E+00  7.88565E+00  1.36671E+01  1.45291E+01  1.35285E+01  1.65441E+01  1.89014E+01  2.65367E+01  3.44040E+01  4.40566E+01
   4.67565E+01  4.82322E+01  4.26532E+01  3.38389E+01  3.04996E+01  2.09073E+01  1.71269E+01  1.22974E+01  8.49187E+00  5.38450E+00
   3.55395E+00  4.83945E+00  3.98981E+00 -2.78415E-01 -2.25330E+00  8.63783E-01 -1.38599E+00  9.39503E-01 -1.22381E+00  3.06202E-01
   1.07561E+00  7.84131E-01  9.68157E-01 -3.35924E+00 -3.77094E+00 -1.15643E+00 -2.73653E+00 -3.10111E+00 -4.15353E+00 -2.69858E+00
  -1.96745E+00 -1.22890E+00 -2.27927E+00 -4.02457E+00 -1.26645E+00 -2.66739E+00 -2.28524E+00 -7.57794E+00 -4.85870E+00 -2.48508E+00
  -4.14311E+00 -9.70060E-01 -2.87613E+00 -2.18829E+00 -4.27650E+00 -3.92459E+00 -4.84078E+00 -6.54664E+00 -1.72971E+00 -4.85071E+00
  -5.44979E+00 -4.07245E+00 -5.06392E+00 -2.08851E+00 -8.09682E+00 -4.18523E+00 -7.18136E+00 -7.35644E+00 -6.08574E+00 -4.11408E+00
  -6.28477E+00 -6.15036E+00 -7.22872E+00 -8.03151E+00 -7.59637E+00 -7.31789E+00 -4.97968E+00 -6.25440E+00 -9.65254E+00 -7.74373E+00
  -8.49214E+00 -9.00788E+00 -7.90911E+00 -7.04950E+00 -6.35813E+00 -6.85104E+00 -6.49523E+00 -6.46484E+00 -6.75677E+00 -6.06935E+00
  -3.36391E+00 -2.56544E+00 -2.84315E+00 -3.42525E+00 -1.42604E+00 -5.77038E+00 -3.98656E+00 -3.99229E+00 -2.15938E+00 -4.02669E+00
  -4.16215E+00 -5.10202E+00 -4.82633E+00 -4.91573E+00 -4.16545E+00 -5.10423E+00 -4.09667E+00 -3.50433E+00 -6.59965E+00 -4.49787E+00
  -5.18709E+00 -5.37451E+00 -5.25981E+00 -4.02447E+00 -5.01959E+00 -2.12026E+00 -4.30968E+00 -2.15922E+00 -4.66122E+00 -1.79049E+00
  -3.64116E+00 -9.00408E-01 -2.63743E+00 -1.83975E+00 -5.04319E+00 -4.61328E+00 -4.45289E+00 -3.45121E+00 -1.54489E+00 -4.69373E+00
  -4.75399E+00 -5.38057E+00 -2.53353E+00 -3.45328E+00 -2.31085E+00 -6.04549E-01 -8.36219E-01 -2.72519E+00 -1.31050E+00 -1.30015E-01
  -1.02509E+00  2.21777E+00  3.26393E+00  2.61367E+00  2.44198E+00  3.59996E-02  1.72533E+00  4.08496E+00  4.71200E+00  2.15957E+00
   2.94283E+00  3.77534E+00  1.15359E+00  3.01504E+00  4.04595E+00  5.45607E+00  6.76880E+00  4.27421E+00  5.11216E+00  3.06276E-01
   6.91955E+00  7.21699E+00  6.11056E+00  3.20616E+00  4.65254E+00  4.11665E+00  3.47841E+00  9.17534E-01  1.33235E+00  9.28308E-01
   5.90820E-01  4.02156E+00  1.22626E+00  6.17363E-01  2.41356E+00  1.11537E+00  2.43523E+00 -3.85117E-01  3.24494E+00 -9.47814E-02
   1.60367E-01 -2.63881E+00  4.38583E-01  2.55174E+00  4.28601E+00  5.22931E-01 -5.71512E-01  2.37463E+00 -1.59806E+00  1.23677E+00
  -1.11736E+00 -3.65540E-01  1.49998E+00  1.35833E+00  5.04601E-02 -5.13252E-01  7.16411E-01 -1.53182E+00  4.98869E-01 -2.82599E-01
   4.74710E-01  3.21530E+00  1.53352E-01 -6.06789E-01 -1.47593E+00  6.33090E-01 -3.25446E-01  2.00727E+00 -3.71585E-01  1.18317E+00
   2.37577E-01 -7.46873E-01 -1.47491E+00  9.25487E-01 -3.12142E+00 -2.41356E+00  1.60413E+00  7.57770E-01  9.17602E-01 -6.91026E-02
   9.50883E-01  5.86520E-01 -2.31353E-01  9.37466E-01 -6.18749E-01  1.46327E+00  2.56604E-01 -5.97804E-02 -6.41801E-01 -9.98720E-01
   1.35593E+00 -2.77802E-01  5.32647E-01  3.11281E-01  6.15865E-01  1.75048E+00 -9.92539E-01  2.97487E-01  1.60925E+00  1.75731E+00
   9.82392E-01  3.09869E-03 -7.53132E-01 -6.69261E-01  1.48953E+00 -4.30072E-01 -3.57192E+00  2.47820E+00
 NY points of the fit to the data follow
   5.62736E+00  5.39295E+00  5.46946E+00  5.74108E+00  6.05281E+00  6.48709E+00  7.19721E+00  8.24724E+00  9.52145E+00  1.07416E+01
   1.15874E+01  1.18586E+01  1.15679E+01  1.09162E+01  1.01377E+01  9.37391E+00  8.67912E+00  8.04492E+00  7.42565E+00  6.85669E+00
   6.53739E+00  6.33473E+00  6.19948E+00  6.11173E+00  5.96897E+00  5.78418E+00  5.73471E+00  6.02846E+00  6.74211E+00  7.78770E+00
   8.91845E+00  9.80351E+00  1.01905E+01  9.98104E+00  9.27816E+00  8.32526E+00  7.34795E+00  6.49497E+00  5.83556E+00  5.44255E+00
   5.34379E+00  5.46898E+00  5.72541E+00  6.09916E+00  6.59005E+00  7.11895E+00  7.54153E+00  7.73825E+00  7.65270E+00  7.30084E+00
   6.78128E+00  6.20114E+00  5.65065E+00  5.18627E+00  4.81545E+00  4.51964E+00  4.32677E+00  4.27685E+00  4.32998E+00  4.39565E+00
   4.40155E+00  4.31362E+00  4.12761E+00  3.88197E+00  3.63766E+00  3.43910E+00  3.30610E+00  3.23617E+00  3.21788E+00  3.24649E+00
   3.30236E+00  3.35541E+00  3.37869E+00  3.35276E+00  3.27840E+00  3.17076E+00  3.04862E+00  2.93515E+00  2.86616E+00  2.85645E+00
   2.85345E+00  2.86444E+00  2.94287E+00  3.10609E+00  3.31553E+00  3.48991E+00  3.54531E+00  3.43860E+00  3.19530E+00  2.88791E+00
   2.59157E+00  2.35401E+00  2.18440E+00  2.07590E+00  2.08351E+00  2.54212E+00  3.48300E+00  4.57609E+00  5.94343E+00  8.00720E+00
   1.09869E+01  1.45781E+01  1.79842E+01  2.02914E+01  2.09143E+01  1.98451E+01  1.76039E+01  1.48732E+01  1.21364E+01  9.61562E+00
   7.36865E+00  5.39524E+00  3.79788E+00  2.89535E+00  2.59968E+00  2.49222E+00  2.45187E+00  2.46194E+00  2.57798E+00  3.13650E+00
   4.30906E+00  5.67613E+00  7.30526E+00  9.64607E+00  1.29864E+01  1.70831E+01  2.11223E+01  2.40497E+01  2.51116E+01  2.42098E+01
   2.18595E+01  1.88251E+01  1.56805E+01  1.26637E+01  9.84139E+00  7.23030E+00  4.96999E+00  3.48106E+00  2.87861E+00  2.66501E+00
   2.61035E+00  2.60916E+00  2.59060E+00  2.52741E+00  2.42385E+00  2.27604E+00  2.08513E+00  1.86604E+00  1.62853E+00  1.38618E+00
   1.15639E+00  9.45755E-01  7.58486E-01  5.63779E-01  3.77571E-01  2.15938E-01  6.63548E-02 -9.40639E-02 -3.18973E-01 -5.92696E-01
  -8.34117E-01 -9.71298E-01 -9.92108E-01 -9.54417E-01 -9.52177E-01 -1.05424E+00 -1.26988E+00 -1.56306E+00 -1.89439E+00 -2.20588E+00
  -2.47289E+00 -2.75405E+00 -3.07263E+00 -3.42149E+00 -3.71047E+00 -3.85143E+00 -3.86833E+00 -3.82373E+00 -3.78768E+00 -3.80720E+00
  -3.83780E+00 -3.83241E+00 -3.78987E+00 -3.72085E+00 -3.62340E+00 -3.47620E+00 -3.24131E+00 -2.85095E+00 -2.29798E+00 -1.67685E+00
  -1.16704E+00 -8.72662E-01 -7.65401E-01 -7.86630E-01 -8.99097E-01 -1.05293E+00 -1.16630E+00 -1.17183E+00 -9.82304E-01 -5.75373E-01
  -4.40493E-04  6.00219E-01  1.04989E+00  1.26869E+00  1.12176E+00  4.98068E-01 -5.08346E-01 -1.65832E+00 -2.66553E+00 -3.33388E+00
  -3.52185E+00 -3.13701E+00 -2.22753E+00 -9.87305E-01  2.86075E-01  1.29226E+00  1.84208E+00  1.82982E+00  1.24752E+00  2.35594E-01
  -9.18358E-01 -1.81892E+00 -2.23779E+00 -2.13636E+00 -1.56578E+00 -6.58777E-01  4.07650E-01  1.35523E+00  2.04488E+00  2.51536E+00
   2.81701E+00  2.96789E+00  2.99047E+00  3.00623E+00  3.14715E+00  3.47681E+00  3.97805E+00  4.55033E+00  5.02978E+00  5.27452E+00
   5.25646E+00  5.04513E+00  4.78675E+00  4.64960E+00  4.71574E+00  4.95901E+00  5.31795E+00  5.75904E+00  6.23429E+00  6.71879E+00
   7.21609E+00  7.93862E+00  9.65134E+00  1.21197E+01  1.46232E+01  1.76223E+01  2.20451E+01  2.82345E+01  3.54080E+01  4.18236E+01
   4.56106E+01  4.56972E+01  4.22750E+01  3.65975E+01  3.01311E+01  2.38390E+01  1.81096E+01  1.30084E+01  8.49343E+00  4.83957E+00
   2.77676E+00  1.92293E+00  1.40016E+00  1.00316E+00  6.77419E-01  3.76463E-01  7.31438E-02 -2.31767E-01 -5.38997E-01 -8.44241E-01
  -1.14127E+00 -1.42528E+00 -1.69351E+00 -1.93949E+00 -2.16030E+00 -2.35974E+00 -2.54238E+00 -2.71026E+00 -2.86460E+00 -3.00649E+00
  -3.13871E+00 -3.26263E+00 -3.37724E+00 -3.48220E+00 -3.57827E+00 -3.66604E+00 -3.74649E+00 -3.82018E+00 -3.88808E+00 -3.95042E+00
  -4.00751E+00 -4.05972E+00 -4.10774E+00 -4.15177E+00 -4.19232E+00 -4.22960E+00 -4.26408E+00 -4.29574E+00 -4.32472E+00 -4.35072E+00
  -4.37379E+00 -4.39371E+00 -4.41050E+00 -4.42360E+00 -4.43257E+00 -4.43642E+00 -4.43390E+00 -4.42227E+00 -4.39542E+00 -4.34292E+00
  -4.28496E+00 -4.23942E+00 -4.18998E+00 -4.12924E+00 -4.08040E+00 -4.09045E+00 -4.20541E+00 -4.41948E+00 -4.68879E+00 -4.97906E+00
  -5.23844E+00 -5.40777E+00 -5.44519E+00 -5.33877E+00 -5.11383E+00 -4.82503E+00 -4.53170E+00 -4.27821E+00 -4.10680E+00 -4.02474E+00
  -4.00238E+00 -4.01579E+00 -4.05209E+00 -4.10702E+00 -4.17648E+00 -4.23354E+00 -4.25770E+00 -4.26234E+00 -4.25609E+00 -4.24235E+00
  -4.22316E+00 -4.19953E+00 -4.17237E+00 -4.14204E+00 -4.10906E+00 -4.07363E+00 -4.03621E+00 -3.99693E+00 -3.95613E+00 -3.91381E+00
  -3.87024E+00 -3.82541E+00 -3.77957E+00 -3.73263E+00 -3.68465E+00 -3.63539E+00 -3.58485E+00 -3.53270E+00 -3.47884E+00 -3.42278E+00
  -3.36418E+00 -3.30241E+00 -3.23706E+00 -3.16738E+00 -3.09283E+00 -3.01246E+00 -2.92551E+00 -2.83090E+00 -2.72776E+00 -2.61489E+00
  -2.49120E+00 -2.35525E+00 -2.20580E+00 -2.04132E+00 -1.86052E+00 -1.66186E+00 -1.44409E+00 -1.20580E+00 -9.46084E-01 -6.64129E-01
  -3.59795E-01 -3.31910E-02  3.14687E-01  6.82340E-01  1.06712E+00  1.46571E+00  1.87358E+00  2.28557E+00  2.69544E+00  3.09645E+00
   3.48105E+00  3.84165E+00  4.17046E+00  4.46026E+00  4.70425E+00  4.89680E+00  5.03328E+00  5.11077E+00  5.12779E+00  5.08485E+00
   4.98387E+00  4.82862E+00  4.62401E+00  4.37642E+00  4.09283E+00  3.78107E+00  3.44887E+00  3.10410E+00  2.75398E+00  2.40541E+00
   2.06423E+00  1.73560E+00  1.42343E+00  1.13090E+00  8.59969E-01  6.12054E-01  3.87546E-01  1.86436E-01  7.92876E-03 -1.48910E-01
  -2.85518E-01 -4.03236E-01 -5.03749E-01 -5.88539E-01 -6.59320E-01 -7.17473E-01 -7.64503E-01 -8.01547E-01 -8.29885E-01 -8.50453E-01
  -8.64323E-01 -8.72192E-01 -8.74879E-01 -8.72874E-01 -8.66853E-01 -8.57194E-01 -8.44451E-01 -8.28854E-01 -8.10821E-01 -7.90497E-01
  -7.68258E-01 -7.44218E-01 -7.18688E-01 -6.91691E-01 -6.63468E-01 -6.34022E-01 -6.03600E-01 -5.72195E-01 -5.40005E-01 -5.06967E-01
  -4.73255E-01 -4.38821E-01 -4.03859E-01 -3.68304E-01 -3.32305E-01 -2.95763E-01 -2.58833E-01 -2.21444E-01 -1.83762E-01 -1.45690E-01
  -1.07352E-01 -6.86363E-02 -2.96885E-02  9.57251E-03  4.90041E-02  8.87220E-02  1.28614E-01  1.68791E-01  2.09108E-01  2.49657E-01
   2.90310E-01  3.31197E-01  3.72208E-01  4.13450E-01  4.54782E-01  4.96306E-01  5.37912E-01  5.79732E-01  6.21657E-01  6.63788E-01
   7.05991E-01  7.48381E-01  7.90860E-01  8.33564E-01  8.76379E-01  9.19410E-01  9.62534E-01  1.00588E+00
 NY background values follow
     4.707E+00    4.675E+00    4.642E+00    4.610E+00    4.577E+00    4.545E+00    4.513E+00    4.480E+00    4.448E+00    4.415E+00
     4.383E+00    4.351E+00    4.318E+00    4.286E+00    4.253E+00    4.221E+00    4.188E+00    4.156E+00    4.123E+00    4.091E+00
     4.058E+00    4.026E+00    3.993E+00    3.960E+00    3.928E+00    3.895E+00    3.862E+00    3.830E+00    3.797E+00    3.764E+00
     3.731E+00    3.698E+00    3.665E+00    3.632E+00    3.599E+00    3.566E+00    3.533E+00    3.500E+00    3.467E+00    3.434E+00
     3.400E+00    3.367E+00    3.333E+00    3.300E+00    3.266E+00    3.233E+00    3.199E+00    3.166E+00    3.132E+00    3.098E+00
     3.064E+00    3.030E+00    2.996E+00    2.962E+00    2.928E+00    2.894E+00    2.859E+00    2.825E+00    2.791E+00    2.756E+00
     2.722E+00    2.687E+00    2.653E+00    2.618E+00    2.584E+00    2.549E+00    2.514E+00    2.479E+00    2.444E+00    2.409E+00
     2.374E+00    2.339E+00    2.304E+00    2.269E+00    2.234E+00    2.199E+00    2.164E+00    2.128E+00    2.093E+00    2.057E+00
     2.022E+00    1.987E+00    1.951E+00    1.915E+00    1.880E+00    1.844E+00    1.808E+00    1.773E+00    1.737E+00    1.701E+00
     1.665E+00    1.629E+00    1.593E+00    1.557E+00    1.521E+00    1.485E+00    1.449E+00    1.413E+00    1.377E+00    1.341E+00
     1.304E+00    1.268E+00    1.232E+00    1.195E+00    1.159E+00    1.122E+00    1.086E+00    1.049E+00    1.012E+00    9.756E-01
     9.388E-01    9.020E-01    8.651E-01    8.282E-01    7.913E-01    7.542E-01    7.171E-01    6.800E-01    6.428E-01    6.056E-01
     5.682E-01    5.309E-01    4.935E-01    4.560E-01    4.184E-01    3.808E-01    3.432E-01    3.054E-01    2.676E-01    2.298E-01
     1.919E-01    1.539E-01    1.158E-01    7.773E-02    3.955E-02    1.301E-03   -3.701E-02   -7.539E-02   -1.138E-01   -1.523E-01
    -1.909E-01   -2.295E-01   -2.681E-01   -3.068E-01   -3.455E-01   -3.842E-01   -4.229E-01   -4.617E-01   -5.004E-01   -5.392E-01
    -5.780E-01   -6.168E-01   -6.555E-01   -6.942E-01   -7.330E-01   -7.717E-01   -8.103E-01   -8.489E-01   -8.875E-01   -9.261E-01
    -9.646E-01   -1.003E+00   -1.041E+00   -1.080E+00   -1.118E+00   -1.156E+00   -1.194E+00   -1.232E+00   -1.270E+00   -1.308E+00
    -1.345E+00   -1.383E+00   -1.421E+00   -1.458E+00   -1.495E+00   -1.532E+00   -1.569E+00   -1.606E+00   -1.643E+00   -1.679E+00
    -1.716E+00   -1.752E+00   -1.788E+00   -1.824E+00   -1.860E+00   -1.895E+00   -1.931E+00   -1.966E+00   -2.001E+00   -2.036E+00
    -2.071E+00   -2.106E+00   -2.140E+00   -2.175E+00   -2.209E+00   -2.243E+00   -2.278E+00   -2.312E+00   -2.346E+00   -2.379E+00
    -2.413E+00   -2.447E+00   -2.480E+00   -2.513E+00   -2.547E+00   -2.580E+00   -2.613E+00   -2.646E+00   -2.679E+00   -2.712E+00
    -2.745E+00   -2.778E+00   -2.810E+00   -2.843E+00   -2.875E+00   -2.908E+00   -2.940E+00   -2.973E+00   -3.005E+00   -3.037E+00
    -3.069E+00   -3.102E+00   -3.134E+00   -3.166E+00   -3.198E+00   -3.230E+00   -3.262E+00   -3.294E+00   -3.326E+00   -3.358E+00
    -3.390E+00   -3.422E+00   -3.454E+00   -3.485E+00   -3.517E+00   -3.549E+00   -3.580E+00   -3.612E+00   -3.643E+00   -3.674E+00
    -3.705E+00   -3.736E+00   -3.767E+00   -3.798E+00   -3.829E+00   -3.859E+00   -3.889E+00   -3.920E+00   -3.950E+00   -3.979E+00
    -4.009E+00   -4.039E+00   -4.068E+00   -4.097E+00   -4.126E+00   -4.155E+00   -4.183E+00   -4.211E+00   -4.239E+00   -4.267E+00
    -4.295E+00   -4.322E+00   -4.349E+00   -4.376E+00   -4.402E+00   -4.428E+00   -4.454E+00   -4.480E+00   -4.505E+00   -4.530E+00
    -4.555E+00   -4.579E+00   -4.604E+00   -4.627E+00   -4.651E+00   -4.674E+00   -4.697E+00   -4.719E+00   -4.741E+00   -4.762E+00
    -4.784E+00   -4.805E+00   -4.825E+00   -4.845E+00   -4.865E+00   -4.884E+00   -4.903E+00   -4.921E+00   -4.939E+00   -4.956E+00
    -4.973E+00   -4.990E+00   -5.006E+00   -5.022E+00   -5.037E+00   -5.051E+00   -5.065E+00   -5.079E+00   -5.092E+00   -5.105E+00
    -5.117E+00   -5.128E+00   -5.139E+00   -5.150E+00   -5.160E+00   -5.169E+00   -5.178E+00   -5.186E+00   -5.193E+00   -5.200E+00
    -5.207E+00   -5.212E+00   -5.217E+00   -5.222E+00   -5.226E+00   -5.229E+00   -5.232E+00   -5.234E+00   -5.235E+00   -5.236E+00
    -5.235E+00   -5.235E+00   -5.233E+00   -5.232E+00   -5.229E+00   -5.226E+00   -5.222E+00   -5.217E+00   -5.212E+00   -5.206E+00
    -5.200E+00   -5.193E+00   -5.185E+00   -5.177E+00   -5.168E+00   -5.158E+00   -5.148E+00   -5.137E+00   -5.126E+00   -5.114E+00
    -5.101E+00   -5.088E+00   -5.074E+00   -5.059E+00   -5.044E+00   -5.029E+00   -5.012E+00   -4.995E+00   -4.978E+00   -4.960E+00
    -4.941E+00   -4.922E+00   -4.902E+00   -4.881E+00   -4.860E+00   -4.838E+00   -4.816E+00   -4.793E+00   -4.770E+00   -4.746E+00
    -4.721E+00   -4.696E+00   -4.670E+00   -4.644E+00   -4.617E+00   -4.589E+00   -4.561E+00   -4.533E+00   -4.503E+00   -4.474E+00
    -4.444E+00   -4.413E+00   -4.382E+00   -4.350E+00   -4.318E+00   -4.286E+00   -4.253E+00   -4.219E+00   -4.185E+00   -4.151E+00
    -4.116E+00   -4.081E+00   -4.045E+00   -4.009E+00   -3.973E+00   -3.936E+00   -3.899E+00   -3.861E+00   -3.823E+00   -3.785E+00
    -3.746E+00   -3.707E+00   -3.668E+00   -3.628E+00   -3.588E+00   -3.548E+00   -3.507E+00   -3.466E+00   -3.425E+00   -3.384E+00
    -3.342E+00   -3.300E+00   -3.258E+00   -3.216E+00   -3.173E+00   -3.130E+00   -3.087E+00   -3.044E+00   -3.001E+00   -2.957E+00
    -2.913E+00   -2.869E+00   -2.825E+00   -2.781E+00   -2.736E+00   -2.691E+00   -2.647E+00   -2.602E+00   -2.557E+00   -2.511E+00
    -2.466E+00   -2.421E+00   -2.375E+00   -2.329E+00   -2.284E+00   -2.238E+00   -2.192E+00   -2.146E+00   -2.100E+00   -2.054E+00
    -2.007E+00   -1.961E+00   -1.915E+00   -1.868E+00   -1.822E+00   -1.775E+00   -1.729E+00   -1.682E+00   -1.636E+00   -1.589E+00
    -1.543E+00   -1.496E+00   -1.450E+00   -1.403E+00   -1.357E+00   -1.310E+00   -1.264E+00   -1.217E+00   -1.171E+00   -1.125E+00
    -1.079E+00   -1.032E+00   -9.862E-01   -9.402E-01   -8.942E-01   -8.484E-01   -8.025E-01   -7.568E-01   -7.111E-01   -6.655E-01
    -6.199E-01   -5.744E-01   -5.289E-01   -4.836E-01   -4.382E-01   -3.929E-01   -3.477E-01   -3.025E-01   -2.574E-01   -2.123E-01
    -1.673E-01   -1.223E-01   -7.730E-02   -3.237E-02    1.251E-02    5.736E-02    1.022E-01    1.470E-01    1.917E-01    2.364E-01
     2.811E-01    3.258E-01    3.705E-01    4.151E-01    4.597E-01    5.043E-01    5.489E-01    5.934E-01    6.380E-01    6.825E-01
     7.270E-01    7.716E-01    8.161E-01    8.606E-01    9.051E-01    9.496E-01    9.941E-01    1.039E+00
 Ala      Conc. = 8.45E+01
