 LCModel (Version 6.3-1L) Copyright: S.W. Provencher.          Ref.: Magn. Reson. Med. 30:672-679 (1993).                
 Slice#2 Row#2 Col#1  K_02_press_1_raw_act
 36 lines in following concentration table = NCONC+1
    Conc.  %SD /Cr+PCr  Metabolite                                         
  284.559  18%   2.523 Ala                                                 
   17.228  67%   0.153 Asp                                                 
    0.000 999%   0.000 Cr                                                  
  112.780  17%   1.000 PCr                                                 
   12.395  56%   0.110 GABA                                                
   12.137  57%   0.108 Glc                                                 
   51.529 192%   0.457 Gln                                                 
  178.779  62%   1.585 Glu                                                 
   39.759  18%   0.353 GPC                                                 
    0.000 999%   0.000 PCh                                                 
   11.470 245%   0.102 GSH                                                 
  166.874  55%   1.480 Ins                                                 
    0.000 999%   0.000 Lac                                                 
  162.308  13%   1.439 NAA                                                 
    0.000 999%   0.000 NAAG                                                
    5.387  42% 4.8E-02 Scyllo                                              
   22.084  52%   0.196 Tau                                                 
   12.948 106%   0.115 -CrCH2                                              
   39.759  18%   0.353 GPC+PCh                                             
  162.308  13%   1.439 NAA+NAAG                                            
  112.780  17%   1.000 Cr+PCr                                              
  230.308  71%   2.042 Glu+Gln                                             
  933.917  17%   8.281 Lip13a                                              
    0.000 999%   0.000 Lip13b                                              
  247.064  18%   2.191 Lip09                                               
    4.931 999% 4.4E-02 MM09                                                
  139.503  18%   1.237 Lip20                                               
    7.122 999% 6.3E-02 MM20                                                
    1.563 999% 1.4E-02 MM12                                                
    4.908 963% 4.4E-02 MM14                                                
    9.810 246% 8.7E-02 MM17                                                
  933.917  17%   8.281 Lip13a+Lip13b                                       
  940.388  15%   8.338 MM14+Lip13a+Lip13b+MM12                             
  251.995  22%   2.234 MM09+Lip09                                          
  146.624  56%   1.300 MM20+Lip20                                          
   6 lines in following misc. output table
  FWHM = 0.069 ppm    S/N =   2                                            
  Data shift = 0.031 ppm                                                   
  Ph:-172 deg     -45.3 deg/ppm                                            
  alphaB,S = 4.8E-01,   5.1E+01                                            
   14 spline knots.   Ns = 6(1)                                            
  (12) 2 infls.   ( 9) 1 extrs.                                            
  498 points on ppm-axis = NY
      4.000000     3.992357     3.984714     3.977070     3.969427     3.961784     3.954141     3.946497     3.938854     3.931211
      3.923568     3.915925     3.908281     3.900638     3.892995     3.885352     3.877708     3.870065     3.862422     3.854779
      3.847136     3.839492     3.831849     3.824206     3.816563     3.808919     3.801276     3.793633     3.785990     3.778347
      3.770703     3.763060     3.755417     3.747774     3.740130     3.732487     3.724844     3.717201     3.709558     3.701914
      3.694271     3.686628     3.678985     3.671341     3.663698     3.656055     3.648412     3.640769     3.633125     3.625482
      3.617839     3.610196     3.602552     3.594909     3.587266     3.579623     3.571980     3.564336     3.556693     3.549050
      3.541407     3.533763     3.526120     3.518477     3.510834     3.503191     3.495547     3.487904     3.480261     3.472618
      3.464974     3.457331     3.449688     3.442045     3.434402     3.426758     3.419115     3.411472     3.403829     3.396185
      3.388542     3.380899     3.373256     3.365613     3.357969     3.350326     3.342683     3.335040     3.327396     3.319753
      3.312110     3.304467     3.296824     3.289180     3.281537     3.273894     3.266251     3.258607     3.250964     3.243321
      3.235678     3.228034     3.220391     3.212748     3.205105     3.197462     3.189818     3.182175     3.174532     3.166889
      3.159245     3.151602     3.143959     3.136316     3.128673     3.121029     3.113386     3.105743     3.098100     3.090456
      3.082813     3.075170     3.067527     3.059884     3.052240     3.044597     3.036954     3.029311     3.021667     3.014024
      3.006381     2.998738     2.991095     2.983451     2.975808     2.968165     2.960522     2.952878     2.945235     2.937592
      2.929949     2.922306     2.914662     2.907019     2.899376     2.891733     2.884089     2.876446     2.868803     2.861160
      2.853517     2.845873     2.838230     2.830587     2.822944     2.815300     2.807657     2.800014     2.792371     2.784728
      2.777084     2.769441     2.761798     2.754155     2.746511     2.738868     2.731225     2.723582     2.715939     2.708295
      2.700652     2.693009     2.685366     2.677722     2.670079     2.662436     2.654793     2.647150     2.639506     2.631863
      2.624220     2.616577     2.608933     2.601290     2.593647     2.586004     2.578361     2.570717     2.563074     2.555431
      2.547788     2.540144     2.532501     2.524858     2.517215     2.509572     2.501928     2.494285     2.486642     2.478999
      2.471355     2.463712     2.456069     2.448426     2.440783     2.433139     2.425496     2.417853     2.410210     2.402566
      2.394923     2.387280     2.379637     2.371994     2.364350     2.356707     2.349064     2.341421     2.333777     2.326134
      2.318491     2.310848     2.303205     2.295561     2.287918     2.280275     2.272632     2.264988     2.257345     2.249702
      2.242059     2.234416     2.226772     2.219129     2.211486     2.203843     2.196199     2.188556     2.180913     2.173270
      2.165627     2.157983     2.150340     2.142697     2.135054     2.127410     2.119767     2.112124     2.104481     2.096838
      2.089194     2.081551     2.073908     2.066265     2.058621     2.050978     2.043335     2.035692     2.028049     2.020405
      2.012762     2.005119     1.997476     1.989833     1.982190     1.974546     1.966903     1.959260     1.951617     1.943974
      1.936331     1.928688     1.921045     1.913402     1.905759     1.898115     1.890472     1.882829     1.875186     1.867543
      1.859900     1.852257     1.844614     1.836971     1.829327     1.821684     1.814041     1.806398     1.798755     1.791112
      1.783469     1.775826     1.768183     1.760540     1.752896     1.745253     1.737610     1.729967     1.722324     1.714681
      1.707038     1.699395     1.691752     1.684108     1.676465     1.668822     1.661179     1.653536     1.645893     1.638250
      1.630607     1.622964     1.615321     1.607677     1.600034     1.592391     1.584748     1.577105     1.569462     1.561819
      1.554176     1.546533     1.538890     1.531246     1.523603     1.515960     1.508317     1.500674     1.493031     1.485388
      1.477745     1.470102     1.462458     1.454815     1.447172     1.439529     1.431886     1.424243     1.416600     1.408957
      1.401314     1.393671     1.386027     1.378384     1.370741     1.363098     1.355455     1.347812     1.340169     1.332526
      1.324883     1.317240     1.309596     1.301953     1.294310     1.286667     1.279024     1.271381     1.263738     1.256095
      1.248452     1.240808     1.233165     1.225522     1.217879     1.210236     1.202593     1.194950     1.187307     1.179664
      1.172021     1.164377     1.156734     1.149091     1.141448     1.133805     1.126162     1.118519     1.110876     1.103233
      1.095590     1.087946     1.080303     1.072660     1.065017     1.057374     1.049731     1.042088     1.034445     1.026802
      1.019158     1.011515     1.003872     0.996229     0.988586     0.980943     0.973300     0.965657     0.958014     0.950371
      0.942727     0.935084     0.927441     0.919798     0.912155     0.904512     0.896869     0.889226     0.881583     0.873940
      0.866296     0.858653     0.851010     0.843367     0.835724     0.828081     0.820438     0.812795     0.805152     0.797508
      0.789865     0.782222     0.774579     0.766936     0.759293     0.751650     0.744007     0.736364     0.728721     0.721077
      0.713434     0.705791     0.698148     0.690505     0.682862     0.675219     0.667576     0.659933     0.652290     0.644646
      0.637003     0.629360     0.621717     0.614074     0.606431     0.598788     0.591145     0.583502     0.575858     0.568215
      0.560572     0.552929     0.545286     0.537643     0.530000     0.522357     0.514714     0.507071     0.499427     0.491784
      0.484141     0.476498     0.468855     0.461212     0.453569     0.445925     0.438282     0.430639     0.422996     0.415353
      0.407710     0.400067     0.392424     0.384780     0.377137     0.369494     0.361851     0.354208     0.346565     0.338922
      0.331278     0.323635     0.315992     0.308349     0.300706     0.293063     0.285420     0.277777     0.270133     0.262490
      0.254847     0.247204     0.239561     0.231918     0.224275     0.216631     0.208988     0.201345
 NY phased data points follow
  -3.30047E+00 -3.60856E+00 -4.04349E+00 -3.92569E+00 -2.63626E+00 -8.59469E-01 -8.19006E-01 -2.04252E-01 -1.13474E+00 -3.95174E+00
  -7.88893E-01 -1.34352E+00 -2.08849E+00 -2.55044E+00 -4.12548E+00 -3.00378E+00 -4.20483E+00 -2.55204E+00 -2.12450E+00 -3.42489E+00
  -5.01998E+00 -1.54267E+00 -3.93299E+00 -2.42279E+00 -3.20099E+00 -3.30139E+00 -2.69838E+00 -2.84652E+00 -1.52938E+00 -1.59357E+00
  -3.14179E+00 -3.30166E+00 -3.30753E+00 -2.98522E+00 -3.01308E+00 -1.42629E+00 -3.35576E+00 -1.83534E+00 -3.89274E+00 -2.95962E+00
  -3.00380E+00 -3.02305E+00 -2.52258E+00 -8.59486E-01 -3.60967E+00 -8.93236E-02 -7.21869E-01 -2.15746E+00 -2.66211E+00 -2.92354E-01
  -1.51393E+00 -3.03591E+00 -1.14082E+00 -4.74694E+00 -2.33968E+00 -1.10171E+00 -3.48466E+00  6.05014E-01 -3.75628E+00 -2.12721E+00
  -1.51160E+00 -1.18797E+00 -2.24319E+00 -2.90637E+00 -2.98081E+00 -1.18217E-01 -3.38614E+00 -3.07610E+00 -1.62244E+00 -1.78594E+00
  -2.57343E+00 -2.24287E+00 -3.59755E+00 -2.11695E+00 -2.23817E+00 -2.33034E+00 -8.31208E-01 -4.35921E+00 -1.34869E+00 -2.24251E+00
  -2.05460E+00 -6.88688E-01 -1.35250E+00 -8.95597E-01 -2.26202E+00 -5.89874E-01 -5.41294E-01 -1.63716E+00 -1.03103E+00 -7.18305E-01
  -2.66465E+00 -1.38260E+00 -1.43957E+00 -6.45209E-01 -1.87987E+00 -1.93955E+00 -1.49721E+00 -8.13079E-01  1.71930E+00 -1.56234E+00
   3.07028E+00  1.06350E+00  5.17694E-01  1.74729E+00 -1.57097E+00  5.04302E-01 -3.47130E-01 -3.07344E+00 -8.32423E-01 -3.05958E+00
  -1.77647E+00 -6.45663E-01 -1.88267E+00 -2.81450E+00 -1.71762E+00 -1.58783E+00 -1.61748E+00 -7.52094E-01 -1.03823E+00 -3.02096E-01
  -3.70859E-01  4.03355E-01 -2.78024E-01  1.40910E+00  8.41486E-01  3.89751E-01  1.79523E+00  8.55059E-01  1.75896E+00 -3.53437E-01
  -1.19925E+00 -9.90037E-01 -8.70310E-01 -2.04204E+00 -1.37669E+00 -1.06454E+00 -3.01503E+00 -1.45354E+00 -1.32908E+00 -2.02996E+00
  -1.48280E+00 -1.32705E-01  5.56742E-01 -2.77533E+00 -8.41832E-01 -1.14142E+00 -1.35828E+00 -2.63621E+00 -1.35126E+00 -2.28242E-01
  -9.84704E-01 -2.76133E+00 -5.96267E-01 -4.30239E-01  5.76120E-01 -5.29855E-02 -1.12545E+00  2.52117E-01  6.70825E-01 -2.33026E+00
  -8.53940E-01 -8.18392E-01 -2.46939E+00 -1.87025E+00 -3.41704E+00 -1.42128E+00 -1.54461E+00 -2.44881E+00 -2.16045E+00 -3.54465E+00
  -2.72330E+00 -2.86238E+00 -2.34650E+00 -2.79707E+00 -2.51237E+00 -1.88002E+00 -1.74734E+00 -1.06666E+00 -1.94223E+00 -3.23983E+00
  -1.25638E+00 -1.16845E+00 -2.32551E-01 -2.54875E+00 -4.42469E+00 -1.10162E+00 -1.91267E+00 -3.25054E+00 -2.39741E+00 -1.99520E+00
  -3.30985E+00  2.19577E-02 -1.63191E+00 -2.08043E+00 -2.93443E-01 -2.53272E+00 -2.58071E+00 -2.90853E+00 -3.42419E+00 -3.21849E+00
  -3.16661E+00 -2.01578E+00 -2.87062E+00 -2.67864E+00 -1.63191E+00 -2.20463E+00 -1.27781E+00 -7.94424E-01 -1.27105E+00 -1.49887E+00
  -3.93321E+00 -4.90059E+00 -7.79724E-01 -1.28414E+00 -1.34232E+00 -2.58384E+00  3.53136E-03 -2.09455E+00 -7.38275E-01 -3.44088E+00
  -4.94570E-01 -3.60742E+00 -2.13638E+00 -1.20984E+00 -6.12568E-02 -9.29905E-02 -2.18387E+00 -2.77184E+00 -3.14916E+00 -3.04382E-01
  -1.21307E+00  9.58355E-01 -1.40838E+00 -1.28415E+00 -1.07349E+00 -7.36977E-01  3.18013E-02 -1.38780E+00 -1.20894E+00  1.57060E-01
   5.81536E-01  1.45335E-01 -3.69123E-01  3.93762E-01  2.47857E+00  3.20575E+00 -6.51070E-01 -9.63727E-01 -5.78797E-02 -1.41016E-01
   1.02856E+00 -1.59070E-01 -3.47351E-01  2.72936E+00  5.66785E-01  3.26189E+00  1.14504E+00  8.75480E-01  3.09787E+00  7.27546E+00
   7.65426E+00  3.68889E+00  5.59633E+00  5.16826E+00  3.92229E+00  3.14483E+00  2.39627E+00  9.13319E-01  3.06974E-01  2.77366E+00
   2.77138E+00  2.88794E+00  5.88923E-01  1.05253E+00  2.52177E+00  1.70118E+00  1.81521E+00  1.58792E+00  3.69261E+00  2.06505E+00
   3.03591E+00  3.31130E+00  1.86813E+00  2.36445E+00  2.60555E+00  1.46720E-01  1.10729E+00  2.09948E+00  1.55070E+00  5.35597E-01
   6.88960E-01  2.43752E+00  1.94765E+00  1.78535E+00  2.71772E+00  2.09376E+00  2.07965E+00  1.94325E+00  2.45085E+00  3.52720E+00
   3.69048E+00  2.71233E+00  1.74898E+00  3.04913E+00  2.77494E+00  4.27103E+00  1.61939E+00  3.13584E+00  2.62604E+00  4.03962E+00
   2.92846E+00  5.64740E+00  3.15716E+00  3.60138E+00  4.96741E+00  2.72716E+00  3.37497E+00  4.59073E+00  2.72616E+00  4.23244E+00
   2.92543E+00  3.67671E+00  1.68890E+00  4.55540E+00  3.17885E+00  2.58338E+00  2.03976E+00 -1.20533E-01  1.02030E+00  4.21932E-01
   5.76247E-01 -1.92483E+00  9.19930E-01  7.62573E-01  9.35024E-01  3.04066E-01  3.04347E+00  2.66487E+00  3.71222E+00  5.26634E+00
   6.77895E+00  5.00528E+00  6.45110E+00  3.83523E+00  4.45175E+00  4.85561E+00  4.06980E+00  8.24820E+00  5.48116E+00  7.11220E+00
   5.90658E+00  5.74939E+00  3.69609E+00  6.78100E+00  6.40421E+00  3.98138E+00  6.06793E+00  4.70871E+00  5.98730E+00  4.71004E+00
   5.18871E+00  4.93737E+00  3.28071E+00  3.90550E+00  4.78371E+00  4.10089E+00  5.41911E+00  4.41514E+00  4.04222E+00  5.44538E+00
   2.88998E+00  3.34801E+00  4.66428E+00  4.60959E+00  3.11935E+00  4.35583E+00  4.66395E+00  3.94790E+00  3.25265E+00  3.56226E+00
   3.39828E+00  1.95694E+00  4.16630E+00  3.71622E+00  4.45959E+00  3.04589E+00  1.79538E+00  2.25502E+00  2.78122E+00  2.81228E+00
   2.73367E+00  6.44149E-01  4.24599E-01  1.90779E+00  2.37509E+00  3.59400E-01  3.73093E+00  1.12394E+00  2.75664E+00  1.82567E+00
   3.19354E+00  2.70885E+00  7.09113E-01  3.27779E+00  1.16025E+00  3.58900E+00  3.13015E+00  4.63908E+00  1.66392E+00  3.50230E+00
   1.35589E+00  1.58147E+00  2.26070E+00  2.69732E+00  1.64704E+00  1.14466E+00  3.60969E+00  2.87023E+00  3.05428E+00  8.73449E-01
   4.27305E-01  3.58052E+00  1.79735E+00  3.65915E+00  3.26447E+00  3.90506E+00  1.57265E+00  4.57444E-01  2.27673E+00  4.67550E+00
   1.81800E+00  2.20776E+00  2.82144E+00  1.30105E+00  1.06291E+00  3.23330E+00  1.32886E+00  5.06444E-01  1.29850E+00  5.88662E-01
   1.04638E+00  2.45794E+00  1.34951E+00  2.53301E+00  9.63734E-01  2.13509E+00  8.17147E-01  2.30167E+00  2.23918E+00  3.37504E+00
   2.79457E+00  2.37326E+00 -1.63233E-02  1.01155E+00  2.77035E+00  1.37361E-01  5.98133E-01  2.42634E+00  1.39301E+00  1.11983E+00
   8.12590E-01  9.75252E-01  2.12984E+00  1.53581E+00  2.04357E+00 -1.58996E-01  2.86666E+00  7.69973E-02  1.87283E+00  6.91008E-01
   1.57165E+00  2.56543E+00  4.27023E-01  1.66093E+00 -2.67173E-02 -6.34234E-02  4.03560E-01  8.26879E-01  7.59589E-01  7.33346E-01
   1.67728E+00 -6.83434E-01  2.55391E+00  1.14414E+00  4.15179E+00  9.79733E-01  1.80356E+00 -3.82911E-01  2.00442E+00  1.54332E+00
   2.95596E+00  7.29529E-01  2.35068E+00  2.60660E+00  2.01770E+00 -2.13723E-01  4.91089E-01  2.06999E+00
 NY points of the fit to the data follow
  -3.14072E+00 -3.11692E+00 -2.91699E+00 -2.54508E+00 -2.13694E+00 -1.75984E+00 -1.46890E+00 -1.32578E+00 -1.32396E+00 -1.38997E+00
  -1.48313E+00 -1.64508E+00 -1.93047E+00 -2.30482E+00 -2.69155E+00 -3.00402E+00 -3.14061E+00 -3.11481E+00 -3.00793E+00 -2.82794E+00
  -2.64580E+00 -2.53671E+00 -2.52991E+00 -2.62338E+00 -2.78943E+00 -3.00363E+00 -3.21903E+00 -3.33520E+00 -3.31238E+00 -3.20415E+00
  -3.04277E+00 -2.82927E+00 -2.58520E+00 -2.35301E+00 -2.18864E+00 -2.11714E+00 -2.12508E+00 -2.21062E+00 -2.36571E+00 -2.55550E+00
  -2.71345E+00 -2.74250E+00 -2.60235E+00 -2.35946E+00 -2.10168E+00 -1.88547E+00 -1.75057E+00 -1.71743E+00 -1.76712E+00 -1.86195E+00
  -1.97205E+00 -2.10974E+00 -2.28707E+00 -2.46130E+00 -2.57574E+00 -2.59454E+00 -2.51780E+00 -2.40182E+00 -2.30571E+00 -2.25565E+00
  -2.24787E+00 -2.26193E+00 -2.28382E+00 -2.30422E+00 -2.32701E+00 -2.35520E+00 -2.37177E+00 -2.36319E+00 -2.32721E+00 -2.26430E+00
  -2.18311E+00 -2.11251E+00 -2.06691E+00 -2.04593E+00 -2.04832E+00 -2.07002E+00 -2.10176E+00 -2.13247E+00 -2.16086E+00 -2.18044E+00
  -2.17153E+00 -2.15651E+00 -2.16328E+00 -2.19105E+00 -2.23112E+00 -2.28218E+00 -2.33165E+00 -2.36426E+00 -2.37843E+00 -2.38526E+00
  -2.38556E+00 -2.37682E+00 -2.35468E+00 -2.30623E+00 -2.22602E+00 -2.08371E+00 -1.68799E+00 -1.04167E+00 -3.68141E-01  2.36914E-01
   6.90399E-01  8.93859E-01  8.63644E-01  7.25615E-01  5.52400E-01  2.89908E-01 -1.26201E-01 -6.72409E-01 -1.26121E+00 -1.75833E+00
  -2.01035E+00 -2.06807E+00 -2.08226E+00 -2.08616E+00 -2.08605E+00 -2.08313E+00 -2.07388E+00 -2.05752E+00 -2.02248E+00 -1.90615E+00
  -1.50436E+00 -8.53051E-01 -1.67309E-01  4.53327E-01  9.18100E-01  1.13619E+00  1.12833E+00  1.01612E+00  8.57490E-01  5.94017E-01
   1.69885E-01 -3.88128E-01 -9.88098E-01 -1.48946E+00 -1.74196E+00 -1.80777E+00 -1.82233E+00 -1.82057E+00 -1.80945E+00 -1.79126E+00
  -1.76571E+00 -1.73313E+00 -1.69761E+00 -1.66533E+00 -1.64003E+00 -1.62365E+00 -1.61439E+00 -1.60680E+00 -1.59808E+00 -1.58859E+00
  -1.57858E+00 -1.56833E+00 -1.55670E+00 -1.54342E+00 -1.53120E+00 -1.53055E+00 -1.54368E+00 -1.56081E+00 -1.57430E+00 -1.57280E+00
  -1.55701E+00 -1.53673E+00 -1.51900E+00 -1.50902E+00 -1.50591E+00 -1.50334E+00 -1.49630E+00 -1.48743E+00 -1.48626E+00 -1.50245E+00
  -1.53816E+00 -1.58466E+00 -1.61847E+00 -1.63003E+00 -1.62656E+00 -1.62057E+00 -1.61608E+00 -1.61105E+00 -1.60446E+00 -1.59052E+00
  -1.56647E+00 -1.54171E+00 -1.52145E+00 -1.49801E+00 -1.46928E+00 -1.42675E+00 -1.36005E+00 -1.28187E+00 -1.21252E+00 -1.16156E+00
  -1.12284E+00 -1.08334E+00 -1.04664E+00 -1.01990E+00 -1.00728E+00 -1.00658E+00 -1.00126E+00 -9.71987E-01 -9.09090E-01 -8.17512E-01
  -7.12689E-01 -6.21863E-01 -5.63076E-01 -5.43648E-01 -5.94557E-01 -7.00309E-01 -8.24024E-01 -9.51821E-01 -1.05287E+00 -1.08052E+00
  -9.85002E-01 -8.04139E-01 -5.98325E-01 -3.95211E-01 -2.32213E-01 -1.60255E-01 -2.10418E-01 -3.62914E-01 -5.67769E-01 -7.68705E-01
  -9.40846E-01 -1.05117E+00 -1.06957E+00 -9.97452E-01 -8.45492E-01 -6.52865E-01 -4.46189E-01 -2.34091E-01 -4.33558E-02  9.21984E-02
   1.42358E-01  1.28056E-01  1.02635E-01  9.32459E-02  9.65754E-02  1.17014E-01  1.51762E-01  1.64481E-01  1.58826E-01  1.50006E-01
   1.45226E-01  1.47210E-01  1.66575E-01  1.96570E-01  2.12923E-01  2.17388E-01  2.28897E-01  2.61257E-01  3.14277E-01  3.86385E-01
   4.71427E-01  5.49691E-01  6.21142E-01  7.32074E-01  1.11177E+00  1.95512E+00  2.96311E+00  3.93075E+00  4.73140E+00  5.20535E+00
   5.29147E+00  5.14559E+00  4.92440E+00  4.60398E+00  4.07801E+00  3.33152E+00  2.45646E+00  1.62343E+00  1.07061E+00  8.74888E-01
   8.14497E-01  7.97339E-01  8.03846E-01  8.19318E-01  8.34382E-01  8.50298E-01  8.66055E-01  8.78363E-01  8.84219E-01  8.83848E-01
   8.79016E-01  8.74179E-01  8.73425E-01  8.77991E-01  8.88326E-01  9.03798E-01  9.22744E-01  9.44146E-01  9.66381E-01  9.87735E-01
   1.00835E+00  1.02856E+00  1.04856E+00  1.06901E+00  1.09053E+00  1.11311E+00  1.13648E+00  1.16081E+00  1.18634E+00  1.21290E+00
   1.24032E+00  1.26863E+00  1.29760E+00  1.32727E+00  1.35779E+00  1.38941E+00  1.42235E+00  1.45692E+00  1.49348E+00  1.53255E+00
   1.57482E+00  1.62123E+00  1.67290E+00  1.73128E+00  1.79842E+00  1.87723E+00  1.97205E+00  2.08986E+00  2.24286E+00  2.45579E+00
   2.79050E+00  3.34405E+00  3.88621E+00  4.12754E+00  4.04114E+00  3.61869E+00  2.87929E+00  1.94975E+00  9.74399E-01  1.96258E-01
  -1.95094E-01 -2.81080E-01 -4.34736E-02  5.50816E-01  1.41855E+00  2.41631E+00  3.34877E+00  4.14668E+00  4.82683E+00  5.30736E+00
   5.51116E+00  5.42789E+00  5.13514E+00  4.86546E+00  4.77425E+00  4.78336E+00  4.83976E+00  4.92039E+00  5.01241E+00  5.10737E+00
   5.19900E+00  5.28238E+00  5.35356E+00  5.40936E+00  5.44735E+00  5.46576E+00  5.46349E+00  5.44005E+00  5.39559E+00  5.33086E+00
   5.24711E+00  5.14611E+00  5.02995E+00  4.90100E+00  4.76181E+00  4.61504E+00  4.46332E+00  4.30923E+00  4.15513E+00  4.00318E+00
   3.85528E+00  3.71306E+00  3.57786E+00  3.45073E+00  3.33241E+00  3.22343E+00  3.12406E+00  3.03444E+00  2.95450E+00  2.88407E+00
   2.82289E+00  2.77060E+00  2.72684E+00  2.69121E+00  2.66330E+00  2.64268E+00  2.62892E+00  2.62160E+00  2.62027E+00  2.62452E+00
   2.63388E+00  2.64786E+00  2.66594E+00  2.68756E+00  2.71212E+00  2.73898E+00  2.76744E+00  2.79675E+00  2.82614E+00  2.85482E+00
   2.88199E+00  2.90686E+00  2.92867E+00  2.94671E+00  2.96034E+00  2.96902E+00  2.97232E+00  2.96994E+00  2.96169E+00  2.94753E+00
   2.92756E+00  2.90200E+00  2.87121E+00  2.83562E+00  2.79576E+00  2.75223E+00  2.70567E+00  2.65673E+00  2.60607E+00  2.55434E+00
   2.50211E+00  2.44995E+00  2.39836E+00  2.34777E+00  2.29854E+00  2.25095E+00  2.20523E+00  2.16155E+00  2.12002E+00  2.08070E+00
   2.04360E+00  2.00869E+00  1.97593E+00  1.94525E+00  1.91655E+00  1.88974E+00  1.86470E+00  1.84132E+00  1.81949E+00  1.79911E+00
   1.78005E+00  1.76224E+00  1.74555E+00  1.72990E+00  1.71521E+00  1.70141E+00  1.68842E+00  1.67618E+00  1.66461E+00  1.65367E+00
   1.64331E+00  1.63350E+00  1.62417E+00  1.61529E+00  1.60683E+00  1.59876E+00  1.59106E+00  1.58369E+00  1.57662E+00  1.56984E+00
   1.56333E+00  1.55707E+00  1.55104E+00  1.54523E+00  1.53962E+00  1.53421E+00  1.52896E+00  1.52389E+00  1.51898E+00  1.51421E+00
   1.50958E+00  1.50508E+00  1.50071E+00  1.49646E+00  1.49232E+00  1.48829E+00  1.48435E+00  1.48050E+00  1.47675E+00  1.47310E+00
   1.46952E+00  1.46602E+00  1.46258E+00  1.45923E+00  1.45594E+00  1.45273E+00  1.44958E+00  1.44648E+00  1.44345E+00  1.44047E+00
   1.43755E+00  1.43470E+00  1.43188E+00  1.42912E+00  1.42641E+00  1.42376E+00  1.42115E+00  1.41860E+00
 NY background values follow
    -3.715E+00   -3.701E+00   -3.687E+00   -3.673E+00   -3.659E+00   -3.645E+00   -3.631E+00   -3.616E+00   -3.602E+00   -3.588E+00
    -3.574E+00   -3.560E+00   -3.546E+00   -3.532E+00   -3.518E+00   -3.504E+00   -3.490E+00   -3.476E+00   -3.462E+00   -3.448E+00
    -3.434E+00   -3.420E+00   -3.406E+00   -3.392E+00   -3.378E+00   -3.364E+00   -3.350E+00   -3.336E+00   -3.322E+00   -3.308E+00
    -3.294E+00   -3.280E+00   -3.266E+00   -3.252E+00   -3.238E+00   -3.224E+00   -3.210E+00   -3.197E+00   -3.183E+00   -3.169E+00
    -3.155E+00   -3.141E+00   -3.128E+00   -3.114E+00   -3.100E+00   -3.087E+00   -3.073E+00   -3.059E+00   -3.046E+00   -3.032E+00
    -3.019E+00   -3.005E+00   -2.992E+00   -2.978E+00   -2.965E+00   -2.951E+00   -2.938E+00   -2.924E+00   -2.911E+00   -2.898E+00
    -2.884E+00   -2.871E+00   -2.858E+00   -2.845E+00   -2.832E+00   -2.818E+00   -2.805E+00   -2.792E+00   -2.779E+00   -2.766E+00
    -2.753E+00   -2.740E+00   -2.727E+00   -2.714E+00   -2.702E+00   -2.689E+00   -2.676E+00   -2.663E+00   -2.650E+00   -2.638E+00
    -2.625E+00   -2.612E+00   -2.600E+00   -2.587E+00   -2.575E+00   -2.562E+00   -2.550E+00   -2.538E+00   -2.525E+00   -2.513E+00
    -2.501E+00   -2.488E+00   -2.476E+00   -2.464E+00   -2.452E+00   -2.440E+00   -2.428E+00   -2.416E+00   -2.404E+00   -2.392E+00
    -2.380E+00   -2.368E+00   -2.356E+00   -2.345E+00   -2.333E+00   -2.321E+00   -2.309E+00   -2.298E+00   -2.286E+00   -2.274E+00
    -2.263E+00   -2.251E+00   -2.239E+00   -2.228E+00   -2.216E+00   -2.205E+00   -2.193E+00   -2.181E+00   -2.170E+00   -2.158E+00
    -2.147E+00   -2.135E+00   -2.124E+00   -2.112E+00   -2.101E+00   -2.089E+00   -2.078E+00   -2.066E+00   -2.055E+00   -2.043E+00
    -2.032E+00   -2.020E+00   -2.009E+00   -1.997E+00   -1.986E+00   -1.974E+00   -1.963E+00   -1.951E+00   -1.940E+00   -1.928E+00
    -1.917E+00   -1.905E+00   -1.893E+00   -1.882E+00   -1.870E+00   -1.858E+00   -1.847E+00   -1.835E+00   -1.823E+00   -1.811E+00
    -1.799E+00   -1.787E+00   -1.775E+00   -1.763E+00   -1.751E+00   -1.739E+00   -1.726E+00   -1.714E+00   -1.702E+00   -1.689E+00
    -1.677E+00   -1.664E+00   -1.651E+00   -1.639E+00   -1.626E+00   -1.613E+00   -1.600E+00   -1.587E+00   -1.574E+00   -1.560E+00
    -1.547E+00   -1.533E+00   -1.520E+00   -1.506E+00   -1.492E+00   -1.478E+00   -1.464E+00   -1.450E+00   -1.436E+00   -1.422E+00
    -1.407E+00   -1.392E+00   -1.378E+00   -1.363E+00   -1.348E+00   -1.333E+00   -1.317E+00   -1.302E+00   -1.286E+00   -1.271E+00
    -1.255E+00   -1.239E+00   -1.223E+00   -1.207E+00   -1.191E+00   -1.174E+00   -1.158E+00   -1.141E+00   -1.124E+00   -1.107E+00
    -1.090E+00   -1.073E+00   -1.056E+00   -1.039E+00   -1.021E+00   -1.004E+00   -9.861E-01   -9.683E-01   -9.504E-01   -9.324E-01
    -9.142E-01   -8.960E-01   -8.776E-01   -8.591E-01   -8.405E-01   -8.219E-01   -8.031E-01   -7.841E-01   -7.651E-01   -7.460E-01
    -7.268E-01   -7.074E-01   -6.880E-01   -6.684E-01   -6.488E-01   -6.290E-01   -6.092E-01   -5.892E-01   -5.691E-01   -5.490E-01
    -5.287E-01   -5.084E-01   -4.880E-01   -4.676E-01   -4.470E-01   -4.264E-01   -4.058E-01   -3.851E-01   -3.643E-01   -3.436E-01
    -3.227E-01   -3.019E-01   -2.810E-01   -2.601E-01   -2.392E-01   -2.183E-01   -1.974E-01   -1.765E-01   -1.556E-01   -1.347E-01
    -1.139E-01   -9.301E-02   -7.219E-02   -5.141E-02   -3.066E-02   -9.959E-03    1.069E-02    3.129E-02    5.183E-02    7.230E-02
     9.270E-02    1.130E-01    1.333E-01    1.534E-01    1.735E-01    1.935E-01    2.133E-01    2.331E-01    2.527E-01    2.723E-01
     2.917E-01    3.109E-01    3.301E-01    3.491E-01    3.680E-01    3.867E-01    4.053E-01    4.238E-01    4.421E-01    4.602E-01
     4.782E-01    4.961E-01    5.138E-01    5.314E-01    5.488E-01    5.661E-01    5.832E-01    6.001E-01    6.169E-01    6.335E-01
     6.500E-01    6.663E-01    6.824E-01    6.983E-01    7.141E-01    7.297E-01    7.452E-01    7.605E-01    7.755E-01    7.905E-01
     8.052E-01    8.197E-01    8.341E-01    8.483E-01    8.623E-01    8.761E-01    8.897E-01    9.032E-01    9.164E-01    9.294E-01
     9.423E-01    9.549E-01    9.674E-01    9.796E-01    9.917E-01    1.004E+00    1.015E+00    1.027E+00    1.038E+00    1.049E+00
     1.060E+00    1.070E+00    1.081E+00    1.091E+00    1.101E+00    1.111E+00    1.120E+00    1.130E+00    1.139E+00    1.148E+00
     1.157E+00    1.166E+00    1.174E+00    1.183E+00    1.191E+00    1.199E+00    1.207E+00    1.214E+00    1.222E+00    1.229E+00
     1.236E+00    1.243E+00    1.250E+00    1.257E+00    1.263E+00    1.269E+00    1.276E+00    1.282E+00    1.288E+00    1.293E+00
     1.299E+00    1.304E+00    1.310E+00    1.315E+00    1.320E+00    1.325E+00    1.329E+00    1.334E+00    1.339E+00    1.343E+00
     1.347E+00    1.351E+00    1.355E+00    1.359E+00    1.363E+00    1.366E+00    1.370E+00    1.373E+00    1.376E+00    1.380E+00
     1.383E+00    1.385E+00    1.388E+00    1.391E+00    1.394E+00    1.396E+00    1.398E+00    1.401E+00    1.403E+00    1.405E+00
     1.407E+00    1.409E+00    1.411E+00    1.412E+00    1.414E+00    1.416E+00    1.417E+00    1.419E+00    1.420E+00    1.421E+00
     1.422E+00    1.423E+00    1.424E+00    1.425E+00    1.426E+00    1.427E+00    1.428E+00    1.428E+00    1.429E+00    1.429E+00
     1.430E+00    1.430E+00    1.431E+00    1.431E+00    1.431E+00    1.431E+00    1.432E+00    1.432E+00    1.432E+00    1.432E+00
     1.432E+00    1.432E+00    1.431E+00    1.431E+00    1.431E+00    1.431E+00    1.431E+00    1.430E+00    1.430E+00    1.429E+00
     1.429E+00    1.428E+00    1.428E+00    1.427E+00    1.427E+00    1.426E+00    1.426E+00    1.425E+00    1.424E+00    1.423E+00
     1.423E+00    1.422E+00    1.421E+00    1.420E+00    1.419E+00    1.418E+00    1.418E+00    1.417E+00    1.416E+00    1.415E+00
     1.414E+00    1.413E+00    1.412E+00    1.411E+00    1.410E+00    1.408E+00    1.407E+00    1.406E+00    1.405E+00    1.404E+00
     1.403E+00    1.402E+00    1.400E+00    1.399E+00    1.398E+00    1.397E+00    1.396E+00    1.394E+00    1.393E+00    1.392E+00
     1.391E+00    1.389E+00    1.388E+00    1.387E+00    1.386E+00    1.384E+00    1.383E+00    1.382E+00    1.381E+00    1.379E+00
     1.378E+00    1.377E+00    1.375E+00    1.374E+00    1.373E+00    1.371E+00    1.370E+00    1.369E+00    1.367E+00    1.366E+00
     1.365E+00    1.364E+00    1.362E+00    1.361E+00    1.360E+00    1.358E+00    1.357E+00    1.356E+00    1.354E+00    1.353E+00
     1.352E+00    1.350E+00    1.349E+00    1.348E+00    1.346E+00    1.345E+00    1.344E+00    1.343E+00
 Ala      Conc. = 2.85E+02
