 LCModel (Version 6.3-1L) Copyright: S.W. Provencher.          Ref.: Magn. Reson. Med. 30:672-679 (1993).                
 Slice#2 Row#1 Col#4  K_02_press_1_raw_act
 36 lines in following concentration table = NCONC+1
    Conc.  %SD /Cr+PCr  Metabolite                                         
    0.000 999%   0.000 Ala                                                 
   26.625  78%   0.380 Asp                                                 
    0.000 999%   0.000 Cr                                                  
   70.096  52%   1.000 PCr                                                 
   11.213 109%   0.160 GABA                                                
   13.513  94%   0.193 Glc                                                 
   45.327  89%   0.647 Gln                                                 
   34.134 126%   0.487 Glu                                                 
   24.061  31%   0.343 GPC                                                 
    0.000 999%   0.000 PCh                                                 
    2.238 709% 3.2E-02 GSH                                                 
   80.457  67%   1.148 Ins                                                 
   55.021  49%   0.785 Lac                                                 
   95.854  27%   1.367 NAA                                                 
   90.002  24%   1.284 NAAG                                                
    3.509 108% 5.0E-02 Scyllo                                              
   12.076 168%   0.172 Tau                                                 
    0.000 999%   0.000 -CrCH2                                              
   24.061  31%   0.343 GPC+PCh                                             
  185.856  21%   2.651 NAA+NAAG                                            
   70.096  29%   1.000 Cr+PCr                                              
   79.461  68%   1.134 Glu+Gln                                             
 2.59E+03  11%  36.887 Lip13a                                              
  211.469  51%   3.017 Lip13b                                              
  686.111  18%   9.788 Lip09                                               
    0.000 999%   0.000 MM09                                                
    0.000 999%   0.000 Lip20                                               
    0.000 999%   0.000 MM20                                                
 1.16E-03 999% 1.6E-05 MM12                                                
 6.95E-02 999% 9.9E-04 MM14                                                
 7.28E-03 999% 1.0E-04 MM17                                                
 2.80E+03  10%  39.904 Lip13a+Lip13b                                       
 2.80E+03  10%  39.905 MM14+Lip13a+Lip13b+MM12                             
  686.111  18%   9.788 MM09+Lip09                                          
    0.000 999%   0.000 MM20+Lip20                                          
   6 lines in following misc. output table
  FWHM = 0.031 ppm    S/N =   2                                            
  Data shift = 0.015 ppm                                                   
  Ph:  71 deg       5.9 deg/ppm                                            
  alphaB,S = 8.5E+01,   2.4E+00                                            
   14 spline knots.   Ns = 6(1)                                            
   1 inflections.     2 extrema                                            
  498 points on ppm-axis = NY
      4.000000     3.992357     3.984714     3.977070     3.969427     3.961784     3.954141     3.946497     3.938854     3.931211
      3.923568     3.915925     3.908281     3.900638     3.892995     3.885352     3.877708     3.870065     3.862422     3.854779
      3.847136     3.839492     3.831849     3.824206     3.816563     3.808919     3.801276     3.793633     3.785990     3.778347
      3.770703     3.763060     3.755417     3.747774     3.740130     3.732487     3.724844     3.717201     3.709558     3.701914
      3.694271     3.686628     3.678985     3.671341     3.663698     3.656055     3.648412     3.640769     3.633125     3.625482
      3.617839     3.610196     3.602552     3.594909     3.587266     3.579623     3.571980     3.564336     3.556693     3.549050
      3.541407     3.533763     3.526120     3.518477     3.510834     3.503191     3.495547     3.487904     3.480261     3.472618
      3.464974     3.457331     3.449688     3.442045     3.434402     3.426758     3.419115     3.411472     3.403829     3.396185
      3.388542     3.380899     3.373256     3.365613     3.357969     3.350326     3.342683     3.335040     3.327396     3.319753
      3.312110     3.304467     3.296824     3.289180     3.281537     3.273894     3.266251     3.258607     3.250964     3.243321
      3.235678     3.228034     3.220391     3.212748     3.205105     3.197462     3.189818     3.182175     3.174532     3.166889
      3.159245     3.151602     3.143959     3.136316     3.128673     3.121029     3.113386     3.105743     3.098100     3.090456
      3.082813     3.075170     3.067527     3.059884     3.052240     3.044597     3.036954     3.029311     3.021667     3.014024
      3.006381     2.998738     2.991095     2.983451     2.975808     2.968165     2.960522     2.952878     2.945235     2.937592
      2.929949     2.922306     2.914662     2.907019     2.899376     2.891733     2.884089     2.876446     2.868803     2.861160
      2.853517     2.845873     2.838230     2.830587     2.822944     2.815300     2.807657     2.800014     2.792371     2.784728
      2.777084     2.769441     2.761798     2.754155     2.746511     2.738868     2.731225     2.723582     2.715939     2.708295
      2.700652     2.693009     2.685366     2.677722     2.670079     2.662436     2.654793     2.647150     2.639506     2.631863
      2.624220     2.616577     2.608933     2.601290     2.593647     2.586004     2.578361     2.570717     2.563074     2.555431
      2.547788     2.540144     2.532501     2.524858     2.517215     2.509572     2.501928     2.494285     2.486642     2.478999
      2.471355     2.463712     2.456069     2.448426     2.440783     2.433139     2.425496     2.417853     2.410210     2.402566
      2.394923     2.387280     2.379637     2.371994     2.364350     2.356707     2.349064     2.341421     2.333777     2.326134
      2.318491     2.310848     2.303205     2.295561     2.287918     2.280275     2.272632     2.264988     2.257345     2.249702
      2.242059     2.234416     2.226772     2.219129     2.211486     2.203843     2.196199     2.188556     2.180913     2.173270
      2.165627     2.157983     2.150340     2.142697     2.135054     2.127410     2.119767     2.112124     2.104481     2.096838
      2.089194     2.081551     2.073908     2.066265     2.058621     2.050978     2.043335     2.035692     2.028049     2.020405
      2.012762     2.005119     1.997476     1.989833     1.982190     1.974546     1.966903     1.959260     1.951617     1.943974
      1.936331     1.928688     1.921045     1.913402     1.905759     1.898115     1.890472     1.882829     1.875186     1.867543
      1.859900     1.852257     1.844614     1.836971     1.829327     1.821684     1.814041     1.806398     1.798755     1.791112
      1.783469     1.775826     1.768183     1.760540     1.752896     1.745253     1.737610     1.729967     1.722324     1.714681
      1.707038     1.699395     1.691752     1.684108     1.676465     1.668822     1.661179     1.653536     1.645893     1.638250
      1.630607     1.622964     1.615321     1.607677     1.600034     1.592391     1.584748     1.577105     1.569462     1.561819
      1.554176     1.546533     1.538890     1.531246     1.523603     1.515960     1.508317     1.500674     1.493031     1.485388
      1.477745     1.470102     1.462458     1.454815     1.447172     1.439529     1.431886     1.424243     1.416600     1.408957
      1.401314     1.393671     1.386027     1.378384     1.370741     1.363098     1.355455     1.347812     1.340169     1.332526
      1.324883     1.317240     1.309596     1.301953     1.294310     1.286667     1.279024     1.271381     1.263738     1.256095
      1.248452     1.240808     1.233165     1.225522     1.217879     1.210236     1.202593     1.194950     1.187307     1.179664
      1.172021     1.164377     1.156734     1.149091     1.141448     1.133805     1.126162     1.118519     1.110876     1.103233
      1.095590     1.087946     1.080303     1.072660     1.065017     1.057374     1.049731     1.042088     1.034445     1.026802
      1.019158     1.011515     1.003872     0.996229     0.988586     0.980943     0.973300     0.965657     0.958014     0.950371
      0.942727     0.935084     0.927441     0.919798     0.912155     0.904512     0.896869     0.889226     0.881583     0.873940
      0.866296     0.858653     0.851010     0.843367     0.835724     0.828081     0.820438     0.812795     0.805152     0.797508
      0.789865     0.782222     0.774579     0.766936     0.759293     0.751650     0.744007     0.736364     0.728721     0.721077
      0.713434     0.705791     0.698148     0.690505     0.682862     0.675219     0.667576     0.659933     0.652290     0.644646
      0.637003     0.629360     0.621717     0.614074     0.606431     0.598788     0.591145     0.583502     0.575858     0.568215
      0.560572     0.552929     0.545286     0.537643     0.530000     0.522357     0.514714     0.507071     0.499427     0.491784
      0.484141     0.476498     0.468855     0.461212     0.453569     0.445925     0.438282     0.430639     0.422996     0.415353
      0.407710     0.400067     0.392424     0.384780     0.377137     0.369494     0.361851     0.354208     0.346565     0.338922
      0.331278     0.323635     0.315992     0.308349     0.300706     0.293063     0.285420     0.277777     0.270133     0.262490
      0.254847     0.247204     0.239561     0.231918     0.224275     0.216631     0.208988     0.201345
 NY phased data points follow
   3.29426E+00  2.32693E+00  2.98373E+00  2.45837E+00  2.27656E+00  8.35456E-01  1.76199E+00  3.09576E+00  3.36975E+00  4.14437E+00
   4.61438E+00  7.66818E+00  3.17318E+00  7.38713E+00  4.96610E+00  2.93437E-01  6.96989E+00  2.52933E+00  3.14488E+00  4.34591E+00
   2.18473E+00  7.26624E-01 -3.38221E-01  2.94347E-01  3.45875E+00  1.93444E-01  6.07032E+00  1.54033E+00 -3.12851E-01  1.94493E+00
   4.90522E+00 -1.59161E+00  2.67892E+00  7.32115E+00  3.17950E-01  8.61795E-02  4.78154E+00  8.14719E-01  2.92290E+00  7.52529E-01
   2.50871E+00 -1.74107E+00  2.44792E+00  1.52236E+00  4.19788E+00  2.32699E-01  7.09388E-01  2.11218E+00  1.53782E+00  8.13818E-01
   2.90879E+00  2.87052E+00  2.39030E+00 -5.06276E-01  2.66959E+00  3.45597E+00 -5.05237E-01  5.09951E-02  3.21705E+00  4.53251E+00
   1.13507E+00  4.46928E+00  6.97189E+00  3.33539E+00  1.60595E+00 -4.15804E-01  3.27446E+00  3.28424E+00 -8.81470E-01  8.26773E-01
   1.69184E+00 -3.21474E-01  2.21366E+00  2.69540E+00  8.60664E-01 -6.19343E-01 -7.48652E-01  1.29154E+00 -2.24106E-01 -2.87540E-01
   2.32912E+00  3.88332E+00  2.77089E+00  1.35414E+00 -5.08397E-01 -9.43245E-01 -3.58495E-01  3.98170E+00  1.95343E+00 -8.54727E-02
   7.78080E-01  1.32285E+00  6.24172E-01  4.43220E+00 -7.71231E-01 -1.41229E+00 -7.32016E-01 -1.16159E+00 -2.61146E+00 -3.76964E-01
  -1.08268E+00  1.57110E+00  3.84145E+00  5.62144E-01  5.44576E+00  9.54321E+00  6.05281E+00  2.23359E+00 -4.41109E-01  1.72712E+00
   5.44899E-01 -8.10637E-01  2.10607E+00 -6.50275E-01  3.44693E-01  1.21086E+00 -9.27812E-01  1.64670E-01  1.24985E+00  1.13809E+00
   1.29562E+00  1.79003E+00  3.09868E-02 -1.10237E+00  1.74747E-01  6.59253E-01 -2.15337E+00  2.29418E+00  5.92646E+00  6.57366E+00
   6.08292E+00  5.87345E+00  1.20227E+00  3.07949E+00  1.50763E-01  7.28038E-01 -4.03925E-01  1.41686E+00  9.33914E-01  9.20884E-01
   1.67899E+00  1.58484E+00 -1.32653E+00  2.71952E+00 -2.61603E+00  5.94554E-01 -5.10662E-01  1.12173E+00  1.83221E+00 -3.13100E-01
   1.06792E+00  4.71678E-01  1.76366E-01  1.92352E+00  8.95469E-03  2.58541E+00  1.72102E+00 -1.76119E+00  3.02747E+00 -1.57940E+00
  -2.08468E+00 -1.12327E+00  2.73288E+00 -2.18446E-01 -2.64575E+00  8.89414E-01 -4.44191E-01  1.17748E+00  4.10736E-01  5.64845E-01
   5.22225E-01 -4.32697E-01  1.18287E+00  5.40529E+00  2.11191E+00 -3.27653E-02 -2.12070E+00  2.05944E+00  3.38367E-01 -1.33788E+00
  -2.72352E+00  2.34246E+00 -3.42949E+00 -3.20677E+00  1.35126E-01  1.67146E+00 -1.34371E+00 -9.01572E-02 -1.11228E+00  1.52321E+00
   1.84253E-01  5.48837E-01 -2.25586E+00 -8.44098E-01  4.79374E-01 -4.60344E+00 -1.35344E+00  9.08207E-01  1.71370E+00 -4.56039E-01
  -2.18484E+00 -2.25630E+00 -4.08244E+00 -2.20644E+00 -3.73247E-01 -1.85279E+00 -1.06159E+00 -8.47711E-01  3.71775E-01 -1.50808E+00
   1.73222E-01 -6.02110E-01  5.66855E-01 -2.64321E+00 -3.50175E+00  2.94150E+00  8.19046E-01 -1.11523E+00  1.46716E-01  2.95894E+00
   2.37830E+00 -1.11668E-01  4.02944E+00 -1.93975E+00 -1.10715E+00  1.11284E+00  1.10092E+00  3.93934E-01  3.74392E+00  5.50566E-01
   1.79514E-02 -3.11911E+00 -1.48055E-01  1.04585E+00 -3.62586E-01  2.57370E+00 -1.34018E+00  1.11803E+00 -1.47657E+00  2.56935E+00
  -3.72316E+00 -1.08512E+00  8.58272E-01 -6.75776E-01 -7.32756E-01 -1.68090E+00 -7.35264E-01 -2.93575E+00 -2.01421E+00 -2.50296E+00
  -1.53475E+00 -2.29672E+00 -6.55778E+00 -4.89760E+00 -3.44319E+00  3.03047E+00 -9.45233E-01  3.98350E+00  3.40193E+00  6.06809E+00
   3.09225E+00  1.19091E+01  8.73705E+00  6.67044E+00  9.69208E+00  5.78943E+00  5.68336E+00  3.78628E-01  2.98114E+00  6.81230E+00
   2.91573E+00  1.11725E+00 -2.78472E+00 -2.71258E-01 -2.48412E+00  1.38738E+00  8.62664E-01  6.08931E+00  2.01159E+00 -2.40001E+00
   2.01094E+00  7.83595E-01  2.87275E+00 -4.58703E-01  1.86982E+00  8.12699E-01  1.35877E+00 -5.65559E-01  3.19759E-01  1.80904E+00
  -7.72113E-03  3.11069E+00  4.07462E+00 -3.28226E+00 -4.96826E-01  1.03512E+00  3.50450E+00 -4.82627E-01 -9.26037E-01  1.56080E+00
   1.47268E+00  3.87935E+00  2.10129E+00 -1.01050E+00  2.44548E-01  2.23983E+00  1.71736E+00  3.42142E+00  4.27254E+00  4.26196E+00
   9.93602E-03 -2.55999E+00 -1.99279E-01 -1.98636E-01 -2.95583E-01  1.61942E+00  5.72134E-01  3.43745E+00  5.96800E+00  6.28640E+00
   3.83137E+00 -2.14509E-01  3.95296E+00  5.93399E+00  4.99382E+00  7.64334E+00  6.28502E+00  6.13739E+00  2.54892E+00  4.55600E+00
   6.82492E+00  5.68856E+00  4.36120E+00  7.00811E+00  4.90302E+00  5.01326E+00  5.96846E+00  3.01569E+00  5.58197E+00  4.72769E+00
   2.52241E+00  2.84859E+00  3.80342E+00  4.31634E+00  3.59588E+00  7.51480E+00  1.00492E+01  9.07679E+00  1.59991E+01  9.64704E+00
   1.26195E+01  1.18839E+01  1.35067E+01  1.26732E+01  1.00733E+01  1.00424E+01  1.04046E+01  6.51623E+00  7.42054E+00  1.29897E+01
   1.16271E+01  1.08187E+01  9.54580E+00  7.17329E+00  7.38424E+00  7.71861E+00  4.26416E+00  9.35459E+00  9.21116E+00  8.56968E+00
   8.14026E+00  6.49070E+00  5.01814E+00  6.10563E+00  6.92141E+00  7.16237E+00  8.64975E+00  9.18360E+00  3.03071E+00  7.69402E+00
   8.34779E+00  5.09238E+00  7.79159E+00  4.68067E+00  4.93417E+00  1.13760E+00  9.92615E+00  8.90372E+00  2.18856E+00  4.07094E+00
   7.94151E+00  7.76559E+00  6.20923E+00  4.17062E+00  9.99414E+00  4.61193E+00  7.04929E+00  5.11576E+00  6.00839E+00  5.84504E+00
   4.12173E+00  5.19225E+00  4.03209E+00  5.46383E+00  6.68403E+00  4.03532E+00  3.57536E+00  4.48935E+00  4.35848E-01  4.21322E+00
   2.22602E+00  1.71255E-03  2.98879E+00 -5.38937E-01  1.96944E+00  7.21917E-01  3.09306E+00 -3.02318E-01  5.66882E-01  2.31575E-01
   2.65065E+00  4.82596E+00 -1.45243E+00  6.36277E+00  4.13777E+00  4.98747E+00  5.16679E-01 -9.80342E-01 -4.36330E-02  1.37889E+00
   1.38944E+00  1.36984E+00 -1.15494E+00  2.02348E+00  4.77907E+00  1.28921E+00  3.19952E+00  1.08214E+00  1.86634E+00  1.68298E+00
   3.29021E+00  8.46648E-01  2.27439E+00  7.04749E-01 -2.47030E+00  1.06189E+00  1.30907E+00 -1.16682E+00  4.33868E+00  2.37282E+00
   1.03438E+00  1.81111E+00  1.54565E+00  2.22761E+00  7.74698E-01  6.66562E-01  1.39371E+00  2.79004E+00  2.03357E+00  4.97379E-01
   3.28616E-01  2.09135E+00  2.01186E+00  1.34147E+00  6.65303E-01  2.07869E+00  1.59576E+00  8.99626E-02 -1.11352E+00 -3.85916E-01
   4.23693E+00  1.40411E+00  6.51851E+00  2.01846E+00  9.64930E-01  4.43660E-01 -1.65834E-01  2.65324E+00  8.77997E-01  3.18666E-01
   1.60437E+00  4.10928E+00 -8.75369E-01  3.04490E-01  1.91753E+00  3.58460E-01 -1.14749E-01  3.63982E-02 -2.50672E-01 -2.14945E-01
   1.77707E+00  3.12552E+00 -4.66533E-01  5.10101E+00 -1.76025E+00 -1.70387E+00  2.42619E+00  2.01077E-01
 NY points of the fit to the data follow
   1.42106E+00  1.15125E+00  9.50682E-01  7.66318E-01  1.82310E-01 -4.48960E-01 -3.56471E-01  1.23781E-01  1.01439E+00  2.54318E+00
   3.77466E+00  4.42586E+00  4.76291E+00  4.24205E+00  3.25154E+00  2.40956E+00  1.81407E+00  1.51361E+00  1.37021E+00  1.25404E+00
   1.10249E+00  9.85500E-01  9.84687E-01  1.07833E+00  1.22954E+00  1.34458E+00  1.34951E+00  1.19371E+00  9.11787E-01  6.95727E-01
   6.30199E-01  7.17530E-01  1.01243E+00  1.36967E+00  1.61647E+00  1.78486E+00  1.79967E+00  1.61675E+00  1.39034E+00  1.22324E+00
   1.10279E+00  9.97743E-01  8.64881E-01  6.21395E-01  4.13150E-01  4.86501E-01  8.08273E-01  1.29075E+00  1.89270E+00  2.38168E+00
   2.59679E+00  2.52303E+00  2.15377E+00  1.64659E+00  1.19410E+00  8.59193E-01  6.99777E-01  6.80668E-01  7.43431E-01  9.28476E-01
   1.17170E+00  1.38957E+00  1.55755E+00  1.59813E+00  1.49091E+00  1.29491E+00  1.08517E+00  9.12554E-01  8.10529E-01  8.37324E-01
   9.06786E-01  9.52977E-01  1.05206E+00  1.15125E+00  1.22884E+00  1.34193E+00  1.42228E+00  1.42430E+00  1.38180E+00  1.31070E+00
   1.19868E+00  1.03638E+00  9.05467E-01  9.34373E-01  1.06956E+00  1.22607E+00  1.39110E+00  1.44422E+00  1.34734E+00  1.20397E+00
   1.00162E+00  7.85758E-01  6.68567E-01  6.75599E-01  7.46423E-01  8.18310E-01  7.71050E-01 -2.27371E-02 -1.28126E+00 -1.55967E+00
  -9.97993E-01  1.02641E-01  2.29226E+00  4.42106E+00  5.62429E+00  6.35761E+00  5.87175E+00  4.27752E+00  2.76779E+00  1.66344E+00
   1.11972E+00  9.83740E-01  9.32565E-01  9.05152E-01  8.95098E-01  8.97189E-01  9.00119E-01  8.87432E-01  8.69175E-01  8.38995E-01
   7.65008E-01  4.31906E-01 -7.00833E-01 -1.76786E+00 -1.64964E+00 -9.29752E-01  5.80961E-01  3.00020E+00  4.84376E+00  5.92268E+00
   6.41694E+00  5.43466E+00  3.82204E+00  2.43755E+00  1.48466E+00  1.05905E+00  9.00957E-01  8.16164E-01  7.75816E-01  7.70767E-01
   7.67340E-01  7.52896E-01  7.31342E-01  7.27745E-01  7.41527E-01  7.56812E-01  7.97103E-01  8.40266E-01  8.60410E-01  8.90463E-01
   9.08942E-01  8.77741E-01  8.24973E-01  7.54047E-01  6.39243E-01  5.73650E-01  6.19661E-01  6.95585E-01  7.90554E-01  8.82673E-01
   8.57443E-01  7.40294E-01  6.11415E-01  4.71632E-01  4.08775E-01  4.93847E-01  6.07497E-01  6.41866E-01  6.32186E-01  5.50398E-01
   4.57149E-01  4.85848E-01  5.75206E-01  6.09686E-01  6.25146E-01  5.94339E-01  5.01947E-01  4.53646E-01  4.49337E-01  4.04331E-01
   3.49826E-01  3.23506E-01  2.80293E-01  2.42785E-01  2.27272E-01  2.57879E-01  3.55862E-01  4.64668E-01  5.76612E-01  7.22198E-01
   8.38021E-01  9.69564E-01  1.12285E+00  1.17375E+00  1.12894E+00  9.93844E-01  7.83430E-01  5.94675E-01  4.49708E-01  3.74726E-01
   3.96409E-01  4.85586E-01  6.88707E-01  1.00106E+00  1.35799E+00  1.74757E+00  1.99317E+00  1.89583E+00  1.55106E+00  1.04985E+00
   3.80121E-01 -2.15766E-01 -5.23821E-01 -5.42874E-01 -2.47589E-01  2.72197E-01  7.88011E-01  1.19440E+00  1.43302E+00  1.43952E+00
   1.19495E+00  8.46796E-01  5.09118E-01  2.85063E-01  2.63628E-01  3.79553E-01  6.25032E-01  9.37563E-01  1.13437E+00  1.17975E+00
   1.08332E+00  9.10868E-01  8.19539E-01  7.57318E-01  7.03867E-01  7.23407E-01  7.22135E-01  7.39164E-01  8.73034E-01  9.69289E-01
   1.01212E+00  1.10636E+00  1.13305E+00  1.03184E+00  9.32667E-01  8.15415E-01  6.74629E-01  6.14890E-01  5.59476E-01  4.63018E-01
   6.12571E-02 -1.33319E+00 -2.59089E+00 -2.32876E+00 -1.36664E+00 -4.99980E-02  1.35363E+00  2.68060E+00  4.50177E+00  6.21252E+00
   7.42669E+00  8.60212E+00  8.89391E+00  8.98562E+00  8.64158E+00  6.68073E+00  4.46915E+00  2.69526E+00  1.60688E+00  1.20141E+00
   1.01624E+00  9.15894E-01  9.04125E-01  9.49808E-01  1.03333E+00  1.12434E+00  1.17980E+00  1.18417E+00  1.13875E+00  1.05958E+00
   9.84356E-01  9.35544E-01  9.22350E-01  9.54033E-01  1.00000E+00  1.04769E+00  1.10474E+00  1.13024E+00  1.11846E+00  1.10471E+00
   1.08357E+00  1.07004E+00  1.08713E+00  1.12102E+00  1.17372E+00  1.23942E+00  1.28388E+00  1.30727E+00  1.31174E+00  1.30014E+00
   1.29457E+00  1.29814E+00  1.30922E+00  1.33862E+00  1.37853E+00  1.42126E+00  1.46412E+00  1.50381E+00  1.54237E+00  1.58219E+00
   1.62408E+00  1.66863E+00  1.71640E+00  1.76743E+00  1.82162E+00  1.87931E+00  1.94075E+00  2.00625E+00  2.07653E+00  2.15205E+00
   2.23323E+00  2.32042E+00  2.41406E+00  2.51464E+00  2.62263E+00  2.73853E+00  2.86285E+00  2.99609E+00  3.13884E+00  3.29158E+00
   3.45468E+00  3.62842E+00  3.81304E+00  4.00875E+00  4.21558E+00  4.43337E+00  4.66175E+00  4.90016E+00  5.14779E+00  5.40330E+00
   5.66341E+00  5.91734E+00  6.10410E+00  6.20230E+00  6.67669E+00  7.68388E+00  8.78319E+00  1.00121E+01  1.12101E+01  1.18732E+01
   1.20919E+01  1.16293E+01  1.05359E+01  9.75697E+00  9.33910E+00  9.41559E+00  1.00863E+01  1.07157E+01  1.12140E+01  1.15926E+01
   1.14071E+01  1.08310E+01  1.01053E+01  9.39343E+00  8.83463E+00  8.39124E+00  8.01563E+00  7.68597E+00  7.38944E+00  7.11764E+00
   6.86527E+00  6.62934E+00  6.40864E+00  6.20309E+00  6.01332E+00  5.84023E+00  5.68480E+00  5.54791E+00  5.43033E+00  5.33255E+00
   5.25479E+00  5.19691E+00  5.15843E+00  5.13856E+00  5.13618E+00  5.14983E+00  5.17763E+00  5.21738E+00  5.26653E+00  5.32229E+00
   5.38164E+00  5.44138E+00  5.49822E+00  5.54884E+00  5.59006E+00  5.61893E+00  5.63282E+00  5.62947E+00  5.60712E+00  5.56456E+00
   5.50117E+00  5.41699E+00  5.31259E+00  5.18913E+00  5.04820E+00  4.89186E+00  4.72246E+00  4.54259E+00  4.35494E+00  4.16216E+00
   3.96683E+00  3.77140E+00  3.57809E+00  3.38882E+00  3.20522E+00  3.02860E+00  2.85996E+00  2.70001E+00  2.54923E+00  2.40780E+00
   2.27573E+00  2.15283E+00  2.03881E+00  1.93327E+00  1.83578E+00  1.74581E+00  1.66282E+00  1.58627E+00  1.51565E+00  1.45047E+00
   1.39025E+00  1.33454E+00  1.28293E+00  1.23501E+00  1.19048E+00  1.14902E+00  1.11034E+00  1.07420E+00  1.04034E+00  1.00857E+00
   9.78720E-01  9.50628E-01  9.24139E-01  8.99109E-01  8.75417E-01  8.52963E-01  8.31664E-01  8.11430E-01  7.92172E-01  7.73810E-01
   7.56282E-01  7.39539E-01  7.23534E-01  7.08211E-01  6.93516E-01  6.79405E-01  6.65848E-01  6.52820E-01  6.40290E-01  6.28219E-01
   6.16572E-01  6.05324E-01  5.94462E-01  5.83972E-01  5.73832E-01  5.64012E-01  5.54491E-01  5.45258E-01  5.36308E-01  5.27629E-01
   5.19201E-01  5.11002E-01  5.03019E-01  4.95253E-01  4.87700E-01  4.80350E-01  4.73183E-01  4.66186E-01  4.59354E-01  4.52690E-01
   4.46191E-01  4.39844E-01  4.33632E-01  4.27550E-01  4.21598E-01  4.15780E-01  4.10090E-01  4.04516E-01  3.99045E-01  3.93676E-01
   3.88413E-01  3.83259E-01  3.78205E-01  3.73238E-01  3.68352E-01  3.63549E-01  3.58835E-01  3.54208E-01
 NY background values follow
     9.547E-01    9.532E-01    9.516E-01    9.500E-01    9.484E-01    9.468E-01    9.452E-01    9.436E-01    9.420E-01    9.405E-01
     9.389E-01    9.373E-01    9.357E-01    9.341E-01    9.325E-01    9.309E-01    9.293E-01    9.278E-01    9.262E-01    9.246E-01
     9.230E-01    9.214E-01    9.198E-01    9.182E-01    9.166E-01    9.151E-01    9.135E-01    9.119E-01    9.103E-01    9.087E-01
     9.071E-01    9.055E-01    9.039E-01    9.023E-01    9.008E-01    8.992E-01    8.976E-01    8.960E-01    8.944E-01    8.928E-01
     8.912E-01    8.896E-01    8.881E-01    8.865E-01    8.849E-01    8.833E-01    8.817E-01    8.801E-01    8.785E-01    8.769E-01
     8.754E-01    8.738E-01    8.722E-01    8.706E-01    8.690E-01    8.674E-01    8.658E-01    8.642E-01    8.626E-01    8.611E-01
     8.595E-01    8.579E-01    8.563E-01    8.547E-01    8.531E-01    8.515E-01    8.499E-01    8.484E-01    8.468E-01    8.452E-01
     8.436E-01    8.420E-01    8.404E-01    8.388E-01    8.372E-01    8.357E-01    8.341E-01    8.325E-01    8.309E-01    8.293E-01
     8.277E-01    8.261E-01    8.245E-01    8.230E-01    8.214E-01    8.198E-01    8.182E-01    8.166E-01    8.150E-01    8.134E-01
     8.118E-01    8.103E-01    8.087E-01    8.071E-01    8.055E-01    8.039E-01    8.023E-01    8.007E-01    7.991E-01    7.976E-01
     7.960E-01    7.944E-01    7.928E-01    7.912E-01    7.896E-01    7.880E-01    7.864E-01    7.849E-01    7.833E-01    7.817E-01
     7.801E-01    7.785E-01    7.769E-01    7.753E-01    7.737E-01    7.722E-01    7.706E-01    7.690E-01    7.674E-01    7.658E-01
     7.642E-01    7.626E-01    7.610E-01    7.595E-01    7.579E-01    7.563E-01    7.547E-01    7.531E-01    7.515E-01    7.499E-01
     7.483E-01    7.468E-01    7.452E-01    7.436E-01    7.420E-01    7.404E-01    7.388E-01    7.372E-01    7.357E-01    7.341E-01
     7.325E-01    7.309E-01    7.293E-01    7.277E-01    7.261E-01    7.245E-01    7.230E-01    7.214E-01    7.198E-01    7.182E-01
     7.166E-01    7.150E-01    7.134E-01    7.119E-01    7.103E-01    7.087E-01    7.071E-01    7.055E-01    7.039E-01    7.023E-01
     7.007E-01    6.992E-01    6.976E-01    6.960E-01    6.944E-01    6.928E-01    6.912E-01    6.896E-01    6.881E-01    6.865E-01
     6.849E-01    6.833E-01    6.817E-01    6.801E-01    6.785E-01    6.770E-01    6.754E-01    6.738E-01    6.722E-01    6.706E-01
     6.690E-01    6.674E-01    6.658E-01    6.643E-01    6.627E-01    6.611E-01    6.595E-01    6.579E-01    6.563E-01    6.547E-01
     6.532E-01    6.516E-01    6.500E-01    6.484E-01    6.468E-01    6.452E-01    6.436E-01    6.421E-01    6.405E-01    6.389E-01
     6.373E-01    6.357E-01    6.341E-01    6.325E-01    6.310E-01    6.294E-01    6.278E-01    6.262E-01    6.246E-01    6.230E-01
     6.214E-01    6.199E-01    6.183E-01    6.167E-01    6.151E-01    6.135E-01    6.119E-01    6.104E-01    6.088E-01    6.072E-01
     6.056E-01    6.040E-01    6.024E-01    6.008E-01    5.993E-01    5.977E-01    5.961E-01    5.945E-01    5.929E-01    5.913E-01
     5.897E-01    5.882E-01    5.866E-01    5.850E-01    5.834E-01    5.818E-01    5.802E-01    5.787E-01    5.771E-01    5.755E-01
     5.739E-01    5.723E-01    5.707E-01    5.691E-01    5.676E-01    5.660E-01    5.644E-01    5.628E-01    5.612E-01    5.596E-01
     5.581E-01    5.565E-01    5.549E-01    5.533E-01    5.517E-01    5.501E-01    5.485E-01    5.470E-01    5.454E-01    5.438E-01
     5.422E-01    5.406E-01    5.390E-01    5.375E-01    5.359E-01    5.343E-01    5.327E-01    5.311E-01    5.295E-01    5.280E-01
     5.264E-01    5.248E-01    5.232E-01    5.216E-01    5.200E-01    5.185E-01    5.169E-01    5.153E-01    5.137E-01    5.121E-01
     5.105E-01    5.089E-01    5.074E-01    5.058E-01    5.042E-01    5.026E-01    5.010E-01    4.994E-01    4.979E-01    4.963E-01
     4.947E-01    4.931E-01    4.915E-01    4.899E-01    4.884E-01    4.868E-01    4.852E-01    4.836E-01    4.820E-01    4.804E-01
     4.789E-01    4.773E-01    4.757E-01    4.741E-01    4.725E-01    4.709E-01    4.694E-01    4.678E-01    4.662E-01    4.646E-01
     4.630E-01    4.614E-01    4.599E-01    4.583E-01    4.567E-01    4.551E-01    4.535E-01    4.519E-01    4.504E-01    4.488E-01
     4.472E-01    4.456E-01    4.440E-01    4.424E-01    4.409E-01    4.393E-01    4.377E-01    4.361E-01    4.345E-01    4.329E-01
     4.314E-01    4.298E-01    4.282E-01    4.266E-01    4.250E-01    4.234E-01    4.219E-01    4.203E-01    4.187E-01    4.171E-01
     4.155E-01    4.140E-01    4.124E-01    4.108E-01    4.092E-01    4.076E-01    4.060E-01    4.045E-01    4.029E-01    4.013E-01
     3.997E-01    3.981E-01    3.965E-01    3.950E-01    3.934E-01    3.918E-01    3.902E-01    3.886E-01    3.870E-01    3.855E-01
     3.839E-01    3.823E-01    3.807E-01    3.791E-01    3.775E-01    3.760E-01    3.744E-01    3.728E-01    3.712E-01    3.696E-01
     3.681E-01    3.665E-01    3.649E-01    3.633E-01    3.617E-01    3.601E-01    3.586E-01    3.570E-01    3.554E-01    3.538E-01
     3.522E-01    3.506E-01    3.491E-01    3.475E-01    3.459E-01    3.443E-01    3.427E-01    3.411E-01    3.396E-01    3.380E-01
     3.364E-01    3.348E-01    3.332E-01    3.317E-01    3.301E-01    3.285E-01    3.269E-01    3.253E-01    3.237E-01    3.222E-01
     3.206E-01    3.190E-01    3.174E-01    3.158E-01    3.142E-01    3.127E-01    3.111E-01    3.095E-01    3.079E-01    3.063E-01
     3.048E-01    3.032E-01    3.016E-01    3.000E-01    2.984E-01    2.968E-01    2.953E-01    2.937E-01    2.921E-01    2.905E-01
     2.889E-01    2.873E-01    2.858E-01    2.842E-01    2.826E-01    2.810E-01    2.794E-01    2.779E-01    2.763E-01    2.747E-01
     2.731E-01    2.715E-01    2.699E-01    2.684E-01    2.668E-01    2.652E-01    2.636E-01    2.620E-01    2.604E-01    2.589E-01
     2.573E-01    2.557E-01    2.541E-01    2.525E-01    2.510E-01    2.494E-01    2.478E-01    2.462E-01    2.446E-01    2.430E-01
     2.415E-01    2.399E-01    2.383E-01    2.367E-01    2.351E-01    2.336E-01    2.320E-01    2.304E-01    2.288E-01    2.272E-01
     2.256E-01    2.241E-01    2.225E-01    2.209E-01    2.193E-01    2.177E-01    2.161E-01    2.146E-01    2.130E-01    2.114E-01
     2.098E-01    2.082E-01    2.067E-01    2.051E-01    2.035E-01    2.019E-01    2.003E-01    1.987E-01    1.972E-01    1.956E-01
     1.940E-01    1.924E-01    1.908E-01    1.892E-01    1.877E-01    1.861E-01    1.845E-01    1.829E-01    1.813E-01    1.798E-01
     1.782E-01    1.766E-01    1.750E-01    1.734E-01    1.718E-01    1.703E-01    1.687E-01    1.671E-01
 Asp      Conc. = 2.66E+01
