 LCModel (Version 6.3-1L) Copyright: S.W. Provencher.          Ref.: Magn. Reson. Med. 30:672-679 (1993).                
 Slice#1 Row#9 Col#6  K_02_press_1_raw_act
 36 lines in following concentration table = NCONC+1
    Conc.  %SD /Cr+PCr  Metabolite                                         
  114.702  85%   0.111 Ala                                                 
   15.307 999% 1.5E-02 Asp                                                 
  490.695  31%   0.473 Cr                                                  
  547.265  29%   0.527 PCr                                                 
    0.000 999%   0.000 GABA                                                
  107.735 125%   0.104 Glc                                                 
  534.645  38%   0.515 Gln                                                 
 1.19E+03  19%   1.143 Glu                                                 
  422.223   5%   0.407 GPC                                                 
    0.000 999%   0.000 PCh                                                 
  367.978  19%   0.355 GSH                                                 
 1.13E+03  20%   1.089 Ins                                                 
    0.000 999%   0.000 Lac                                                 
 2.03E+03   6%   1.960 NAA                                                 
  424.852  26%   0.409 NAAG                                                
   53.706  48% 5.2E-02 Scyllo                                              
  222.806  81%   0.215 Tau                                                 
   79.315 123% 7.6E-02 -CrCH2                                              
  422.223   5%   0.407 GPC+PCh                                             
 2.46E+03   4%   2.369 NAA+NAAG                                            
 1.04E+03   6%   1.000 Cr+PCr                                              
 1.72E+03  18%   1.659 Glu+Gln                                             
 1.33E+03  37%   1.277 Lip13a                                              
    0.000 999%   0.000 Lip13b                                              
  365.758  62%   0.352 Lip09                                               
 1.20E+03  21%   1.156 MM09                                                
  170.672  91%   0.164 Lip20                                               
 1.55E+03  23%   1.489 MM20                                                
  293.927  65%   0.283 MM12                                                
 1.01E+03  35%   0.973 MM14                                                
  217.981  83%   0.210 MM17                                                
 1.33E+03  37%   1.277 Lip13a+Lip13b                                       
 2.63E+03  12%   2.533 MM14+Lip13a+Lip13b+MM12                             
 1.57E+03  11%   1.509 MM09+Lip09                                          
 1.72E+03  20%   1.654 MM20+Lip20                                          
   6 lines in following misc. output table
  FWHM = 0.038 ppm    S/N =  12                                            
  Data shift = 0.015 ppm                                                   
  Ph:  -9 deg      -3.4 deg/ppm                                            
  alphaB,S = 8.5E+01,   5.9E+01                                            
   14 spline knots.   Ns = 6(1)                                            
   4 inflections.     1 extrema                                            
  498 points on ppm-axis = NY
      4.000000     3.992357     3.984714     3.977070     3.969427     3.961784     3.954141     3.946497     3.938854     3.931211
      3.923568     3.915925     3.908281     3.900638     3.892995     3.885352     3.877708     3.870065     3.862422     3.854779
      3.847136     3.839492     3.831849     3.824206     3.816563     3.808919     3.801276     3.793633     3.785990     3.778347
      3.770703     3.763060     3.755417     3.747774     3.740130     3.732487     3.724844     3.717201     3.709558     3.701914
      3.694271     3.686628     3.678985     3.671341     3.663698     3.656055     3.648412     3.640769     3.633125     3.625482
      3.617839     3.610196     3.602552     3.594909     3.587266     3.579623     3.571980     3.564336     3.556693     3.549050
      3.541407     3.533763     3.526120     3.518477     3.510834     3.503191     3.495547     3.487904     3.480261     3.472618
      3.464974     3.457331     3.449688     3.442045     3.434402     3.426758     3.419115     3.411472     3.403829     3.396185
      3.388542     3.380899     3.373256     3.365613     3.357969     3.350326     3.342683     3.335040     3.327396     3.319753
      3.312110     3.304467     3.296824     3.289180     3.281537     3.273894     3.266251     3.258607     3.250964     3.243321
      3.235678     3.228034     3.220391     3.212748     3.205105     3.197462     3.189818     3.182175     3.174532     3.166889
      3.159245     3.151602     3.143959     3.136316     3.128673     3.121029     3.113386     3.105743     3.098100     3.090456
      3.082813     3.075170     3.067527     3.059884     3.052240     3.044597     3.036954     3.029311     3.021667     3.014024
      3.006381     2.998738     2.991095     2.983451     2.975808     2.968165     2.960522     2.952878     2.945235     2.937592
      2.929949     2.922306     2.914662     2.907019     2.899376     2.891733     2.884089     2.876446     2.868803     2.861160
      2.853517     2.845873     2.838230     2.830587     2.822944     2.815300     2.807657     2.800014     2.792371     2.784728
      2.777084     2.769441     2.761798     2.754155     2.746511     2.738868     2.731225     2.723582     2.715939     2.708295
      2.700652     2.693009     2.685366     2.677722     2.670079     2.662436     2.654793     2.647150     2.639506     2.631863
      2.624220     2.616577     2.608933     2.601290     2.593647     2.586004     2.578361     2.570717     2.563074     2.555431
      2.547788     2.540144     2.532501     2.524858     2.517215     2.509572     2.501928     2.494285     2.486642     2.478999
      2.471355     2.463712     2.456069     2.448426     2.440783     2.433139     2.425496     2.417853     2.410210     2.402566
      2.394923     2.387280     2.379637     2.371994     2.364350     2.356707     2.349064     2.341421     2.333777     2.326134
      2.318491     2.310848     2.303205     2.295561     2.287918     2.280275     2.272632     2.264988     2.257345     2.249702
      2.242059     2.234416     2.226772     2.219129     2.211486     2.203843     2.196199     2.188556     2.180913     2.173270
      2.165627     2.157983     2.150340     2.142697     2.135054     2.127410     2.119767     2.112124     2.104481     2.096838
      2.089194     2.081551     2.073908     2.066265     2.058621     2.050978     2.043335     2.035692     2.028049     2.020405
      2.012762     2.005119     1.997476     1.989833     1.982190     1.974546     1.966903     1.959260     1.951617     1.943974
      1.936331     1.928688     1.921045     1.913402     1.905759     1.898115     1.890472     1.882829     1.875186     1.867543
      1.859900     1.852257     1.844614     1.836971     1.829327     1.821684     1.814041     1.806398     1.798755     1.791112
      1.783469     1.775826     1.768183     1.760540     1.752896     1.745253     1.737610     1.729967     1.722324     1.714681
      1.707038     1.699395     1.691752     1.684108     1.676465     1.668822     1.661179     1.653536     1.645893     1.638250
      1.630607     1.622964     1.615321     1.607677     1.600034     1.592391     1.584748     1.577105     1.569462     1.561819
      1.554176     1.546533     1.538890     1.531246     1.523603     1.515960     1.508317     1.500674     1.493031     1.485388
      1.477745     1.470102     1.462458     1.454815     1.447172     1.439529     1.431886     1.424243     1.416600     1.408957
      1.401314     1.393671     1.386027     1.378384     1.370741     1.363098     1.355455     1.347812     1.340169     1.332526
      1.324883     1.317240     1.309596     1.301953     1.294310     1.286667     1.279024     1.271381     1.263738     1.256095
      1.248452     1.240808     1.233165     1.225522     1.217879     1.210236     1.202593     1.194950     1.187307     1.179664
      1.172021     1.164377     1.156734     1.149091     1.141448     1.133805     1.126162     1.118519     1.110876     1.103233
      1.095590     1.087946     1.080303     1.072660     1.065017     1.057374     1.049731     1.042088     1.034445     1.026802
      1.019158     1.011515     1.003872     0.996229     0.988586     0.980943     0.973300     0.965657     0.958014     0.950371
      0.942727     0.935084     0.927441     0.919798     0.912155     0.904512     0.896869     0.889226     0.881583     0.873940
      0.866296     0.858653     0.851010     0.843367     0.835724     0.828081     0.820438     0.812795     0.805152     0.797508
      0.789865     0.782222     0.774579     0.766936     0.759293     0.751650     0.744007     0.736364     0.728721     0.721077
      0.713434     0.705791     0.698148     0.690505     0.682862     0.675219     0.667576     0.659933     0.652290     0.644646
      0.637003     0.629360     0.621717     0.614074     0.606431     0.598788     0.591145     0.583502     0.575858     0.568215
      0.560572     0.552929     0.545286     0.537643     0.530000     0.522357     0.514714     0.507071     0.499427     0.491784
      0.484141     0.476498     0.468855     0.461212     0.453569     0.445925     0.438282     0.430639     0.422996     0.415353
      0.407710     0.400067     0.392424     0.384780     0.377137     0.369494     0.361851     0.354208     0.346565     0.338922
      0.331278     0.323635     0.315992     0.308349     0.300706     0.293063     0.285420     0.277777     0.270133     0.262490
      0.254847     0.247204     0.239561     0.231918     0.224275     0.216631     0.208988     0.201345
 NY phased data points follow
   1.31408E+01  1.49344E+01  1.19669E+01  2.13212E+01  1.67675E+01  1.86946E+01  2.32247E+01  2.85914E+01  2.90681E+01  3.15074E+01
   3.04244E+01  2.87120E+01  3.18326E+01  2.51550E+01  1.65611E+01  2.30839E+01  2.49701E+01  8.68723E+00  1.38829E+01  1.43764E+01
   1.03648E+01  1.10216E+01  1.40153E+01  1.39413E+01  1.62189E+01  1.83106E+01  1.33236E+01  1.30597E+01  1.92231E+01  1.97930E+01
   2.15838E+01  1.93562E+01  1.40976E+01  1.23398E+01  1.18924E+01  2.23840E+01  1.24288E+01  1.21330E+01  1.47780E+01  1.38639E+01
   1.46949E+01  1.40086E+01  1.50999E+01  2.13132E+01  2.06885E+01  1.85368E+01  1.90844E+01  2.30946E+01  2.23176E+01  1.70091E+01
   1.03966E+01  1.10700E+01  1.30862E+01  1.52160E+01  1.71457E+01  1.65975E+01  1.88035E+01  1.06071E+01  1.72805E+01  1.08808E+01
   1.16788E+01  1.09906E+01  1.74905E+01  3.96354E+00  1.18036E+01  7.58466E+00  8.97461E+00  1.12397E+01  1.09551E+01  3.13837E+00
   9.02465E+00  1.10667E+01  1.10448E+01  1.15393E+01  1.46043E+01  1.09324E+01  1.37089E+01  1.39878E+01  3.72819E+00  9.57020E+00
   1.61091E+01  5.01230E+00  8.32453E+00  7.29354E+00  9.91974E+00  1.11075E+01  9.66668E+00  1.33215E+01  1.07678E+01  1.08773E+01
   1.12097E+01  1.17029E+01  1.00386E+01  1.53436E+01  1.13841E+01  1.66295E+01  1.97604E+01  1.30007E+01  2.64098E+01  2.39298E+01
   3.75343E+01  5.00951E+01  6.01966E+01  5.37657E+01  4.17427E+01  2.87738E+01  2.54490E+01  2.24704E+01  2.08591E+01  1.49467E+01
   1.00802E+01  1.37688E+01  1.81217E+01  7.22833E+00  1.18588E+01  8.53663E+00  1.28550E+01  1.28752E+01  1.61242E+01  6.66106E+00
   1.13879E+01  1.72046E+01  1.61857E+01  2.06524E+01  3.16489E+01  3.79708E+01  5.21778E+01  4.78829E+01  4.42928E+01  3.42414E+01
   2.61867E+01  2.10365E+01  2.08515E+01  1.76163E+01  1.63216E+01  1.42986E+01  1.35315E+01  9.67198E+00  1.05440E+01  1.37959E+01
   7.00138E+00  6.37059E+00  1.47456E+01  1.36971E+01  1.13913E+01  1.06663E+01  1.17056E+01  5.96113E+00  9.13211E+00  7.92687E+00
   1.63776E+01  8.65008E+00  1.17109E+01  8.08877E+00  9.18496E+00  1.13954E+01  1.40731E+01  6.27728E+00  8.77165E+00  8.77821E+00
   8.11691E+00  2.23125E+00  1.26996E+00  1.38090E+01  1.15441E+01  1.74510E+01  1.41374E+01 -1.66538E+00  2.66856E+00  4.50181E+00
   3.89624E+00  2.92729E+00  2.95621E+00 -4.93822E+00 -6.12339E+00 -3.78209E+00 -5.74871E+00 -4.03704E+00 -1.40158E+00 -7.28211E+00
  -2.33451E+00  2.08953E+00 -8.05095E+00 -1.70128E+00  3.98009E+00  1.20175E+01  7.35138E+00  3.42752E+00  8.15556E+00 -1.18592E+00
   3.85364E+00  2.87951E+00  4.58197E+00  2.45358E+00  5.39911E+00  3.04326E+00 -5.82768E-01 -3.00433E+00  9.67214E-01 -1.53303E+00
   5.41431E+00  9.98662E+00  1.57662E+01  1.39599E+01  1.01867E+01  8.57724E+00  7.59399E+00  6.99320E+00  2.36893E+00  7.60814E+00
   4.68461E+00  6.80078E+00  8.69566E+00  9.10602E+00  1.08569E+01  1.92987E+01  2.04060E+01  1.71970E+01  1.45438E+01  1.30196E+01
   7.80956E+00  3.39944E-01  2.24955E+00  2.54795E+00  8.03954E+00  9.32990E+00  8.08015E+00  1.32127E+01  1.56612E+01  1.26466E+01
   1.29164E+01  1.43762E+01  1.32729E+01  1.28717E+01  1.28002E+01  1.16260E+01  1.59564E+01  1.11598E+01  8.93312E+00  8.56281E+00
   1.01883E+01  9.87111E+00  6.44254E+00  7.77874E+00  1.07783E+01  1.10967E+01  1.45851E+01  1.85429E+01  2.28420E+01  1.53352E+01
   2.12225E+01  1.39240E+01  1.96546E+01  3.20247E+01  3.27857E+01  4.89885E+01  5.36211E+01  5.94323E+01  7.47068E+01  9.05938E+01
   1.01290E+02  1.01419E+02  7.72583E+01  5.34148E+01  3.23585E+01  2.26895E+01  1.90734E+01  1.62915E+01  1.13987E+01  1.17077E+01
   1.16806E+01  1.03968E+01  7.34725E+00  1.21535E+01  5.89887E+00  7.94889E+00  9.88153E+00  1.21194E+01  9.67192E+00  7.75594E+00
   1.09859E+01  6.68284E+00  1.09486E+01  9.94861E+00  1.19207E+01  4.24050E+00  7.74371E+00  5.97337E+00  9.03797E+00  8.82454E+00
   9.61786E+00  1.53817E+01  6.17257E+00  7.91313E+00  8.98369E+00  1.26104E+01  7.35223E+00  4.87593E+00  1.15029E+01  8.41770E+00
   1.11040E+01  6.74824E+00  8.27514E+00  1.41799E+01  1.36247E+01  5.44257E+00  8.44423E+00  1.04236E+01  1.56134E+01  9.89781E+00
   3.55899E+00  8.59857E+00  1.13263E+01  1.38074E+01  9.44746E+00  8.80863E+00  1.01378E+01  9.62488E+00  5.97774E+00  2.92474E+00
   1.07737E+01  8.31736E+00  1.35154E+01  8.39919E+00  1.06982E+01  1.34052E+01  6.87874E+00  1.35047E+01  6.01923E+00  1.04542E+01
   9.95115E+00  1.05569E+01  1.44335E+01  9.53796E+00  1.05318E+01  1.47456E+01  1.57046E+01  1.43794E+01  1.72759E+01  1.51768E+01
   1.61164E+01  1.84845E+01  1.52882E+01  1.75716E+01  1.86383E+01  1.90167E+01  2.01231E+01  1.61883E+01  1.92583E+01  2.03302E+01
   2.22331E+01  1.24993E+01  2.05513E+01  2.16335E+01  2.00331E+01  1.79449E+01  1.52622E+01  1.43661E+01  9.49291E+00  1.30016E+01
   1.31421E+01  1.44873E+01  1.46981E+01  1.42607E+01  1.58883E+01  1.46945E+01  1.80694E+01  1.00755E+01  1.23075E+01  1.21958E+01
   1.65310E+01  1.50181E+01  1.47509E+01  6.99341E+00  1.19016E+01  1.36125E+01  1.21165E+01  3.53226E+00  3.49083E+00  9.19949E+00
   6.14725E+00  1.01884E+01  1.21694E+01  1.27407E+01  6.57278E+00  9.04052E+00  1.53042E+01  1.00552E+01  1.10012E+01  1.27611E+01
   1.73293E+01  2.06758E+01  1.49459E+01  1.70301E+01  1.64352E+01  1.22507E+01  1.73244E+01  1.89155E+01  2.10804E+01  1.84134E+01
   2.25802E+01  2.07688E+01  1.65915E+01  1.63472E+01  2.39783E+01  2.46943E+01  1.75621E+01  2.23607E+01  2.01508E+01  2.04327E+01
   1.46490E+01  1.28957E+01  1.05360E+01  1.88105E+01  1.34175E+01  1.24022E+01  1.37336E+01  8.41560E+00  9.56406E+00  9.64440E+00
   1.01639E+01  9.46071E+00  9.02191E+00  1.19015E+01  9.36176E+00  1.18097E+01  1.19019E+01  5.38038E+00  8.27118E+00  4.65518E+00
   7.08240E+00  1.33987E+01  8.05174E+00  1.36501E+01  6.59822E+00  1.18314E+01  1.27925E+01  9.32747E+00  9.21435E+00  4.54871E+00
   5.88057E+00  9.25850E+00  4.49638E+00  7.17851E+00  1.02298E+01  3.55450E+00  6.55716E+00  9.31493E+00  7.01689E+00  6.17602E+00
   6.33271E+00  1.08281E+01  9.63395E+00  6.67153E+00  1.42452E+01  8.66183E+00  5.80885E+00  8.37842E+00  5.85692E+00  8.59493E-01
   1.60761E+01  8.13112E+00  2.97985E+00  7.23211E+00  8.38264E+00  8.86052E+00  2.97253E+00  1.01325E+01  9.99759E+00  7.79357E+00
   5.32395E+00  1.07182E+01  3.40522E+00  2.34797E+00  7.53923E+00  2.58206E+00  1.15995E+01  9.37385E+00  1.14084E+01  1.03925E+01
   5.82902E+00  1.03474E+01  6.42822E+00  5.02355E+00  7.66926E+00  7.09271E+00  6.44868E+00  8.59233E+00  5.23866E+00  1.09051E+01
   4.48688E+00  1.13144E+00  1.06620E+01  2.77642E+00  9.95478E+00  7.34181E+00  8.90413E+00  8.48339E+00
 NY points of the fit to the data follow
   1.15276E+01  1.17505E+01  1.25438E+01  1.41211E+01  1.59712E+01  1.85564E+01  2.25684E+01  2.67931E+01  3.00729E+01  3.19898E+01
   3.23555E+01  3.11864E+01  2.85425E+01  2.48009E+01  2.08758E+01  1.75826E+01  1.54168E+01  1.43336E+01  1.34286E+01  1.26341E+01
   1.23540E+01  1.23037E+01  1.21991E+01  1.22859E+01  1.28552E+01  1.34362E+01  1.43737E+01  1.61713E+01  1.85370E+01  2.06213E+01
   2.15325E+01  2.11332E+01  1.99921E+01  1.86141E+01  1.70855E+01  1.54126E+01  1.35140E+01  1.18064E+01  1.07969E+01  1.04787E+01
   1.11193E+01  1.25801E+01  1.42226E+01  1.57421E+01  1.73923E+01  1.93558E+01  2.10061E+01  2.12166E+01  1.94917E+01  1.65551E+01
   1.37172E+01  1.18512E+01  1.09601E+01  1.06918E+01  1.07218E+01  1.10279E+01  1.15941E+01  1.23178E+01  1.30845E+01  1.36029E+01
   1.35502E+01  1.28527E+01  1.17417E+01  1.07624E+01  1.02688E+01  1.03188E+01  1.07293E+01  1.12122E+01  1.15887E+01  1.19695E+01
   1.24026E+01  1.27283E+01  1.28812E+01  1.28895E+01  1.27944E+01  1.25924E+01  1.21981E+01  1.16166E+01  1.09474E+01  1.04812E+01
   1.04661E+01  1.07913E+01  1.10221E+01  1.11553E+01  1.13167E+01  1.13334E+01  1.09939E+01  1.02781E+01  9.46105E+00  8.99830E+00
   9.13108E+00  9.56497E+00  9.93755E+00  1.01340E+01  1.02875E+01  1.08986E+01  1.32952E+01  1.80957E+01  2.31069E+01  2.95044E+01
   3.91566E+01  4.99724E+01  5.67046E+01  5.49692E+01  4.52663E+01  3.29025E+01  2.32818E+01  1.81330E+01  1.56020E+01  1.30456E+01
   1.05298E+01  9.59666E+00  9.34008E+00  9.23650E+00  9.18065E+00  9.14861E+00  9.16123E+00  9.21945E+00  9.37300E+00  9.79817E+00
   1.12278E+01  1.44714E+01  1.88606E+01  2.40280E+01  3.11698E+01  4.00554E+01  4.75515E+01  4.97072E+01  4.49432E+01  3.57546E+01
   2.67538E+01  2.07769E+01  1.74179E+01  1.46284E+01  1.14182E+01  8.91004E+00  7.84293E+00  7.86497E+00  8.58993E+00  9.54815E+00
   1.02848E+01  1.06210E+01  1.05507E+01  1.01897E+01  9.77498E+00  9.44680E+00  9.20013E+00  8.99989E+00  8.74714E+00  8.48513E+00
   8.26040E+00  8.04457E+00  7.84991E+00  7.73649E+00  7.72066E+00  7.70771E+00  7.72574E+00  7.72050E+00  7.44301E+00  6.87734E+00
   6.16619E+00  5.72577E+00  5.97062E+00  6.70343E+00  7.25601E+00  7.12428E+00  6.32011E+00  5.33955E+00  4.69022E+00  4.40028E+00
   4.25120E+00  4.06046E+00  3.81157E+00  3.39083E+00  2.77442E+00  2.22971E+00  2.24423E+00  2.93641E+00  3.70337E+00  3.87603E+00
   3.46023E+00  2.95298E+00  2.99388E+00  3.68626E+00  4.37545E+00  4.76348E+00  5.36339E+00  6.60906E+00  8.48897E+00  1.03738E+01
   1.14363E+01  1.14042E+01  1.04823E+01  9.26643E+00  8.27817E+00  7.62990E+00  7.37136E+00  7.62814E+00  8.45121E+00  9.64726E+00
   1.09795E+01  1.22446E+01  1.31828E+01  1.35785E+01  1.30688E+01  1.16714E+01  9.53047E+00  6.82002E+00  4.28927E+00  2.85748E+00
   2.87124E+00  4.24019E+00  6.33140E+00  8.93118E+00  1.19765E+01  1.47482E+01  1.59829E+01  1.48593E+01  1.17885E+01  8.23486E+00
   5.17421E+00  2.86674E+00  1.81849E+00  2.52146E+00  4.90791E+00  8.14776E+00  1.08336E+01  1.23201E+01  1.27168E+01  1.24756E+01
   1.20189E+01  1.17124E+01  1.17287E+01  1.21049E+01  1.27438E+01  1.33825E+01  1.37520E+01  1.36890E+01  1.32447E+01  1.25092E+01
   1.15139E+01  1.04759E+01  9.90156E+00  1.02025E+01  1.12891E+01  1.27256E+01  1.39055E+01  1.45381E+01  1.48518E+01  1.54743E+01
   1.70764E+01  1.89800E+01  2.14723E+01  2.58072E+01  3.43915E+01  4.60258E+01  5.43449E+01  6.23358E+01  7.55069E+01  9.16053E+01
   1.01319E+02  9.62691E+01  7.70723E+01  5.38400E+01  3.68095E+01  2.81825E+01  2.38322E+01  1.88026E+01  1.40336E+01  1.24378E+01
   1.18261E+01  1.14257E+01  1.11917E+01  1.11223E+01  1.10656E+01  1.09003E+01  1.06207E+01  1.03041E+01  1.00237E+01  9.81036E+00
   9.65577E+00  9.53422E+00  9.44929E+00  9.40092E+00  9.34509E+00  9.25240E+00  9.14484E+00  9.04609E+00  8.97209E+00  8.93068E+00
   8.93265E+00  8.98655E+00  9.06622E+00  9.12851E+00  9.16327E+00  9.17656E+00  9.17821E+00  9.17905E+00  9.18502E+00  9.20383E+00
   9.24565E+00  9.30269E+00  9.35978E+00  9.40634E+00  9.43954E+00  9.46278E+00  9.47810E+00  9.48358E+00  9.48407E+00  9.48369E+00
   9.48383E+00  9.48608E+00  9.49329E+00  9.50930E+00  9.53828E+00  9.58416E+00  9.65041E+00  9.74138E+00  9.86352E+00  1.00278E+01
   1.02574E+01  1.05878E+01  1.09312E+01  1.12372E+01  1.15881E+01  1.19178E+01  1.20138E+01  1.17335E+01  1.11607E+01  1.06679E+01
   1.05777E+01  1.08343E+01  1.13443E+01  1.21040E+01  1.31036E+01  1.42421E+01  1.52107E+01  1.57549E+01  1.59504E+01  1.60238E+01
   1.61467E+01  1.63348E+01  1.64893E+01  1.66004E+01  1.67390E+01  1.68878E+01  1.70302E+01  1.71588E+01  1.72681E+01  1.73534E+01
   1.74102E+01  1.74350E+01  1.74253E+01  1.73789E+01  1.72939E+01  1.71686E+01  1.70025E+01  1.67968E+01  1.65536E+01  1.62761E+01
   1.59676E+01  1.56321E+01  1.52746E+01  1.49011E+01  1.45176E+01  1.41299E+01  1.37433E+01  1.33628E+01  1.29934E+01  1.26403E+01
   1.23075E+01  1.19984E+01  1.17157E+01  1.14619E+01  1.12396E+01  1.10516E+01  1.08997E+01  1.07859E+01  1.07120E+01  1.06802E+01
   1.06935E+01  1.07547E+01  1.08664E+01  1.10308E+01  1.12502E+01  1.15269E+01  1.18625E+01  1.22573E+01  1.27098E+01  1.32170E+01
   1.37738E+01  1.43737E+01  1.50073E+01  1.56629E+01  1.63263E+01  1.69814E+01  1.76115E+01  1.81993E+01  1.87274E+01  1.91791E+01
   1.95393E+01  1.97959E+01  1.99402E+01  1.99674E+01  1.98763E+01  1.96695E+01  1.93534E+01  1.89382E+01  1.84371E+01  1.78650E+01
   1.72379E+01  1.65719E+01  1.58830E+01  1.51866E+01  1.44965E+01  1.38244E+01  1.31795E+01  1.25688E+01  1.19976E+01  1.14694E+01
   1.09857E+01  1.05463E+01  1.01498E+01  9.79382E+00  9.47595E+00  9.19338E+00  8.94284E+00  8.72087E+00  8.52401E+00  8.34935E+00
   8.19435E+00  8.05677E+00  7.93424E+00  7.82457E+00  7.72587E+00  7.63685E+00  7.55643E+00  7.48366E+00  7.41733E+00  7.35645E+00
   7.30027E+00  7.24848E+00  7.20072E+00  7.15658E+00  7.11535E+00  7.07662E+00  7.04015E+00  7.00602E+00  6.97404E+00  6.94393E+00
   6.91523E+00  6.88781E+00  6.86168E+00  6.83700E+00  6.81360E+00  6.79122E+00  6.76955E+00  6.74863E+00  6.72859E+00  6.70954E+00
   6.69125E+00  6.67349E+00  6.65610E+00  6.63925E+00  6.62307E+00  6.60760E+00  6.59255E+00  6.57775E+00  6.56317E+00  6.54905E+00
   6.53547E+00  6.52236E+00  6.50943E+00  6.49663E+00  6.48402E+00  6.47184E+00  6.46008E+00  6.44860E+00  6.43715E+00  6.42578E+00
   6.41460E+00  6.40383E+00  6.39335E+00  6.38299E+00  6.37258E+00  6.36225E+00  6.35217E+00  6.34244E+00  6.33286E+00  6.32330E+00
   6.31366E+00  6.30416E+00  6.29491E+00  6.28594E+00  6.27701E+00  6.26802E+00  6.25899E+00  6.25016E+00
 NY background values follow
     8.007E+00    8.002E+00    7.998E+00    7.993E+00    7.989E+00    7.985E+00    7.980E+00    7.976E+00    7.971E+00    7.967E+00
     7.963E+00    7.958E+00    7.954E+00    7.949E+00    7.945E+00    7.941E+00    7.936E+00    7.932E+00    7.927E+00    7.923E+00
     7.919E+00    7.914E+00    7.910E+00    7.905E+00    7.901E+00    7.897E+00    7.892E+00    7.888E+00    7.883E+00    7.879E+00
     7.875E+00    7.870E+00    7.866E+00    7.861E+00    7.857E+00    7.853E+00    7.848E+00    7.844E+00    7.839E+00    7.835E+00
     7.831E+00    7.826E+00    7.822E+00    7.817E+00    7.813E+00    7.809E+00    7.804E+00    7.800E+00    7.795E+00    7.791E+00
     7.787E+00    7.782E+00    7.778E+00    7.773E+00    7.769E+00    7.765E+00    7.760E+00    7.756E+00    7.751E+00    7.747E+00
     7.743E+00    7.738E+00    7.734E+00    7.729E+00    7.725E+00    7.721E+00    7.716E+00    7.712E+00    7.707E+00    7.703E+00
     7.699E+00    7.694E+00    7.690E+00    7.685E+00    7.681E+00    7.676E+00    7.672E+00    7.668E+00    7.663E+00    7.659E+00
     7.654E+00    7.650E+00    7.646E+00    7.641E+00    7.637E+00    7.632E+00    7.628E+00    7.624E+00    7.619E+00    7.615E+00
     7.610E+00    7.606E+00    7.602E+00    7.597E+00    7.593E+00    7.588E+00    7.584E+00    7.580E+00    7.575E+00    7.571E+00
     7.566E+00    7.562E+00    7.557E+00    7.553E+00    7.549E+00    7.544E+00    7.540E+00    7.535E+00    7.531E+00    7.527E+00
     7.522E+00    7.518E+00    7.513E+00    7.509E+00    7.505E+00    7.500E+00    7.496E+00    7.491E+00    7.487E+00    7.483E+00
     7.478E+00    7.474E+00    7.469E+00    7.465E+00    7.460E+00    7.456E+00    7.452E+00    7.447E+00    7.443E+00    7.438E+00
     7.434E+00    7.430E+00    7.425E+00    7.421E+00    7.416E+00    7.412E+00    7.408E+00    7.403E+00    7.399E+00    7.394E+00
     7.390E+00    7.386E+00    7.381E+00    7.377E+00    7.372E+00    7.368E+00    7.364E+00    7.359E+00    7.355E+00    7.350E+00
     7.346E+00    7.342E+00    7.337E+00    7.333E+00    7.328E+00    7.324E+00    7.320E+00    7.315E+00    7.311E+00    7.306E+00
     7.302E+00    7.298E+00    7.293E+00    7.289E+00    7.284E+00    7.280E+00    7.276E+00    7.271E+00    7.267E+00    7.262E+00
     7.258E+00    7.254E+00    7.249E+00    7.245E+00    7.240E+00    7.236E+00    7.232E+00    7.227E+00    7.223E+00    7.218E+00
     7.214E+00    7.210E+00    7.205E+00    7.201E+00    7.197E+00    7.192E+00    7.188E+00    7.183E+00    7.179E+00    7.175E+00
     7.170E+00    7.166E+00    7.162E+00    7.157E+00    7.153E+00    7.148E+00    7.144E+00    7.140E+00    7.135E+00    7.131E+00
     7.127E+00    7.122E+00    7.118E+00    7.113E+00    7.109E+00    7.105E+00    7.100E+00    7.096E+00    7.092E+00    7.087E+00
     7.083E+00    7.078E+00    7.074E+00    7.070E+00    7.065E+00    7.061E+00    7.057E+00    7.052E+00    7.048E+00    7.044E+00
     7.039E+00    7.035E+00    7.031E+00    7.026E+00    7.022E+00    7.017E+00    7.013E+00    7.009E+00    7.004E+00    7.000E+00
     6.996E+00    6.991E+00    6.987E+00    6.983E+00    6.978E+00    6.974E+00    6.970E+00    6.965E+00    6.961E+00    6.957E+00
     6.952E+00    6.948E+00    6.944E+00    6.939E+00    6.935E+00    6.931E+00    6.926E+00    6.922E+00    6.917E+00    6.913E+00
     6.909E+00    6.904E+00    6.900E+00    6.896E+00    6.891E+00    6.887E+00    6.883E+00    6.878E+00    6.874E+00    6.870E+00
     6.865E+00    6.861E+00    6.857E+00    6.853E+00    6.848E+00    6.844E+00    6.840E+00    6.835E+00    6.831E+00    6.827E+00
     6.822E+00    6.818E+00    6.814E+00    6.809E+00    6.805E+00    6.801E+00    6.796E+00    6.792E+00    6.788E+00    6.783E+00
     6.779E+00    6.775E+00    6.770E+00    6.766E+00    6.762E+00    6.757E+00    6.753E+00    6.749E+00    6.745E+00    6.740E+00
     6.736E+00    6.732E+00    6.727E+00    6.723E+00    6.719E+00    6.714E+00    6.710E+00    6.706E+00    6.701E+00    6.697E+00
     6.693E+00    6.689E+00    6.684E+00    6.680E+00    6.676E+00    6.671E+00    6.667E+00    6.663E+00    6.658E+00    6.654E+00
     6.650E+00    6.646E+00    6.641E+00    6.637E+00    6.633E+00    6.628E+00    6.624E+00    6.620E+00    6.616E+00    6.611E+00
     6.607E+00    6.603E+00    6.598E+00    6.594E+00    6.590E+00    6.586E+00    6.581E+00    6.577E+00    6.573E+00    6.568E+00
     6.564E+00    6.560E+00    6.556E+00    6.551E+00    6.547E+00    6.543E+00    6.538E+00    6.534E+00    6.530E+00    6.526E+00
     6.521E+00    6.517E+00    6.513E+00    6.508E+00    6.504E+00    6.500E+00    6.496E+00    6.491E+00    6.487E+00    6.483E+00
     6.478E+00    6.474E+00    6.470E+00    6.466E+00    6.461E+00    6.457E+00    6.453E+00    6.449E+00    6.444E+00    6.440E+00
     6.436E+00    6.431E+00    6.427E+00    6.423E+00    6.419E+00    6.414E+00    6.410E+00    6.406E+00    6.402E+00    6.397E+00
     6.393E+00    6.389E+00    6.385E+00    6.380E+00    6.376E+00    6.372E+00    6.367E+00    6.363E+00    6.359E+00    6.355E+00
     6.350E+00    6.346E+00    6.342E+00    6.338E+00    6.333E+00    6.329E+00    6.325E+00    6.321E+00    6.316E+00    6.312E+00
     6.308E+00    6.304E+00    6.299E+00    6.295E+00    6.291E+00    6.286E+00    6.282E+00    6.278E+00    6.274E+00    6.269E+00
     6.265E+00    6.261E+00    6.257E+00    6.252E+00    6.248E+00    6.244E+00    6.240E+00    6.235E+00    6.231E+00    6.227E+00
     6.223E+00    6.218E+00    6.214E+00    6.210E+00    6.206E+00    6.201E+00    6.197E+00    6.193E+00    6.189E+00    6.184E+00
     6.180E+00    6.176E+00    6.172E+00    6.167E+00    6.163E+00    6.159E+00    6.154E+00    6.150E+00    6.146E+00    6.142E+00
     6.137E+00    6.133E+00    6.129E+00    6.125E+00    6.120E+00    6.116E+00    6.112E+00    6.108E+00    6.103E+00    6.099E+00
     6.095E+00    6.091E+00    6.086E+00    6.082E+00    6.078E+00    6.074E+00    6.069E+00    6.065E+00    6.061E+00    6.057E+00
     6.052E+00    6.048E+00    6.044E+00    6.040E+00    6.035E+00    6.031E+00    6.027E+00    6.023E+00    6.018E+00    6.014E+00
     6.010E+00    6.006E+00    6.001E+00    5.997E+00    5.993E+00    5.989E+00    5.984E+00    5.980E+00    5.976E+00    5.972E+00
     5.967E+00    5.963E+00    5.959E+00    5.955E+00    5.950E+00    5.946E+00    5.942E+00    5.937E+00    5.933E+00    5.929E+00
     5.925E+00    5.920E+00    5.916E+00    5.912E+00    5.908E+00    5.903E+00    5.899E+00    5.895E+00    5.891E+00    5.886E+00
     5.882E+00    5.878E+00    5.874E+00    5.869E+00    5.865E+00    5.861E+00    5.857E+00    5.852E+00
 Ala      Conc. = 1.15E+02
