 LCModel (Version 6.3-1L) Copyright: S.W. Provencher.          Ref.: Magn. Reson. Med. 30:672-679 (1993).                
 Slice#3 Row#1 Col#10  K_02_press_1_raw_act
 36 lines in following concentration table = NCONC+1
    Conc.  %SD /Cr+PCr  Metabolite                                         
    0.000 999%   0.000 Ala                                                 
    6.416  92%   0.400 Asp                                                 
   16.030 304%   1.000 Cr                                                  
    0.000 999%   0.000 PCr                                                 
    3.849  92%   0.240 GABA                                                
    3.847  92%   0.240 Glc                                                 
    0.000 999%   0.000 Gln                                                 
  111.798 172%   6.974 Glu                                                 
    0.000 999%   0.000 GPC                                                 
   25.043  88%   1.562 PCh                                                 
    0.000 999%   0.000 GSH                                                 
    0.000 999%   0.000 Ins                                                 
   40.552 231%   2.530 Lac                                                 
   37.094 172%   2.314 NAA                                                 
    0.000 999%   0.000 NAAG                                                
    1.283  92% 8.0E-02 Scyllo                                              
    6.416  92%   0.400 Tau                                                 
    2.288 611%   0.143 -CrCH2                                              
   25.043  88%   1.562 GPC+PCh                                             
   37.094 172%   2.314 NAA+NAAG                                            
   16.030 304%   1.000 Cr+PCr                                              
  111.798 172%   6.974 Glu+Gln                                             
    0.000 999%   0.000 Lip13a                                              
    0.000 999%   0.000 Lip13b                                              
    0.000 999%   0.000 Lip09                                               
 4.64E+03  15% 289.483 MM09                                                
    0.000 999%   0.000 Lip20                                               
 4.13E+03  22% 257.781 MM20                                                
    0.000 999%   0.000 MM12                                                
    0.000 999%   0.000 MM14                                                
 1.47E+04  12% 917.632+MM17                                                
    0.000 999%   0.000 Lip13a+Lip13b                                       
    0.000 999%   0.000 MM14+Lip13a+Lip13b+MM12                             
 4.64E+03  15% 289.483 MM09+Lip09                                          
 4.13E+03  22% 257.781 MM20+Lip20                                          
   6 lines in following misc. output table
  FWHM = 0.038 ppm    S/N =   4                                            
  Data shift =-0.023 ppm                                                   
  Ph:  66 deg      50.8 deg/ppm                                            
  alphaB,S = 2.2E-01,   8.2E+00                                            
   14 spline knots.   Ns = 5(1)                                            
  ( 8) 2 infls.   ( 7) 1 extrs.                                            
  498 points on ppm-axis = NY
      4.000000     3.992357     3.984714     3.977070     3.969427     3.961784     3.954141     3.946497     3.938854     3.931211
      3.923568     3.915925     3.908281     3.900638     3.892995     3.885352     3.877708     3.870065     3.862422     3.854779
      3.847136     3.839492     3.831849     3.824206     3.816563     3.808919     3.801276     3.793633     3.785990     3.778347
      3.770703     3.763060     3.755417     3.747774     3.740130     3.732487     3.724844     3.717201     3.709558     3.701914
      3.694271     3.686628     3.678985     3.671341     3.663698     3.656055     3.648412     3.640769     3.633125     3.625482
      3.617839     3.610196     3.602552     3.594909     3.587266     3.579623     3.571980     3.564336     3.556693     3.549050
      3.541407     3.533763     3.526120     3.518477     3.510834     3.503191     3.495547     3.487904     3.480261     3.472618
      3.464974     3.457331     3.449688     3.442045     3.434402     3.426758     3.419115     3.411472     3.403829     3.396185
      3.388542     3.380899     3.373256     3.365613     3.357969     3.350326     3.342683     3.335040     3.327396     3.319753
      3.312110     3.304467     3.296824     3.289180     3.281537     3.273894     3.266251     3.258607     3.250964     3.243321
      3.235678     3.228034     3.220391     3.212748     3.205105     3.197462     3.189818     3.182175     3.174532     3.166889
      3.159245     3.151602     3.143959     3.136316     3.128673     3.121029     3.113386     3.105743     3.098100     3.090456
      3.082813     3.075170     3.067527     3.059884     3.052240     3.044597     3.036954     3.029311     3.021667     3.014024
      3.006381     2.998738     2.991095     2.983451     2.975808     2.968165     2.960522     2.952878     2.945235     2.937592
      2.929949     2.922306     2.914662     2.907019     2.899376     2.891733     2.884089     2.876446     2.868803     2.861160
      2.853517     2.845873     2.838230     2.830587     2.822944     2.815300     2.807657     2.800014     2.792371     2.784728
      2.777084     2.769441     2.761798     2.754155     2.746511     2.738868     2.731225     2.723582     2.715939     2.708295
      2.700652     2.693009     2.685366     2.677722     2.670079     2.662436     2.654793     2.647150     2.639506     2.631863
      2.624220     2.616577     2.608933     2.601290     2.593647     2.586004     2.578361     2.570717     2.563074     2.555431
      2.547788     2.540144     2.532501     2.524858     2.517215     2.509572     2.501928     2.494285     2.486642     2.478999
      2.471355     2.463712     2.456069     2.448426     2.440783     2.433139     2.425496     2.417853     2.410210     2.402566
      2.394923     2.387280     2.379637     2.371994     2.364350     2.356707     2.349064     2.341421     2.333777     2.326134
      2.318491     2.310848     2.303205     2.295561     2.287918     2.280275     2.272632     2.264988     2.257345     2.249702
      2.242059     2.234416     2.226772     2.219129     2.211486     2.203843     2.196199     2.188556     2.180913     2.173270
      2.165627     2.157983     2.150340     2.142697     2.135054     2.127410     2.119767     2.112124     2.104481     2.096838
      2.089194     2.081551     2.073908     2.066265     2.058621     2.050978     2.043335     2.035692     2.028049     2.020405
      2.012762     2.005119     1.997476     1.989833     1.982190     1.974546     1.966903     1.959260     1.951617     1.943974
      1.936331     1.928688     1.921045     1.913402     1.905759     1.898115     1.890472     1.882829     1.875186     1.867543
      1.859900     1.852257     1.844614     1.836971     1.829327     1.821684     1.814041     1.806398     1.798755     1.791112
      1.783469     1.775826     1.768183     1.760540     1.752896     1.745253     1.737610     1.729967     1.722324     1.714681
      1.707038     1.699395     1.691752     1.684108     1.676465     1.668822     1.661179     1.653536     1.645893     1.638250
      1.630607     1.622964     1.615321     1.607677     1.600034     1.592391     1.584748     1.577105     1.569462     1.561819
      1.554176     1.546533     1.538890     1.531246     1.523603     1.515960     1.508317     1.500674     1.493031     1.485388
      1.477745     1.470102     1.462458     1.454815     1.447172     1.439529     1.431886     1.424243     1.416600     1.408957
      1.401314     1.393671     1.386027     1.378384     1.370741     1.363098     1.355455     1.347812     1.340169     1.332526
      1.324883     1.317240     1.309596     1.301953     1.294310     1.286667     1.279024     1.271381     1.263738     1.256095
      1.248452     1.240808     1.233165     1.225522     1.217879     1.210236     1.202593     1.194950     1.187307     1.179664
      1.172021     1.164377     1.156734     1.149091     1.141448     1.133805     1.126162     1.118519     1.110876     1.103233
      1.095590     1.087946     1.080303     1.072660     1.065017     1.057374     1.049731     1.042088     1.034445     1.026802
      1.019158     1.011515     1.003872     0.996229     0.988586     0.980943     0.973300     0.965657     0.958014     0.950371
      0.942727     0.935084     0.927441     0.919798     0.912155     0.904512     0.896869     0.889226     0.881583     0.873940
      0.866296     0.858653     0.851010     0.843367     0.835724     0.828081     0.820438     0.812795     0.805152     0.797508
      0.789865     0.782222     0.774579     0.766936     0.759293     0.751650     0.744007     0.736364     0.728721     0.721077
      0.713434     0.705791     0.698148     0.690505     0.682862     0.675219     0.667576     0.659933     0.652290     0.644646
      0.637003     0.629360     0.621717     0.614074     0.606431     0.598788     0.591145     0.583502     0.575858     0.568215
      0.560572     0.552929     0.545286     0.537643     0.530000     0.522357     0.514714     0.507071     0.499427     0.491784
      0.484141     0.476498     0.468855     0.461212     0.453569     0.445925     0.438282     0.430639     0.422996     0.415353
      0.407710     0.400067     0.392424     0.384780     0.377137     0.369494     0.361851     0.354208     0.346565     0.338922
      0.331278     0.323635     0.315992     0.308349     0.300706     0.293063     0.285420     0.277777     0.270133     0.262490
      0.254847     0.247204     0.239561     0.231918     0.224275     0.216631     0.208988     0.201345
 NY phased data points follow
  -1.65192E+00 -2.62246E+00 -6.04465E+00 -3.04330E+00 -3.64304E+00 -1.33473E+00 -1.48519E+00 -3.79750E+00 -4.04704E+00 -3.28535E+00
   1.44417E+00 -5.73004E-01 -5.99574E+00 -4.53432E+00 -1.51800E+00 -4.58755E+00 -4.32394E+00 -2.67022E+00 -3.31407E-01 -6.47825E+00
  -2.63986E+00 -2.51834E+00 -3.20822E-01 -3.59639E+00 -6.80683E+00 -2.73294E+00 -6.26091E-01 -1.70119E+00 -2.29332E+00 -7.06587E-01
   2.86082E+00 -1.77696E+00 -1.41847E+00 -1.48742E+00 -6.63546E-01 -5.70255E+00 -1.60127E+00 -1.68857E+00 -7.30840E-01  9.78617E-01
  -1.20442E+00 -2.77119E+00  7.57833E-01 -2.38715E+00 -4.14597E+00 -2.64000E+00 -1.74117E+00  2.10783E+00 -6.10881E-01 -1.54386E+00
   8.17199E-01 -2.66416E-01 -1.80461E+00 -8.73941E-01 -3.30921E-01 -8.14348E-01  1.27502E+00 -3.66561E-01  1.07467E+00  1.79609E+00
  -1.28180E+00 -1.58308E-01 -9.13802E-01 -2.26221E-01  3.68846E-01 -2.63828E+00  1.46431E+00  9.50075E-01  3.72329E+00  9.15013E-02
   1.16465E+00  1.32586E+00 -1.34352E+00 -1.53625E-01  1.29262E+00 -9.16601E-01  3.77715E+00  2.09519E+00  2.12192E+00 -7.25227E-01
   1.28024E+00  2.45712E+00 -7.21236E-01 -6.82798E-01  7.49922E-01 -2.97849E+00  4.07553E+00  5.23170E+00  5.85036E+00  1.84834E+00
   3.83051E+00 -1.52985E+00  2.04024E+00  1.68112E+00 -3.46710E+00  1.34101E+00  3.56446E+00  4.24285E+00  4.44880E+00  2.03324E+00
   8.26880E-01  1.92757E+00  1.89754E+00  1.51639E+00 -1.57521E+00  1.58297E+00  3.68366E-01 -8.90032E-01 -5.95087E-01 -4.95688E+00
  -1.43851E+00  5.85697E-01  1.87439E+00  6.55565E+00  4.34556E+00  2.10997E+00  9.97058E-01  3.49953E-01  3.98705E+00  4.76803E+00
   3.87597E+00 -3.52105E-01  1.37593E+00  2.87629E+00  3.89823E+00  6.06898E+00  3.86669E+00  1.49545E+00  4.37449E+00  1.70362E+00
   1.06838E+00 -1.64505E+00 -5.50325E+00 -3.08657E+00 -4.26679E+00 -9.91899E-02  1.05226E-01  7.95319E+00  3.12353E+00  3.86558E+00
  -6.63480E-01  4.84527E+00  4.69948E+00  4.83752E+00  4.83157E+00  2.57495E+00  2.57518E+00  5.75209E-01  2.89376E+00  3.58234E+00
   4.66469E+00  9.61480E-01  5.98128E+00 -2.09515E+00  7.42162E+00  2.32418E-01 -4.18284E-01  3.24104E+00  7.74365E+00  6.75715E+00
   1.89956E+00  3.96830E+00  3.15177E+00  1.27768E+00  1.41643E+00  3.09956E+00  2.74776E+00  4.08440E+00  5.72817E+00  2.70515E+00
   7.64574E+00  2.18099E+00  5.49017E+00  5.02855E+00  6.83669E+00  8.75613E+00  6.86435E+00  4.60936E+00  3.78882E+00  3.19597E+00
   8.12726E+00  7.53066E+00  5.30074E+00  5.98753E+00  3.50703E+00  5.55785E+00  5.64718E+00  4.51783E+00  2.49937E+00  1.61701E+00
   6.30626E+00 -1.44786E+00  6.52148E+00  5.43887E+00  5.43273E+00  7.14112E+00  7.04632E+00  2.31314E+00  6.75560E+00  6.25575E+00
   5.53382E+00  6.32289E+00  4.34534E+00  3.45144E+00  5.93511E+00  4.87201E+00  6.63528E+00  5.65198E+00  8.25417E+00  8.90093E+00
   6.43420E+00  3.39201E+00  7.01681E+00  4.45662E+00  3.15980E+00  6.88601E+00  4.88535E+00  3.10325E+00 -1.52612E+00  4.37397E+00
   6.69050E+00  6.08185E+00  3.81672E+00  4.23584E+00  3.73852E+00  5.14612E+00  3.83814E+00  4.99701E+00  5.28684E+00  4.14071E+00
   3.15370E+00  1.99629E+00  4.79595E+00  1.03390E+00  3.69109E+00  2.10143E+00  1.45736E+00  9.34167E-01  1.72774E+00  2.97233E+00
   1.08668E+00  1.13312E+00  1.62471E+00 -6.72306E-02 -6.93027E-01  1.79623E+00  1.35275E+00  4.49979E+00 -3.78510E+00  1.60559E+00
   3.18176E-01 -3.14731E-01  3.93016E+00 -2.41112E+00  4.44600E+00 -1.60688E+00  3.79232E+00  1.40021E+00 -5.15888E-01 -2.31641E+00
  -2.12300E+00 -4.56069E+00 -3.38549E+00 -3.62360E+00 -6.44530E+00 -1.60243E+01 -1.25508E+01 -9.65075E+00 -3.52059E+00  1.28316E+00
   2.63587E+00 -3.19828E-03 -1.21914E+00 -5.28818E-01 -3.04099E+00 -1.34029E+00  1.30486E+00 -2.15022E+00 -9.43553E-01 -1.94782E+00
  -6.17097E+00 -3.16153E+00 -2.70167E+00 -5.09711E+00 -5.13573E+00 -5.85234E+00 -4.38281E+00 -5.42447E+00 -8.67107E+00 -6.05869E+00
  -6.16104E+00 -8.64731E+00 -9.17752E+00 -8.92154E+00 -1.13036E+01 -1.15873E+01 -1.03777E+01 -1.15245E+01 -1.24406E+01 -1.06038E+01
  -1.23426E+01 -1.58007E+01 -1.40201E+01 -1.53541E+01 -1.73731E+01 -1.63148E+01 -1.28238E+01 -1.43167E+01 -1.48402E+01 -1.52542E+01
  -1.53560E+01 -1.36969E+01 -1.75136E+01 -1.81157E+01 -2.22015E+01 -2.16275E+01 -2.97229E+01 -3.68493E+01 -3.46058E+01 -4.01037E+01
  -4.47627E+01 -3.93845E+01 -4.57172E+01 -3.94312E+01 -3.57919E+01 -3.61809E+01 -3.58845E+01 -3.70640E+01 -3.61538E+01 -3.94403E+01
  -3.77151E+01 -3.89666E+01 -4.34942E+01 -4.93435E+01 -4.85788E+01 -5.35901E+01 -5.26417E+01 -5.70097E+01 -5.61194E+01 -6.31866E+01
  -6.29620E+01 -6.47500E+01 -7.08585E+01 -7.11752E+01 -7.56688E+01 -7.72952E+01 -7.66628E+01 -8.13809E+01 -8.02612E+01 -7.77281E+01
  -7.98556E+01 -7.65898E+01 -7.67088E+01 -7.49774E+01 -7.23202E+01 -7.29761E+01 -7.00093E+01 -6.86956E+01 -6.65298E+01 -6.57160E+01
  -6.25206E+01 -6.04163E+01 -6.13648E+01 -5.94790E+01 -5.78498E+01 -6.17713E+01 -5.54879E+01 -5.34995E+01 -5.46570E+01 -5.10166E+01
  -5.04872E+01 -4.84702E+01 -4.95727E+01 -4.50120E+01 -5.06483E+01 -4.69399E+01 -4.46849E+01 -4.54377E+01 -4.15288E+01 -4.08396E+01
  -4.08577E+01 -3.93291E+01 -3.91609E+01 -3.81798E+01 -3.95243E+01 -3.64519E+01 -3.29383E+01 -3.39883E+01 -3.09110E+01 -3.07017E+01
  -2.93604E+01 -2.98684E+01 -2.92354E+01 -3.33725E+01 -3.20382E+01 -2.99402E+01 -2.99726E+01 -2.82100E+01 -2.71728E+01 -2.08944E+01
  -2.56559E+01 -2.35717E+01 -2.55657E+01 -2.32811E+01 -3.07949E+01 -2.29591E+01 -2.14528E+01 -2.06471E+01 -1.97722E+01 -2.16739E+01
  -2.32989E+01 -2.06665E+01 -2.46568E+01 -2.11533E+01 -2.06843E+01 -2.03986E+01 -1.77867E+01 -1.77982E+01 -1.60573E+01 -1.84180E+01
  -1.44656E+01 -1.69703E+01 -1.31256E+01 -1.41463E+01 -1.69321E+01 -1.39373E+01 -1.25749E+01 -1.04277E+01 -1.75013E+01 -1.17052E+01
  -1.02517E+01 -1.37928E+01 -1.09346E+01 -1.03623E+01 -9.78939E+00 -1.24700E+01 -8.04206E+00 -6.95543E+00 -1.23990E+01 -5.05606E+00
  -1.22008E+01 -6.76518E+00 -1.02904E+01 -9.16531E+00 -7.55004E+00 -1.01042E+01 -6.25316E+00 -5.51050E+00 -5.86392E+00 -1.07696E+01
  -7.27258E+00 -5.37183E+00 -8.77081E+00 -5.04639E+00 -1.02999E+01 -5.75109E+00 -7.45605E+00 -6.46891E+00 -6.43311E+00 -2.34384E+00
  -4.39917E+00 -7.00402E+00 -7.71173E+00 -1.29553E+00 -7.42841E-01 -5.03133E-01 -3.91808E+00 -4.26011E+00 -1.17979E+00 -5.89200E+00
  -2.95555E+00 -6.77016E+00 -3.46274E+00 -4.39031E+00 -6.39227E-01 -4.11926E+00 -5.31592E+00 -1.51839E+00 -2.80503E+00 -1.59264E+00
  -8.17207E+00 -4.08699E+00 -1.29116E+00 -3.45584E+00 -2.14630E-02 -3.34207E+00 -2.20827E+00  1.58493E-01  1.26872E+00  1.22462E+00
  -3.82834E+00 -1.10886E+00 -8.41456E-01 -6.07185E+00  2.15925E+00 -1.44917E+00 -1.13251E+00 -2.15818E+00
 NY points of the fit to the data follow
  -4.42924E-01 -5.00328E-01 -5.69339E-01 -6.43509E-01 -6.88931E-01 -6.66457E-01 -5.85026E-01 -5.78824E-01 -7.00389E-01 -8.92335E-01
  -1.09385E+00 -1.27264E+00 -1.42041E+00 -1.53173E+00 -1.59223E+00 -1.57790E+00 -1.49511E+00 -1.41524E+00 -1.40481E+00 -1.42093E+00
  -1.43401E+00 -1.46207E+00 -1.56466E+00 -1.71809E+00 -1.82569E+00 -1.84133E+00 -1.75644E+00 -1.58307E+00 -1.39805E+00 -1.28419E+00
  -1.31462E+00 -1.47290E+00 -1.71129E+00 -1.96392E+00 -2.09025E+00 -2.03880E+00 -1.89455E+00 -1.73095E+00 -1.59099E+00 -1.51112E+00
  -1.51030E+00 -1.57029E+00 -1.63767E+00 -1.69574E+00 -1.71523E+00 -1.67656E+00 -1.61990E+00 -1.57249E+00 -1.53178E+00 -1.49653E+00
  -1.46663E+00 -1.44261E+00 -1.41899E+00 -1.39857E+00 -1.38148E+00 -1.35991E+00 -1.33307E+00 -1.29784E+00 -1.25060E+00 -1.20229E+00
  -1.15553E+00 -1.10806E+00 -1.06325E+00 -1.02219E+00 -9.80443E-01 -9.39259E-01 -8.95498E-01 -8.45181E-01 -7.88566E-01 -7.24323E-01
  -6.48531E-01 -5.73066E-01 -5.13379E-01 -4.69108E-01 -4.30494E-01 -3.89430E-01 -3.38142E-01 -2.68815E-01 -1.85871E-01 -9.29638E-02
   1.55464E-02  1.39007E-01  2.39904E-01  3.06016E-01  3.54706E-01  4.02584E-01  4.61666E-01  5.37472E-01  6.25019E-01  7.24388E-01
   8.48039E-01  1.00426E+00  1.18732E+00  1.39029E+00  1.62231E+00  1.89403E+00  2.25109E+00  2.83249E+00  3.84683E+00  4.66155E+00
   4.63789E+00  3.93289E+00  2.93644E+00  1.93471E+00  1.09446E+00  5.05460E-01  2.35431E-01  3.83723E-01  9.82053E-01  1.75982E+00
   2.19920E+00  2.36006E+00  2.50799E+00  2.66324E+00  2.81777E+00  2.96755E+00  3.11570E+00  3.26262E+00  3.40752E+00  3.55576E+00
   3.72022E+00  3.93880E+00  4.24499E+00  4.46714E+00  4.49247E+00  4.36607E+00  4.16581E+00  3.94570E+00  3.73994E+00  3.57191E+00
   3.46501E+00  3.44736E+00  3.52113E+00  3.61551E+00  3.62563E+00  3.58852E+00  3.54566E+00  3.49553E+00  3.44127E+00  3.38851E+00
   3.34035E+00  3.29795E+00  3.25637E+00  3.21347E+00  3.17438E+00  3.14164E+00  3.11475E+00  3.09380E+00  3.08029E+00  3.07710E+00
   3.08379E+00  3.09840E+00  3.11806E+00  3.13981E+00  3.16328E+00  3.18571E+00  3.20545E+00  3.23480E+00  3.28200E+00  3.34654E+00
   3.42341E+00  3.49554E+00  3.55826E+00  3.61357E+00  3.66235E+00  3.70384E+00  3.73878E+00  3.77307E+00  3.81422E+00  3.86060E+00
   3.90745E+00  3.94575E+00  3.98059E+00  4.02918E+00  4.08357E+00  4.13016E+00  4.16027E+00  4.18352E+00  4.20946E+00  4.23804E+00
   4.26212E+00  4.27176E+00  4.26801E+00  4.27596E+00  4.29939E+00  4.31824E+00  4.32239E+00  4.31235E+00  4.29661E+00  4.28008E+00
   4.26212E+00  4.24098E+00  4.21595E+00  4.18320E+00  4.14695E+00  4.10474E+00  4.05691E+00  4.00962E+00  3.97344E+00  3.95586E+00
   3.94711E+00  3.92944E+00  3.86938E+00  3.77954E+00  3.65750E+00  3.50227E+00  3.35892E+00  3.26754E+00  3.25760E+00  3.36868E+00
   3.61079E+00  3.94680E+00  4.13028E+00  4.04972E+00  3.75942E+00  3.31723E+00  2.77127E+00  2.17997E+00  1.71323E+00  1.59572E+00
   1.86081E+00  2.34749E+00  2.86578E+00  3.23538E+00  3.46149E+00  3.54018E+00  3.44623E+00  3.20688E+00  2.93231E+00  2.76343E+00
   2.73057E+00  2.76158E+00  2.81485E+00  2.88593E+00  2.95193E+00  2.98298E+00  2.98045E+00  2.96726E+00  2.96895E+00  3.03350E+00
   3.16695E+00  3.32502E+00  3.46126E+00  3.56157E+00  3.59253E+00  3.50930E+00  3.31065E+00  3.05823E+00  2.80545E+00  2.56738E+00
   2.34320E+00  2.08600E+00  1.76306E+00  1.36766E+00  9.91396E-01  8.52079E-01  8.72937E-01  6.43274E-01  5.30756E-02 -8.02383E-01
  -1.83912E+00 -2.96668E+00 -4.09086E+00 -5.14839E+00 -6.04940E+00 -6.65881E+00 -6.98054E+00 -7.26313E+00 -7.62486E+00 -7.93767E+00
  -8.18767E+00 -8.39675E+00 -8.55766E+00 -8.66949E+00 -8.74389E+00 -8.78257E+00 -8.78262E+00 -8.73466E+00 -8.62822E+00 -8.45633E+00
  -8.22546E+00 -7.94742E+00 -7.63071E+00 -7.28518E+00 -6.92151E+00 -6.55017E+00 -6.18265E+00 -5.82849E+00 -5.49731E+00 -5.20262E+00
  -4.95732E+00 -4.77369E+00 -4.66469E+00 -4.64340E+00 -4.72127E+00 -4.90777E+00 -5.21151E+00 -5.63964E+00 -6.19645E+00 -6.88426E+00
  -7.70370E+00 -8.65274E+00 -9.72720E+00 -1.09208E+01 -1.22252E+01 -1.36306E+01 -1.51258E+01 -1.66982E+01 -1.83349E+01 -2.00223E+01
  -2.17470E+01 -2.34958E+01 -2.52558E+01 -2.70148E+01 -2.87619E+01 -3.04867E+01 -3.21803E+01 -3.38348E+01 -3.54437E+01 -3.70018E+01
  -3.85046E+01 -3.99491E+01 -4.13331E+01 -4.26553E+01 -4.39149E+01 -4.51123E+01 -4.62479E+01 -4.73229E+01 -4.83384E+01 -4.92960E+01
  -5.01975E+01 -5.10448E+01 -5.18394E+01 -5.25833E+01 -5.32777E+01 -5.39242E+01 -5.45235E+01 -5.50759E+01 -5.55805E+01 -5.60338E+01
  -5.64261E+01 -5.67270E+01 -5.68852E+01 -5.70663E+01 -5.74602E+01 -5.80205E+01 -5.86337E+01 -5.92248E+01 -5.97629E+01 -6.02078E+01
  -6.03504E+01 -6.01284E+01 -5.96898E+01 -5.92298E+01 -5.89376E+01 -5.88119E+01 -5.87597E+01 -5.87630E+01 -5.88126E+01 -5.88680E+01
  -5.88300E+01 -5.86188E+01 -5.83281E+01 -5.80224E+01 -5.76880E+01 -5.73183E+01 -5.69105E+01 -5.64629E+01 -5.59742E+01 -5.54427E+01
  -5.48670E+01 -5.42453E+01 -5.35760E+01 -5.28574E+01 -5.20877E+01 -5.12653E+01 -5.03888E+01 -4.94570E+01 -4.84692E+01 -4.74250E+01
  -4.63248E+01 -4.51697E+01 -4.39618E+01 -4.27041E+01 -4.14008E+01 -4.00573E+01 -3.86802E+01 -3.72772E+01 -3.58575E+01 -3.44311E+01
  -3.30089E+01 -3.16026E+01 -3.02242E+01 -2.88857E+01 -2.75989E+01 -2.63752E+01 -2.52246E+01 -2.41560E+01 -2.31768E+01 -2.22924E+01
  -2.15063E+01 -2.08200E+01 -2.02327E+01 -1.97419E+01 -1.93429E+01 -1.90298E+01 -1.87949E+01 -1.86299E+01 -1.85253E+01 -1.84712E+01
  -1.84577E+01 -1.84751E+01 -1.85140E+01 -1.85657E+01 -1.86224E+01 -1.86770E+01 -1.87237E+01 -1.87574E+01 -1.87740E+01 -1.87705E+01
  -1.87446E+01 -1.86948E+01 -1.86202E+01 -1.85207E+01 -1.83964E+01 -1.82479E+01 -1.80762E+01 -1.78825E+01 -1.76679E+01 -1.74339E+01
  -1.71820E+01 -1.69136E+01 -1.66302E+01 -1.63333E+01 -1.60242E+01 -1.57044E+01 -1.53750E+01 -1.50374E+01 -1.46925E+01 -1.43416E+01
  -1.39856E+01 -1.36254E+01 -1.32620E+01 -1.28961E+01 -1.25286E+01 -1.21601E+01 -1.17913E+01 -1.14229E+01 -1.10555E+01 -1.06895E+01
  -1.03256E+01 -9.96415E+00 -9.60569E+00 -9.25055E+00 -8.89882E+00 -8.55061E+00 -8.20595E+00 -7.86490E+00 -7.52748E+00 -7.19368E+00
  -6.86351E+00 -6.53696E+00 -6.21400E+00 -5.89461E+00 -5.57874E+00 -5.26634E+00 -4.95734E+00 -4.65171E+00 -4.34937E+00 -4.05024E+00
  -3.75425E+00 -3.46131E+00 -3.17135E+00 -2.88427E+00 -2.59998E+00 -2.31840E+00 -2.03941E+00 -1.76293E+00 -1.48885E+00 -1.21709E+00
  -9.47526E-01 -6.80061E-01 -4.14582E-01 -1.50990E-01  1.10818E-01  3.70944E-01  6.29500E-01  8.86596E-01  1.14234E+00  1.39683E+00
   1.65017E+00  1.90247E+00  2.15383E+00  2.40437E+00  2.65418E+00  2.90335E+00  3.15199E+00  3.40021E+00
 NY background values follow
    -7.015E+00   -7.098E+00   -7.178E+00   -7.256E+00   -7.332E+00   -7.405E+00   -7.477E+00   -7.546E+00   -7.613E+00   -7.678E+00
    -7.741E+00   -7.802E+00   -7.861E+00   -7.917E+00   -7.972E+00   -8.024E+00   -8.075E+00   -8.123E+00   -8.170E+00   -8.214E+00
    -8.257E+00   -8.297E+00   -8.336E+00   -8.372E+00   -8.407E+00   -8.440E+00   -8.471E+00   -8.501E+00   -8.528E+00   -8.554E+00
    -8.578E+00   -8.600E+00   -8.621E+00   -8.640E+00   -8.657E+00   -8.673E+00   -8.687E+00   -8.700E+00   -8.711E+00   -8.720E+00
    -8.729E+00   -8.736E+00   -8.741E+00   -8.745E+00   -8.748E+00   -8.750E+00   -8.750E+00   -8.749E+00   -8.748E+00   -8.744E+00
    -8.740E+00   -8.735E+00   -8.728E+00   -8.721E+00   -8.712E+00   -8.702E+00   -8.692E+00   -8.680E+00   -8.667E+00   -8.653E+00
    -8.639E+00   -8.623E+00   -8.606E+00   -8.589E+00   -8.570E+00   -8.551E+00   -8.531E+00   -8.509E+00   -8.487E+00   -8.465E+00
    -8.441E+00   -8.417E+00   -8.391E+00   -8.365E+00   -8.339E+00   -8.311E+00   -8.283E+00   -8.254E+00   -8.224E+00   -8.194E+00
    -8.163E+00   -8.131E+00   -8.099E+00   -8.066E+00   -8.032E+00   -7.998E+00   -7.963E+00   -7.928E+00   -7.892E+00   -7.855E+00
    -7.818E+00   -7.780E+00   -7.742E+00   -7.703E+00   -7.664E+00   -7.624E+00   -7.584E+00   -7.543E+00   -7.502E+00   -7.460E+00
    -7.418E+00   -7.376E+00   -7.333E+00   -7.289E+00   -7.245E+00   -7.200E+00   -7.156E+00   -7.110E+00   -7.064E+00   -7.018E+00
    -6.972E+00   -6.925E+00   -6.877E+00   -6.829E+00   -6.781E+00   -6.732E+00   -6.683E+00   -6.634E+00   -6.584E+00   -6.534E+00
    -6.483E+00   -6.432E+00   -6.381E+00   -6.329E+00   -6.277E+00   -6.224E+00   -6.171E+00   -6.118E+00   -6.064E+00   -6.010E+00
    -5.956E+00   -5.901E+00   -5.846E+00   -5.790E+00   -5.734E+00   -5.678E+00   -5.621E+00   -5.564E+00   -5.507E+00   -5.449E+00
    -5.392E+00   -5.334E+00   -5.277E+00   -5.221E+00   -5.164E+00   -5.109E+00   -5.054E+00   -4.999E+00   -4.946E+00   -4.894E+00
    -4.843E+00   -4.793E+00   -4.745E+00   -4.698E+00   -4.653E+00   -4.610E+00   -4.569E+00   -4.530E+00   -4.493E+00   -4.459E+00
    -4.427E+00   -4.398E+00   -4.371E+00   -4.348E+00   -4.328E+00   -4.310E+00   -4.297E+00   -4.287E+00   -4.280E+00   -4.277E+00
    -4.279E+00   -4.284E+00   -4.294E+00   -4.308E+00   -4.327E+00   -4.351E+00   -4.379E+00   -4.413E+00   -4.451E+00   -4.495E+00
    -4.545E+00   -4.601E+00   -4.662E+00   -4.729E+00   -4.802E+00   -4.881E+00   -4.966E+00   -5.056E+00   -5.153E+00   -5.256E+00
    -5.365E+00   -5.480E+00   -5.601E+00   -5.729E+00   -5.862E+00   -6.002E+00   -6.148E+00   -6.300E+00   -6.458E+00   -6.623E+00
    -6.794E+00   -6.971E+00   -7.154E+00   -7.344E+00   -7.540E+00   -7.743E+00   -7.952E+00   -8.167E+00   -8.389E+00   -8.617E+00
    -8.852E+00   -9.093E+00   -9.341E+00   -9.595E+00   -9.855E+00   -1.012E+01   -1.040E+01   -1.068E+01   -1.096E+01   -1.126E+01
    -1.155E+01   -1.186E+01   -1.217E+01   -1.249E+01   -1.282E+01   -1.315E+01   -1.349E+01   -1.383E+01   -1.418E+01   -1.454E+01
    -1.491E+01   -1.528E+01   -1.565E+01   -1.604E+01   -1.643E+01   -1.682E+01   -1.722E+01   -1.763E+01   -1.804E+01   -1.846E+01
    -1.889E+01   -1.932E+01   -1.975E+01   -2.020E+01   -2.064E+01   -2.109E+01   -2.155E+01   -2.202E+01   -2.248E+01   -2.296E+01
    -2.344E+01   -2.392E+01   -2.441E+01   -2.490E+01   -2.540E+01   -2.590E+01   -2.641E+01   -2.692E+01   -2.744E+01   -2.796E+01
    -2.849E+01   -2.901E+01   -2.955E+01   -3.009E+01   -3.063E+01   -3.117E+01   -3.172E+01   -3.227E+01   -3.283E+01   -3.339E+01
    -3.395E+01   -3.452E+01   -3.509E+01   -3.567E+01   -3.624E+01   -3.682E+01   -3.740E+01   -3.798E+01   -3.857E+01   -3.915E+01
    -3.974E+01   -4.033E+01   -4.092E+01   -4.151E+01   -4.210E+01   -4.269E+01   -4.327E+01   -4.386E+01   -4.445E+01   -4.504E+01
    -4.562E+01   -4.620E+01   -4.678E+01   -4.736E+01   -4.794E+01   -4.851E+01   -4.908E+01   -4.965E+01   -5.021E+01   -5.077E+01
    -5.132E+01   -5.187E+01   -5.242E+01   -5.296E+01   -5.349E+01   -5.402E+01   -5.455E+01   -5.506E+01   -5.557E+01   -5.608E+01
    -5.658E+01   -5.707E+01   -5.755E+01   -5.802E+01   -5.849E+01   -5.895E+01   -5.940E+01   -5.984E+01   -6.027E+01   -6.069E+01
    -6.110E+01   -6.151E+01   -6.190E+01   -6.228E+01   -6.265E+01   -6.301E+01   -6.336E+01   -6.370E+01   -6.402E+01   -6.434E+01
    -6.464E+01   -6.493E+01   -6.520E+01   -6.547E+01   -6.572E+01   -6.596E+01   -6.618E+01   -6.639E+01   -6.658E+01   -6.677E+01
    -6.693E+01   -6.709E+01   -6.722E+01   -6.734E+01   -6.745E+01   -6.754E+01   -6.762E+01   -6.767E+01   -6.772E+01   -6.774E+01
    -6.775E+01   -6.774E+01   -6.772E+01   -6.767E+01   -6.761E+01   -6.753E+01   -6.744E+01   -6.732E+01   -6.719E+01   -6.704E+01
    -6.687E+01   -6.668E+01   -6.647E+01   -6.624E+01   -6.599E+01   -6.573E+01   -6.545E+01   -6.515E+01   -6.483E+01   -6.450E+01
    -6.415E+01   -6.378E+01   -6.340E+01   -6.300E+01   -6.259E+01   -6.217E+01   -6.173E+01   -6.128E+01   -6.082E+01   -6.034E+01
    -5.986E+01   -5.936E+01   -5.885E+01   -5.833E+01   -5.780E+01   -5.726E+01   -5.671E+01   -5.615E+01   -5.558E+01   -5.501E+01
    -5.443E+01   -5.384E+01   -5.324E+01   -5.264E+01   -5.203E+01   -5.142E+01   -5.080E+01   -5.018E+01   -4.955E+01   -4.892E+01
    -4.828E+01   -4.765E+01   -4.701E+01   -4.637E+01   -4.572E+01   -4.508E+01   -4.443E+01   -4.379E+01   -4.314E+01   -4.249E+01
    -4.185E+01   -4.120E+01   -4.056E+01   -3.991E+01   -3.927E+01   -3.863E+01   -3.799E+01   -3.735E+01   -3.672E+01   -3.608E+01
    -3.545E+01   -3.482E+01   -3.419E+01   -3.357E+01   -3.295E+01   -3.233E+01   -3.172E+01   -3.111E+01   -3.050E+01   -2.990E+01
    -2.930E+01   -2.870E+01   -2.811E+01   -2.753E+01   -2.695E+01   -2.637E+01   -2.580E+01   -2.524E+01   -2.468E+01   -2.412E+01
    -2.357E+01   -2.303E+01   -2.250E+01   -2.197E+01   -2.144E+01   -2.093E+01   -2.042E+01   -1.991E+01   -1.942E+01   -1.893E+01
    -1.845E+01   -1.798E+01   -1.751E+01   -1.705E+01   -1.660E+01   -1.616E+01   -1.572E+01   -1.529E+01   -1.487E+01   -1.445E+01
    -1.405E+01   -1.364E+01   -1.325E+01   -1.286E+01   -1.247E+01   -1.209E+01   -1.172E+01   -1.135E+01   -1.099E+01   -1.063E+01
    -1.027E+01   -9.925E+00   -9.581E+00   -9.241E+00   -8.905E+00   -8.573E+00   -8.245E+00   -7.921E+00   -7.600E+00   -7.282E+00
    -6.968E+00   -6.657E+00   -6.349E+00   -6.044E+00   -5.741E+00   -5.441E+00   -5.143E+00   -4.847E+00   -4.554E+00   -4.262E+00
    -3.973E+00   -3.685E+00   -3.398E+00   -3.113E+00   -2.829E+00   -2.546E+00   -2.265E+00   -1.984E+00
 Asp      Conc. = 6.42E+00
