 LCModel (Version 6.3-1L) Copyright: S.W. Provencher.          Ref.: Magn. Reson. Med. 30:672-679 (1993).                
 Slice#1 Row#8 Col#2  K_02_press_1_raw_act
 36 lines in following concentration table = NCONC+1
    Conc.  %SD /Cr+PCr  Metabolite                                         
  138.749  40%   0.267 Ala                                                 
    0.000 999%   0.000 Asp                                                 
    0.000 999%   0.000 Cr                                                  
  520.187   6%   1.000 PCr                                                 
    8.873 608% 1.7E-02 GABA                                                
   60.953  91%   0.117 Glc                                                 
   92.516 119%   0.178 Gln                                                 
  551.094  23%   1.059 Glu                                                 
  167.313   7%   0.322 GPC                                                 
    0.000 999%   0.000 PCh                                                 
  152.686  26%   0.294 GSH                                                 
  488.450  28%   0.939 Ins                                                 
    0.000 999%   0.000 Lac                                                 
  683.764   6%   1.314 NAA                                                 
  152.341  30%   0.293 NAAG                                                
   36.214  36% 7.0E-02 Scyllo                                              
   78.381 108%   0.151 Tau                                                 
  275.772  21%   0.530 -CrCH2                                              
  167.313   7%   0.322 GPC+PCh                                             
  836.105   5%   1.607 NAA+NAAG                                            
  520.187   6%   1.000 Cr+PCr                                              
  643.610  25%   1.237 Glu+Gln                                             
    0.000 999%   0.000 Lip13a                                              
    0.000 999%   0.000 Lip13b                                              
    0.000 999%   0.000 Lip09                                               
  364.855  27%   0.701 MM09                                                
 1.71E-03 999% 3.3E-06 Lip20                                               
  603.776  26%   1.161 MM20                                                
  103.375  34%   0.199 MM12                                                
  260.363  40%   0.501 MM14                                                
  181.429  35%   0.349 MM17                                                
    0.000 999%   0.000 Lip13a+Lip13b                                       
  363.738  35%   0.699 MM14+Lip13a+Lip13b+MM12                             
  364.855  27%   0.701 MM09+Lip09                                          
  603.778  26%   1.161 MM20+Lip20                                          
   6 lines in following misc. output table
  FWHM = 0.038 ppm    S/N =   6                                            
  Data shift =-0.008 ppm                                                   
  Ph: -54 deg     -16.3 deg/ppm                                            
  alphaB,S = 7.6E-01,   4.8E+01                                            
   14 spline knots.   Ns = 5(1)                                            
  ( 7) 3 infls.   ( 5) 1 extrs.                                            
  498 points on ppm-axis = NY
      4.000000     3.992357     3.984714     3.977070     3.969427     3.961784     3.954141     3.946497     3.938854     3.931211
      3.923568     3.915925     3.908281     3.900638     3.892995     3.885352     3.877708     3.870065     3.862422     3.854779
      3.847136     3.839492     3.831849     3.824206     3.816563     3.808919     3.801276     3.793633     3.785990     3.778347
      3.770703     3.763060     3.755417     3.747774     3.740130     3.732487     3.724844     3.717201     3.709558     3.701914
      3.694271     3.686628     3.678985     3.671341     3.663698     3.656055     3.648412     3.640769     3.633125     3.625482
      3.617839     3.610196     3.602552     3.594909     3.587266     3.579623     3.571980     3.564336     3.556693     3.549050
      3.541407     3.533763     3.526120     3.518477     3.510834     3.503191     3.495547     3.487904     3.480261     3.472618
      3.464974     3.457331     3.449688     3.442045     3.434402     3.426758     3.419115     3.411472     3.403829     3.396185
      3.388542     3.380899     3.373256     3.365613     3.357969     3.350326     3.342683     3.335040     3.327396     3.319753
      3.312110     3.304467     3.296824     3.289180     3.281537     3.273894     3.266251     3.258607     3.250964     3.243321
      3.235678     3.228034     3.220391     3.212748     3.205105     3.197462     3.189818     3.182175     3.174532     3.166889
      3.159245     3.151602     3.143959     3.136316     3.128673     3.121029     3.113386     3.105743     3.098100     3.090456
      3.082813     3.075170     3.067527     3.059884     3.052240     3.044597     3.036954     3.029311     3.021667     3.014024
      3.006381     2.998738     2.991095     2.983451     2.975808     2.968165     2.960522     2.952878     2.945235     2.937592
      2.929949     2.922306     2.914662     2.907019     2.899376     2.891733     2.884089     2.876446     2.868803     2.861160
      2.853517     2.845873     2.838230     2.830587     2.822944     2.815300     2.807657     2.800014     2.792371     2.784728
      2.777084     2.769441     2.761798     2.754155     2.746511     2.738868     2.731225     2.723582     2.715939     2.708295
      2.700652     2.693009     2.685366     2.677722     2.670079     2.662436     2.654793     2.647150     2.639506     2.631863
      2.624220     2.616577     2.608933     2.601290     2.593647     2.586004     2.578361     2.570717     2.563074     2.555431
      2.547788     2.540144     2.532501     2.524858     2.517215     2.509572     2.501928     2.494285     2.486642     2.478999
      2.471355     2.463712     2.456069     2.448426     2.440783     2.433139     2.425496     2.417853     2.410210     2.402566
      2.394923     2.387280     2.379637     2.371994     2.364350     2.356707     2.349064     2.341421     2.333777     2.326134
      2.318491     2.310848     2.303205     2.295561     2.287918     2.280275     2.272632     2.264988     2.257345     2.249702
      2.242059     2.234416     2.226772     2.219129     2.211486     2.203843     2.196199     2.188556     2.180913     2.173270
      2.165627     2.157983     2.150340     2.142697     2.135054     2.127410     2.119767     2.112124     2.104481     2.096838
      2.089194     2.081551     2.073908     2.066265     2.058621     2.050978     2.043335     2.035692     2.028049     2.020405
      2.012762     2.005119     1.997476     1.989833     1.982190     1.974546     1.966903     1.959260     1.951617     1.943974
      1.936331     1.928688     1.921045     1.913402     1.905759     1.898115     1.890472     1.882829     1.875186     1.867543
      1.859900     1.852257     1.844614     1.836971     1.829327     1.821684     1.814041     1.806398     1.798755     1.791112
      1.783469     1.775826     1.768183     1.760540     1.752896     1.745253     1.737610     1.729967     1.722324     1.714681
      1.707038     1.699395     1.691752     1.684108     1.676465     1.668822     1.661179     1.653536     1.645893     1.638250
      1.630607     1.622964     1.615321     1.607677     1.600034     1.592391     1.584748     1.577105     1.569462     1.561819
      1.554176     1.546533     1.538890     1.531246     1.523603     1.515960     1.508317     1.500674     1.493031     1.485388
      1.477745     1.470102     1.462458     1.454815     1.447172     1.439529     1.431886     1.424243     1.416600     1.408957
      1.401314     1.393671     1.386027     1.378384     1.370741     1.363098     1.355455     1.347812     1.340169     1.332526
      1.324883     1.317240     1.309596     1.301953     1.294310     1.286667     1.279024     1.271381     1.263738     1.256095
      1.248452     1.240808     1.233165     1.225522     1.217879     1.210236     1.202593     1.194950     1.187307     1.179664
      1.172021     1.164377     1.156734     1.149091     1.141448     1.133805     1.126162     1.118519     1.110876     1.103233
      1.095590     1.087946     1.080303     1.072660     1.065017     1.057374     1.049731     1.042088     1.034445     1.026802
      1.019158     1.011515     1.003872     0.996229     0.988586     0.980943     0.973300     0.965657     0.958014     0.950371
      0.942727     0.935084     0.927441     0.919798     0.912155     0.904512     0.896869     0.889226     0.881583     0.873940
      0.866296     0.858653     0.851010     0.843367     0.835724     0.828081     0.820438     0.812795     0.805152     0.797508
      0.789865     0.782222     0.774579     0.766936     0.759293     0.751650     0.744007     0.736364     0.728721     0.721077
      0.713434     0.705791     0.698148     0.690505     0.682862     0.675219     0.667576     0.659933     0.652290     0.644646
      0.637003     0.629360     0.621717     0.614074     0.606431     0.598788     0.591145     0.583502     0.575858     0.568215
      0.560572     0.552929     0.545286     0.537643     0.530000     0.522357     0.514714     0.507071     0.499427     0.491784
      0.484141     0.476498     0.468855     0.461212     0.453569     0.445925     0.438282     0.430639     0.422996     0.415353
      0.407710     0.400067     0.392424     0.384780     0.377137     0.369494     0.361851     0.354208     0.346565     0.338922
      0.331278     0.323635     0.315992     0.308349     0.300706     0.293063     0.285420     0.277777     0.270133     0.262490
      0.254847     0.247204     0.239561     0.231918     0.224275     0.216631     0.208988     0.201345
 NY phased data points follow
  -3.30649E+01 -3.09165E+01 -3.39048E+01 -3.19955E+01 -3.07011E+01 -2.71130E+01 -2.61754E+01 -2.33678E+01 -1.76550E+01 -2.19742E+01
  -2.00180E+01 -2.24280E+01 -2.32270E+01 -2.04113E+01 -2.53902E+01 -3.11632E+01 -2.68680E+01 -2.59749E+01 -2.81831E+01 -2.65755E+01
  -2.15558E+01 -2.40427E+01 -1.98937E+01 -2.31960E+01 -2.58466E+01 -2.20502E+01 -2.21121E+01 -2.03128E+01 -2.12559E+01 -1.92554E+01
  -1.84280E+01 -2.17745E+01 -1.81838E+01 -2.05141E+01 -2.04225E+01 -1.81928E+01 -1.59757E+01 -2.02068E+01 -2.00712E+01 -1.73338E+01
  -1.56531E+01 -1.68645E+01 -1.60732E+01 -1.46109E+01 -1.33929E+01 -1.68170E+01 -1.49579E+01 -8.42919E+00 -1.57531E+01 -1.52535E+01
  -1.54648E+01 -1.49662E+01 -1.75535E+01 -1.67450E+01 -1.60137E+01 -1.60015E+01 -1.54839E+01 -1.49502E+01 -1.96964E+01 -1.50926E+01
  -1.66759E+01 -1.57119E+01 -1.60619E+01 -1.55172E+01 -1.52569E+01 -1.88654E+01 -1.69042E+01 -1.47958E+01 -1.76053E+01 -1.51449E+01
  -1.22056E+01 -1.33373E+01 -1.04076E+01 -1.30642E+01 -1.40671E+01 -1.64736E+01 -1.24287E+01 -8.36145E+00 -1.01887E+01 -1.28960E+01
  -1.11718E+01 -1.13699E+01 -1.19608E+01 -1.38872E+01 -1.13947E+01 -9.99487E+00 -9.55689E+00 -9.72712E+00 -1.25405E+01 -7.18543E+00
  -1.06911E+01 -9.34186E+00 -7.82162E+00 -7.27440E+00 -8.09144E+00 -8.99086E+00 -7.75741E+00 -3.14780E+00 -4.75379E+00 -4.67720E+00
  -7.23434E-01  6.10057E+00  9.55961E+00  8.37675E+00  7.59979E+00  4.28771E+00 -2.08787E+00 -9.87922E+00 -8.58446E+00 -9.68052E+00
  -9.31929E+00 -5.56783E+00 -4.64927E+00 -1.17719E+01 -3.72473E+00 -4.85777E+00 -8.56351E+00 -4.57578E+00 -6.93840E+00 -7.10425E+00
  -6.73751E+00 -5.71496E-01 -2.36396E+00  2.40587E-01  1.73336E+00  7.85565E+00  1.08389E+01  1.13739E+01  1.26859E+01  1.17729E+01
   9.35528E+00  7.37804E-02 -2.74439E+00 -1.00148E+00 -4.03837E+00 -4.18326E+00 -4.41460E+00 -3.33984E+00 -2.05010E+00 -4.81390E+00
  -5.92642E+00 -3.47152E+00 -5.84550E+00 -4.25847E+00 -1.11276E+00 -4.72480E+00 -4.27122E+00 -3.60494E+00 -4.92136E+00 -5.40794E+00
  -6.76390E+00 -7.66413E+00 -5.05671E+00 -4.20386E+00 -4.65319E+00 -6.74436E+00 -5.68886E+00 -4.94240E+00 -4.01973E+00 -3.51470E+00
  -5.95116E+00 -2.24698E+00 -3.70571E+00 -5.72717E+00 -5.68862E+00 -3.23819E+00 -2.21358E+00 -3.26527E+00 -5.93252E+00 -2.51806E+00
  -7.15994E+00 -6.76283E+00 -6.45550E+00 -6.78872E+00 -7.71879E+00 -9.12840E+00 -1.02027E+01 -8.39175E+00 -1.23001E+01 -9.67788E+00
  -6.24458E+00 -8.95233E+00 -7.92617E+00 -5.52420E+00 -5.51325E+00 -4.48934E+00 -7.19104E+00 -5.22169E+00 -7.19836E+00 -2.83223E+00
  -1.38745E+00 -1.22400E-02 -2.35629E+00 -3.38216E+00 -2.55686E+00 -4.78956E+00 -6.47613E+00 -6.24097E+00 -5.41327E+00 -7.54645E+00
  -4.02210E+00 -5.51118E+00 -2.03143E+00 -1.75730E+00 -4.06808E-01 -2.13801E+00 -2.70826E+00 -1.90249E+00 -4.38818E+00 -4.57888E+00
  -3.94602E+00  6.27661E-01 -1.01552E-01 -1.85369E+00  4.61267E+00  4.93569E+00  3.06791E+00  3.65234E+00  1.48247E+00 -9.40870E-01
  -1.77155E+00 -4.78682E+00 -6.74647E-01 -3.00866E+00  2.68712E-03 -3.54047E+00  2.97121E+00  3.83759E+00  2.05598E-02  2.50546E+00
   4.13915E+00  4.78553E-01  2.89156E+00 -1.31042E-01 -8.27740E-01 -1.70706E+00  2.99993E+00  1.66076E+00  8.93311E-01 -3.26411E-01
  -1.57115E+00 -7.94296E-01  1.60295E+00 -2.76212E+00  3.50549E+00  1.15691E+00  5.11525E+00  7.62838E+00  6.12669E+00  3.68886E+00
   4.87738E+00  3.47676E+00  6.96267E+00  6.17473E+00  9.46730E+00  1.48138E+01  1.69005E+01  1.82393E+01  2.12002E+01  2.87764E+01
   3.27747E+01  3.10167E+01  2.46735E+01  1.70998E+01  9.50108E+00  7.73643E+00  5.62319E+00  2.94135E+00  2.21999E+00  2.39669E+00
   2.02557E+00  1.01358E+00  7.28431E-01  5.87704E+00 -1.28192E+00  2.28110E-01  2.08410E+00  1.33057E-01  4.66229E+00  6.02917E+00
   1.50578E+00  2.99173E+00  1.29392E+00  1.56597E+00  1.89323E+00  1.97772E+00  3.61585E+00  1.00672E+00  2.77990E+00 -7.11521E-01
   2.35445E+00  1.74818E+00  1.92064E+00  4.36387E+00  3.21894E+00  1.03613E+00  1.88229E+00  1.47240E+00  2.60175E+00  2.47989E+00
   5.16624E-01  1.93949E+00  1.97309E+00  3.64087E+00 -3.11959E-02  1.15459E+00  2.65089E+00  4.07775E+00  1.74889E+00  3.07722E+00
   3.17868E+00  2.10996E+00  2.50812E+00  4.84303E+00  3.36401E+00  2.63064E+00  4.83705E+00  4.85485E+00  5.09990E+00  4.57621E+00
   1.51379E+00  1.46505E-01  2.33175E+00  3.98734E+00  3.93994E+00  4.78462E+00 -6.60787E-01 -3.39328E-01 -1.45204E+00  3.35554E-01
  -2.34666E+00  2.59916E+00  1.51498E-01  3.49992E+00  4.44973E-01  2.08739E+00  5.01176E-01  1.29667E+00  4.81636E+00  4.41897E+00
   7.03738E+00  6.67274E+00  1.68307E+00  2.41941E+00 -7.23310E-01 -3.38557E-01 -3.29870E+00 -2.55059E+00 -8.62559E-01  1.40080E+00
   1.06526E+00  3.98412E-01  1.84001E+00  8.05468E-01  5.78804E-01 -1.71516E+00  2.45629E+00 -3.43599E+00 -2.95079E+00 -1.27145E+00
  -2.21635E+00 -3.05233E+00 -6.80608E-01 -3.64245E+00 -6.66966E-01 -2.11083E-01  1.24990E+00  2.57170E+00  2.96472E+00  5.81360E-01
   1.69622E+00 -3.46523E-02  1.19003E+00 -4.82463E-01  4.15163E+00  3.13900E+00  1.64569E+00  4.19363E+00 -1.83490E+00 -4.37073E-01
   1.56391E+00 -6.92294E-02  9.17621E-01  2.79862E+00  2.91830E+00  4.74802E+00 -9.99765E-01  2.50117E+00  2.97134E+00  5.86121E+00
  -3.38116E-01 -1.87359E+00  4.51016E+00 -1.29602E+00  4.83332E+00  1.65296E+00  1.62999E+00  2.53902E+00  3.37318E+00 -1.67941E+00
   2.86909E+00  6.73238E+00  5.40998E+00  8.96431E-01  1.80204E+00  4.19092E-01  9.65105E-01  3.86313E+00 -8.74432E-01  1.79711E+00
   6.07230E+00  1.55397E+00 -9.92322E-01  2.85728E+00  1.44503E+00  3.53577E+00  1.21086E+00  3.60729E-01  2.37851E-01 -2.20225E-01
   1.18577E+00 -8.33044E-01  2.17756E+00 -3.79117E-01  1.04457E+00  7.14781E-01  2.60619E+00  1.17651E+00  5.19091E-01  2.78247E+00
   3.44729E+00  2.80283E+00  1.95014E+00  1.65479E+00  2.74389E+00 -5.61923E-01  2.65690E+00  1.98657E+00  1.67484E+00  7.39486E+00
   2.46215E+00  7.10242E-01 -1.69714E+00  4.21649E+00  2.69084E+00  1.76607E+00  8.41321E-01  2.05008E+00  1.24936E-01  6.26890E-01
   6.29209E-01  3.36792E-01  8.35411E-01  1.35248E+00 -3.51592E-01  7.95404E-01  1.39403E+00  7.29356E-01  1.42411E+00  4.10472E+00
   2.07711E+00  1.38998E+00  4.34551E+00  3.71704E+00  2.30290E+00 -1.20017E+00  3.79554E+00  2.88277E+00  2.42680E+00  3.22229E+00
  -1.85038E-01  3.42444E+00  2.06591E+00 -1.28193E+00  3.51166E+00  1.57678E+00  4.80006E+00 -9.81036E-01  3.09680E-01  3.15522E+00
   3.44606E+00 -3.26377E-01  2.11999E+00  1.84975E+00 -9.04043E-03  1.62772E+00 -1.58820E+00  3.42648E+00 -4.59743E-01  2.34779E+00
   4.03069E+00  1.58653E+00 -1.16724E+00  1.01963E-01  3.55605E+00  2.25147E+00  1.79671E+00  2.47437E+00
 NY points of the fit to the data follow
  -2.91510E+01 -2.90314E+01 -2.87606E+01 -2.82934E+01 -2.74075E+01 -2.61171E+01 -2.47740E+01 -2.32485E+01 -2.16448E+01 -2.04772E+01
  -2.01349E+01 -2.06344E+01 -2.17345E+01 -2.30332E+01 -2.40419E+01 -2.45675E+01 -2.47236E+01 -2.46682E+01 -2.45350E+01 -2.43532E+01
  -2.40746E+01 -2.37503E+01 -2.34566E+01 -2.32910E+01 -2.30851E+01 -2.26427E+01 -2.22474E+01 -2.17405E+01 -2.08003E+01 -1.95845E+01
  -1.84810E+01 -1.77216E+01 -1.73400E+01 -1.74494E+01 -1.79904E+01 -1.86931E+01 -1.94043E+01 -1.99914E+01 -2.03810E+01 -2.05308E+01
  -2.03587E+01 -1.98262E+01 -1.89820E+01 -1.79903E+01 -1.69359E+01 -1.58486E+01 -1.48751E+01 -1.42787E+01 -1.42797E+01 -1.48771E+01
  -1.58370E+01 -1.68071E+01 -1.74946E+01 -1.77583E+01 -1.75928E+01 -1.71803E+01 -1.66575E+01 -1.60915E+01 -1.55417E+01 -1.50821E+01
  -1.48063E+01 -1.47633E+01 -1.49174E+01 -1.51831E+01 -1.53772E+01 -1.54028E+01 -1.51961E+01 -1.48015E+01 -1.43547E+01 -1.39359E+01
  -1.35404E+01 -1.31722E+01 -1.28895E+01 -1.26826E+01 -1.25147E+01 -1.24129E+01 -1.23843E+01 -1.24051E+01 -1.24521E+01 -1.24926E+01
  -1.24505E+01 -1.22067E+01 -1.17776E+01 -1.13682E+01 -1.09524E+01 -1.05528E+01 -1.03407E+01 -1.04065E+01 -1.06764E+01 -1.10083E+01
  -1.12490E+01 -1.12596E+01 -1.10919E+01 -1.08528E+01 -1.05878E+01 -1.03427E+01 -9.88331E+00 -8.21796E+00 -5.41304E+00 -2.40546E+00
   1.35175E+00  5.56015E+00  8.54045E+00  8.99408E+00  6.83970E+00  2.84577E+00 -1.66502E+00 -5.23934E+00 -7.30348E+00 -8.15727E+00
  -8.34344E+00 -8.34683E+00 -8.29245E+00 -8.20885E+00 -8.11397E+00 -8.01778E+00 -7.91506E+00 -7.80248E+00 -7.67247E+00 -7.49224E+00
  -7.17762E+00 -6.34156E+00 -3.96438E+00 -8.05344E-01  2.65918E+00  6.93921E+00  1.11936E+01  1.36226E+01  1.32598E+01  1.03414E+01
   5.80500E+00  1.17664E+00 -2.21250E+00 -4.21368E+00 -5.23210E+00 -5.81812E+00 -6.22071E+00 -6.37962E+00 -6.25449E+00 -5.88297E+00
  -5.40210E+00 -4.98215E+00 -4.74367E+00 -4.70001E+00 -4.78802E+00 -4.93403E+00 -5.05897E+00 -5.12783E+00 -5.15327E+00 -5.17108E+00
  -5.19866E+00 -5.22267E+00 -5.24378E+00 -5.24813E+00 -5.20611E+00 -5.13375E+00 -5.08637E+00 -5.05181E+00 -5.04908E+00 -5.11925E+00
  -5.20755E+00 -5.27550E+00 -5.25386E+00 -5.10396E+00 -4.91373E+00 -4.82188E+00 -4.87690E+00 -5.04089E+00 -5.24326E+00 -5.39050E+00
  -5.44842E+00 -5.47529E+00 -5.49268E+00 -5.50288E+00 -5.56238E+00 -5.63377E+00 -5.64172E+00 -5.52326E+00 -5.31344E+00 -5.11766E+00
  -5.02558E+00 -5.01904E+00 -5.03925E+00 -4.97300E+00 -4.78152E+00 -4.50665E+00 -4.13782E+00 -3.61882E+00 -2.97731E+00 -2.30590E+00
  -1.72326E+00 -1.38253E+00 -1.38340E+00 -1.69478E+00 -2.10241E+00 -2.46469E+00 -2.70977E+00 -2.75965E+00 -2.56269E+00 -2.14439E+00
  -1.62330E+00 -1.07605E+00 -6.06924E-01 -3.07700E-01 -2.44708E-01 -5.32522E-01 -1.06788E+00 -1.75108E+00 -2.51227E+00 -3.07896E+00
  -3.21358E+00 -2.74703E+00 -1.88735E+00 -7.79741E-01  4.66967E-01  1.46610E+00  1.77788E+00  1.15313E+00 -2.19761E-01 -1.86030E+00
  -3.35644E+00 -4.38506E+00 -4.61237E+00 -3.94272E+00 -2.62249E+00 -1.05241E+00  3.19258E-01  1.19495E+00  1.52987E+00  1.43031E+00
   1.12380E+00  8.59674E-01  8.44087E-01  1.07711E+00  1.45163E+00  1.85000E+00  2.12594E+00  2.14045E+00  1.81265E+00  1.32529E+00
   8.75508E-01  5.73528E-01  5.42553E-01  9.03124E-01  1.56674E+00  2.29351E+00  2.89352E+00  3.26328E+00  3.38617E+00  3.36035E+00
   3.50210E+00  4.23221E+00  5.32206E+00  6.74085E+00  8.85864E+00  1.25307E+01  1.68939E+01  2.05106E+01  2.43413E+01  2.82748E+01
   3.04288E+01  2.93920E+01  2.52105E+01  1.88788E+01  1.20846E+01  6.76116E+00  3.63016E+00  2.20990E+00  1.71877E+00  1.51329E+00
   1.41942E+00  1.39421E+00  1.42694E+00  1.49768E+00  1.56917E+00  1.59531E+00  1.55821E+00  1.47495E+00  1.37644E+00  1.28841E+00
   1.22958E+00  1.20924E+00  1.21847E+00  1.24133E+00  1.26661E+00  1.28457E+00  1.29115E+00  1.29398E+00  1.30036E+00  1.31722E+00
   1.35178E+00  1.40527E+00  1.47175E+00  1.54166E+00  1.60586E+00  1.66180E+00  1.70969E+00  1.75147E+00  1.79266E+00  1.83777E+00
   1.88775E+00  1.94067E+00  1.99345E+00  2.04092E+00  2.07894E+00  2.10582E+00  2.12211E+00  2.12931E+00  2.12947E+00  2.12392E+00
   2.11451E+00  2.10258E+00  2.09000E+00  2.07843E+00  2.07039E+00  2.06821E+00  2.07511E+00  2.09443E+00  2.13124E+00  2.19304E+00
   2.29530E+00  2.47539E+00  2.76462E+00  2.97856E+00  3.08134E+00  3.10522E+00  2.88912E+00  2.30140E+00  1.42079E+00  4.63166E-01
  -2.06070E-01 -4.07467E-01 -2.00175E-01  3.94201E-01  1.28928E+00  2.22801E+00  2.95530E+00  3.33573E+00  3.33316E+00  3.03257E+00
   2.62907E+00  2.27246E+00  2.01696E+00  1.84622E+00  1.71770E+00  1.61224E+00  1.52221E+00  1.44351E+00  1.37432E+00  1.31318E+00
   1.25955E+00  1.21260E+00  1.17206E+00  1.13728E+00  1.10803E+00  1.08360E+00  1.06366E+00  1.04743E+00  1.03455E+00  1.02426E+00
   1.01625E+00  1.00982E+00  1.00471E+00  1.00033E+00  9.96585E-01  9.93076E-01  9.89933E-01  9.86939E-01  9.84408E-01  9.82334E-01
   9.81262E-01  9.81397E-01  9.83442E-01  9.87719E-01  9.95034E-01  1.00582E+00  1.02100E+00  1.04106E+00  1.06692E+00  1.09905E+00
   1.13834E+00  1.18520E+00  1.24043E+00  1.30428E+00  1.37731E+00  1.45944E+00  1.55086E+00  1.65107E+00  1.75973E+00  1.87572E+00
   1.99800E+00  2.12471E+00  2.25412E+00  2.38371E+00  2.51112E+00  2.63334E+00  2.74764E+00  2.85090E+00  2.94053E+00  3.01380E+00
   3.06874E+00  3.10346E+00  3.11707E+00  3.10891E+00  3.07943E+00  3.02932E+00  2.96031E+00  2.87423E+00  2.77379E+00  2.66161E+00
   2.54089E+00  2.41446E+00  2.28549E+00  2.15651E+00  2.03022E+00  1.90854E+00  1.79342E+00  1.68599E+00  1.58738E+00  1.49793E+00
   1.41810E+00  1.34764E+00  1.28649E+00  1.23398E+00  1.18974E+00  1.15292E+00  1.12303E+00  1.09918E+00  1.08090E+00  1.06734E+00
   1.05809E+00  1.05241E+00  1.05002E+00  1.05031E+00  1.05308E+00  1.05779E+00  1.06436E+00  1.07235E+00  1.08175E+00  1.09218E+00
   1.10367E+00  1.11590E+00  1.12893E+00  1.14249E+00  1.15667E+00  1.17122E+00  1.18624E+00  1.20148E+00  1.21709E+00  1.23282E+00
   1.24884E+00  1.26491E+00  1.28118E+00  1.29743E+00  1.31384E+00  1.33021E+00  1.34672E+00  1.36317E+00  1.37972E+00  1.39618E+00
   1.41274E+00  1.42921E+00  1.44578E+00  1.46224E+00  1.47877E+00  1.49519E+00  1.51170E+00  1.52810E+00  1.54458E+00  1.56094E+00
   1.57737E+00  1.59369E+00  1.61010E+00  1.62640E+00  1.64279E+00  1.65906E+00  1.67541E+00  1.69168E+00  1.70804E+00  1.72430E+00
   1.74066E+00  1.75692E+00  1.77329E+00  1.78958E+00  1.80600E+00  1.82235E+00  1.83881E+00  1.85521E+00  1.87175E+00  1.88826E+00
   1.90491E+00  1.92154E+00  1.93832E+00  1.95510E+00  1.97208E+00  1.98908E+00  2.00630E+00  2.02355E+00
 NY background values follow
    -3.013E+01   -2.991E+01   -2.968E+01   -2.946E+01   -2.923E+01   -2.901E+01   -2.878E+01   -2.856E+01   -2.833E+01   -2.811E+01
    -2.788E+01   -2.766E+01   -2.743E+01   -2.721E+01   -2.698E+01   -2.676E+01   -2.653E+01   -2.631E+01   -2.609E+01   -2.586E+01
    -2.564E+01   -2.542E+01   -2.520E+01   -2.497E+01   -2.475E+01   -2.453E+01   -2.431E+01   -2.409E+01   -2.387E+01   -2.365E+01
    -2.343E+01   -2.322E+01   -2.300E+01   -2.278E+01   -2.257E+01   -2.235E+01   -2.214E+01   -2.192E+01   -2.171E+01   -2.149E+01
    -2.128E+01   -2.107E+01   -2.086E+01   -2.065E+01   -2.044E+01   -2.023E+01   -2.003E+01   -1.982E+01   -1.962E+01   -1.941E+01
    -1.921E+01   -1.901E+01   -1.880E+01   -1.860E+01   -1.840E+01   -1.821E+01   -1.801E+01   -1.781E+01   -1.762E+01   -1.742E+01
    -1.723E+01   -1.704E+01   -1.685E+01   -1.666E+01   -1.647E+01   -1.628E+01   -1.609E+01   -1.591E+01   -1.572E+01   -1.554E+01
    -1.536E+01   -1.518E+01   -1.500E+01   -1.482E+01   -1.465E+01   -1.447E+01   -1.430E+01   -1.412E+01   -1.395E+01   -1.378E+01
    -1.362E+01   -1.345E+01   -1.328E+01   -1.312E+01   -1.296E+01   -1.280E+01   -1.264E+01   -1.248E+01   -1.232E+01   -1.217E+01
    -1.201E+01   -1.186E+01   -1.171E+01   -1.156E+01   -1.141E+01   -1.127E+01   -1.112E+01   -1.098E+01   -1.084E+01   -1.070E+01
    -1.056E+01   -1.042E+01   -1.029E+01   -1.015E+01   -1.002E+01   -9.890E+00   -9.761E+00   -9.633E+00   -9.507E+00   -9.382E+00
    -9.259E+00   -9.137E+00   -9.017E+00   -8.898E+00   -8.781E+00   -8.665E+00   -8.551E+00   -8.438E+00   -8.327E+00   -8.217E+00
    -8.109E+00   -8.002E+00   -7.897E+00   -7.793E+00   -7.691E+00   -7.590E+00   -7.490E+00   -7.392E+00   -7.296E+00   -7.201E+00
    -7.107E+00   -7.015E+00   -6.924E+00   -6.835E+00   -6.747E+00   -6.661E+00   -6.576E+00   -6.493E+00   -6.410E+00   -6.330E+00
    -6.250E+00   -6.172E+00   -6.095E+00   -6.020E+00   -5.945E+00   -5.872E+00   -5.799E+00   -5.728E+00   -5.658E+00   -5.589E+00
    -5.521E+00   -5.454E+00   -5.388E+00   -5.322E+00   -5.258E+00   -5.194E+00   -5.131E+00   -5.068E+00   -5.007E+00   -4.946E+00
    -4.886E+00   -4.826E+00   -4.767E+00   -4.708E+00   -4.650E+00   -4.592E+00   -4.535E+00   -4.478E+00   -4.421E+00   -4.365E+00
    -4.309E+00   -4.253E+00   -4.198E+00   -4.143E+00   -4.087E+00   -4.032E+00   -3.977E+00   -3.922E+00   -3.867E+00   -3.812E+00
    -3.757E+00   -3.702E+00   -3.646E+00   -3.591E+00   -3.535E+00   -3.480E+00   -3.424E+00   -3.368E+00   -3.312E+00   -3.256E+00
    -3.200E+00   -3.144E+00   -3.088E+00   -3.032E+00   -2.976E+00   -2.920E+00   -2.864E+00   -2.809E+00   -2.753E+00   -2.697E+00
    -2.641E+00   -2.586E+00   -2.531E+00   -2.475E+00   -2.420E+00   -2.365E+00   -2.310E+00   -2.256E+00   -2.201E+00   -2.147E+00
    -2.093E+00   -2.039E+00   -1.986E+00   -1.932E+00   -1.879E+00   -1.826E+00   -1.774E+00   -1.722E+00   -1.670E+00   -1.618E+00
    -1.567E+00   -1.516E+00   -1.466E+00   -1.415E+00   -1.366E+00   -1.316E+00   -1.267E+00   -1.219E+00   -1.170E+00   -1.123E+00
    -1.075E+00   -1.029E+00   -9.823E-01   -9.365E-01   -8.911E-01   -8.462E-01   -8.018E-01   -7.579E-01   -7.145E-01   -6.716E-01
    -6.293E-01   -5.876E-01   -5.463E-01   -5.057E-01   -4.656E-01   -4.261E-01   -3.871E-01   -3.488E-01   -3.111E-01   -2.740E-01
    -2.375E-01   -2.016E-01   -1.664E-01   -1.318E-01   -9.789E-02   -6.465E-02   -3.207E-02   -1.853E-04    3.101E-02    6.150E-02
     9.128E-02    1.203E-01    1.487E-01    1.763E-01    2.031E-01    2.292E-01    2.546E-01    2.791E-01    3.029E-01    3.259E-01
     3.481E-01    3.695E-01    3.900E-01    4.098E-01    4.288E-01    4.469E-01    4.643E-01    4.810E-01    4.968E-01    5.119E-01
     5.263E-01    5.400E-01    5.529E-01    5.651E-01    5.766E-01    5.874E-01    5.976E-01    6.070E-01    6.158E-01    6.240E-01
     6.315E-01    6.383E-01    6.446E-01    6.502E-01    6.552E-01    6.597E-01    6.635E-01    6.668E-01    6.695E-01    6.716E-01
     6.732E-01    6.743E-01    6.748E-01    6.748E-01    6.743E-01    6.733E-01    6.719E-01    6.699E-01    6.675E-01    6.646E-01
     6.612E-01    6.575E-01    6.532E-01    6.486E-01    6.436E-01    6.381E-01    6.323E-01    6.260E-01    6.195E-01    6.125E-01
     6.053E-01    5.977E-01    5.898E-01    5.817E-01    5.733E-01    5.648E-01    5.560E-01    5.470E-01    5.378E-01    5.285E-01
     5.191E-01    5.096E-01    5.000E-01    4.903E-01    4.805E-01    4.708E-01    4.610E-01    4.513E-01    4.416E-01    4.319E-01
     4.223E-01    4.128E-01    4.034E-01    3.942E-01    3.851E-01    3.762E-01    3.674E-01    3.589E-01    3.506E-01    3.426E-01
     3.348E-01    3.274E-01    3.202E-01    3.134E-01    3.069E-01    3.008E-01    2.951E-01    2.898E-01    2.849E-01    2.804E-01
     2.765E-01    2.730E-01    2.701E-01    2.676E-01    2.657E-01    2.643E-01    2.633E-01    2.629E-01    2.630E-01    2.635E-01
     2.645E-01    2.660E-01    2.680E-01    2.704E-01    2.733E-01    2.766E-01    2.804E-01    2.847E-01    2.893E-01    2.945E-01
     3.000E-01    3.060E-01    3.123E-01    3.191E-01    3.263E-01    3.339E-01    3.419E-01    3.503E-01    3.591E-01    3.683E-01
     3.778E-01    3.877E-01    3.980E-01    4.087E-01    4.197E-01    4.310E-01    4.427E-01    4.548E-01    4.672E-01    4.799E-01
     4.929E-01    5.063E-01    5.199E-01    5.339E-01    5.482E-01    5.628E-01    5.777E-01    5.929E-01    6.084E-01    6.241E-01
     6.401E-01    6.564E-01    6.729E-01    6.896E-01    7.066E-01    7.238E-01    7.412E-01    7.588E-01    7.766E-01    7.946E-01
     8.127E-01    8.310E-01    8.495E-01    8.681E-01    8.868E-01    9.056E-01    9.246E-01    9.437E-01    9.629E-01    9.821E-01
     1.001E+00    1.021E+00    1.040E+00    1.060E+00    1.079E+00    1.099E+00    1.119E+00    1.138E+00    1.158E+00    1.177E+00
     1.197E+00    1.216E+00    1.236E+00    1.255E+00    1.275E+00    1.294E+00    1.314E+00    1.333E+00    1.352E+00    1.371E+00
     1.390E+00    1.408E+00    1.427E+00    1.446E+00    1.464E+00    1.482E+00    1.500E+00    1.518E+00    1.536E+00    1.554E+00
     1.572E+00    1.589E+00    1.607E+00    1.624E+00    1.641E+00    1.658E+00    1.675E+00    1.692E+00    1.709E+00    1.726E+00
     1.743E+00    1.759E+00    1.776E+00    1.792E+00    1.809E+00    1.825E+00    1.841E+00    1.857E+00    1.874E+00    1.890E+00
     1.906E+00    1.922E+00    1.938E+00    1.954E+00    1.970E+00    1.986E+00    2.001E+00    2.017E+00    2.033E+00    2.049E+00
     2.065E+00    2.081E+00    2.096E+00    2.112E+00    2.128E+00    2.144E+00    2.159E+00    2.175E+00
 Ala      Conc. = 1.39E+02
