 LCModel (Version 6.3-1L) Copyright: S.W. Provencher.          Ref.: Magn. Reson. Med. 30:672-679 (1993).                
 Slice#3 Row#12 Col#1  K_02_press_1_raw_act
 36 lines in following concentration table = NCONC+1
    Conc.  %SD /Cr+PCr  Metabolite                                         
    0.000 999%   0.000 Ala                                                 
   43.318  52%   0.279 Asp                                                 
  155.113  27%   1.000 Cr                                                  
    0.000 999%   0.000 PCr                                                 
   23.304  58%   0.150 GABA                                                
   25.032  55%   0.161 Glc                                                 
   14.769 999% 9.5E-02 Gln                                                 
  629.126  50%   4.056 Glu                                                 
    0.000 999%   0.000 GPC                                                 
   15.522 113%   0.100 PCh                                                 
    0.000 999%   0.000 GSH                                                 
  343.695  57%   2.216 Ins                                                 
    0.000 999%   0.000 Lac                                                 
  189.532  49%   1.222 NAA                                                 
  389.096  22%   2.508 NAAG                                                
    8.530  53% 5.5E-02 Scyllo                                              
   47.458  47%   0.306 Tau                                                 
  192.299  37%   1.240 -CrCH2                                              
   15.522 113%   0.100 GPC+PCh                                             
  578.628   7%   3.730 NAA+NAAG                                            
  155.113  27%   1.000 Cr+PCr                                              
  643.895  61%   4.151 Glu+Gln                                             
    0.000 999%   0.000 Lip13a                                              
    0.000 999%   0.000 Lip13b                                              
    0.130 999% 8.4E-04 Lip09                                               
    0.414 907% 2.7E-03 MM09                                                
 2.09E-02 999% 1.3E-04 Lip20                                               
    0.675 902% 4.4E-03 MM20                                                
    0.119 999% 7.7E-04 MM12                                                
    0.000 999%   0.000 MM14                                                
    0.134 999% 8.6E-04 MM17                                                
    0.000 999%   0.000 Lip13a+Lip13b                                       
    0.119 999% 7.7E-04 MM14+Lip13a+Lip13b+MM12                             
    0.544 836% 3.5E-03 MM09+Lip09                                          
    0.696 913% 4.5E-03 MM20+Lip20                                          
   6 lines in following misc. output table
  FWHM = 0.290 ppm    S/N =   2                                            
  Data shift =-0.076 ppm                                                   
  Ph: -63 deg     -49.0 deg/ppm                                            
  alphaB,S = 3.0E+00,   2.4E+01                                            
    8 spline knots.   Ns = 9(2)                                            
  (16)11 infls.   (17) 9 extrs.                                            
  498 points on ppm-axis = NY
      4.000000     3.992357     3.984714     3.977070     3.969427     3.961784     3.954141     3.946497     3.938854     3.931211
      3.923568     3.915925     3.908281     3.900638     3.892995     3.885352     3.877708     3.870065     3.862422     3.854779
      3.847136     3.839492     3.831849     3.824206     3.816563     3.808919     3.801276     3.793633     3.785990     3.778347
      3.770703     3.763060     3.755417     3.747774     3.740130     3.732487     3.724844     3.717201     3.709558     3.701914
      3.694271     3.686628     3.678985     3.671341     3.663698     3.656055     3.648412     3.640769     3.633125     3.625482
      3.617839     3.610196     3.602552     3.594909     3.587266     3.579623     3.571980     3.564336     3.556693     3.549050
      3.541407     3.533763     3.526120     3.518477     3.510834     3.503191     3.495547     3.487904     3.480261     3.472618
      3.464974     3.457331     3.449688     3.442045     3.434402     3.426758     3.419115     3.411472     3.403829     3.396185
      3.388542     3.380899     3.373256     3.365613     3.357969     3.350326     3.342683     3.335040     3.327396     3.319753
      3.312110     3.304467     3.296824     3.289180     3.281537     3.273894     3.266251     3.258607     3.250964     3.243321
      3.235678     3.228034     3.220391     3.212748     3.205105     3.197462     3.189818     3.182175     3.174532     3.166889
      3.159245     3.151602     3.143959     3.136316     3.128673     3.121029     3.113386     3.105743     3.098100     3.090456
      3.082813     3.075170     3.067527     3.059884     3.052240     3.044597     3.036954     3.029311     3.021667     3.014024
      3.006381     2.998738     2.991095     2.983451     2.975808     2.968165     2.960522     2.952878     2.945235     2.937592
      2.929949     2.922306     2.914662     2.907019     2.899376     2.891733     2.884089     2.876446     2.868803     2.861160
      2.853517     2.845873     2.838230     2.830587     2.822944     2.815300     2.807657     2.800014     2.792371     2.784728
      2.777084     2.769441     2.761798     2.754155     2.746511     2.738868     2.731225     2.723582     2.715939     2.708295
      2.700652     2.693009     2.685366     2.677722     2.670079     2.662436     2.654793     2.647150     2.639506     2.631863
      2.624220     2.616577     2.608933     2.601290     2.593647     2.586004     2.578361     2.570717     2.563074     2.555431
      2.547788     2.540144     2.532501     2.524858     2.517215     2.509572     2.501928     2.494285     2.486642     2.478999
      2.471355     2.463712     2.456069     2.448426     2.440783     2.433139     2.425496     2.417853     2.410210     2.402566
      2.394923     2.387280     2.379637     2.371994     2.364350     2.356707     2.349064     2.341421     2.333777     2.326134
      2.318491     2.310848     2.303205     2.295561     2.287918     2.280275     2.272632     2.264988     2.257345     2.249702
      2.242059     2.234416     2.226772     2.219129     2.211486     2.203843     2.196199     2.188556     2.180913     2.173270
      2.165627     2.157983     2.150340     2.142697     2.135054     2.127410     2.119767     2.112124     2.104481     2.096838
      2.089194     2.081551     2.073908     2.066265     2.058621     2.050978     2.043335     2.035692     2.028049     2.020405
      2.012762     2.005119     1.997476     1.989833     1.982190     1.974546     1.966903     1.959260     1.951617     1.943974
      1.936331     1.928688     1.921045     1.913402     1.905759     1.898115     1.890472     1.882829     1.875186     1.867543
      1.859900     1.852257     1.844614     1.836971     1.829327     1.821684     1.814041     1.806398     1.798755     1.791112
      1.783469     1.775826     1.768183     1.760540     1.752896     1.745253     1.737610     1.729967     1.722324     1.714681
      1.707038     1.699395     1.691752     1.684108     1.676465     1.668822     1.661179     1.653536     1.645893     1.638250
      1.630607     1.622964     1.615321     1.607677     1.600034     1.592391     1.584748     1.577105     1.569462     1.561819
      1.554176     1.546533     1.538890     1.531246     1.523603     1.515960     1.508317     1.500674     1.493031     1.485388
      1.477745     1.470102     1.462458     1.454815     1.447172     1.439529     1.431886     1.424243     1.416600     1.408957
      1.401314     1.393671     1.386027     1.378384     1.370741     1.363098     1.355455     1.347812     1.340169     1.332526
      1.324883     1.317240     1.309596     1.301953     1.294310     1.286667     1.279024     1.271381     1.263738     1.256095
      1.248452     1.240808     1.233165     1.225522     1.217879     1.210236     1.202593     1.194950     1.187307     1.179664
      1.172021     1.164377     1.156734     1.149091     1.141448     1.133805     1.126162     1.118519     1.110876     1.103233
      1.095590     1.087946     1.080303     1.072660     1.065017     1.057374     1.049731     1.042088     1.034445     1.026802
      1.019158     1.011515     1.003872     0.996229     0.988586     0.980943     0.973300     0.965657     0.958014     0.950371
      0.942727     0.935084     0.927441     0.919798     0.912155     0.904512     0.896869     0.889226     0.881583     0.873940
      0.866296     0.858653     0.851010     0.843367     0.835724     0.828081     0.820438     0.812795     0.805152     0.797508
      0.789865     0.782222     0.774579     0.766936     0.759293     0.751650     0.744007     0.736364     0.728721     0.721077
      0.713434     0.705791     0.698148     0.690505     0.682862     0.675219     0.667576     0.659933     0.652290     0.644646
      0.637003     0.629360     0.621717     0.614074     0.606431     0.598788     0.591145     0.583502     0.575858     0.568215
      0.560572     0.552929     0.545286     0.537643     0.530000     0.522357     0.514714     0.507071     0.499427     0.491784
      0.484141     0.476498     0.468855     0.461212     0.453569     0.445925     0.438282     0.430639     0.422996     0.415353
      0.407710     0.400067     0.392424     0.384780     0.377137     0.369494     0.361851     0.354208     0.346565     0.338922
      0.331278     0.323635     0.315992     0.308349     0.300706     0.293063     0.285420     0.277777     0.270133     0.262490
      0.254847     0.247204     0.239561     0.231918     0.224275     0.216631     0.208988     0.201345
 NY phased data points follow
  -6.23974E+01 -6.14328E+01 -6.09929E+01 -5.63439E+01 -5.86936E+01 -5.64307E+01 -5.46723E+01 -5.49970E+01 -5.31888E+01 -5.40326E+01
  -5.17828E+01 -5.16147E+01 -5.29523E+01 -5.38724E+01 -4.93582E+01 -4.95961E+01 -4.95445E+01 -4.90397E+01 -4.81048E+01 -4.88902E+01
  -5.01827E+01 -4.66832E+01 -4.69881E+01 -4.57708E+01 -4.77289E+01 -4.32893E+01 -4.59704E+01 -4.55554E+01 -4.80441E+01 -4.30111E+01
  -4.19894E+01 -4.41625E+01 -4.23834E+01 -4.11323E+01 -4.03373E+01 -4.12563E+01 -4.04635E+01 -3.90788E+01 -4.01644E+01 -3.68959E+01
  -3.65546E+01 -3.68248E+01 -3.72247E+01 -3.72012E+01 -3.60583E+01 -3.52595E+01 -3.31389E+01 -3.16013E+01 -3.41458E+01 -3.27250E+01
  -3.05989E+01 -2.91350E+01 -3.11394E+01 -3.21444E+01 -2.87539E+01 -2.89458E+01 -3.18393E+01 -2.77824E+01 -2.79212E+01 -2.60065E+01
  -2.79485E+01 -2.36795E+01 -2.67652E+01 -2.62064E+01 -2.40558E+01 -2.35068E+01 -2.39919E+01 -2.43768E+01 -2.26936E+01 -2.21226E+01
  -2.24262E+01 -2.31561E+01 -2.07649E+01 -1.98641E+01 -2.07778E+01 -1.95689E+01 -1.87533E+01 -1.98412E+01 -2.12621E+01 -1.77626E+01
  -1.82699E+01 -1.75160E+01 -1.70419E+01 -1.70250E+01 -1.85431E+01 -1.66128E+01 -1.47786E+01 -1.37014E+01 -1.46527E+01 -1.48406E+01
  -1.40645E+01 -1.35020E+01 -1.40693E+01 -1.35684E+01 -1.16658E+01 -1.25060E+01 -1.16702E+01 -1.14279E+01 -9.74026E+00 -1.05218E+01
  -1.08869E+01 -8.92232E+00 -9.24589E+00 -9.83532E+00 -7.70036E+00 -6.50588E+00 -6.29915E+00 -7.13203E+00 -6.28763E+00 -4.34763E+00
  -7.12141E+00 -6.45140E+00 -2.96209E+00 -4.78555E+00 -3.55694E+00 -3.98352E+00 -1.12161E+00 -1.40906E+00 -1.10408E+00 -6.65959E-01
   2.54850E-01 -5.47409E-01 -1.64291E-01  2.17667E+00  3.61408E-01  4.59514E-01  1.43619E+00  3.92921E+00  2.98379E+00  3.69776E+00
   2.50142E+00  2.78787E+00  3.92289E+00  4.68623E+00  4.28882E+00  4.33282E+00  3.96260E+00  4.52854E+00  3.94680E+00  3.75456E+00
   2.87086E+00  4.79231E+00  8.32093E+00  5.30305E+00  5.55871E+00  7.66370E+00  7.41789E+00  7.88752E+00  6.65095E+00  6.67958E+00
   8.16168E+00  9.27657E+00  6.54391E+00  9.50878E+00  8.29270E+00  8.64736E+00  9.55760E+00  9.13700E+00  8.01033E+00  8.68706E+00
   1.05306E+01  1.19465E+01  8.63805E+00  1.01517E+01  1.33024E+01  8.99265E+00  1.19485E+01  1.29078E+01  1.42186E+01  1.25622E+01
   1.29559E+01  1.36732E+01  1.46075E+01  1.37911E+01  1.38528E+01  1.58511E+01  1.37152E+01  1.44090E+01  1.54371E+01  1.74913E+01
   1.62911E+01  1.53637E+01  1.71906E+01  1.67805E+01  1.81460E+01  1.67985E+01  1.94576E+01  1.67011E+01  1.62549E+01  2.02052E+01
   1.88733E+01  1.91197E+01  1.98871E+01  2.04337E+01  1.86505E+01  1.94722E+01  2.06580E+01  2.03333E+01  2.10316E+01  2.04002E+01
   1.92425E+01  2.16424E+01  1.97787E+01  2.18714E+01  2.02857E+01  1.91396E+01  2.06839E+01  1.88043E+01  2.11286E+01  2.33336E+01
   2.06590E+01  2.15006E+01  2.15248E+01  1.96624E+01  2.00499E+01  1.95329E+01  2.46332E+01  2.23475E+01  2.06500E+01  2.27046E+01
   2.30975E+01  2.47214E+01  2.17313E+01  2.44670E+01  2.22495E+01  2.14272E+01  2.39679E+01  2.51208E+01  2.49154E+01  2.12061E+01
   2.45995E+01  2.65673E+01  2.44492E+01  2.25364E+01  2.44319E+01  2.63679E+01  2.56236E+01  2.54175E+01  2.82183E+01  2.67543E+01
   2.67432E+01  2.65781E+01  2.90662E+01  2.82423E+01  2.62507E+01  2.83784E+01  2.93841E+01  2.70114E+01  2.86337E+01  2.99366E+01
   2.94849E+01  2.74904E+01  2.73400E+01  2.95416E+01  2.87775E+01  2.97202E+01  2.95013E+01  3.21158E+01  2.84582E+01  2.90427E+01
   2.95000E+01  2.84778E+01  2.80857E+01  2.99378E+01  3.13115E+01  2.86590E+01  2.71060E+01  2.86759E+01  2.92206E+01  2.75529E+01
   2.68789E+01  2.83210E+01  2.65698E+01  2.54897E+01  2.81140E+01  3.00037E+01  2.66057E+01  2.78485E+01  2.78297E+01  2.58155E+01
   2.57715E+01  2.52804E+01  2.66172E+01  2.55740E+01  2.52608E+01  2.58110E+01  2.39478E+01  2.51404E+01  2.38143E+01  2.55200E+01
   2.50496E+01  2.47840E+01  2.38857E+01  2.58629E+01  2.51954E+01  2.40006E+01  2.42062E+01  2.48915E+01  2.46164E+01  2.35380E+01
   2.42607E+01  2.42900E+01  2.37025E+01  2.27243E+01  2.34172E+01  2.42513E+01  2.34767E+01  2.27943E+01  2.42791E+01  2.30291E+01
   2.46231E+01  2.09058E+01  2.25056E+01  2.03344E+01  2.17924E+01  2.24704E+01  2.10494E+01  2.17354E+01  2.21943E+01  2.07822E+01
   2.25516E+01  2.29022E+01  2.12905E+01  2.12078E+01  2.26385E+01  2.19449E+01  2.05051E+01  2.16555E+01  2.18596E+01  2.10327E+01
   2.02071E+01  2.13451E+01  2.11842E+01  1.96740E+01  2.09677E+01  2.18813E+01  1.95578E+01  2.09675E+01  2.19427E+01  1.86427E+01
   2.11987E+01  2.15322E+01  2.14692E+01  2.31549E+01  1.91153E+01  1.89830E+01  2.16652E+01  1.81576E+01  1.89101E+01  1.91055E+01
   1.96959E+01  1.84891E+01  1.74998E+01  2.11524E+01  1.91653E+01  2.01951E+01  2.01491E+01  1.97844E+01  2.10491E+01  2.05853E+01
   1.90979E+01  1.97933E+01  2.02480E+01  1.91517E+01  1.92477E+01  2.15861E+01  1.89500E+01  1.92091E+01  2.02499E+01  1.90177E+01
   1.97144E+01  1.71085E+01  1.79045E+01  1.81738E+01  1.85818E+01  1.67552E+01  1.79056E+01  1.87573E+01  1.67108E+01  1.82479E+01
   1.71387E+01  1.84356E+01  2.04141E+01  1.76829E+01  1.96553E+01  1.84315E+01  1.76745E+01  1.78290E+01  1.90918E+01  1.66084E+01
   1.78910E+01  1.76434E+01  1.62503E+01  1.69311E+01  1.52694E+01  1.50036E+01  1.57715E+01  1.64700E+01  1.58069E+01  1.69848E+01
   1.91330E+01  1.65953E+01  1.63829E+01  1.77579E+01  1.96907E+01  1.61185E+01  1.46968E+01  1.58959E+01  1.74974E+01  1.50462E+01
   1.93294E+01  1.41519E+01  1.59347E+01  1.48889E+01  1.62608E+01  1.48506E+01  1.22865E+01  1.55781E+01  1.63297E+01  1.56415E+01
   1.62675E+01  1.48234E+01  1.42528E+01  1.47349E+01  1.40011E+01  1.43356E+01  1.51852E+01  1.46306E+01  1.66529E+01  1.41331E+01
   1.50376E+01  1.37042E+01  1.62784E+01  1.49503E+01  1.41503E+01  1.35560E+01  1.34598E+01  1.67208E+01  1.67387E+01  1.35113E+01
   1.57710E+01  1.28397E+01  1.13805E+01  1.41306E+01  1.35665E+01  1.29614E+01  1.28811E+01  1.29233E+01  1.27981E+01  1.38533E+01
   1.33442E+01  1.38605E+01  1.16920E+01  1.25744E+01  1.42858E+01  1.16297E+01  1.24318E+01  1.14380E+01  1.17883E+01  1.18381E+01
   1.12891E+01  1.10228E+01  1.20574E+01  1.09104E+01  1.06490E+01  1.07859E+01  1.25594E+01  1.11570E+01  9.47699E+00  1.07731E+01
   1.24343E+01  9.52230E+00  1.13407E+01  1.07437E+01  1.16407E+01  1.19421E+01  9.96949E+00  1.26693E+01  9.99695E+00  1.12303E+01
   9.94770E+00  9.91407E+00  7.91778E+00  1.08941E+01  8.79571E+00  9.97902E+00  9.00435E+00  1.10945E+01  9.21830E+00  9.64567E+00
   9.67879E+00  8.65412E+00  1.03465E+01  9.75739E+00  1.01121E+01  7.61896E+00  8.71890E+00  1.01398E+01
 NY points of the fit to the data follow
  -5.88023E+01 -5.84667E+01 -5.78906E+01 -5.69890E+01 -5.64304E+01 -5.59562E+01 -5.54072E+01 -5.49717E+01 -5.44131E+01 -5.41463E+01
  -5.38297E+01 -5.29589E+01 -5.26787E+01 -5.20079E+01 -5.14267E+01 -5.06356E+01 -5.00771E+01 -4.93649E+01 -4.91261E+01 -4.84883E+01
  -4.84248E+01 -4.78252E+01 -4.73751E+01 -4.67470E+01 -4.61392E+01 -4.52641E+01 -4.48704E+01 -4.43549E+01 -4.40951E+01 -4.26177E+01
  -4.21600E+01 -4.18092E+01 -4.14274E+01 -4.07522E+01 -4.03914E+01 -3.98064E+01 -3.95223E+01 -3.88474E+01 -3.83789E+01 -3.76933E+01
  -3.71395E+01 -3.65514E+01 -3.61985E+01 -3.56590E+01 -3.52886E+01 -3.47987E+01 -3.44621E+01 -3.38046E+01 -3.31268E+01 -3.25020E+01
  -3.20074E+01 -3.13754E+01 -3.10466E+01 -3.06751E+01 -3.03508E+01 -2.99472E+01 -2.94816E+01 -2.90087E+01 -2.84256E+01 -2.78053E+01
  -2.73729E+01 -2.68041E+01 -2.63194E+01 -2.58276E+01 -2.53368E+01 -2.47901E+01 -2.43544E+01 -2.40427E+01 -2.37431E+01 -2.33500E+01
  -2.29469E+01 -2.25111E+01 -2.20443E+01 -2.15470E+01 -2.10257E+01 -2.05096E+01 -2.00124E+01 -1.95530E+01 -1.90758E+01 -1.87788E+01
  -1.84248E+01 -1.80741E+01 -1.76671E+01 -1.72032E+01 -1.67277E+01 -1.61360E+01 -1.55136E+01 -1.51756E+01 -1.47076E+01 -1.44250E+01
  -1.39425E+01 -1.36287E+01 -1.32037E+01 -1.27754E+01 -1.22322E+01 -1.18559E+01 -1.13133E+01 -1.10312E+01 -1.05763E+01 -1.02489E+01
  -9.77787E+00 -9.42898E+00 -8.97066E+00 -8.57389E+00 -8.03272E+00 -7.76008E+00 -7.32519E+00 -6.95241E+00 -6.18246E+00 -5.10503E+00
  -4.71928E+00 -4.21873E+00 -4.02200E+00 -3.71247E+00 -3.49428E+00 -3.16307E+00 -2.79992E+00 -2.01264E+00 -1.60731E+00 -7.84052E-01
  -6.46947E-01 -2.62583E-01 -8.74929E-02  1.74888E-01  3.05812E-01  8.72259E-01  1.19950E+00  2.05506E+00  2.17738E+00  2.66750E+00
   2.72427E+00  3.13250E+00  3.22463E+00  3.64810E+00  3.77430E+00  4.20266E+00  4.31559E+00  4.64914E+00  4.80687E+00  5.11633E+00
   5.41987E+00  5.96823E+00  6.15912E+00  6.56284E+00  6.80593E+00  7.37739E+00  7.30856E+00  7.13506E+00  7.35057E+00  7.65935E+00
   7.91799E+00  8.18869E+00  8.37577E+00  8.64307E+00  8.95222E+00  9.24088E+00  9.55423E+00  9.81934E+00  1.00295E+01  1.03182E+01
   1.05283E+01  1.07944E+01  1.10485E+01  1.13079E+01  1.15842E+01  1.18022E+01  1.20859E+01  1.23616E+01  1.25913E+01  1.28567E+01
   1.31356E+01  1.34153E+01  1.37033E+01  1.39477E+01  1.42912E+01  1.45438E+01  1.47834E+01  1.50612E+01  1.52703E+01  1.55002E+01
   1.57494E+01  1.60455E+01  1.63551E+01  1.65982E+01  1.68727E+01  1.71225E+01  1.73943E+01  1.76428E+01  1.79125E+01  1.81069E+01
   1.83519E+01  1.84826E+01  1.85316E+01  1.87144E+01  1.87860E+01  1.90901E+01  1.94520E+01  1.98371E+01  2.04750E+01  2.05363E+01
   2.06150E+01  2.05582E+01  2.04763E+01  2.04152E+01  2.01645E+01  2.01511E+01  2.06943E+01  2.10652E+01  2.14911E+01  2.16507E+01
   2.15739E+01  2.15833E+01  2.13661E+01  2.12509E+01  2.13680E+01  2.15775E+01  2.21054E+01  2.24743E+01  2.26826E+01  2.28213E+01
   2.27248E+01  2.26715E+01  2.24849E+01  2.23680E+01  2.23730E+01  2.24712E+01  2.26657E+01  2.29882E+01  2.31423E+01  2.34218E+01
   2.37362E+01  2.37950E+01  2.38793E+01  2.38469E+01  2.40623E+01  2.40050E+01  2.39031E+01  2.44532E+01  2.62610E+01  2.66228E+01
   2.66687E+01  2.66921E+01  2.74156E+01  2.79332E+01  2.77720E+01  2.80758E+01  2.86824E+01  2.88974E+01  2.95008E+01  2.93976E+01
   2.90859E+01  2.91289E+01  2.91092E+01  2.94250E+01  2.92752E+01  2.94965E+01  3.00008E+01  3.00647E+01  2.97936E+01  2.97127E+01
   2.96133E+01  2.96992E+01  2.93589E+01  2.94033E+01  2.89170E+01  2.87555E+01  2.82708E+01  2.81385E+01  2.75216E+01  2.74957E+01
   2.75154E+01  2.76099E+01  2.73570E+01  2.74083E+01  2.79058E+01  2.76446E+01  2.61119E+01  2.58384E+01  2.59002E+01  2.59255E+01
   2.50966E+01  2.47373E+01  2.46411E+01  2.45365E+01  2.44591E+01  2.44289E+01  2.43979E+01  2.43201E+01  2.43012E+01  2.42477E+01
   2.42355E+01  2.41730E+01  2.41722E+01  2.41104E+01  2.40590E+01  2.39620E+01  2.39132E+01  2.38676E+01  2.38307E+01  2.37621E+01
   2.37279E+01  2.36843E+01  2.36462E+01  2.35810E+01  2.35199E+01  2.34626E+01  2.34007E+01  2.33464E+01  2.32885E+01  2.32350E+01
   2.31883E+01  2.31479E+01  2.30771E+01  2.30172E+01  2.29475E+01  2.28898E+01  2.28193E+01  2.27574E+01  2.26892E+01  2.26418E+01
   2.25746E+01  2.25186E+01  2.24491E+01  2.23896E+01  2.23180E+01  2.22576E+01  2.21852E+01  2.21240E+01  2.20508E+01  2.19887E+01
   2.19146E+01  2.18517E+01  2.17767E+01  2.17125E+01  2.16369E+01  2.15722E+01  2.14959E+01  2.14304E+01  2.13533E+01  2.12870E+01
   2.12093E+01  2.11423E+01  2.10639E+01  2.09961E+01  2.09171E+01  2.08487E+01  2.07691E+01  2.07001E+01  2.06199E+01  2.05503E+01
   2.04696E+01  2.03993E+01  2.03182E+01  2.02474E+01  2.01658E+01  2.00945E+01  2.00125E+01  1.99407E+01  1.98583E+01  1.97861E+01
   1.97034E+01  1.96308E+01  1.95477E+01  1.94748E+01  1.93914E+01  1.93182E+01  1.92345E+01  1.91610E+01  1.90772E+01  1.90034E+01
   1.89194E+01  1.88454E+01  1.87613E+01  1.86872E+01  1.86030E+01  1.85287E+01  1.84445E+01  1.83702E+01  1.82859E+01  1.82115E+01
   1.81273E+01  1.80530E+01  1.79689E+01  1.78946E+01  1.78106E+01  1.77364E+01  1.76526E+01  1.75786E+01  1.74949E+01  1.74211E+01
   1.73377E+01  1.72641E+01  1.71810E+01  1.71077E+01  1.70249E+01  1.69518E+01  1.68694E+01  1.67966E+01  1.67146E+01  1.66421E+01
   1.65604E+01  1.64883E+01  1.64069E+01  1.63350E+01  1.62539E+01  1.61822E+01  1.61013E+01  1.60298E+01  1.59492E+01  1.58779E+01
   1.57975E+01  1.57263E+01  1.56461E+01  1.55751E+01  1.54952E+01  1.54243E+01  1.53445E+01  1.52738E+01  1.51942E+01  1.51237E+01
   1.50443E+01  1.49738E+01  1.48946E+01  1.48242E+01  1.47451E+01  1.46748E+01  1.45958E+01  1.45256E+01  1.44467E+01  1.43765E+01
   1.42976E+01  1.42274E+01  1.41486E+01  1.40784E+01  1.39995E+01  1.39293E+01  1.38504E+01  1.37801E+01  1.37012E+01  1.36307E+01
   1.35517E+01  1.34811E+01  1.34021E+01  1.33313E+01  1.32521E+01  1.31812E+01  1.31018E+01  1.30307E+01  1.29512E+01  1.28799E+01
   1.28002E+01  1.27286E+01  1.26486E+01  1.25768E+01  1.24966E+01  1.24245E+01  1.23440E+01  1.22716E+01  1.21908E+01  1.21181E+01
   1.20370E+01  1.19639E+01  1.18825E+01  1.18089E+01  1.17272E+01  1.16533E+01  1.15711E+01  1.14968E+01  1.14142E+01  1.13394E+01
   1.12565E+01  1.11812E+01  1.10978E+01  1.10220E+01  1.09381E+01  1.08618E+01  1.07774E+01  1.07005E+01  1.06157E+01  1.05382E+01
   1.04528E+01  1.03748E+01  1.02888E+01  1.02102E+01  1.01236E+01  1.00443E+01  9.95718E+00  9.87728E+00  9.78948E+00  9.70892E+00
   9.62048E+00  9.53923E+00  9.45015E+00  9.36823E+00  9.27850E+00  9.19589E+00  9.10553E+00  9.02231E+00
 NY background values follow
    -5.925E+01   -5.872E+01   -5.819E+01   -5.766E+01   -5.713E+01   -5.660E+01   -5.608E+01   -5.555E+01   -5.502E+01   -5.449E+01
    -5.397E+01   -5.344E+01   -5.291E+01   -5.239E+01   -5.186E+01   -5.134E+01   -5.081E+01   -5.029E+01   -4.976E+01   -4.924E+01
    -4.872E+01   -4.820E+01   -4.768E+01   -4.715E+01   -4.663E+01   -4.611E+01   -4.560E+01   -4.508E+01   -4.456E+01   -4.404E+01
    -4.353E+01   -4.301E+01   -4.249E+01   -4.198E+01   -4.147E+01   -4.095E+01   -4.044E+01   -3.993E+01   -3.942E+01   -3.891E+01
    -3.840E+01   -3.790E+01   -3.739E+01   -3.688E+01   -3.638E+01   -3.587E+01   -3.537E+01   -3.487E+01   -3.437E+01   -3.387E+01
    -3.337E+01   -3.287E+01   -3.238E+01   -3.188E+01   -3.138E+01   -3.089E+01   -3.040E+01   -2.991E+01   -2.942E+01   -2.893E+01
    -2.844E+01   -2.796E+01   -2.747E+01   -2.699E+01   -2.651E+01   -2.603E+01   -2.555E+01   -2.507E+01   -2.459E+01   -2.412E+01
    -2.364E+01   -2.317E+01   -2.270E+01   -2.223E+01   -2.176E+01   -2.129E+01   -2.083E+01   -2.036E+01   -1.990E+01   -1.944E+01
    -1.898E+01   -1.852E+01   -1.807E+01   -1.762E+01   -1.716E+01   -1.671E+01   -1.626E+01   -1.582E+01   -1.537E+01   -1.493E+01
    -1.448E+01   -1.404E+01   -1.361E+01   -1.317E+01   -1.273E+01   -1.230E+01   -1.187E+01   -1.144E+01   -1.101E+01   -1.059E+01
    -1.016E+01   -9.743E+00   -9.324E+00   -8.906E+00   -8.491E+00   -8.077E+00   -7.666E+00   -7.256E+00   -6.849E+00   -6.444E+00
    -6.041E+00   -5.640E+00   -5.241E+00   -4.844E+00   -4.449E+00   -4.057E+00   -3.666E+00   -3.278E+00   -2.892E+00   -2.508E+00
    -2.127E+00   -1.747E+00   -1.370E+00   -9.956E-01   -6.231E-01   -2.529E-01    1.151E-01    4.807E-01    8.439E-01    1.205E+00
     1.563E+00    1.920E+00    2.273E+00    2.625E+00    2.974E+00    3.320E+00    3.664E+00    4.006E+00    4.345E+00    4.682E+00
     5.016E+00    5.348E+00    5.677E+00    6.003E+00    6.328E+00    6.649E+00    6.968E+00    7.284E+00    7.598E+00    7.909E+00
     8.217E+00    8.523E+00    8.826E+00    9.127E+00    9.425E+00    9.720E+00    1.001E+01    1.030E+01    1.059E+01    1.087E+01
     1.115E+01    1.143E+01    1.171E+01    1.198E+01    1.225E+01    1.252E+01    1.278E+01    1.304E+01    1.330E+01    1.356E+01
     1.381E+01    1.406E+01    1.431E+01    1.455E+01    1.479E+01    1.503E+01    1.527E+01    1.550E+01    1.573E+01    1.595E+01
     1.618E+01    1.640E+01    1.661E+01    1.683E+01    1.704E+01    1.725E+01    1.745E+01    1.765E+01    1.785E+01    1.804E+01
     1.824E+01    1.843E+01    1.861E+01    1.879E+01    1.897E+01    1.915E+01    1.932E+01    1.949E+01    1.965E+01    1.982E+01
     1.998E+01    2.013E+01    2.028E+01    2.043E+01    2.058E+01    2.072E+01    2.086E+01    2.100E+01    2.113E+01    2.126E+01
     2.139E+01    2.152E+01    2.164E+01    2.175E+01    2.187E+01    2.198E+01    2.209E+01    2.220E+01    2.230E+01    2.240E+01
     2.250E+01    2.260E+01    2.269E+01    2.278E+01    2.287E+01    2.295E+01    2.303E+01    2.311E+01    2.319E+01    2.326E+01
     2.333E+01    2.340E+01    2.347E+01    2.353E+01    2.359E+01    2.365E+01    2.371E+01    2.376E+01    2.382E+01    2.387E+01
     2.391E+01    2.396E+01    2.400E+01    2.404E+01    2.408E+01    2.411E+01    2.415E+01    2.418E+01    2.421E+01    2.424E+01
     2.426E+01    2.429E+01    2.431E+01    2.433E+01    2.434E+01    2.436E+01    2.437E+01    2.438E+01    2.439E+01    2.440E+01
     2.441E+01    2.441E+01    2.441E+01    2.442E+01    2.441E+01    2.441E+01    2.441E+01    2.440E+01    2.440E+01    2.439E+01
     2.438E+01    2.436E+01    2.435E+01    2.433E+01    2.432E+01    2.430E+01    2.428E+01    2.426E+01    2.424E+01    2.421E+01
     2.419E+01    2.416E+01    2.414E+01    2.411E+01    2.408E+01    2.405E+01    2.401E+01    2.398E+01    2.395E+01    2.391E+01
     2.388E+01    2.384E+01    2.380E+01    2.376E+01    2.372E+01    2.368E+01    2.364E+01    2.359E+01    2.355E+01    2.350E+01
     2.346E+01    2.341E+01    2.336E+01    2.332E+01    2.327E+01    2.322E+01    2.317E+01    2.312E+01    2.306E+01    2.301E+01
     2.296E+01    2.290E+01    2.285E+01    2.279E+01    2.274E+01    2.268E+01    2.262E+01    2.256E+01    2.251E+01    2.245E+01
     2.239E+01    2.233E+01    2.226E+01    2.220E+01    2.214E+01    2.208E+01    2.201E+01    2.195E+01    2.189E+01    2.182E+01
     2.176E+01    2.169E+01    2.162E+01    2.156E+01    2.149E+01    2.142E+01    2.135E+01    2.128E+01    2.121E+01    2.114E+01
     2.107E+01    2.100E+01    2.093E+01    2.086E+01    2.079E+01    2.072E+01    2.064E+01    2.057E+01    2.050E+01    2.042E+01
     2.035E+01    2.028E+01    2.020E+01    2.013E+01    2.005E+01    1.998E+01    1.990E+01    1.983E+01    1.975E+01    1.967E+01
     1.960E+01    1.952E+01    1.945E+01    1.937E+01    1.929E+01    1.921E+01    1.914E+01    1.906E+01    1.898E+01    1.890E+01
     1.883E+01    1.875E+01    1.867E+01    1.859E+01    1.851E+01    1.844E+01    1.836E+01    1.828E+01    1.820E+01    1.812E+01
     1.804E+01    1.796E+01    1.789E+01    1.781E+01    1.773E+01    1.765E+01    1.757E+01    1.749E+01    1.742E+01    1.734E+01
     1.726E+01    1.718E+01    1.711E+01    1.703E+01    1.695E+01    1.687E+01    1.680E+01    1.672E+01    1.664E+01    1.657E+01
     1.649E+01    1.641E+01    1.634E+01    1.626E+01    1.618E+01    1.611E+01    1.603E+01    1.596E+01    1.588E+01    1.581E+01
     1.573E+01    1.566E+01    1.558E+01    1.551E+01    1.543E+01    1.536E+01    1.528E+01    1.521E+01    1.513E+01    1.506E+01
     1.499E+01    1.491E+01    1.484E+01    1.476E+01    1.469E+01    1.462E+01    1.454E+01    1.447E+01    1.439E+01    1.432E+01
     1.425E+01    1.417E+01    1.410E+01    1.402E+01    1.395E+01    1.388E+01    1.380E+01    1.373E+01    1.365E+01    1.358E+01
     1.350E+01    1.343E+01    1.336E+01    1.328E+01    1.321E+01    1.313E+01    1.306E+01    1.298E+01    1.291E+01    1.283E+01
     1.276E+01    1.268E+01    1.261E+01    1.253E+01    1.246E+01    1.238E+01    1.230E+01    1.223E+01    1.215E+01    1.207E+01
     1.200E+01    1.192E+01    1.184E+01    1.177E+01    1.169E+01    1.161E+01    1.153E+01    1.146E+01    1.138E+01    1.130E+01
     1.122E+01    1.114E+01    1.106E+01    1.098E+01    1.090E+01    1.082E+01    1.074E+01    1.066E+01    1.058E+01    1.050E+01
     1.042E+01    1.034E+01    1.026E+01    1.017E+01    1.009E+01    1.001E+01    9.926E+00    9.843E+00    9.759E+00    9.675E+00
     9.590E+00    9.506E+00    9.420E+00    9.335E+00    9.249E+00    9.163E+00    9.076E+00    8.989E+00
 Asp      Conc. = 4.33E+01
