 LCModel (Version 6.3-1L) Copyright: S.W. Provencher.          Ref.: Magn. Reson. Med. 30:672-679 (1993).                
 Slice#2 Row#4 Col#14  K_02_press_1_raw_act
 36 lines in following concentration table = NCONC+1
    Conc.  %SD /Cr+PCr  Metabolite                                         
  201.107  30%   0.000 Ala                                                 
    0.000 999%   0.000 Asp                                                 
    0.000 999%   0.000 Cr                                                  
    0.000 999%   0.000 PCr                                                 
    0.000 999%   0.000 GABA                                                
 2.12E-08 999%   0.000 Glc                                                 
    0.000 999%   0.000 Gln                                                 
  124.215  97%   0.000 Glu                                                 
    0.000 999%   0.000 GPC                                                 
    0.000 999%   0.000 PCh                                                 
    4.835 805%   0.000 GSH                                                 
    3.956 999%   0.000 Ins                                                 
    0.000 999%   0.000 Lac                                                 
    0.000 999%   0.000 NAA                                                 
    0.000 999%   0.000 NAAG                                                
 8.13E-08 999%   0.000 Scyllo                                              
    0.000 999%   0.000 Tau                                                 
 2.80E-06 999%   0.000 -CrCH2                                              
    0.000 999%   0.000 GPC+PCh                                             
    0.000 999%   0.000 NAA+NAAG                                            
    0.000 999%   0.000 Cr+PCr                                              
  124.215  97%   0.000 Glu+Gln                                             
 1.97E+05   4%   0.000 Lip13a                                              
    0.000 999%   0.000 Lip13b                                              
 3.53E+03  28%   0.000 Lip09                                               
 1.75E+03  25%   0.000 MM09                                                
    0.000 999%   0.000 Lip20                                               
    0.000 999%   0.000 MM20                                                
  420.979 109%   0.000 MM12                                                
    0.000 999%   0.000 MM14                                                
 2.74E+03  24%   0.000 MM17                                                
 1.97E+05   4%   0.000 Lip13a+Lip13b                                       
 1.97E+05   4%   0.000 MM14+Lip13a+Lip13b+MM12                             
 5.27E+03  18%   0.000 MM09+Lip09                                          
    0.000 999%   0.000 MM20+Lip20                                          
   6 lines in following misc. output table
  FWHM = 0.061 ppm    S/N = 129                                            
  Data shift =-0.046 ppm                                                   
  Ph:  80 deg      14.4 deg/ppm                                            
  alphaB,S = 7.9E-01,   4.5E+01                                            
   14 spline knots.   Ns = 5(1)                                            
  ( 4) 2 infls.   ( 5) 1 extrs.                                            
  498 points on ppm-axis = NY
      4.000000     3.992357     3.984714     3.977070     3.969427     3.961784     3.954141     3.946497     3.938854     3.931211
      3.923568     3.915925     3.908281     3.900638     3.892995     3.885352     3.877708     3.870065     3.862422     3.854779
      3.847136     3.839492     3.831849     3.824206     3.816563     3.808919     3.801276     3.793633     3.785990     3.778347
      3.770703     3.763060     3.755417     3.747774     3.740130     3.732487     3.724844     3.717201     3.709558     3.701914
      3.694271     3.686628     3.678985     3.671341     3.663698     3.656055     3.648412     3.640769     3.633125     3.625482
      3.617839     3.610196     3.602552     3.594909     3.587266     3.579623     3.571980     3.564336     3.556693     3.549050
      3.541407     3.533763     3.526120     3.518477     3.510834     3.503191     3.495547     3.487904     3.480261     3.472618
      3.464974     3.457331     3.449688     3.442045     3.434402     3.426758     3.419115     3.411472     3.403829     3.396185
      3.388542     3.380899     3.373256     3.365613     3.357969     3.350326     3.342683     3.335040     3.327396     3.319753
      3.312110     3.304467     3.296824     3.289180     3.281537     3.273894     3.266251     3.258607     3.250964     3.243321
      3.235678     3.228034     3.220391     3.212748     3.205105     3.197462     3.189818     3.182175     3.174532     3.166889
      3.159245     3.151602     3.143959     3.136316     3.128673     3.121029     3.113386     3.105743     3.098100     3.090456
      3.082813     3.075170     3.067527     3.059884     3.052240     3.044597     3.036954     3.029311     3.021667     3.014024
      3.006381     2.998738     2.991095     2.983451     2.975808     2.968165     2.960522     2.952878     2.945235     2.937592
      2.929949     2.922306     2.914662     2.907019     2.899376     2.891733     2.884089     2.876446     2.868803     2.861160
      2.853517     2.845873     2.838230     2.830587     2.822944     2.815300     2.807657     2.800014     2.792371     2.784728
      2.777084     2.769441     2.761798     2.754155     2.746511     2.738868     2.731225     2.723582     2.715939     2.708295
      2.700652     2.693009     2.685366     2.677722     2.670079     2.662436     2.654793     2.647150     2.639506     2.631863
      2.624220     2.616577     2.608933     2.601290     2.593647     2.586004     2.578361     2.570717     2.563074     2.555431
      2.547788     2.540144     2.532501     2.524858     2.517215     2.509572     2.501928     2.494285     2.486642     2.478999
      2.471355     2.463712     2.456069     2.448426     2.440783     2.433139     2.425496     2.417853     2.410210     2.402566
      2.394923     2.387280     2.379637     2.371994     2.364350     2.356707     2.349064     2.341421     2.333777     2.326134
      2.318491     2.310848     2.303205     2.295561     2.287918     2.280275     2.272632     2.264988     2.257345     2.249702
      2.242059     2.234416     2.226772     2.219129     2.211486     2.203843     2.196199     2.188556     2.180913     2.173270
      2.165627     2.157983     2.150340     2.142697     2.135054     2.127410     2.119767     2.112124     2.104481     2.096838
      2.089194     2.081551     2.073908     2.066265     2.058621     2.050978     2.043335     2.035692     2.028049     2.020405
      2.012762     2.005119     1.997476     1.989833     1.982190     1.974546     1.966903     1.959260     1.951617     1.943974
      1.936331     1.928688     1.921045     1.913402     1.905759     1.898115     1.890472     1.882829     1.875186     1.867543
      1.859900     1.852257     1.844614     1.836971     1.829327     1.821684     1.814041     1.806398     1.798755     1.791112
      1.783469     1.775826     1.768183     1.760540     1.752896     1.745253     1.737610     1.729967     1.722324     1.714681
      1.707038     1.699395     1.691752     1.684108     1.676465     1.668822     1.661179     1.653536     1.645893     1.638250
      1.630607     1.622964     1.615321     1.607677     1.600034     1.592391     1.584748     1.577105     1.569462     1.561819
      1.554176     1.546533     1.538890     1.531246     1.523603     1.515960     1.508317     1.500674     1.493031     1.485388
      1.477745     1.470102     1.462458     1.454815     1.447172     1.439529     1.431886     1.424243     1.416600     1.408957
      1.401314     1.393671     1.386027     1.378384     1.370741     1.363098     1.355455     1.347812     1.340169     1.332526
      1.324883     1.317240     1.309596     1.301953     1.294310     1.286667     1.279024     1.271381     1.263738     1.256095
      1.248452     1.240808     1.233165     1.225522     1.217879     1.210236     1.202593     1.194950     1.187307     1.179664
      1.172021     1.164377     1.156734     1.149091     1.141448     1.133805     1.126162     1.118519     1.110876     1.103233
      1.095590     1.087946     1.080303     1.072660     1.065017     1.057374     1.049731     1.042088     1.034445     1.026802
      1.019158     1.011515     1.003872     0.996229     0.988586     0.980943     0.973300     0.965657     0.958014     0.950371
      0.942727     0.935084     0.927441     0.919798     0.912155     0.904512     0.896869     0.889226     0.881583     0.873940
      0.866296     0.858653     0.851010     0.843367     0.835724     0.828081     0.820438     0.812795     0.805152     0.797508
      0.789865     0.782222     0.774579     0.766936     0.759293     0.751650     0.744007     0.736364     0.728721     0.721077
      0.713434     0.705791     0.698148     0.690505     0.682862     0.675219     0.667576     0.659933     0.652290     0.644646
      0.637003     0.629360     0.621717     0.614074     0.606431     0.598788     0.591145     0.583502     0.575858     0.568215
      0.560572     0.552929     0.545286     0.537643     0.530000     0.522357     0.514714     0.507071     0.499427     0.491784
      0.484141     0.476498     0.468855     0.461212     0.453569     0.445925     0.438282     0.430639     0.422996     0.415353
      0.407710     0.400067     0.392424     0.384780     0.377137     0.369494     0.361851     0.354208     0.346565     0.338922
      0.331278     0.323635     0.315992     0.308349     0.300706     0.293063     0.285420     0.277777     0.270133     0.262490
      0.254847     0.247204     0.239561     0.231918     0.224275     0.216631     0.208988     0.201345
 NY phased data points follow
   2.53832E+00  2.73833E+00  2.54688E+00  2.36325E+00  1.75732E+00  1.83381E+00  1.09094E-01  2.44805E+00 -1.62731E-01  1.09651E+00
  -1.15712E+00  3.59131E-01  1.11667E+00 -1.61316E+00 -3.11686E-01  9.99045E-01 -6.07924E-01 -5.58998E-01 -7.37769E-01 -6.74767E-01
   2.79247E-01 -4.86766E-01  8.25165E-01 -2.03719E+00 -2.22420E+00 -1.45478E-01  1.02201E+00 -2.01514E+00 -2.87429E+00 -1.29147E+00
  -3.31282E+00 -1.29506E+00 -2.23818E+00  2.52845E-01 -2.53725E+00 -1.11901E+00 -2.08280E+00 -3.93801E+00  4.68110E-01 -3.21255E+00
  -1.72757E+00 -3.96667E+00 -7.70683E-01 -3.06164E-02 -3.03981E+00 -2.39006E+00 -2.93671E+00 -2.28763E+00 -6.99622E+00 -7.40972E-01
  -2.05388E+00 -3.16584E+00 -3.37268E+00 -3.03568E+00 -3.57058E+00 -2.77673E+00  2.43142E-01 -3.19932E+00 -1.83242E+00  2.55748E+00
  -2.85468E+00 -2.86595E+00 -5.10316E+00 -1.88123E+00 -1.09844E+00 -3.97733E+00 -2.21236E+00 -1.80496E+00 -2.63560E+00 -3.53495E+00
  -2.97619E+00 -5.40854E+00 -4.98089E+00 -4.51186E+00 -5.39307E+00 -3.40045E+00 -2.52365E+00 -6.41865E+00  4.55200E-01 -3.74324E+00
  -4.12571E+00 -1.97287E+00  2.46924E+00 -4.06332E+00 -1.45801E+00 -1.62361E+00 -6.49043E+00 -1.44810E+00 -4.62606E+00 -2.69386E+00
  -4.14722E+00 -4.27558E+00 -3.33552E+00 -4.08832E+00 -5.04287E+00 -3.89631E+00 -6.15578E+00 -7.35736E+00 -2.11198E+00 -5.13541E+00
  -5.89974E+00 -4.88619E+00 -5.95669E+00 -5.06332E+00 -2.74776E+00 -7.40760E+00 -8.47933E+00 -9.22890E-02 -4.09671E+00 -3.41832E+00
  -1.30715E+00 -4.04441E+00 -1.40214E+00 -2.87412E+00 -4.01355E+00 -6.96478E+00 -2.33571E+00 -3.29680E+00 -4.09760E+00 -4.81152E+00
  -4.53184E+00 -2.72345E+00 -4.75404E+00 -4.02639E+00 -3.26985E+00 -5.57385E+00 -2.21784E+00 -6.96033E+00 -4.22537E+00 -4.44393E+00
  -3.47133E+00 -1.66246E+00 -1.15929E+00 -1.79714E+00 -2.69864E+00 -1.37556E+00 -1.15886E+00 -3.71303E+00 -4.56725E+00 -1.28723E+00
  -2.12379E+00 -3.22839E+00 -4.92149E+00 -3.17020E+00 -1.44606E+00 -3.55296E+00 -2.06657E+00 -2.24355E+00 -4.00534E+00 -3.03602E-01
  -7.81945E-01 -2.17035E+00 -5.20036E-01 -4.92977E+00 -2.22803E+00 -1.72056E+00 -2.87148E+00 -1.26348E+00 -1.64863E+00 -1.52861E+00
  -1.15359E+00 -2.22960E+00 -9.75742E-01  2.19124E+00  1.52609E-01 -2.87724E+00  2.24540E+00  2.23859E+00 -7.94799E-01 -1.27348E+00
  -1.66213E+00 -4.47716E+00  2.37527E+00 -1.02670E+00 -8.15502E-02 -7.61919E-01 -2.64448E+00 -1.71273E+00 -7.58106E-01  1.39158E+00
  -2.67207E+00 -1.99557E+00  2.20262E+00 -3.36917E+00 -8.70272E-02 -2.45801E-01  4.73649E-01 -1.16089E+00  1.87395E+00 -2.20259E+00
  -2.83480E-01 -9.84544E-01  1.99371E+00 -2.10875E-01  1.69194E+00 -1.24722E+00 -3.64219E-01 -8.45257E-01  3.06127E+00 -8.35996E-01
   9.32530E-01  1.11235E+00  3.06184E+00  2.51530E+00  3.80010E-01 -1.13683E+00  1.72846E+00  1.95209E+00 -2.60380E-01  1.53181E+00
   3.95668E+00  5.94147E+00  2.23145E+00  5.31890E+00  3.08522E+00  1.98250E+00  2.88294E+00  5.16469E+00  1.87512E+00 -4.33371E-01
   1.65232E+00  1.63809E+00  3.00592E+00  4.98331E+00  6.65108E-01  4.10954E+00  5.07832E+00  4.62786E+00  3.58313E+00  3.33615E+00
   6.40051E+00  4.54673E+00  4.21625E+00  3.83286E+00  3.20513E+00  2.97881E+00  8.01083E+00  5.00227E+00  9.11761E+00  2.63463E+00
   3.61211E+00  3.67584E+00  1.78855E+00  5.01789E+00  1.18731E+00  7.52707E+00  4.80345E+00  4.54579E+00  6.96410E+00  2.21204E+00
   1.83849E+00  3.31929E+00  2.50520E+00  4.67693E+00  4.02044E+00  5.26882E+00  2.03685E+00  4.49112E+00  3.04039E+00  3.78711E+00
   5.27474E+00  5.60677E+00  4.04573E+00  5.52440E+00  3.79983E+00  9.25504E+00  7.79086E+00  9.24900E+00  1.31479E+01  9.02799E+00
   9.38978E+00  9.56043E+00  9.93650E+00  9.33964E+00  8.89962E+00  1.31042E+01  1.36283E+01  1.81372E+01  1.85457E+01  2.07555E+01
   2.29955E+01  2.11417E+01  2.40643E+01  2.59868E+01  2.61203E+01  2.75131E+01  3.25885E+01  3.46773E+01  3.53815E+01  3.59572E+01
   3.83579E+01  4.00154E+01  4.16090E+01  4.32087E+01  4.54986E+01  4.72885E+01  5.11849E+01  5.41989E+01  5.84062E+01  5.84200E+01
   5.97630E+01  6.70955E+01  6.84648E+01  7.20685E+01  7.69258E+01  8.07873E+01  8.63588E+01  8.85860E+01  9.23230E+01  1.01681E+02
   1.02327E+02  1.11133E+02  1.18380E+02  1.23268E+02  1.30208E+02  1.38836E+02  1.47612E+02  1.53385E+02  1.60259E+02  1.66530E+02
   1.75194E+02  1.83444E+02  1.89339E+02  1.98736E+02  2.07674E+02  2.18170E+02  2.27446E+02  2.37479E+02  2.49337E+02  2.58998E+02
   2.67260E+02  2.85018E+02  3.00561E+02  3.15836E+02  3.30571E+02  3.46061E+02  3.61481E+02  3.76148E+02  3.93475E+02  4.09056E+02
   4.25856E+02  4.36402E+02  4.53895E+02  4.65283E+02  4.80345E+02  4.91348E+02  5.01519E+02  5.07016E+02  5.13163E+02  5.23307E+02
   5.20270E+02  5.23404E+02  5.25075E+02  5.19737E+02  5.16374E+02  5.10375E+02  5.00561E+02  4.94075E+02  4.83815E+02  4.67514E+02
   4.57852E+02  4.42109E+02  4.27168E+02  4.09193E+02  3.92967E+02  3.77898E+02  3.59553E+02  3.44607E+02  3.29393E+02  3.11992E+02
   2.96469E+02  2.76558E+02  2.64151E+02  2.47812E+02  2.33798E+02  2.20324E+02  2.04822E+02  1.94520E+02  1.84702E+02  1.72196E+02
   1.60637E+02  1.51442E+02  1.42521E+02  1.39889E+02  1.29035E+02  1.26468E+02  1.15706E+02  1.06920E+02  1.06198E+02  1.00606E+02
   9.73471E+01  8.97131E+01  8.75075E+01  8.41212E+01  7.61900E+01  7.40700E+01  7.37808E+01  6.71449E+01  6.66571E+01  6.10727E+01
   5.70678E+01  5.20545E+01  5.15772E+01  4.89912E+01  4.72591E+01  4.32526E+01  3.88952E+01  3.50549E+01  3.31867E+01  3.42076E+01
   2.80405E+01  2.75981E+01  2.63584E+01  2.37066E+01  1.71489E+01  1.76351E+01  1.70697E+01  1.46326E+01  1.15964E+01  1.29343E+01
   9.89858E+00  7.09209E+00  8.92435E+00  5.93402E+00  3.54916E-01 -4.79449E-01 -1.26865E+00 -8.79188E-01 -5.14707E+00 -5.25583E+00
  -8.54140E+00 -6.68033E+00 -9.49288E+00 -9.55927E+00 -1.02152E+01 -1.41061E+01 -1.32311E+01 -1.60319E+01 -1.45795E+01 -1.73813E+01
  -1.94019E+01 -1.84276E+01 -1.79738E+01 -2.00994E+01 -2.29201E+01 -2.01583E+01 -2.02121E+01 -2.23716E+01 -2.57479E+01 -2.55570E+01
  -2.58519E+01 -2.21129E+01 -2.52495E+01 -2.95020E+01 -2.90158E+01 -2.64657E+01 -2.81355E+01 -2.90662E+01 -3.16120E+01 -2.87535E+01
  -3.07728E+01 -2.94601E+01 -3.05137E+01 -3.30515E+01 -3.18406E+01 -2.87565E+01 -2.95903E+01 -3.19339E+01 -3.03933E+01 -3.38733E+01
  -3.50302E+01 -3.26213E+01 -3.19814E+01 -3.30707E+01 -3.30708E+01 -3.25973E+01 -3.34595E+01 -3.28878E+01 -3.35473E+01 -3.48749E+01
  -3.11426E+01 -3.34172E+01 -3.33081E+01 -3.39572E+01 -3.59958E+01 -3.55387E+01 -3.26174E+01 -3.57395E+01 -3.46275E+01 -3.58025E+01
  -3.60194E+01 -3.39961E+01 -3.43595E+01 -3.52788E+01 -3.51098E+01 -3.23833E+01 -3.35672E+01 -3.10279E+01
 NY points of the fit to the data follow
   1.75131E+00  1.61387E+00  1.48017E+00  1.35034E+00  1.22409E+00  1.10111E+00  9.81172E-01  8.64054E-01  7.49395E-01  6.36706E-01
   5.25319E-01  4.12997E-01  2.89315E-01  1.38851E-01 -1.90400E-02 -1.56294E-01 -2.56669E-01 -3.13929E-01 -3.24229E-01 -2.74943E-01
  -1.56580E-01 -4.38812E-02 -2.54745E-02 -1.52416E-01 -4.16455E-01 -7.68594E-01 -1.15322E+00 -1.52091E+00 -1.76272E+00 -1.79688E+00
  -1.65356E+00 -1.41405E+00 -1.16332E+00 -9.92009E-01 -9.40775E-01 -1.01331E+00 -1.18954E+00 -1.42202E+00 -1.66862E+00 -1.88786E+00
  -2.03193E+00 -2.09960E+00 -2.12645E+00 -2.13722E+00 -2.14683E+00 -2.16711E+00 -2.20156E+00 -2.25009E+00 -2.31142E+00 -2.37699E+00
  -2.44344E+00 -2.50901E+00 -2.57234E+00 -2.63248E+00 -2.68822E+00 -2.73920E+00 -2.78682E+00 -2.83276E+00 -2.87838E+00 -2.92445E+00
  -2.97129E+00 -3.01879E+00 -3.06641E+00 -3.11347E+00 -3.15940E+00 -3.20379E+00 -3.24618E+00 -3.28619E+00 -3.32419E+00 -3.36084E+00
  -3.39674E+00 -3.43211E+00 -3.46697E+00 -3.50126E+00 -3.53474E+00 -3.56721E+00 -3.59848E+00 -3.62844E+00 -3.65699E+00 -3.68401E+00
  -3.70961E+00 -3.73399E+00 -3.75764E+00 -3.78082E+00 -3.80343E+00 -3.82489E+00 -3.84452E+00 -3.86186E+00 -3.87658E+00 -3.88854E+00
  -3.89783E+00 -3.90472E+00 -3.90970E+00 -3.91367E+00 -3.91738E+00 -3.92094E+00 -3.92409E+00 -3.92637E+00 -3.92745E+00 -3.92703E+00
  -3.92479E+00 -3.92045E+00 -3.91405E+00 -3.90571E+00 -3.89572E+00 -3.88437E+00 -3.87182E+00 -3.85808E+00 -3.84319E+00 -3.82717E+00
  -3.81005E+00 -3.79183E+00 -3.77245E+00 -3.75187E+00 -3.73016E+00 -3.70762E+00 -3.68434E+00 -3.66022E+00 -3.63507E+00 -3.60863E+00
  -3.58056E+00 -3.55089E+00 -3.51987E+00 -3.48770E+00 -3.45446E+00 -3.42016E+00 -3.38471E+00 -3.34779E+00 -3.30813E+00 -3.26496E+00
  -3.22118E+00 -3.18026E+00 -3.14342E+00 -3.11037E+00 -3.07898E+00 -3.04599E+00 -3.00908E+00 -2.96616E+00 -2.91772E+00 -2.86532E+00
  -2.81048E+00 -2.75508E+00 -2.70167E+00 -2.65120E+00 -2.60303E+00 -2.55626E+00 -2.50959E+00 -2.46184E+00 -2.41251E+00 -2.36135E+00
  -2.30908E+00 -2.25582E+00 -2.20133E+00 -2.14551E+00 -2.08843E+00 -2.03015E+00 -1.97077E+00 -1.91050E+00 -1.84953E+00 -1.78798E+00
  -1.72589E+00 -1.66330E+00 -1.60013E+00 -1.53614E+00 -1.47114E+00 -1.40511E+00 -1.33808E+00 -1.27012E+00 -1.20119E+00 -1.13130E+00
  -1.06060E+00 -9.89294E-01 -9.17511E-01 -8.45232E-01 -7.72366E-01 -6.98841E-01 -6.24608E-01 -5.49419E-01 -4.73113E-01 -3.95503E-01
  -3.17068E-01 -2.38197E-01 -1.58687E-01 -7.80432E-02  4.43378E-03  8.98035E-02  1.78754E-01  2.70975E-01  3.64842E-01  4.58047E-01
   5.48774E-01  6.35846E-01  7.18173E-01  7.95840E-01  8.72463E-01  9.51472E-01  1.03445E+00  1.12185E+00  1.21361E+00  1.30962E+00
   1.41028E+00  1.51455E+00  1.61015E+00  1.69124E+00  1.75447E+00  1.78954E+00  1.80143E+00  1.80393E+00  1.81696E+00  1.86781E+00
   1.98354E+00  2.19786E+00  2.46464E+00  2.70872E+00  2.87482E+00  2.93845E+00  2.88206E+00  2.68441E+00  2.37961E+00  2.06898E+00
   1.85151E+00  1.77076E+00  1.83678E+00  2.03267E+00  2.29673E+00  2.57453E+00  2.81910E+00  2.99678E+00  3.09428E+00  3.11424E+00
   3.08882E+00  3.06144E+00  3.05236E+00  3.06070E+00  3.08315E+00  3.10475E+00  3.11476E+00  3.11144E+00  3.09240E+00  3.07748E+00
   3.09178E+00  3.14442E+00  3.23116E+00  3.34871E+00  3.48596E+00  3.62050E+00  3.73357E+00  3.82361E+00  3.91008E+00  4.01117E+00
   4.13650E+00  4.29516E+00  4.48681E+00  4.69477E+00  4.91470E+00  5.15636E+00  5.42541E+00  5.71852E+00  6.03517E+00  6.38259E+00
   6.75822E+00  7.15345E+00  7.56688E+00  7.99663E+00  8.44120E+00  8.89980E+00  9.38078E+00  9.89346E+00  1.04478E+01  1.10513E+01
   1.17074E+01  1.24153E+01  1.31687E+01  1.39651E+01  1.48052E+01  1.56859E+01  1.66057E+01  1.75669E+01  1.85729E+01  1.96282E+01
   2.07390E+01  2.19100E+01  2.31438E+01  2.44422E+01  2.58078E+01  2.72438E+01  2.87539E+01  3.03422E+01  3.20141E+01  3.37765E+01
   3.56365E+01  3.76018E+01  3.96807E+01  4.18824E+01  4.42166E+01  4.66936E+01  4.93243E+01  5.21199E+01  5.50916E+01  5.82501E+01
   6.16055E+01  6.51666E+01  6.89406E+01  7.29327E+01  7.71462E+01  8.15816E+01  8.62375E+01  9.11099E+01  9.61933E+01  1.01481E+02
   1.06966E+02  1.12641E+02  1.18504E+02  1.24551E+02  1.30786E+02  1.37219E+02  1.43863E+02  1.50741E+02  1.57885E+02  1.65340E+02
   1.73168E+02  1.81479E+02  1.90376E+02  1.99608E+02  2.08937E+02  2.18362E+02  2.28013E+02  2.38037E+02  2.48540E+02  2.59635E+02
   2.71698E+02  2.85001E+02  2.99449E+02  3.14796E+02  3.30735E+02  3.46876E+02  3.62988E+02  3.78933E+02  3.94585E+02  4.09845E+02
   4.24628E+02  4.38877E+02  4.52603E+02  4.65665E+02  4.77821E+02  4.88869E+02  4.98637E+02  5.06971E+02  5.13733E+02  5.18810E+02
   5.22112E+02  5.23573E+02  5.23159E+02  5.20862E+02  5.16703E+02  5.10734E+02  5.03031E+02  4.93697E+02  4.82855E+02  4.70650E+02
   4.57237E+02  4.42785E+02  4.27467E+02  4.11459E+02  3.94937E+02  3.78069E+02  3.61018E+02  3.43935E+02  3.26958E+02  3.10212E+02
   2.93808E+02  2.77840E+02  2.62390E+02  2.47522E+02  2.33288E+02  2.19728E+02  2.06868E+02  1.94725E+02  1.83304E+02  1.72603E+02
   1.62610E+02  1.53309E+02  1.44675E+02  1.36678E+02  1.29282E+02  1.22448E+02  1.16134E+02  1.10293E+02  1.04877E+02  9.98389E+01
   9.51297E+01  9.07033E+01  8.65158E+01  8.25275E+01  7.87031E+01  7.50131E+01  7.14335E+01  6.79466E+01  6.45401E+01  6.12071E+01
   5.79450E+01  5.47546E+01  5.16392E+01  4.86031E+01  4.56512E+01  4.27876E+01  4.00152E+01  3.73352E+01  3.47469E+01  3.22481E+01
   2.98348E+01  2.75015E+01  2.52422E+01  2.30502E+01  2.09191E+01  1.88427E+01  1.68158E+01  1.48341E+01  1.28945E+01  1.09949E+01
   9.13449E+00  7.31336E+00  5.53241E+00  3.79316E+00  2.09751E+00  4.47590E-01 -1.15447E+00 -2.70667E+00 -4.20729E+00 -5.65494E+00
  -7.04868E+00 -8.38799E+00 -9.67279E+00 -1.09034E+01 -1.20807E+01 -1.32056E+01 -1.42795E+01 -1.53040E+01 -1.62810E+01 -1.72122E+01
  -1.80997E+01 -1.89454E+01 -1.97514E+01 -2.05196E+01 -2.12519E+01 -2.19501E+01 -2.26161E+01 -2.32515E+01 -2.38578E+01 -2.44364E+01
  -2.49889E+01 -2.55163E+01 -2.60200E+01 -2.65009E+01 -2.69603E+01 -2.73992E+01 -2.78186E+01 -2.82194E+01 -2.86025E+01 -2.89686E+01
  -2.93185E+01 -2.96530E+01 -2.99726E+01 -3.02779E+01 -3.05695E+01 -3.08480E+01 -3.11139E+01 -3.13675E+01 -3.16094E+01 -3.18399E+01
  -3.20594E+01 -3.22684E+01 -3.24671E+01 -3.26559E+01 -3.28350E+01 -3.30049E+01 -3.31657E+01 -3.33177E+01 -3.34611E+01 -3.35963E+01
  -3.37234E+01 -3.38427E+01 -3.39543E+01 -3.40585E+01 -3.41554E+01 -3.42452E+01 -3.43281E+01 -3.44043E+01 -3.44739E+01 -3.45371E+01
  -3.45940E+01 -3.46447E+01 -3.46895E+01 -3.47284E+01 -3.47615E+01 -3.47890E+01 -3.48110E+01 -3.48276E+01
 NY background values follow
     2.866E+00    2.709E+00    2.555E+00    2.403E+00    2.255E+00    2.109E+00    1.966E+00    1.825E+00    1.687E+00    1.552E+00
     1.419E+00    1.288E+00    1.160E+00    1.034E+00    9.096E-01    7.878E-01    6.681E-01    5.504E-01    4.346E-01    3.208E-01
     2.088E-01    9.857E-02   -9.895E-03   -1.167E-01   -2.219E-01   -3.255E-01   -4.276E-01   -5.282E-01   -6.275E-01   -7.254E-01
    -8.221E-01   -9.175E-01   -1.012E+00   -1.105E+00   -1.197E+00   -1.288E+00   -1.378E+00   -1.468E+00   -1.556E+00   -1.644E+00
    -1.731E+00   -1.818E+00   -1.903E+00   -1.989E+00   -2.074E+00   -2.158E+00   -2.242E+00   -2.326E+00   -2.409E+00   -2.492E+00
    -2.574E+00   -2.657E+00   -2.738E+00   -2.819E+00   -2.900E+00   -2.980E+00   -3.060E+00   -3.139E+00   -3.217E+00   -3.295E+00
    -3.373E+00   -3.450E+00   -3.526E+00   -3.601E+00   -3.676E+00   -3.750E+00   -3.823E+00   -3.896E+00   -3.968E+00   -4.039E+00
    -4.109E+00   -4.179E+00   -4.247E+00   -4.315E+00   -4.382E+00   -4.449E+00   -4.514E+00   -4.578E+00   -4.641E+00   -4.704E+00
    -4.765E+00   -4.826E+00   -4.885E+00   -4.944E+00   -5.001E+00   -5.058E+00   -5.113E+00   -5.167E+00   -5.220E+00   -5.272E+00
    -5.323E+00   -5.372E+00   -5.421E+00   -5.468E+00   -5.514E+00   -5.559E+00   -5.603E+00   -5.646E+00   -5.688E+00   -5.729E+00
    -5.769E+00   -5.808E+00   -5.846E+00   -5.883E+00   -5.919E+00   -5.955E+00   -5.989E+00   -6.023E+00   -6.056E+00   -6.088E+00
    -6.120E+00   -6.151E+00   -6.181E+00   -6.210E+00   -6.239E+00   -6.267E+00   -6.294E+00   -6.321E+00   -6.348E+00   -6.373E+00
    -6.399E+00   -6.424E+00   -6.448E+00   -6.472E+00   -6.496E+00   -6.519E+00   -6.542E+00   -6.564E+00   -6.586E+00   -6.608E+00
    -6.630E+00   -6.651E+00   -6.672E+00   -6.693E+00   -6.714E+00   -6.734E+00   -6.755E+00   -6.775E+00   -6.795E+00   -6.816E+00
    -6.836E+00   -6.856E+00   -6.876E+00   -6.896E+00   -6.916E+00   -6.936E+00   -6.957E+00   -6.977E+00   -6.997E+00   -7.018E+00
    -7.038E+00   -7.059E+00   -7.080E+00   -7.101E+00   -7.123E+00   -7.144E+00   -7.166E+00   -7.188E+00   -7.211E+00   -7.233E+00
    -7.256E+00   -7.280E+00   -7.304E+00   -7.328E+00   -7.352E+00   -7.377E+00   -7.402E+00   -7.428E+00   -7.454E+00   -7.481E+00
    -7.508E+00   -7.536E+00   -7.565E+00   -7.593E+00   -7.623E+00   -7.653E+00   -7.684E+00   -7.715E+00   -7.747E+00   -7.780E+00
    -7.813E+00   -7.847E+00   -7.882E+00   -7.918E+00   -7.955E+00   -7.993E+00   -8.032E+00   -8.073E+00   -8.116E+00   -8.161E+00
    -8.208E+00   -8.257E+00   -8.308E+00   -8.362E+00   -8.419E+00   -8.479E+00   -8.541E+00   -8.607E+00   -8.676E+00   -8.749E+00
    -8.825E+00   -8.905E+00   -8.989E+00   -9.078E+00   -9.170E+00   -9.267E+00   -9.369E+00   -9.476E+00   -9.587E+00   -9.704E+00
    -9.826E+00   -9.953E+00   -1.009E+01   -1.022E+01   -1.037E+01   -1.052E+01   -1.068E+01   -1.084E+01   -1.101E+01   -1.119E+01
    -1.137E+01   -1.156E+01   -1.176E+01   -1.197E+01   -1.218E+01   -1.240E+01   -1.263E+01   -1.286E+01   -1.311E+01   -1.336E+01
    -1.362E+01   -1.388E+01   -1.415E+01   -1.443E+01   -1.470E+01   -1.499E+01   -1.528E+01   -1.557E+01   -1.586E+01   -1.616E+01
    -1.646E+01   -1.676E+01   -1.707E+01   -1.737E+01   -1.768E+01   -1.798E+01   -1.829E+01   -1.859E+01   -1.889E+01   -1.919E+01
    -1.949E+01   -1.979E+01   -2.008E+01   -2.037E+01   -2.066E+01   -2.094E+01   -2.121E+01   -2.148E+01   -2.175E+01   -2.201E+01
    -2.226E+01   -2.251E+01   -2.275E+01   -2.298E+01   -2.320E+01   -2.342E+01   -2.362E+01   -2.382E+01   -2.400E+01   -2.418E+01
    -2.434E+01   -2.449E+01   -2.463E+01   -2.476E+01   -2.488E+01   -2.499E+01   -2.509E+01   -2.517E+01   -2.525E+01   -2.532E+01
    -2.538E+01   -2.543E+01   -2.547E+01   -2.551E+01   -2.553E+01   -2.555E+01   -2.557E+01   -2.557E+01   -2.557E+01   -2.557E+01
    -2.556E+01   -2.555E+01   -2.553E+01   -2.550E+01   -2.548E+01   -2.545E+01   -2.541E+01   -2.538E+01   -2.534E+01   -2.530E+01
    -2.526E+01   -2.521E+01   -2.517E+01   -2.512E+01   -2.508E+01   -2.503E+01   -2.499E+01   -2.495E+01   -2.491E+01   -2.487E+01
    -2.483E+01   -2.479E+01   -2.476E+01   -2.473E+01   -2.471E+01   -2.468E+01   -2.467E+01   -2.465E+01   -2.464E+01   -2.464E+01
    -2.464E+01   -2.465E+01   -2.466E+01   -2.467E+01   -2.469E+01   -2.471E+01   -2.473E+01   -2.476E+01   -2.479E+01   -2.483E+01
    -2.487E+01   -2.491E+01   -2.495E+01   -2.500E+01   -2.505E+01   -2.511E+01   -2.516E+01   -2.522E+01   -2.528E+01   -2.534E+01
    -2.541E+01   -2.548E+01   -2.555E+01   -2.562E+01   -2.569E+01   -2.577E+01   -2.584E+01   -2.592E+01   -2.600E+01   -2.608E+01
    -2.616E+01   -2.624E+01   -2.632E+01   -2.640E+01   -2.649E+01   -2.657E+01   -2.666E+01   -2.674E+01   -2.683E+01   -2.691E+01
    -2.700E+01   -2.708E+01   -2.716E+01   -2.725E+01   -2.733E+01   -2.741E+01   -2.750E+01   -2.758E+01   -2.766E+01   -2.774E+01
    -2.783E+01   -2.791E+01   -2.799E+01   -2.807E+01   -2.816E+01   -2.824E+01   -2.832E+01   -2.841E+01   -2.849E+01   -2.858E+01
    -2.866E+01   -2.874E+01   -2.883E+01   -2.892E+01   -2.900E+01   -2.909E+01   -2.918E+01   -2.927E+01   -2.936E+01   -2.945E+01
    -2.954E+01   -2.963E+01   -2.973E+01   -2.982E+01   -2.992E+01   -3.001E+01   -3.011E+01   -3.021E+01   -3.031E+01   -3.041E+01
    -3.052E+01   -3.062E+01   -3.073E+01   -3.084E+01   -3.095E+01   -3.106E+01   -3.117E+01   -3.128E+01   -3.140E+01   -3.152E+01
    -3.164E+01   -3.176E+01   -3.188E+01   -3.200E+01   -3.213E+01   -3.225E+01   -3.238E+01   -3.250E+01   -3.263E+01   -3.275E+01
    -3.288E+01   -3.301E+01   -3.314E+01   -3.326E+01   -3.339E+01   -3.352E+01   -3.364E+01   -3.377E+01   -3.389E+01   -3.401E+01
    -3.414E+01   -3.426E+01   -3.438E+01   -3.450E+01   -3.461E+01   -3.473E+01   -3.484E+01   -3.496E+01   -3.507E+01   -3.518E+01
    -3.528E+01   -3.538E+01   -3.549E+01   -3.558E+01   -3.568E+01   -3.577E+01   -3.586E+01   -3.595E+01   -3.603E+01   -3.611E+01
    -3.619E+01   -3.627E+01   -3.634E+01   -3.640E+01   -3.646E+01   -3.652E+01   -3.658E+01   -3.663E+01   -3.668E+01   -3.672E+01
    -3.676E+01   -3.680E+01   -3.683E+01   -3.686E+01   -3.689E+01   -3.691E+01   -3.693E+01   -3.695E+01   -3.696E+01   -3.697E+01
    -3.697E+01   -3.698E+01   -3.698E+01   -3.697E+01   -3.696E+01   -3.695E+01   -3.694E+01   -3.692E+01   -3.690E+01   -3.688E+01
    -3.685E+01   -3.682E+01   -3.679E+01   -3.676E+01   -3.672E+01   -3.667E+01   -3.663E+01   -3.658E+01   -3.653E+01   -3.648E+01
    -3.642E+01   -3.636E+01   -3.630E+01   -3.624E+01   -3.617E+01   -3.610E+01   -3.602E+01   -3.595E+01
 Ala      Conc. = 2.01E+02
