 LCModel (Version 6.3-1L) Copyright: S.W. Provencher.          Ref.: Magn. Reson. Med. 30:672-679 (1993).                
 Slice#2 Row#2 Col#7  K_02_press_1_raw_act
 36 lines in following concentration table = NCONC+1
    Conc.  %SD /Cr+PCr  Metabolite                                         
   93.436  90%   0.139 Ala                                                 
   45.224 279% 6.7E-02 Asp                                                 
  196.958  75%   0.292 Cr                                                  
  477.450  33%   0.708 PCr                                                 
   57.979 132% 8.6E-02 GABA                                                
   92.225  85%   0.137 Glc                                                 
  321.897  52%   0.477 Gln                                                 
  626.629  30%   0.929 Glu                                                 
  180.905  10%   0.268 GPC                                                 
    0.000 999%   0.000 PCh                                                 
  223.128  27%   0.331 GSH                                                 
  749.005  26%   1.111 Ins                                                 
   89.550  99%   0.133 Lac                                                 
 1.19E+03   9%   1.767 NAA                                                 
  223.493  47%   0.331 NAAG                                                
   14.116 132% 2.1E-02 Scyllo                                              
  193.542  60%   0.287 Tau                                                 
  210.567  40%   0.312 -CrCH2                                              
  180.905  10%   0.268 GPC+PCh                                             
 1.42E+03   6%   2.099 NAA+NAAG                                            
  674.408   8%   1.000 Cr+PCr                                              
  948.525  26%   1.406 Glu+Gln                                             
  499.119 114%   0.740 Lip13a                                              
    0.000 999%   0.000 Lip13b                                              
   74.259 316%   0.110 Lip09                                               
 2.04E+03  15%   3.028 MM09                                                
   17.290 861% 2.6E-02 Lip20                                               
 2.67E+03  14%   3.963 MM20                                                
  909.292  32%   1.348 MM12                                                
 3.37E+03  17%   4.992 MM14                                                
 1.40E+03  26%   2.074 MM17                                                
  499.119 114%   0.740 Lip13a+Lip13b                                       
 4.78E+03  10%   7.081 MM14+Lip13a+Lip13b+MM12                             
 2.12E+03  10%   3.139 MM09+Lip09                                          
 2.69E+03  13%   3.989 MM20+Lip20                                          
   6 lines in following misc. output table
  FWHM = 0.038 ppm    S/N =   9                                            
  Data shift = 0.015 ppm                                                   
  Ph:  39 deg      14.3 deg/ppm                                            
  alphaB,S = 3.6E+00,   3.2E+01                                            
   14 spline knots.   Ns = 6(1)                                            
  ( 9) 2 infls.   ( 7) 1 extrs.                                            
  498 points on ppm-axis = NY
      4.000000     3.992357     3.984714     3.977070     3.969427     3.961784     3.954141     3.946497     3.938854     3.931211
      3.923568     3.915925     3.908281     3.900638     3.892995     3.885352     3.877708     3.870065     3.862422     3.854779
      3.847136     3.839492     3.831849     3.824206     3.816563     3.808919     3.801276     3.793633     3.785990     3.778347
      3.770703     3.763060     3.755417     3.747774     3.740130     3.732487     3.724844     3.717201     3.709558     3.701914
      3.694271     3.686628     3.678985     3.671341     3.663698     3.656055     3.648412     3.640769     3.633125     3.625482
      3.617839     3.610196     3.602552     3.594909     3.587266     3.579623     3.571980     3.564336     3.556693     3.549050
      3.541407     3.533763     3.526120     3.518477     3.510834     3.503191     3.495547     3.487904     3.480261     3.472618
      3.464974     3.457331     3.449688     3.442045     3.434402     3.426758     3.419115     3.411472     3.403829     3.396185
      3.388542     3.380899     3.373256     3.365613     3.357969     3.350326     3.342683     3.335040     3.327396     3.319753
      3.312110     3.304467     3.296824     3.289180     3.281537     3.273894     3.266251     3.258607     3.250964     3.243321
      3.235678     3.228034     3.220391     3.212748     3.205105     3.197462     3.189818     3.182175     3.174532     3.166889
      3.159245     3.151602     3.143959     3.136316     3.128673     3.121029     3.113386     3.105743     3.098100     3.090456
      3.082813     3.075170     3.067527     3.059884     3.052240     3.044597     3.036954     3.029311     3.021667     3.014024
      3.006381     2.998738     2.991095     2.983451     2.975808     2.968165     2.960522     2.952878     2.945235     2.937592
      2.929949     2.922306     2.914662     2.907019     2.899376     2.891733     2.884089     2.876446     2.868803     2.861160
      2.853517     2.845873     2.838230     2.830587     2.822944     2.815300     2.807657     2.800014     2.792371     2.784728
      2.777084     2.769441     2.761798     2.754155     2.746511     2.738868     2.731225     2.723582     2.715939     2.708295
      2.700652     2.693009     2.685366     2.677722     2.670079     2.662436     2.654793     2.647150     2.639506     2.631863
      2.624220     2.616577     2.608933     2.601290     2.593647     2.586004     2.578361     2.570717     2.563074     2.555431
      2.547788     2.540144     2.532501     2.524858     2.517215     2.509572     2.501928     2.494285     2.486642     2.478999
      2.471355     2.463712     2.456069     2.448426     2.440783     2.433139     2.425496     2.417853     2.410210     2.402566
      2.394923     2.387280     2.379637     2.371994     2.364350     2.356707     2.349064     2.341421     2.333777     2.326134
      2.318491     2.310848     2.303205     2.295561     2.287918     2.280275     2.272632     2.264988     2.257345     2.249702
      2.242059     2.234416     2.226772     2.219129     2.211486     2.203843     2.196199     2.188556     2.180913     2.173270
      2.165627     2.157983     2.150340     2.142697     2.135054     2.127410     2.119767     2.112124     2.104481     2.096838
      2.089194     2.081551     2.073908     2.066265     2.058621     2.050978     2.043335     2.035692     2.028049     2.020405
      2.012762     2.005119     1.997476     1.989833     1.982190     1.974546     1.966903     1.959260     1.951617     1.943974
      1.936331     1.928688     1.921045     1.913402     1.905759     1.898115     1.890472     1.882829     1.875186     1.867543
      1.859900     1.852257     1.844614     1.836971     1.829327     1.821684     1.814041     1.806398     1.798755     1.791112
      1.783469     1.775826     1.768183     1.760540     1.752896     1.745253     1.737610     1.729967     1.722324     1.714681
      1.707038     1.699395     1.691752     1.684108     1.676465     1.668822     1.661179     1.653536     1.645893     1.638250
      1.630607     1.622964     1.615321     1.607677     1.600034     1.592391     1.584748     1.577105     1.569462     1.561819
      1.554176     1.546533     1.538890     1.531246     1.523603     1.515960     1.508317     1.500674     1.493031     1.485388
      1.477745     1.470102     1.462458     1.454815     1.447172     1.439529     1.431886     1.424243     1.416600     1.408957
      1.401314     1.393671     1.386027     1.378384     1.370741     1.363098     1.355455     1.347812     1.340169     1.332526
      1.324883     1.317240     1.309596     1.301953     1.294310     1.286667     1.279024     1.271381     1.263738     1.256095
      1.248452     1.240808     1.233165     1.225522     1.217879     1.210236     1.202593     1.194950     1.187307     1.179664
      1.172021     1.164377     1.156734     1.149091     1.141448     1.133805     1.126162     1.118519     1.110876     1.103233
      1.095590     1.087946     1.080303     1.072660     1.065017     1.057374     1.049731     1.042088     1.034445     1.026802
      1.019158     1.011515     1.003872     0.996229     0.988586     0.980943     0.973300     0.965657     0.958014     0.950371
      0.942727     0.935084     0.927441     0.919798     0.912155     0.904512     0.896869     0.889226     0.881583     0.873940
      0.866296     0.858653     0.851010     0.843367     0.835724     0.828081     0.820438     0.812795     0.805152     0.797508
      0.789865     0.782222     0.774579     0.766936     0.759293     0.751650     0.744007     0.736364     0.728721     0.721077
      0.713434     0.705791     0.698148     0.690505     0.682862     0.675219     0.667576     0.659933     0.652290     0.644646
      0.637003     0.629360     0.621717     0.614074     0.606431     0.598788     0.591145     0.583502     0.575858     0.568215
      0.560572     0.552929     0.545286     0.537643     0.530000     0.522357     0.514714     0.507071     0.499427     0.491784
      0.484141     0.476498     0.468855     0.461212     0.453569     0.445925     0.438282     0.430639     0.422996     0.415353
      0.407710     0.400067     0.392424     0.384780     0.377137     0.369494     0.361851     0.354208     0.346565     0.338922
      0.331278     0.323635     0.315992     0.308349     0.300706     0.293063     0.285420     0.277777     0.270133     0.262490
      0.254847     0.247204     0.239561     0.231918     0.224275     0.216631     0.208988     0.201345
 NY phased data points follow
   1.05134E+01  5.87392E+00  1.00417E+01  1.31952E+01  8.40178E+00  1.08252E+01  1.27802E+01  1.21400E+01  1.20119E+01  1.58729E+01
   1.83247E+01  1.85555E+01  1.48184E+01  1.32861E+01  1.03984E+01  1.28318E+01  9.58836E+00  1.56460E+01  4.15042E+00  1.07764E+01
   1.04695E+01  1.22197E+01  9.22530E+00  7.64579E+00  9.18050E+00  9.37428E+00  8.78298E+00  5.84665E+00  9.54606E+00  1.34503E+01
   8.42435E+00  1.31134E+01  1.42593E+01  8.32439E+00  6.29262E+00  1.07082E+01  1.17409E+01  1.07802E+01  2.10695E+00  5.60545E+00
   5.33030E+00  1.13302E+01  9.47243E+00  8.40233E+00  6.70782E+00  1.29425E+01  7.57829E+00  1.45556E+01  8.63250E+00  9.25445E+00
   1.31750E+01  9.46392E+00  4.81680E+00  1.35455E+01  4.01534E+00  7.29905E+00  7.06370E+00  1.24854E+01  6.01033E+00  9.17892E+00
   7.46906E+00  1.45626E+01  7.76095E+00  6.61964E+00  6.17297E+00 -1.94543E+00  1.32732E+00  5.61030E+00  4.55890E+00  8.73516E+00
   4.74745E+00  5.25239E+00  5.51013E+00  7.80667E+00  9.36303E-01  9.15969E+00  6.05685E+00  6.58541E+00  7.45696E+00  2.55717E+00
   4.71790E+00  4.68098E+00  4.52247E+00  4.55122E+00  9.54171E+00 -6.92635E-01  1.93151E+00  3.37210E+00  4.78872E+00  3.69238E+00
   8.85436E+00  3.79376E+00  1.02620E+01  6.22174E+00  5.73171E+00  1.07257E+00  3.84988E+00  9.05823E+00  1.09739E+01  1.66914E+01
   1.14750E+01  1.88396E+01  1.83112E+01  2.84215E+01  2.29053E+01  2.02976E+01  8.20763E+00  1.03124E+01  1.46585E+01  6.86117E+00
   7.03041E+00 -9.60323E-02  4.92103E+00  6.34765E+00  8.75364E+00  1.25766E+00  3.49361E+00  8.17897E+00  5.94470E+00  9.11418E+00
   5.19850E+00  6.03914E+00  9.67691E+00  6.63152E+00  1.47519E+01  2.29324E+01  2.82607E+01  3.33088E+01  3.65600E+01  2.83620E+01
   1.92697E+01  2.11532E+01  5.10110E+00  1.22745E+01  1.16843E+01  9.64730E+00  8.11998E+00  8.41223E-01  7.20721E+00  8.83592E-02
   2.56516E+00  2.84539E+00 -1.42261E+00  9.18027E+00  3.79962E+00  7.48441E+00  2.93183E+00  3.32465E+00  4.77368E+00  1.48780E+00
   8.42653E-01  4.63493E+00  5.10573E+00  5.12449E+00  6.36067E+00  1.35820E+00  1.06847E+00  8.03289E+00  1.43829E+00  5.85434E+00
  -5.22706E+00  3.23327E+00  2.46643E+00 -3.97957E+00  3.96317E+00  8.99930E-01  2.26603E+00  8.48877E+00  8.05111E+00  2.03820E+00
  -3.91954E+00 -1.83043E+00 -7.04803E+00 -6.72898E-01 -9.81991E+00 -2.51848E+00 -3.70457E+00 -3.38140E+00 -6.70096E+00 -1.56450E+00
  -3.43793E+00 -9.92694E+00 -5.68283E+00 -8.70987E+00 -7.69496E+00 -3.42016E+00 -7.74976E-01 -3.01103E+00 -3.32838E+00  2.46403E+00
   7.13558E+00 -1.59623E+00  1.21403E+00  8.96833E-01 -3.39939E-01 -1.59348E+00  4.01746E+00 -7.25659E+00 -6.04877E+00 -1.81622E+00
  -2.00298E+00 -4.17986E-01  2.91339E+00  5.45948E+00  1.39611E+00  2.92391E+00 -2.14964E+00 -2.92446E+00  3.10954E+00 -1.69281E-01
  -4.46389E+00 -1.73544E+00  3.45889E+00  5.87941E+00  1.03307E+01  9.36650E+00  5.93114E+00  6.29598E+00  2.06663E+00  6.60074E+00
   1.84475E+00 -4.06737E+00  3.84447E-01  2.28162E+00  5.61416E+00  8.91355E+00  8.72256E+00  8.39194E+00  7.07951E+00  8.72842E+00
   1.08179E+01  4.83518E+00  2.83032E+00  6.75127E+00  7.96732E+00  9.58430E+00  1.04480E+01  1.10637E+01  9.87964E+00  3.76158E+00
   8.69798E+00  8.53478E+00  7.55070E+00  9.42464E+00  9.09680E+00  1.39282E+01  1.13505E+01  1.34938E+01  2.00964E+01  1.41129E+01
   2.11483E+01  1.97710E+01  2.11128E+01  2.41144E+01  2.35572E+01  2.67613E+01  4.47038E+01  4.36959E+01  5.35151E+01  5.94567E+01
   6.73361E+01  6.11171E+01  4.07840E+01  2.25924E+01  7.47550E+00  8.06143E+00  4.63107E+00  1.26211E+00  7.43171E+00  2.00494E+00
   6.71581E+00  4.52415E+00  5.06263E+00  1.95667E+00 -4.56866E-01  4.46470E+00  2.32937E+00  1.09499E+00  3.20098E+00  7.98649E-01
   2.43372E+00  1.04202E+00  3.32872E+00 -2.86834E+00  1.51121E+00 -4.45833E-01  5.13292E+00  1.99552E+00  3.87870E+00  1.82615E+00
   4.84215E-01  3.12771E+00  4.31591E+00  7.13230E+00  1.10425E+00  7.35027E+00  2.96952E+00  6.64298E-01  9.21463E+00  1.07015E+01
   1.40907E+01  4.17004E+00  6.54568E+00  7.76195E+00  1.22182E+01  1.60571E+01  1.43013E+01  1.27513E+01  1.02992E+01  1.18725E+01
   1.04179E+01  1.13361E+01  9.21232E+00  1.81910E+01  1.13216E+01  1.62241E+01  1.57930E+01  1.78618E+01  1.28089E+01  2.15999E+01
   1.77049E+01  1.39969E+01  1.41571E+01  1.39512E+01  2.28899E+01  1.71536E+01  1.22021E+01  2.27948E+01  1.95954E+01  1.47997E+01
   1.73613E+01  1.76038E+01  1.52460E+01  2.50122E+01  1.60650E+01  2.14104E+01  1.81875E+01  1.93539E+01  1.76220E+01  1.51681E+01
   1.89362E+01  2.12035E+01  1.70603E+01  1.77814E+01  1.79668E+01  1.09970E+01  1.64262E+01  8.83868E+00  1.40522E+01  7.84687E+00
   9.81381E+00  9.71847E+00  8.18670E+00  8.67150E+00  8.79586E+00  9.00248E+00  1.23431E+01  7.08043E+00  5.48791E+00  1.18610E+01
   9.02630E+00  1.04845E+01  5.12439E-01  8.45513E+00  1.21345E+01  1.69877E+01  7.15076E+00  4.42333E+00  9.17006E+00  1.21446E+01
   8.44754E+00  4.18271E+00  5.44050E+00  5.56409E+00  3.27279E+00  6.39377E+00  8.10308E+00  6.62533E+00  7.20157E+00  9.54821E+00
   8.38048E+00  1.04370E+01  1.44964E+01  4.88506E+00  2.15982E+00  1.06714E+01  4.74622E+00  1.03762E+01  8.80847E+00  7.52626E+00
   8.13538E+00  7.23033E+00  1.07590E+01  9.05463E+00  1.22094E+01  1.79367E+01  6.76869E+00  1.18410E+01  1.65832E+01  1.33487E+01
   1.35338E+01  1.20424E+01  1.73791E+01  1.50032E+01  1.47194E+01  8.55258E+00  2.81049E+00  1.23753E+01  1.43255E+01  1.29865E+01
   1.15530E+01  1.16938E+01  1.23620E+01  7.25812E+00  9.88476E+00  1.27125E+01  4.93591E+00  4.27375E+00  3.97316E+00  1.70099E+00
   3.52335E+00  3.30438E+00 -6.94839E-01  9.12104E+00  3.06548E+00  8.00634E-01  1.25871E+00  2.85825E+00  3.63471E+00  3.26293E+00
  -1.27158E+00  5.66034E+00 -1.02424E+00  1.03104E+00 -2.29390E+00 -3.88675E+00  8.18843E-01 -4.98506E+00 -2.54708E+00  1.44281E-02
   2.75492E+00  2.09806E+00 -1.99419E+00  2.85345E+00  2.90763E+00  7.64879E-01  1.01584E+00  3.86650E-01 -8.91503E-01  6.34156E+00
  -4.41362E-01  1.46591E+00 -1.16141E+00  1.28427E+00  2.59657E+00 -3.89839E+00  2.56456E+00 -3.36671E-01  2.17765E+00 -3.78004E+00
   3.17229E+00 -2.18513E+00 -9.00469E-01  1.31281E+00 -1.54904E+00  1.13842E+00  1.79310E+00  2.17281E+00  1.30443E+00 -4.99049E+00
   3.17793E-01 -1.06763E+00 -1.81111E+00  3.20322E+00 -2.36871E+00 -7.91976E-01  5.30817E-02 -2.17169E-01  4.39276E+00 -1.44639E+00
  -3.19856E+00  1.76680E+00 -4.47758E-01 -5.54581E-01 -4.11957E+00 -2.10591E+00  1.71637E+00 -2.95127E+00 -1.62584E+00 -2.83269E+00
   5.80953E-01 -4.83457E+00  4.76406E+00 -1.95135E+00  2.62178E+00  5.56336E-01 -2.40893E+00 -2.35347E+00
 NY points of the fit to the data follow
   6.92193E+00  6.88478E+00  7.02250E+00  7.28375E+00  7.96403E+00  9.03868E+00  1.05971E+01  1.23674E+01  1.44484E+01  1.67878E+01
   1.87142E+01  1.90401E+01  1.72690E+01  1.40957E+01  1.09030E+01  8.80932E+00  7.73195E+00  7.25792E+00  7.03329E+00  6.91234E+00
   6.97497E+00  7.13993E+00  7.19934E+00  7.08649E+00  6.99818E+00  7.08880E+00  7.40795E+00  8.04221E+00  9.34361E+00  1.14876E+01
   1.37305E+01  1.47425E+01  1.39205E+01  1.18706E+01  9.58538E+00  7.67188E+00  6.29334E+00  5.55447E+00  5.50106E+00  5.80543E+00
   6.12336E+00  6.48217E+00  7.12960E+00  8.09026E+00  9.17510E+00  1.03203E+01  1.15406E+01  1.24853E+01  1.23585E+01  1.07199E+01
   8.21929E+00  6.06655E+00  4.94603E+00  4.71697E+00  4.92787E+00  5.35037E+00  5.89441E+00  6.44211E+00  6.97915E+00  7.48543E+00
   7.78561E+00  7.63454E+00  6.98411E+00  6.12288E+00  5.45066E+00  5.20691E+00  5.36114E+00  5.74023E+00  6.14282E+00  6.46390E+00
   6.73058E+00  7.01820E+00  7.30921E+00  7.45030E+00  7.41725E+00  7.24766E+00  6.90169E+00  6.34800E+00  5.68265E+00  5.15371E+00
   4.99040E+00  5.13132E+00  5.32424E+00  5.35316E+00  5.16124E+00  4.78196E+00  4.25908E+00  3.63125E+00  3.08798E+00  2.92045E+00
   3.25683E+00  3.88050E+00  4.41698E+00  4.69671E+00  4.82089E+00  5.02369E+00  5.55469E+00  6.93268E+00  9.14489E+00  1.19756E+01
   1.51512E+01  1.89144E+01  2.32000E+01  2.59700E+01  2.44894E+01  1.87687E+01  1.20784E+01  7.56274E+00  5.85184E+00  5.32796E+00
   4.82865E+00  4.53905E+00  4.51159E+00  4.57433E+00  4.65141E+00  4.72578E+00  4.81171E+00  4.91755E+00  5.05076E+00  5.24612E+00
   5.64319E+00  6.77590E+00  9.23338E+00  1.27797E+01  1.71896E+01  2.21331E+01  2.78640E+01  3.30234E+01  3.41792E+01  2.91835E+01
   2.05585E+01  1.29214E+01  8.81535E+00  7.34589E+00  6.13467E+00  4.69697E+00  3.65737E+00  3.17093E+00  3.29883E+00  3.87616E+00
   4.56058E+00  5.05300E+00  5.20182E+00  4.98384E+00  4.55891E+00  4.13226E+00  3.78425E+00  3.51942E+00  3.28836E+00  3.06445E+00
   2.85014E+00  2.64330E+00  2.45637E+00  2.30480E+00  2.17929E+00  2.07059E+00  1.99039E+00  1.89755E+00  1.73659E+00  1.41775E+00
   9.84646E-01  7.43909E-01  9.26421E-01  1.43196E+00  1.81887E+00  1.68286E+00  1.05804E+00  3.99572E-01  6.52017E-03 -1.41289E-01
  -2.15543E-01 -3.14712E-01 -4.29799E-01 -5.70467E-01 -8.31088E-01 -1.13570E+00 -1.15929E+00 -7.61679E-01 -2.29054E-01 -5.77160E-02
  -3.58692E-01 -7.58032E-01 -7.41399E-01 -3.42467E-01  9.94719E-02  3.69767E-01  6.64540E-01  1.37743E+00  2.53311E+00  3.70372E+00
   4.44937E+00  4.60045E+00  4.19540E+00  3.45288E+00  2.59061E+00  1.90407E+00  1.50277E+00  1.35245E+00  1.55250E+00  2.32829E+00
   3.58744E+00  4.88195E+00  5.79368E+00  6.06518E+00  5.61581E+00  4.50119E+00  2.89659E+00  1.18296E+00 -2.57705E-01 -1.16393E+00
  -1.10369E+00  5.10521E-02  1.97947E+00  4.10250E+00  6.02429E+00  7.28365E+00  7.35924E+00  5.99918E+00  3.77725E+00  1.76469E+00
   4.98834E-01 -3.92163E-03  2.68647E-01  1.58928E+00  3.76416E+00  5.85330E+00  7.04415E+00  7.27435E+00  7.01006E+00  6.63865E+00
   6.20579E+00  5.86251E+00  5.96984E+00  6.66583E+00  7.65422E+00  8.54785E+00  9.20242E+00  9.68996E+00  9.97114E+00  9.85820E+00
   9.45739E+00  9.06499E+00  8.98665E+00  9.38550E+00  1.02789E+01  1.14609E+01  1.25852E+01  1.33619E+01  1.37650E+01  1.41177E+01
   1.48553E+01  1.61011E+01  1.79050E+01  2.05545E+01  2.55263E+01  3.23885E+01  3.99663E+01  4.64507E+01  5.31287E+01  6.08328E+01
   6.48960E+01  5.85814E+01  4.27410E+01  2.59147E+01  1.53218E+01  1.14646E+01  9.68662E+00  7.82526E+00  6.67412E+00  6.07409E+00
   5.63159E+00  5.32548E+00  5.16475E+00  5.08180E+00  4.97861E+00  4.77487E+00  4.45466E+00  4.07479E+00  3.71563E+00  3.42101E+00
   3.19090E+00  3.02223E+00  2.92043E+00  2.87580E+00  2.86229E+00  2.86127E+00  2.87487E+00  2.91324E+00  2.98630E+00  3.10278E+00
   3.27509E+00  3.51578E+00  3.81874E+00  4.16300E+00  4.53671E+00  4.94277E+00  5.39286E+00  5.89396E+00  6.44116E+00  7.03181E+00
   7.66798E+00  8.34050E+00  9.02707E+00  9.70455E+00  1.03559E+01  1.09726E+01  1.15464E+01  1.20683E+01  1.25322E+01  1.29346E+01
   1.32750E+01  1.35575E+01  1.37891E+01  1.39794E+01  1.41402E+01  1.42864E+01  1.44339E+01  1.45992E+01  1.47979E+01  1.50461E+01
   1.53650E+01  1.57836E+01  1.62734E+01  1.67874E+01  1.72807E+01  1.77291E+01  1.80697E+01  1.81307E+01  1.78166E+01  1.73634E+01
   1.71550E+01  1.73368E+01  1.77719E+01  1.82462E+01  1.87698E+01  1.93808E+01  1.98310E+01  1.98052E+01  1.92918E+01  1.85415E+01
   1.78259E+01  1.72374E+01  1.66751E+01  1.60887E+01  1.54710E+01  1.48135E+01  1.40724E+01  1.30952E+01  1.18086E+01  1.04766E+01
   9.48213E+00  8.99674E+00  8.89244E+00  8.99357E+00  9.28751E+00  9.72755E+00  1.00200E+01  9.93496E+00  9.55599E+00  9.12722E+00
   8.82199E+00  8.61013E+00  8.41287E+00  8.22953E+00  8.06158E+00  7.89709E+00  7.73021E+00  7.55906E+00  7.38332E+00  7.20416E+00
   7.02360E+00  6.84502E+00  6.67247E+00  6.51078E+00  6.36472E+00  6.23932E+00  6.13951E+00  6.07058E+00  6.03749E+00  6.04500E+00
   6.09699E+00  6.19695E+00  6.34757E+00  6.55115E+00  6.80878E+00  7.12052E+00  7.48477E+00  7.89880E+00  8.35829E+00  8.85764E+00
   9.38926E+00  9.94404E+00  1.05110E+01  1.10782E+01  1.16324E+01  1.21604E+01  1.26479E+01  1.30814E+01  1.34478E+01  1.37357E+01
   1.39357E+01  1.40409E+01  1.40463E+01  1.39504E+01  1.37542E+01  1.34620E+01  1.30804E+01  1.26185E+01  1.20870E+01  1.14978E+01
   1.08637E+01  1.01979E+01  9.51325E+00  8.82172E+00  8.13403E+00  7.45980E+00  6.80699E+00  6.18228E+00  5.59044E+00  5.03482E+00
   4.51715E+00  4.03830E+00  3.59803E+00  3.19549E+00  2.82889E+00  2.49614E+00  2.19466E+00  1.92210E+00  1.67590E+00  1.45372E+00
   1.25297E+00  1.07140E+00  9.06796E-01  7.57470E-01  6.21680E-01  4.98013E-01  3.84889E-01  2.81153E-01  1.85662E-01  9.77146E-02
   1.64316E-02 -5.88310E-02 -1.28918E-01 -1.94284E-01 -2.55458E-01 -3.12648E-01 -3.66339E-01 -4.16822E-01 -4.64589E-01 -5.09759E-01
  -5.52587E-01 -5.93092E-01 -6.31616E-01 -6.68296E-01 -7.03436E-01 -7.36989E-01 -7.69101E-01 -7.99745E-01 -8.29214E-01 -8.57561E-01
  -8.84977E-01 -9.11333E-01 -9.36743E-01 -9.61180E-01 -9.84905E-01 -1.00790E+00 -1.03029E+00 -1.05190E+00 -1.07288E+00 -1.09320E+00
  -1.11310E+00 -1.13248E+00 -1.15144E+00 -1.16980E+00 -1.18772E+00 -1.20519E+00 -1.22241E+00 -1.23924E+00 -1.25575E+00 -1.27178E+00
  -1.28754E+00 -1.30299E+00 -1.31829E+00 -1.33326E+00 -1.34796E+00 -1.36230E+00 -1.37648E+00 -1.39044E+00 -1.40429E+00 -1.41785E+00
  -1.43119E+00 -1.44425E+00 -1.45724E+00 -1.47006E+00 -1.48279E+00 -1.49522E+00 -1.50749E+00 -1.51955E+00
 NY background values follow
     4.592E+00    4.573E+00    4.553E+00    4.534E+00    4.515E+00    4.495E+00    4.476E+00    4.456E+00    4.437E+00    4.417E+00
     4.398E+00    4.379E+00    4.359E+00    4.340E+00    4.320E+00    4.301E+00    4.282E+00    4.262E+00    4.243E+00    4.223E+00
     4.204E+00    4.184E+00    4.165E+00    4.146E+00    4.126E+00    4.107E+00    4.087E+00    4.068E+00    4.049E+00    4.029E+00
     4.010E+00    3.990E+00    3.971E+00    3.952E+00    3.932E+00    3.913E+00    3.893E+00    3.874E+00    3.855E+00    3.835E+00
     3.816E+00    3.797E+00    3.777E+00    3.758E+00    3.739E+00    3.719E+00    3.700E+00    3.680E+00    3.661E+00    3.642E+00
     3.622E+00    3.603E+00    3.584E+00    3.564E+00    3.545E+00    3.526E+00    3.507E+00    3.487E+00    3.468E+00    3.449E+00
     3.429E+00    3.410E+00    3.391E+00    3.372E+00    3.353E+00    3.333E+00    3.314E+00    3.295E+00    3.276E+00    3.257E+00
     3.237E+00    3.218E+00    3.199E+00    3.180E+00    3.161E+00    3.142E+00    3.123E+00    3.103E+00    3.084E+00    3.065E+00
     3.046E+00    3.027E+00    3.008E+00    2.989E+00    2.970E+00    2.951E+00    2.932E+00    2.913E+00    2.894E+00    2.875E+00
     2.857E+00    2.838E+00    2.819E+00    2.800E+00    2.781E+00    2.762E+00    2.743E+00    2.725E+00    2.706E+00    2.687E+00
     2.668E+00    2.650E+00    2.631E+00    2.612E+00    2.594E+00    2.575E+00    2.556E+00    2.538E+00    2.519E+00    2.501E+00
     2.482E+00    2.464E+00    2.445E+00    2.427E+00    2.408E+00    2.390E+00    2.371E+00    2.353E+00    2.335E+00    2.316E+00
     2.298E+00    2.280E+00    2.262E+00    2.243E+00    2.225E+00    2.207E+00    2.189E+00    2.171E+00    2.153E+00    2.135E+00
     2.117E+00    2.099E+00    2.081E+00    2.063E+00    2.045E+00    2.027E+00    2.009E+00    1.991E+00    1.973E+00    1.955E+00
     1.938E+00    1.920E+00    1.902E+00    1.885E+00    1.867E+00    1.849E+00    1.832E+00    1.814E+00    1.797E+00    1.779E+00
     1.762E+00    1.745E+00    1.727E+00    1.710E+00    1.693E+00    1.675E+00    1.658E+00    1.641E+00    1.624E+00    1.607E+00
     1.590E+00    1.573E+00    1.556E+00    1.539E+00    1.522E+00    1.505E+00    1.489E+00    1.472E+00    1.455E+00    1.438E+00
     1.422E+00    1.405E+00    1.389E+00    1.372E+00    1.356E+00    1.340E+00    1.323E+00    1.307E+00    1.291E+00    1.275E+00
     1.258E+00    1.242E+00    1.226E+00    1.210E+00    1.194E+00    1.179E+00    1.163E+00    1.147E+00    1.131E+00    1.116E+00
     1.100E+00    1.084E+00    1.069E+00    1.053E+00    1.038E+00    1.023E+00    1.007E+00    9.920E-01    9.768E-01    9.617E-01
     9.465E-01    9.315E-01    9.165E-01    9.015E-01    8.866E-01    8.717E-01    8.569E-01    8.422E-01    8.275E-01    8.128E-01
     7.982E-01    7.836E-01    7.691E-01    7.547E-01    7.403E-01    7.259E-01    7.116E-01    6.973E-01    6.831E-01    6.690E-01
     6.549E-01    6.408E-01    6.268E-01    6.128E-01    5.989E-01    5.851E-01    5.712E-01    5.575E-01    5.438E-01    5.301E-01
     5.165E-01    5.029E-01    4.894E-01    4.760E-01    4.626E-01    4.492E-01    4.359E-01    4.226E-01    4.094E-01    3.962E-01
     3.831E-01    3.700E-01    3.570E-01    3.440E-01    3.311E-01    3.182E-01    3.054E-01    2.926E-01    2.799E-01    2.672E-01
     2.546E-01    2.420E-01    2.295E-01    2.170E-01    2.045E-01    1.921E-01    1.798E-01    1.675E-01    1.552E-01    1.430E-01
     1.309E-01    1.188E-01    1.067E-01    9.470E-02    8.273E-02    7.081E-02    5.894E-02    4.711E-02    3.533E-02    2.360E-02
     1.191E-02    2.726E-04   -1.132E-02   -2.287E-02   -3.437E-02   -4.582E-02   -5.723E-02   -6.859E-02   -7.991E-02   -9.119E-02
    -1.024E-01   -1.136E-01   -1.247E-01   -1.358E-01   -1.469E-01   -1.579E-01   -1.689E-01   -1.798E-01   -1.907E-01   -2.015E-01
    -2.123E-01   -2.231E-01   -2.338E-01   -2.445E-01   -2.551E-01   -2.657E-01   -2.762E-01   -2.867E-01   -2.972E-01   -3.076E-01
    -3.180E-01   -3.284E-01   -3.387E-01   -3.490E-01   -3.592E-01   -3.694E-01   -3.796E-01   -3.897E-01   -3.998E-01   -4.098E-01
    -4.198E-01   -4.298E-01   -4.397E-01   -4.496E-01   -4.595E-01   -4.693E-01   -4.791E-01   -4.889E-01   -4.986E-01   -5.083E-01
    -5.180E-01   -5.276E-01   -5.372E-01   -5.467E-01   -5.563E-01   -5.658E-01   -5.752E-01   -5.846E-01   -5.940E-01   -6.034E-01
    -6.127E-01   -6.220E-01   -6.313E-01   -6.405E-01   -6.497E-01   -6.589E-01   -6.681E-01   -6.772E-01   -6.863E-01   -6.953E-01
    -7.043E-01   -7.133E-01   -7.223E-01   -7.313E-01   -7.402E-01   -7.491E-01   -7.579E-01   -7.668E-01   -7.756E-01   -7.844E-01
    -7.931E-01   -8.018E-01   -8.105E-01   -8.192E-01   -8.279E-01   -8.365E-01   -8.451E-01   -8.537E-01   -8.622E-01   -8.708E-01
    -8.793E-01   -8.878E-01   -8.962E-01   -9.047E-01   -9.131E-01   -9.215E-01   -9.299E-01   -9.382E-01   -9.466E-01   -9.549E-01
    -9.631E-01   -9.714E-01   -9.797E-01   -9.879E-01   -9.961E-01   -1.004E+00   -1.012E+00   -1.021E+00   -1.029E+00   -1.037E+00
    -1.045E+00   -1.053E+00   -1.061E+00   -1.069E+00   -1.077E+00   -1.085E+00   -1.093E+00   -1.101E+00   -1.109E+00   -1.117E+00
    -1.125E+00   -1.133E+00   -1.141E+00   -1.148E+00   -1.156E+00   -1.164E+00   -1.172E+00   -1.180E+00   -1.187E+00   -1.195E+00
    -1.203E+00   -1.211E+00   -1.218E+00   -1.226E+00   -1.234E+00   -1.241E+00   -1.249E+00   -1.257E+00   -1.264E+00   -1.272E+00
    -1.280E+00   -1.287E+00   -1.295E+00   -1.302E+00   -1.310E+00   -1.317E+00   -1.325E+00   -1.332E+00   -1.340E+00   -1.347E+00
    -1.355E+00   -1.362E+00   -1.370E+00   -1.377E+00   -1.385E+00   -1.392E+00   -1.400E+00   -1.407E+00   -1.414E+00   -1.422E+00
    -1.429E+00   -1.437E+00   -1.444E+00   -1.451E+00   -1.459E+00   -1.466E+00   -1.473E+00   -1.481E+00   -1.488E+00   -1.495E+00
    -1.503E+00   -1.510E+00   -1.517E+00   -1.525E+00   -1.532E+00   -1.539E+00   -1.546E+00   -1.554E+00   -1.561E+00   -1.568E+00
    -1.575E+00   -1.583E+00   -1.590E+00   -1.597E+00   -1.604E+00   -1.612E+00   -1.619E+00   -1.626E+00   -1.633E+00   -1.641E+00
    -1.648E+00   -1.655E+00   -1.662E+00   -1.670E+00   -1.677E+00   -1.684E+00   -1.691E+00   -1.698E+00   -1.706E+00   -1.713E+00
    -1.720E+00   -1.727E+00   -1.734E+00   -1.742E+00   -1.749E+00   -1.756E+00   -1.763E+00   -1.770E+00   -1.778E+00   -1.785E+00
    -1.792E+00   -1.799E+00   -1.806E+00   -1.814E+00   -1.821E+00   -1.828E+00   -1.835E+00   -1.842E+00   -1.850E+00   -1.857E+00
    -1.864E+00   -1.871E+00   -1.878E+00   -1.886E+00   -1.893E+00   -1.900E+00   -1.907E+00   -1.914E+00
 Ala      Conc. = 9.34E+01
