 LCModel (Version 6.3-1L) Copyright: S.W. Provencher.          Ref.: Magn. Reson. Med. 30:672-679 (1993).                
 Slice#2 Row#13 Col#7  K_02_press_1_raw_act
 36 lines in following concentration table = NCONC+1
    Conc.  %SD /Cr+PCr  Metabolite                                         
   27.765 364% 3.0E-02 Ala                                                 
    0.000 999%   0.000 Asp                                                 
  610.969  30%   0.649 Cr                                                  
  329.849  57%   0.351 PCr                                                 
   20.832 532% 2.2E-02 GABA                                                
    0.000 999%   0.000 Glc                                                 
  699.965  34%   0.744 Gln                                                 
 1.16E+03  24%   1.232 Glu                                                 
  276.375   6%   0.294 GPC                                                 
    0.000 999%   0.000 PCh                                                 
  393.292  16%   0.418 GSH                                                 
 1.83E+03  15%   1.947 Ins                                                 
  190.261  61%   0.202 Lac                                                 
 1.65E+03   3%   1.751 NAA                                                 
    0.000 999%   0.000 NAAG                                                
  102.632  21%   0.109 Scyllo                                              
    0.000 999%   0.000 Tau                                                 
  117.484  77%   0.125 -CrCH2                                              
  276.375   6%   0.294 GPC+PCh                                             
 1.65E+03   3%   1.751 NAA+NAAG                                            
  940.817   4%   1.000 Cr+PCr                                              
 1.86E+03  24%   1.976 Glu+Gln                                             
    0.000 999%   0.000 Lip13a                                              
  116.532  60%   0.124 Lip13b                                              
   27.506 108% 2.9E-02 Lip09                                               
  485.724  23%   0.516 MM09                                                
   17.984 107% 1.9E-02 Lip20                                               
  744.976  28%   0.792 MM20                                                
  141.926  43%   0.151 MM12                                                
  432.439  36%   0.460 MM14                                                
  330.432  35%   0.351 MM17                                                
  116.532  60%   0.124 Lip13a+Lip13b                                       
  690.896  28%   0.734 MM14+Lip13a+Lip13b+MM12                             
  513.230  21%   0.546 MM09+Lip09                                          
  762.960  27%   0.811 MM20+Lip20                                          
   6 lines in following misc. output table
  FWHM = 0.069 ppm    S/N =  11                                            
  Data shift =-0.015 ppm                                                   
  Ph: -57 deg     -18.6 deg/ppm                                            
  alphaB,S = 5.3E-01,   9.9E+01                                            
   14 spline knots.   Ns = 9(1)                                            
  (14) 6 infls.   ( 7) 1 extrs.                                            
  498 points on ppm-axis = NY
      4.000000     3.992357     3.984714     3.977070     3.969427     3.961784     3.954141     3.946497     3.938854     3.931211
      3.923568     3.915925     3.908281     3.900638     3.892995     3.885352     3.877708     3.870065     3.862422     3.854779
      3.847136     3.839492     3.831849     3.824206     3.816563     3.808919     3.801276     3.793633     3.785990     3.778347
      3.770703     3.763060     3.755417     3.747774     3.740130     3.732487     3.724844     3.717201     3.709558     3.701914
      3.694271     3.686628     3.678985     3.671341     3.663698     3.656055     3.648412     3.640769     3.633125     3.625482
      3.617839     3.610196     3.602552     3.594909     3.587266     3.579623     3.571980     3.564336     3.556693     3.549050
      3.541407     3.533763     3.526120     3.518477     3.510834     3.503191     3.495547     3.487904     3.480261     3.472618
      3.464974     3.457331     3.449688     3.442045     3.434402     3.426758     3.419115     3.411472     3.403829     3.396185
      3.388542     3.380899     3.373256     3.365613     3.357969     3.350326     3.342683     3.335040     3.327396     3.319753
      3.312110     3.304467     3.296824     3.289180     3.281537     3.273894     3.266251     3.258607     3.250964     3.243321
      3.235678     3.228034     3.220391     3.212748     3.205105     3.197462     3.189818     3.182175     3.174532     3.166889
      3.159245     3.151602     3.143959     3.136316     3.128673     3.121029     3.113386     3.105743     3.098100     3.090456
      3.082813     3.075170     3.067527     3.059884     3.052240     3.044597     3.036954     3.029311     3.021667     3.014024
      3.006381     2.998738     2.991095     2.983451     2.975808     2.968165     2.960522     2.952878     2.945235     2.937592
      2.929949     2.922306     2.914662     2.907019     2.899376     2.891733     2.884089     2.876446     2.868803     2.861160
      2.853517     2.845873     2.838230     2.830587     2.822944     2.815300     2.807657     2.800014     2.792371     2.784728
      2.777084     2.769441     2.761798     2.754155     2.746511     2.738868     2.731225     2.723582     2.715939     2.708295
      2.700652     2.693009     2.685366     2.677722     2.670079     2.662436     2.654793     2.647150     2.639506     2.631863
      2.624220     2.616577     2.608933     2.601290     2.593647     2.586004     2.578361     2.570717     2.563074     2.555431
      2.547788     2.540144     2.532501     2.524858     2.517215     2.509572     2.501928     2.494285     2.486642     2.478999
      2.471355     2.463712     2.456069     2.448426     2.440783     2.433139     2.425496     2.417853     2.410210     2.402566
      2.394923     2.387280     2.379637     2.371994     2.364350     2.356707     2.349064     2.341421     2.333777     2.326134
      2.318491     2.310848     2.303205     2.295561     2.287918     2.280275     2.272632     2.264988     2.257345     2.249702
      2.242059     2.234416     2.226772     2.219129     2.211486     2.203843     2.196199     2.188556     2.180913     2.173270
      2.165627     2.157983     2.150340     2.142697     2.135054     2.127410     2.119767     2.112124     2.104481     2.096838
      2.089194     2.081551     2.073908     2.066265     2.058621     2.050978     2.043335     2.035692     2.028049     2.020405
      2.012762     2.005119     1.997476     1.989833     1.982190     1.974546     1.966903     1.959260     1.951617     1.943974
      1.936331     1.928688     1.921045     1.913402     1.905759     1.898115     1.890472     1.882829     1.875186     1.867543
      1.859900     1.852257     1.844614     1.836971     1.829327     1.821684     1.814041     1.806398     1.798755     1.791112
      1.783469     1.775826     1.768183     1.760540     1.752896     1.745253     1.737610     1.729967     1.722324     1.714681
      1.707038     1.699395     1.691752     1.684108     1.676465     1.668822     1.661179     1.653536     1.645893     1.638250
      1.630607     1.622964     1.615321     1.607677     1.600034     1.592391     1.584748     1.577105     1.569462     1.561819
      1.554176     1.546533     1.538890     1.531246     1.523603     1.515960     1.508317     1.500674     1.493031     1.485388
      1.477745     1.470102     1.462458     1.454815     1.447172     1.439529     1.431886     1.424243     1.416600     1.408957
      1.401314     1.393671     1.386027     1.378384     1.370741     1.363098     1.355455     1.347812     1.340169     1.332526
      1.324883     1.317240     1.309596     1.301953     1.294310     1.286667     1.279024     1.271381     1.263738     1.256095
      1.248452     1.240808     1.233165     1.225522     1.217879     1.210236     1.202593     1.194950     1.187307     1.179664
      1.172021     1.164377     1.156734     1.149091     1.141448     1.133805     1.126162     1.118519     1.110876     1.103233
      1.095590     1.087946     1.080303     1.072660     1.065017     1.057374     1.049731     1.042088     1.034445     1.026802
      1.019158     1.011515     1.003872     0.996229     0.988586     0.980943     0.973300     0.965657     0.958014     0.950371
      0.942727     0.935084     0.927441     0.919798     0.912155     0.904512     0.896869     0.889226     0.881583     0.873940
      0.866296     0.858653     0.851010     0.843367     0.835724     0.828081     0.820438     0.812795     0.805152     0.797508
      0.789865     0.782222     0.774579     0.766936     0.759293     0.751650     0.744007     0.736364     0.728721     0.721077
      0.713434     0.705791     0.698148     0.690505     0.682862     0.675219     0.667576     0.659933     0.652290     0.644646
      0.637003     0.629360     0.621717     0.614074     0.606431     0.598788     0.591145     0.583502     0.575858     0.568215
      0.560572     0.552929     0.545286     0.537643     0.530000     0.522357     0.514714     0.507071     0.499427     0.491784
      0.484141     0.476498     0.468855     0.461212     0.453569     0.445925     0.438282     0.430639     0.422996     0.415353
      0.407710     0.400067     0.392424     0.384780     0.377137     0.369494     0.361851     0.354208     0.346565     0.338922
      0.331278     0.323635     0.315992     0.308349     0.300706     0.293063     0.285420     0.277777     0.270133     0.262490
      0.254847     0.247204     0.239561     0.231918     0.224275     0.216631     0.208988     0.201345
 NY phased data points follow
  -1.36780E+02 -1.38060E+02 -1.32760E+02 -1.30394E+02 -1.27124E+02 -1.22272E+02 -1.17578E+02 -1.17312E+02 -1.10275E+02 -1.07323E+02
  -1.10003E+02 -1.06899E+02 -1.07684E+02 -1.09001E+02 -1.07865E+02 -1.06888E+02 -1.07644E+02 -1.09382E+02 -1.10011E+02 -1.06798E+02
  -1.07848E+02 -1.06926E+02 -1.08716E+02 -1.03678E+02 -9.90102E+01 -1.01454E+02 -9.84688E+01 -9.69857E+01 -9.71241E+01 -9.23020E+01
  -8.92875E+01 -9.21082E+01 -8.83411E+01 -9.10658E+01 -8.65777E+01 -8.50572E+01 -8.79905E+01 -8.63834E+01 -8.32654E+01 -8.20931E+01
  -8.12684E+01 -8.02770E+01 -7.71716E+01 -7.56872E+01 -7.68090E+01 -7.34149E+01 -7.35802E+01 -6.95499E+01 -7.15875E+01 -7.08416E+01
  -6.94231E+01 -6.98487E+01 -7.22830E+01 -6.88310E+01 -6.83134E+01 -7.27313E+01 -6.84820E+01 -6.83521E+01 -6.96999E+01 -6.85217E+01
  -6.78501E+01 -6.66814E+01 -6.63007E+01 -6.67161E+01 -6.73085E+01 -6.91617E+01 -6.26293E+01 -6.50303E+01 -6.27457E+01 -6.40740E+01
  -6.06102E+01 -6.10441E+01 -6.19570E+01 -6.32718E+01 -5.89689E+01 -5.76295E+01 -5.87283E+01 -6.15526E+01 -5.51795E+01 -5.61467E+01
  -5.70164E+01 -5.53141E+01 -5.49886E+01 -5.62605E+01 -5.26446E+01 -5.06892E+01 -5.33548E+01 -5.03169E+01 -5.07483E+01 -4.75054E+01
  -5.20509E+01 -4.45906E+01 -4.56462E+01 -4.73362E+01 -4.34423E+01 -4.43279E+01 -4.11611E+01 -3.96590E+01 -3.92181E+01 -3.43870E+01
  -3.18401E+01 -3.18437E+01 -2.84138E+01 -2.60112E+01 -2.62249E+01 -3.31493E+01 -3.38573E+01 -3.46656E+01 -2.97227E+01 -3.60570E+01
  -3.73305E+01 -3.81908E+01 -3.74044E+01 -3.63413E+01 -3.88040E+01 -3.80337E+01 -3.78905E+01 -3.46427E+01 -3.59921E+01 -3.27275E+01
  -3.25014E+01 -2.80120E+01 -2.46991E+01 -2.30181E+01 -1.93063E+01 -1.22100E+01 -1.24714E+01 -7.85755E+00 -1.21548E+01 -1.36898E+01
  -1.60710E+01 -1.84988E+01 -2.14152E+01 -2.55671E+01 -2.68833E+01 -2.58272E+01 -2.98330E+01 -2.98281E+01 -3.21736E+01 -2.92916E+01
  -2.91838E+01 -3.10980E+01 -2.80367E+01 -2.86109E+01 -2.96316E+01 -2.84923E+01 -2.96165E+01 -2.94027E+01 -2.65475E+01 -2.67107E+01
  -2.97868E+01 -3.02154E+01 -2.79374E+01 -2.83951E+01 -2.70490E+01 -2.37596E+01 -3.02594E+01 -2.43354E+01 -2.51799E+01 -2.61721E+01
  -2.61700E+01 -2.75703E+01 -2.40033E+01 -2.58905E+01 -2.68227E+01 -2.48515E+01 -2.47757E+01 -2.28542E+01 -2.70143E+01 -2.66903E+01
  -2.50938E+01 -2.57107E+01 -2.67947E+01 -2.73500E+01 -2.87239E+01 -3.07637E+01 -2.68577E+01 -2.84651E+01 -2.67137E+01 -2.76177E+01
  -2.52383E+01 -2.52647E+01 -2.49235E+01 -2.37864E+01 -2.55624E+01 -2.64114E+01 -2.42876E+01 -2.07056E+01 -2.08625E+01 -2.00615E+01
  -1.85354E+01 -1.78070E+01 -1.72548E+01 -1.66849E+01 -1.65111E+01 -1.82002E+01 -1.41311E+01 -1.70771E+01 -1.66364E+01 -1.42678E+01
  -1.47609E+01 -1.27782E+01 -1.46687E+01 -1.25531E+01 -1.52160E+01 -1.42643E+01 -1.35258E+01 -1.38152E+01 -1.71273E+01 -1.54549E+01
  -1.24350E+01 -1.14139E+01 -1.20122E+01 -1.00700E+01 -8.13823E+00 -8.87000E+00 -8.62184E+00 -9.17765E+00 -1.15200E+01 -1.13611E+01
  -9.79807E+00 -1.11853E+01 -1.23160E+01 -9.20125E+00 -9.28142E+00 -7.77831E+00 -5.32490E+00 -7.18459E+00 -4.83409E+00 -4.47062E+00
  -2.46970E+00 -5.88931E+00 -5.68897E+00 -6.79625E+00 -3.28964E+00 -7.56945E+00 -3.61174E+00 -5.67507E+00 -7.70682E+00 -8.78809E+00
  -8.33686E+00 -3.50402E+00 -7.39753E+00 -7.73630E+00 -3.44827E+00 -1.63664E+00 -2.21426E+00 -1.87743E+00 -9.88788E-01  6.30783E-01
  -1.32291E+00  4.13910E+00  6.59158E+00  4.11305E+00  9.47269E+00  1.42003E+01  2.42039E+01  2.89674E+01  3.38654E+01  3.71327E+01
   3.98368E+01  4.27724E+01  3.89338E+01  2.99837E+01  2.00619E+01  2.30281E+01  1.59458E+01  1.39473E+01  8.54505E+00  6.82118E+00
   4.43795E+00  4.59670E-01  1.28428E+00 -1.44398E-01  8.06596E-01  1.10643E+00 -2.06433E+00  7.76223E-01  1.26618E+00 -1.16920E+00
  -1.21277E+00 -1.28533E+00 -6.77167E-01 -2.35228E+00  2.21333E-01  1.48558E+00 -1.84198E+00  2.79437E+00  7.38588E-01 -2.31290E-01
  -6.20592E-01  1.51882E+00  5.19572E-01 -1.07896E+00  5.64335E+00  2.77200E+00  1.04848E+00  1.81415E+00  2.17113E+00  3.87686E-01
   8.76474E-01 -4.26256E-01  2.07912E+00  9.48016E-01  5.48939E+00  3.66521E+00  5.84633E+00  2.26710E+00  2.97963E+00  4.61461E+00
   3.83955E+00  3.30373E+00  5.65869E+00  2.92737E+00  3.61141E+00  3.84463E-01  7.22101E+00  6.93722E+00  4.18566E+00  4.73064E+00
   3.31362E+00 -1.82966E-01  3.28455E+00  1.65790E+00  4.23636E+00  2.04270E+00  1.68864E+00  8.16596E-01  3.81249E+00  4.21213E+00
   5.17960E+00  1.03797E+00  1.95438E+00  4.13935E+00  4.68501E+00  4.18694E+00  6.78163E+00  5.53060E+00  2.78228E+00  4.93890E+00
   2.89728E+00  1.97882E+00  2.90463E+00  6.44441E+00 -3.36786E-02  8.00904E+00  5.75408E+00  2.27263E+00  9.04855E-01  3.46327E+00
   4.57305E+00  3.98415E+00 -1.79067E+00  3.66076E+00  2.64684E+00  2.98923E+00  4.18547E+00  4.41604E+00  3.75881E+00  4.66488E+00
   5.50339E+00  1.81981E+00  5.31630E+00  3.17297E+00  4.02866E+00 -1.93023E+00  1.83084E+00  2.90358E+00  7.95108E-01  8.87548E-01
   3.86134E+00  3.55038E+00  2.22145E-01  5.39921E-01  3.28630E+00  2.11242E+00  3.00058E+00 -1.47536E+00  1.50429E+00 -2.54861E-01
   1.53957E+00  6.12773E-01  2.58709E+00 -3.90292E-01  7.63211E-01  1.75949E+00  2.72966E-01  3.69789E+00  1.97914E+00  3.92744E+00
   1.21456E+00  2.30942E+00  3.33373E+00  6.37999E+00  1.39088E+00  2.32039E+00  2.18333E+00  4.67160E+00  3.74387E+00 -1.85743E-01
   4.91551E+00  4.32698E+00  3.05885E+00  3.50420E+00  2.83597E+00  4.92118E+00  2.89327E+00  6.82514E+00  4.64069E+00  7.56927E+00
   8.54728E+00  6.54567E+00  6.73207E+00  5.72942E+00  4.06723E+00  6.96786E+00  4.19500E+00  8.89647E+00  6.78787E+00  7.36152E+00
   6.12678E+00  5.45585E+00  5.43435E+00  6.19613E+00  5.48134E+00  2.75701E+00  2.50882E+00  3.74942E+00  2.79407E+00  7.15315E+00
   3.60539E+00  5.71522E+00  4.87343E+00  4.61117E+00  5.40665E+00  3.46813E+00  4.65561E+00  3.47372E+00  7.95294E+00  3.91621E+00
   4.41067E+00  5.67428E+00  2.57649E+00  5.28154E+00  5.52730E+00  6.10267E+00  5.22935E+00  5.04009E+00  4.34096E+00  3.67104E+00
   2.30671E+00  5.04580E+00  4.92131E+00  6.35865E+00  6.46385E+00  6.47810E+00  5.71368E+00  6.32239E+00  6.42979E+00  8.31777E+00
   5.69861E+00  3.27431E+00  8.55678E+00  4.66353E+00  6.36940E+00  4.52464E+00  7.91389E+00  7.84749E+00  4.13270E+00  6.76506E+00
   8.31860E+00  8.72294E+00  5.37220E+00  7.07358E+00  6.68735E+00  5.06813E+00  7.51359E+00  6.78013E+00  4.35397E+00  8.46726E+00
   6.01528E+00  3.78117E+00  6.24968E+00  6.44987E+00  7.26142E+00  7.93366E+00  5.79219E+00  6.87451E+00  6.39024E+00  5.91892E+00
   4.41572E+00  6.53821E+00  7.95892E+00  7.57260E+00  9.02901E+00  6.02723E+00  6.32494E+00  8.35298E+00
 NY points of the fit to the data follow
  -1.32507E+02 -1.31404E+02 -1.29798E+02 -1.27809E+02 -1.25497E+02 -1.22696E+02 -1.19498E+02 -1.16276E+02 -1.13244E+02 -1.10520E+02
  -1.08316E+02 -1.06994E+02 -1.06790E+02 -1.07310E+02 -1.07777E+02 -1.07847E+02 -1.07764E+02 -1.07770E+02 -1.07794E+02 -1.07807E+02
  -1.07677E+02 -1.07111E+02 -1.06131E+02 -1.04841E+02 -1.03215E+02 -1.01246E+02 -9.90956E+01 -9.68245E+01 -9.43973E+01 -9.19613E+01
  -8.97952E+01 -8.83426E+01 -8.78380E+01 -8.78709E+01 -8.79576E+01 -8.80846E+01 -8.81090E+01 -8.76223E+01 -8.66502E+01 -8.55868E+01
  -8.43001E+01 -8.23869E+01 -8.01623E+01 -7.79769E+01 -7.59501E+01 -7.41153E+01 -7.26596E+01 -7.19899E+01 -7.23174E+01 -7.31729E+01
  -7.37326E+01 -7.37205E+01 -7.34069E+01 -7.29681E+01 -7.23071E+01 -7.15245E+01 -7.08177E+01 -7.00445E+01 -6.90466E+01 -6.80379E+01
  -6.73335E+01 -6.69291E+01 -6.65631E+01 -6.61049E+01 -6.55042E+01 -6.47200E+01 -6.37755E+01 -6.27989E+01 -6.19242E+01 -6.11296E+01
  -6.03451E+01 -5.95812E+01 -5.88986E+01 -5.83586E+01 -5.78863E+01 -5.73999E+01 -5.69487E+01 -5.65612E+01 -5.60458E+01 -5.55400E+01
  -5.51254E+01 -5.46574E+01 -5.40555E+01 -5.34249E+01 -5.28096E+01 -5.22129E+01 -5.15766E+01 -5.09235E+01 -5.04367E+01 -5.01423E+01
  -4.98399E+01 -4.93699E+01 -4.88004E+01 -4.78679E+01 -4.63215E+01 -4.48985E+01 -4.32493E+01 -4.08925E+01 -3.79141E+01 -3.48329E+01
  -3.19227E+01 -2.93238E+01 -2.73206E+01 -2.65832E+01 -2.76969E+01 -3.00215E+01 -3.20800E+01 -3.33259E+01 -3.44404E+01 -3.57035E+01
  -3.68221E+01 -3.77923E+01 -3.88592E+01 -3.96893E+01 -3.97358E+01 -3.94284E+01 -3.89441E+01 -3.79745E+01 -3.59880E+01 -3.39294E+01
  -3.16969E+01 -2.85418E+01 -2.46699E+01 -2.08087E+01 -1.72401E+01 -1.40374E+01 -1.15072E+01 -1.03316E+01 -1.13550E+01 -1.42176E+01
  -1.72252E+01 -1.93303E+01 -2.11450E+01 -2.31922E+01 -2.52164E+01 -2.70279E+01 -2.87914E+01 -3.02168E+01 -3.05199E+01 -3.01848E+01
  -2.97390E+01 -2.93318E+01 -2.90398E+01 -2.88717E+01 -2.87357E+01 -2.85513E+01 -2.83554E+01 -2.81880E+01 -2.80619E+01 -2.79845E+01
  -2.79289E+01 -2.78715E+01 -2.78293E+01 -2.77521E+01 -2.76236E+01 -2.74897E+01 -2.73491E+01 -2.72274E+01 -2.71439E+01 -2.70404E+01
  -2.69071E+01 -2.67713E+01 -2.65995E+01 -2.63493E+01 -2.60831E+01 -2.59293E+01 -2.59491E+01 -2.60821E+01 -2.62083E+01 -2.62046E+01
  -2.61608E+01 -2.61554E+01 -2.61931E+01 -2.62170E+01 -2.61780E+01 -2.61173E+01 -2.60048E+01 -2.57736E+01 -2.54635E+01 -2.51603E+01
  -2.49100E+01 -2.47017E+01 -2.43756E+01 -2.38394E+01 -2.31832E+01 -2.25012E+01 -2.17445E+01 -2.09169E+01 -2.00585E+01 -1.92490E+01
  -1.85713E+01 -1.81124E+01 -1.78801E+01 -1.77808E+01 -1.76529E+01 -1.73247E+01 -1.67782E+01 -1.60969E+01 -1.53609E+01 -1.45447E+01
  -1.37727E+01 -1.32616E+01 -1.29312E+01 -1.28539E+01 -1.31412E+01 -1.36574E+01 -1.41859E+01 -1.45661E+01 -1.47995E+01 -1.47008E+01
  -1.40779E+01 -1.29872E+01 -1.17803E+01 -1.08923E+01 -1.03528E+01 -9.93317E+00 -9.85538E+00 -1.04239E+01 -1.12814E+01 -1.18359E+01
  -1.19927E+01 -1.20194E+01 -1.18053E+01 -1.11005E+01 -9.99706E+00 -8.97470E+00 -8.33248E+00 -7.82192E+00 -7.22396E+00 -6.65179E+00
  -6.26028E+00 -5.89389E+00 -5.36474E+00 -4.87678E+00 -4.59707E+00 -4.41195E+00 -4.24924E+00 -4.12542E+00 -4.12108E+00 -4.30506E+00
  -4.58383E+00 -4.73751E+00 -4.74853E+00 -4.66448E+00 -4.35523E+00 -3.81598E+00 -3.27606E+00 -2.88474E+00 -2.46307E+00 -1.91446E+00
  -1.10988E+00  8.63780E-01  4.44803E+00  7.68044E+00  1.14097E+01  1.67172E+01  2.27867E+01  2.84618E+01  3.35043E+01  3.78409E+01
   4.08600E+01  4.10028E+01  3.70119E+01  3.05118E+01  2.47709E+01  2.08021E+01  1.70816E+01  1.31278E+01  9.65831E+00  6.58494E+00
   3.33863E+00  7.24915E-01 -8.22640E-02 -2.09056E-01 -2.07221E-01 -1.72356E-01 -1.55637E-01 -1.51134E-01 -1.35269E-01 -1.16803E-01
  -9.69680E-02 -6.48919E-02 -2.08643E-02  2.36926E-02  7.12985E-02  1.31885E-01  2.07575E-01  2.95783E-01  3.94353E-01  5.04526E-01
   6.27927E-01  7.59910E-01  8.97257E-01  1.04301E+00  1.19828E+00  1.36097E+00  1.52975E+00  1.70462E+00  1.88390E+00  2.06388E+00
   2.24179E+00  2.41544E+00  2.58162E+00  2.73714E+00  2.87923E+00  3.00519E+00  3.11331E+00  3.20271E+00  3.27295E+00  3.32411E+00
   3.35711E+00  3.37351E+00  3.37542E+00  3.36562E+00  3.34771E+00  3.32535E+00  3.30263E+00  3.28514E+00  3.27877E+00  3.27253E+00
   3.26714E+00  3.27408E+00  3.28661E+00  3.29237E+00  3.28821E+00  3.27561E+00  3.26444E+00  3.25164E+00  3.22274E+00  3.19953E+00
   3.21615E+00  3.27573E+00  3.35397E+00  3.43836E+00  3.53590E+00  3.64827E+00  3.76053E+00  3.87012E+00  4.01674E+00  4.14445E+00
   4.20700E+00  4.28320E+00  4.34533E+00  4.30853E+00  4.14033E+00  3.86217E+00  3.57543E+00  3.24923E+00  2.79948E+00  2.37155E+00
   2.19833E+00  2.33009E+00  2.61757E+00  2.93974E+00  3.31189E+00  3.71827E+00  3.99783E+00  4.02889E+00  3.92234E+00  3.81250E+00
   3.67547E+00  3.47354E+00  3.22395E+00  2.97483E+00  2.72024E+00  2.43162E+00  2.18198E+00  2.01414E+00  1.89495E+00  1.80640E+00
   1.73923E+00  1.68754E+00  1.64743E+00  1.61634E+00  1.59274E+00  1.57581E+00  1.56519E+00  1.56083E+00  1.56293E+00  1.57182E+00
   1.58797E+00  1.61190E+00  1.64415E+00  1.68529E+00  1.73599E+00  1.79695E+00  1.86894E+00  1.95273E+00  2.04910E+00  2.15878E+00
   2.28251E+00  2.42092E+00  2.57447E+00  2.74336E+00  2.92747E+00  3.12625E+00  3.33877E+00  3.56350E+00  3.79839E+00  4.04068E+00
   4.28708E+00  4.53376E+00  4.77647E+00  5.01064E+00  5.23159E+00  5.43463E+00  5.61542E+00  5.77008E+00  5.89547E+00  5.98924E+00
   6.05007E+00  6.07766E+00  6.07289E+00  6.03770E+00  5.97498E+00  5.88840E+00  5.78223E+00  5.66108E+00  5.52977E+00  5.39303E+00
   5.25535E+00  5.12075E+00  4.99272E+00  4.87410E+00  4.76714E+00  4.67340E+00  4.59385E+00  4.52885E+00  4.47833E+00  4.44183E+00
   4.41863E+00  4.40777E+00  4.40819E+00  4.41870E+00  4.43815E+00  4.46539E+00  4.49938E+00  4.53913E+00  4.58373E+00  4.63233E+00
   4.68421E+00  4.73873E+00  4.79535E+00  4.85356E+00  4.91293E+00  4.97305E+00  5.03360E+00  5.09430E+00  5.15490E+00  5.21515E+00
   5.27483E+00  5.33374E+00  5.39173E+00  5.44867E+00  5.50455E+00  5.55931E+00  5.61296E+00  5.66548E+00  5.71691E+00  5.76725E+00
   5.81652E+00  5.86473E+00  5.91188E+00  5.95802E+00  6.00318E+00  6.04739E+00  6.09069E+00  6.13307E+00  6.17460E+00  6.21529E+00
   6.25522E+00  6.29441E+00  6.33289E+00  6.37069E+00  6.40786E+00  6.44445E+00  6.48052E+00  6.51608E+00  6.55119E+00  6.58587E+00
   6.62019E+00  6.65419E+00  6.68795E+00  6.72146E+00  6.75479E+00  6.78798E+00  6.82110E+00  6.85419E+00  6.88732E+00  6.92051E+00
   6.95382E+00  6.98731E+00  7.02105E+00  7.05510E+00  7.08951E+00  7.12434E+00  7.15966E+00  7.19554E+00
 NY background values follow
    -1.371E+02   -1.358E+02   -1.346E+02   -1.334E+02   -1.322E+02   -1.309E+02   -1.297E+02   -1.285E+02   -1.273E+02   -1.261E+02
    -1.248E+02   -1.236E+02   -1.224E+02   -1.212E+02   -1.200E+02   -1.188E+02   -1.176E+02   -1.164E+02   -1.153E+02   -1.141E+02
    -1.129E+02   -1.117E+02   -1.106E+02   -1.094E+02   -1.083E+02   -1.071E+02   -1.060E+02   -1.048E+02   -1.037E+02   -1.026E+02
    -1.015E+02   -1.004E+02   -9.930E+01   -9.821E+01   -9.714E+01   -9.607E+01   -9.501E+01   -9.396E+01   -9.292E+01   -9.189E+01
    -9.087E+01   -8.986E+01   -8.886E+01   -8.787E+01   -8.689E+01   -8.593E+01   -8.497E+01   -8.403E+01   -8.310E+01   -8.218E+01
    -8.127E+01   -8.037E+01   -7.948E+01   -7.861E+01   -7.774E+01   -7.689E+01   -7.604E+01   -7.521E+01   -7.438E+01   -7.357E+01
    -7.276E+01   -7.197E+01   -7.118E+01   -7.040E+01   -6.964E+01   -6.888E+01   -6.813E+01   -6.739E+01   -6.666E+01   -6.594E+01
    -6.523E+01   -6.452E+01   -6.383E+01   -6.314E+01   -6.246E+01   -6.179E+01   -6.112E+01   -6.046E+01   -5.982E+01   -5.917E+01
    -5.854E+01   -5.791E+01   -5.729E+01   -5.668E+01   -5.607E+01   -5.547E+01   -5.488E+01   -5.429E+01   -5.371E+01   -5.314E+01
    -5.257E+01   -5.201E+01   -5.145E+01   -5.090E+01   -5.035E+01   -4.981E+01   -4.928E+01   -4.875E+01   -4.823E+01   -4.771E+01
    -4.720E+01   -4.670E+01   -4.620E+01   -4.571E+01   -4.522E+01   -4.474E+01   -4.426E+01   -4.379E+01   -4.333E+01   -4.287E+01
    -4.242E+01   -4.197E+01   -4.153E+01   -4.109E+01   -4.066E+01   -4.024E+01   -3.982E+01   -3.941E+01   -3.900E+01   -3.860E+01
    -3.820E+01   -3.781E+01   -3.742E+01   -3.704E+01   -3.667E+01   -3.630E+01   -3.594E+01   -3.558E+01   -3.523E+01   -3.489E+01
    -3.455E+01   -3.421E+01   -3.388E+01   -3.356E+01   -3.324E+01   -3.293E+01   -3.262E+01   -3.232E+01   -3.202E+01   -3.173E+01
    -3.145E+01   -3.116E+01   -3.089E+01   -3.061E+01   -3.035E+01   -3.008E+01   -2.982E+01   -2.956E+01   -2.931E+01   -2.906E+01
    -2.881E+01   -2.857E+01   -2.832E+01   -2.808E+01   -2.785E+01   -2.761E+01   -2.738E+01   -2.714E+01   -2.691E+01   -2.668E+01
    -2.646E+01   -2.623E+01   -2.600E+01   -2.578E+01   -2.555E+01   -2.533E+01   -2.510E+01   -2.488E+01   -2.465E+01   -2.442E+01
    -2.420E+01   -2.397E+01   -2.374E+01   -2.351E+01   -2.328E+01   -2.304E+01   -2.281E+01   -2.257E+01   -2.233E+01   -2.209E+01
    -2.184E+01   -2.160E+01   -2.135E+01   -2.109E+01   -2.084E+01   -2.058E+01   -2.032E+01   -2.006E+01   -1.979E+01   -1.953E+01
    -1.926E+01   -1.899E+01   -1.872E+01   -1.845E+01   -1.817E+01   -1.790E+01   -1.762E+01   -1.735E+01   -1.707E+01   -1.679E+01
    -1.652E+01   -1.624E+01   -1.596E+01   -1.569E+01   -1.541E+01   -1.513E+01   -1.486E+01   -1.459E+01   -1.431E+01   -1.404E+01
    -1.377E+01   -1.350E+01   -1.323E+01   -1.297E+01   -1.270E+01   -1.244E+01   -1.218E+01   -1.192E+01   -1.167E+01   -1.142E+01
    -1.117E+01   -1.092E+01   -1.067E+01   -1.043E+01   -1.020E+01   -9.964E+00   -9.734E+00   -9.507E+00   -9.285E+00   -9.066E+00
    -8.851E+00   -8.639E+00   -8.431E+00   -8.227E+00   -8.025E+00   -7.828E+00   -7.633E+00   -7.442E+00   -7.254E+00   -7.069E+00
    -6.887E+00   -6.708E+00   -6.532E+00   -6.359E+00   -6.189E+00   -6.022E+00   -5.857E+00   -5.696E+00   -5.536E+00   -5.380E+00
    -5.226E+00   -5.074E+00   -4.925E+00   -4.778E+00   -4.634E+00   -4.492E+00   -4.352E+00   -4.214E+00   -4.078E+00   -3.945E+00
    -3.813E+00   -3.683E+00   -3.555E+00   -3.429E+00   -3.305E+00   -3.182E+00   -3.062E+00   -2.942E+00   -2.825E+00   -2.708E+00
    -2.594E+00   -2.480E+00   -2.368E+00   -2.258E+00   -2.148E+00   -2.040E+00   -1.934E+00   -1.829E+00   -1.726E+00   -1.624E+00
    -1.523E+00   -1.425E+00   -1.327E+00   -1.232E+00   -1.138E+00   -1.046E+00   -9.552E-01   -8.664E-01   -7.794E-01   -6.943E-01
    -6.110E-01   -5.295E-01   -4.499E-01   -3.722E-01   -2.965E-01   -2.228E-01   -1.510E-01   -8.130E-02   -1.363E-02    5.195E-02
     1.154E-01    1.768E-01    2.359E-01    2.929E-01    3.477E-01    4.002E-01    4.504E-01    4.983E-01    5.439E-01    5.871E-01
     6.279E-01    6.664E-01    7.023E-01    7.358E-01    7.668E-01    7.953E-01    8.212E-01    8.445E-01    8.653E-01    8.837E-01
     8.997E-01    9.134E-01    9.250E-01    9.345E-01    9.419E-01    9.474E-01    9.511E-01    9.531E-01    9.534E-01    9.521E-01
     9.493E-01    9.451E-01    9.396E-01    9.329E-01    9.250E-01    9.161E-01    9.062E-01    8.954E-01    8.838E-01    8.715E-01
     8.586E-01    8.451E-01    8.312E-01    8.170E-01    8.024E-01    7.877E-01    7.729E-01    7.580E-01    7.433E-01    7.286E-01
     7.142E-01    7.002E-01    6.866E-01    6.734E-01    6.609E-01    6.490E-01    6.379E-01    6.276E-01    6.183E-01    6.100E-01
     6.028E-01    5.967E-01    5.920E-01    5.886E-01    5.865E-01    5.858E-01    5.864E-01    5.884E-01    5.917E-01    5.965E-01
     6.026E-01    6.101E-01    6.191E-01    6.295E-01    6.413E-01    6.545E-01    6.692E-01    6.854E-01    7.030E-01    7.222E-01
     7.428E-01    7.649E-01    7.885E-01    8.137E-01    8.404E-01    8.686E-01    8.984E-01    9.297E-01    9.627E-01    9.972E-01
     1.033E+00    1.071E+00    1.110E+00    1.151E+00    1.194E+00    1.238E+00    1.284E+00    1.331E+00    1.381E+00    1.431E+00
     1.484E+00    1.538E+00    1.594E+00    1.652E+00    1.711E+00    1.772E+00    1.835E+00    1.900E+00    1.966E+00    2.035E+00
     2.104E+00    2.175E+00    2.248E+00    2.322E+00    2.397E+00    2.473E+00    2.551E+00    2.629E+00    2.709E+00    2.789E+00
     2.871E+00    2.952E+00    3.035E+00    3.118E+00    3.202E+00    3.286E+00    3.370E+00    3.455E+00    3.540E+00    3.625E+00
     3.710E+00    3.794E+00    3.879E+00    3.964E+00    4.048E+00    4.132E+00    4.215E+00    4.298E+00    4.381E+00    4.462E+00
     4.543E+00    4.624E+00    4.703E+00    4.781E+00    4.858E+00    4.934E+00    5.009E+00    5.083E+00    5.155E+00    5.225E+00
     5.295E+00    5.362E+00    5.428E+00    5.492E+00    5.555E+00    5.616E+00    5.675E+00    5.733E+00    5.789E+00    5.844E+00
     5.897E+00    5.949E+00    6.000E+00    6.049E+00    6.097E+00    6.144E+00    6.190E+00    6.235E+00    6.279E+00    6.321E+00
     6.363E+00    6.404E+00    6.444E+00    6.484E+00    6.522E+00    6.560E+00    6.597E+00    6.634E+00    6.670E+00    6.705E+00
     6.740E+00    6.775E+00    6.809E+00    6.843E+00    6.877E+00    6.910E+00    6.943E+00    6.976E+00    7.009E+00    7.042E+00
     7.075E+00    7.108E+00    7.141E+00    7.174E+00    7.207E+00    7.240E+00    7.274E+00    7.308E+00
 Ala      Conc. = 2.78E+01
