 LCModel (Version 6.3-1L) Copyright: S.W. Provencher.          Ref.: Magn. Reson. Med. 30:672-679 (1993).                
 Slice#2 Row#4 Col#3  K_02_press_1_raw_act
 36 lines in following concentration table = NCONC+1
    Conc.  %SD /Cr+PCr  Metabolite                                         
    0.000 999%   0.000 Ala                                                 
   91.404 144%   0.163 Asp                                                 
  561.834  10%   1.000 Cr                                                  
    0.000 999%   0.000 PCr                                                 
   75.929 112%   0.135 GABA                                                
   84.648  98%   0.151 Glc                                                 
  970.674  51%   1.728 Gln                                                 
  223.173 245%   0.397 Glu                                                 
  214.845  11%   0.382 GPC                                                 
    0.000 999%   0.000 PCh                                                 
  466.902  21%   0.831 GSH                                                 
 1.18E+03  29%   2.100 Ins                                                 
    0.000 999%   0.000 Lac                                                 
  958.973  18%   1.707 NAA                                                 
  307.235  58%   0.547 NAAG                                                
   60.696  38%   0.108 Scyllo                                              
  100.970 129%   0.180 Tau                                                 
  171.811  65%   0.306 -CrCH2                                              
  214.845  11%   0.382 GPC+PCh                                             
 1.27E+03   6%   2.254 NAA+NAAG                                            
  561.834  10%   1.000 Cr+PCr                                              
 1.19E+03  80%   2.125 Glu+Gln                                             
    0.000 999%   0.000 Lip13a                                              
  598.065  14%   1.064 Lip13b                                              
   74.376 119%   0.132 Lip09                                               
  751.670  19%   1.338 MM09                                                
  118.812  53%   0.211 Lip20                                               
 1.57E+03  16%   2.792 MM20                                                
  221.242  32%   0.394 MM12                                                
    0.000 999%   0.000 MM14                                                
  588.634  23%   1.048 MM17                                                
  598.065  14%   1.064 Lip13a+Lip13b                                       
  819.307  12%   1.458 MM14+Lip13a+Lip13b+MM12                             
  826.047  17%   1.470 MM09+Lip09                                          
 1.69E+03  15%   3.003 MM20+Lip20                                          
   6 lines in following misc. output table
  FWHM = 0.092 ppm    S/N =   6                                            
  Data shift = 0.031 ppm                                                   
  Ph:  27 deg       7.4 deg/ppm                                            
  alphaB,S = 7.4E-01,   2.3E+01                                            
   14 spline knots.   Ns =10(1)                                            
  (13) 5 infls.   (13) 3 extrs.                                            
  498 points on ppm-axis = NY
      4.000000     3.992357     3.984714     3.977070     3.969427     3.961784     3.954141     3.946497     3.938854     3.931211
      3.923568     3.915925     3.908281     3.900638     3.892995     3.885352     3.877708     3.870065     3.862422     3.854779
      3.847136     3.839492     3.831849     3.824206     3.816563     3.808919     3.801276     3.793633     3.785990     3.778347
      3.770703     3.763060     3.755417     3.747774     3.740130     3.732487     3.724844     3.717201     3.709558     3.701914
      3.694271     3.686628     3.678985     3.671341     3.663698     3.656055     3.648412     3.640769     3.633125     3.625482
      3.617839     3.610196     3.602552     3.594909     3.587266     3.579623     3.571980     3.564336     3.556693     3.549050
      3.541407     3.533763     3.526120     3.518477     3.510834     3.503191     3.495547     3.487904     3.480261     3.472618
      3.464974     3.457331     3.449688     3.442045     3.434402     3.426758     3.419115     3.411472     3.403829     3.396185
      3.388542     3.380899     3.373256     3.365613     3.357969     3.350326     3.342683     3.335040     3.327396     3.319753
      3.312110     3.304467     3.296824     3.289180     3.281537     3.273894     3.266251     3.258607     3.250964     3.243321
      3.235678     3.228034     3.220391     3.212748     3.205105     3.197462     3.189818     3.182175     3.174532     3.166889
      3.159245     3.151602     3.143959     3.136316     3.128673     3.121029     3.113386     3.105743     3.098100     3.090456
      3.082813     3.075170     3.067527     3.059884     3.052240     3.044597     3.036954     3.029311     3.021667     3.014024
      3.006381     2.998738     2.991095     2.983451     2.975808     2.968165     2.960522     2.952878     2.945235     2.937592
      2.929949     2.922306     2.914662     2.907019     2.899376     2.891733     2.884089     2.876446     2.868803     2.861160
      2.853517     2.845873     2.838230     2.830587     2.822944     2.815300     2.807657     2.800014     2.792371     2.784728
      2.777084     2.769441     2.761798     2.754155     2.746511     2.738868     2.731225     2.723582     2.715939     2.708295
      2.700652     2.693009     2.685366     2.677722     2.670079     2.662436     2.654793     2.647150     2.639506     2.631863
      2.624220     2.616577     2.608933     2.601290     2.593647     2.586004     2.578361     2.570717     2.563074     2.555431
      2.547788     2.540144     2.532501     2.524858     2.517215     2.509572     2.501928     2.494285     2.486642     2.478999
      2.471355     2.463712     2.456069     2.448426     2.440783     2.433139     2.425496     2.417853     2.410210     2.402566
      2.394923     2.387280     2.379637     2.371994     2.364350     2.356707     2.349064     2.341421     2.333777     2.326134
      2.318491     2.310848     2.303205     2.295561     2.287918     2.280275     2.272632     2.264988     2.257345     2.249702
      2.242059     2.234416     2.226772     2.219129     2.211486     2.203843     2.196199     2.188556     2.180913     2.173270
      2.165627     2.157983     2.150340     2.142697     2.135054     2.127410     2.119767     2.112124     2.104481     2.096838
      2.089194     2.081551     2.073908     2.066265     2.058621     2.050978     2.043335     2.035692     2.028049     2.020405
      2.012762     2.005119     1.997476     1.989833     1.982190     1.974546     1.966903     1.959260     1.951617     1.943974
      1.936331     1.928688     1.921045     1.913402     1.905759     1.898115     1.890472     1.882829     1.875186     1.867543
      1.859900     1.852257     1.844614     1.836971     1.829327     1.821684     1.814041     1.806398     1.798755     1.791112
      1.783469     1.775826     1.768183     1.760540     1.752896     1.745253     1.737610     1.729967     1.722324     1.714681
      1.707038     1.699395     1.691752     1.684108     1.676465     1.668822     1.661179     1.653536     1.645893     1.638250
      1.630607     1.622964     1.615321     1.607677     1.600034     1.592391     1.584748     1.577105     1.569462     1.561819
      1.554176     1.546533     1.538890     1.531246     1.523603     1.515960     1.508317     1.500674     1.493031     1.485388
      1.477745     1.470102     1.462458     1.454815     1.447172     1.439529     1.431886     1.424243     1.416600     1.408957
      1.401314     1.393671     1.386027     1.378384     1.370741     1.363098     1.355455     1.347812     1.340169     1.332526
      1.324883     1.317240     1.309596     1.301953     1.294310     1.286667     1.279024     1.271381     1.263738     1.256095
      1.248452     1.240808     1.233165     1.225522     1.217879     1.210236     1.202593     1.194950     1.187307     1.179664
      1.172021     1.164377     1.156734     1.149091     1.141448     1.133805     1.126162     1.118519     1.110876     1.103233
      1.095590     1.087946     1.080303     1.072660     1.065017     1.057374     1.049731     1.042088     1.034445     1.026802
      1.019158     1.011515     1.003872     0.996229     0.988586     0.980943     0.973300     0.965657     0.958014     0.950371
      0.942727     0.935084     0.927441     0.919798     0.912155     0.904512     0.896869     0.889226     0.881583     0.873940
      0.866296     0.858653     0.851010     0.843367     0.835724     0.828081     0.820438     0.812795     0.805152     0.797508
      0.789865     0.782222     0.774579     0.766936     0.759293     0.751650     0.744007     0.736364     0.728721     0.721077
      0.713434     0.705791     0.698148     0.690505     0.682862     0.675219     0.667576     0.659933     0.652290     0.644646
      0.637003     0.629360     0.621717     0.614074     0.606431     0.598788     0.591145     0.583502     0.575858     0.568215
      0.560572     0.552929     0.545286     0.537643     0.530000     0.522357     0.514714     0.507071     0.499427     0.491784
      0.484141     0.476498     0.468855     0.461212     0.453569     0.445925     0.438282     0.430639     0.422996     0.415353
      0.407710     0.400067     0.392424     0.384780     0.377137     0.369494     0.361851     0.354208     0.346565     0.338922
      0.331278     0.323635     0.315992     0.308349     0.300706     0.293063     0.285420     0.277777     0.270133     0.262490
      0.254847     0.247204     0.239561     0.231918     0.224275     0.216631     0.208988     0.201345
 NY phased data points follow
  -3.10872E+01 -3.17885E+01 -2.97592E+01 -2.74934E+01 -2.63174E+01 -2.74102E+01 -2.38100E+01 -2.28937E+01 -1.94476E+01 -2.14628E+01
  -2.13774E+01 -1.95007E+01 -2.12294E+01 -2.27235E+01 -1.71598E+01 -2.21821E+01 -2.37105E+01 -2.16346E+01 -2.23357E+01 -2.02793E+01
  -1.92254E+01 -2.15793E+01 -2.06711E+01 -2.07404E+01 -2.14319E+01 -1.81765E+01 -1.86574E+01 -1.97227E+01 -1.84612E+01 -1.54046E+01
  -1.46656E+01 -1.84069E+01 -1.68789E+01 -1.76961E+01 -1.78846E+01 -1.49231E+01 -1.50248E+01 -1.68073E+01 -1.71516E+01 -1.71267E+01
  -2.06458E+01 -1.70718E+01 -1.82185E+01 -1.08876E+01 -1.69254E+01 -1.56672E+01 -1.59726E+01 -1.35728E+01 -1.71550E+01 -1.76629E+01
  -1.64128E+01 -1.66026E+01 -1.57972E+01 -1.43535E+01 -1.79610E+01 -1.54703E+01 -1.50117E+01 -1.73244E+01 -1.85765E+01 -1.60725E+01
  -1.36817E+01 -1.93387E+01 -1.57857E+01 -1.67799E+01 -1.51035E+01 -1.83007E+01 -2.05362E+01 -2.01649E+01 -1.75748E+01 -1.82066E+01
  -1.50601E+01 -1.90395E+01 -1.35116E+01 -1.47542E+01 -9.99762E+00 -1.20786E+01 -1.24055E+01 -1.59112E+01 -1.26952E+01 -1.13415E+01
  -1.38054E+01 -1.44521E+01 -1.19223E+01 -1.11379E+01 -1.41145E+01 -1.29328E+01 -9.44886E+00 -1.38217E+01 -1.00161E+01 -1.85204E+01
  -1.48727E+01 -1.28075E+01 -1.09709E+01 -1.30986E+01 -9.27654E+00 -8.92072E+00 -1.26641E+01 -1.07572E+01 -5.28153E+00 -7.39486E+00
  -6.28030E+00 -1.77849E+00 -3.54123E+00 -3.47979E+00  9.83086E-01 -6.15936E-01  8.31087E-01 -3.67607E+00 -2.65322E+00 -1.05772E+00
  -3.88738E+00 -5.66152E+00 -5.21623E+00 -7.20265E+00 -1.26629E+01 -7.99769E+00 -1.20103E+01 -1.05576E+01 -7.73912E+00 -9.16438E+00
  -4.69266E+00 -8.09078E+00 -3.90089E+00 -3.35628E+00 -1.12376E+00  1.95741E+00  2.18452E+00  4.94863E+00 -2.57220E-01  5.60029E+00
   1.89356E+00  3.15361E+00  1.99872E+00 -1.33022E+00 -4.11592E+00  7.10455E-01 -4.07482E+00 -8.88159E+00 -4.28346E+00 -1.01623E+01
  -8.15544E+00 -4.79097E+00 -6.51423E+00 -9.41951E+00 -7.21159E+00 -3.98491E+00 -6.34405E+00 -7.56741E+00 -9.21394E+00 -7.36365E+00
  -6.00921E+00 -7.54130E+00 -6.09184E+00 -5.33018E+00 -6.29697E+00 -6.36693E+00 -8.74097E+00 -6.31425E+00 -8.87289E+00 -8.95471E+00
  -6.52430E+00 -8.58847E+00 -5.98472E+00 -6.57062E+00 -5.72490E+00 -7.13872E+00 -7.52763E+00 -5.04173E+00 -4.98515E+00 -8.21409E+00
  -5.56437E+00 -6.17318E+00 -1.06359E+01 -1.04487E+01 -9.37779E+00 -6.96752E+00 -9.61973E+00 -1.07163E+01 -6.62173E+00 -9.58573E+00
  -8.68535E+00 -7.64774E+00 -8.56304E+00 -6.11668E+00 -4.06102E+00 -6.51882E+00 -6.27295E+00 -2.10423E+00 -2.39528E+00 -3.24530E+00
  -1.28638E+00 -3.76631E+00 -7.98442E-01 -4.29188E+00  3.73637E+00  5.42748E-02 -3.70569E+00 -1.34122E-01  3.90936E-01  1.54986E-01
  -2.13264E+00  8.78988E-01 -6.63407E+00  9.61245E-02 -3.46877E+00 -4.44460E-01 -2.20775E+00 -3.26646E+00  7.22273E-01 -1.04930E+00
  -1.46821E+00 -2.50446E+00  2.86310E+00  2.83908E+00 -1.48140E+00  5.99117E+00  1.03527E+00  2.23944E+00  1.96875E+00  4.60803E+00
   5.41054E+00  1.62219E+00 -5.81533E-01  5.68103E+00  3.61041E+00  6.61634E+00  6.21185E+00  3.76387E+00 -1.30748E-01  6.02003E+00
  -1.31261E-01  3.98751E+00  4.80992E+00  2.74367E+00  1.79259E+00  3.11983E+00  4.40750E+00  3.81712E+00  2.54800E+00  2.97852E+00
   4.42833E+00  6.16815E+00  4.71758E+00  1.07582E+00  2.20937E+00  7.56414E+00  5.22882E+00  7.56205E+00  6.04223E+00  5.91357E+00
   5.03854E+00  8.87693E+00  6.37139E+00  1.56591E+01  1.40586E+01  1.67705E+01  2.20056E+01  2.55418E+01  2.38556E+01  3.01916E+01
   2.66489E+01  2.60441E+01  2.53632E+01  1.82292E+01  1.71117E+01  1.88634E+01  1.57870E+01  1.08961E+01  8.14295E+00  8.14315E+00
   5.74555E+00  5.80986E+00  6.29284E+00  1.42609E+00  1.20792E+00 -3.43893E+00 -4.70846E+00 -1.83693E+00 -2.44017E+00 -4.30860E-01
  -4.07295E+00 -5.83361E+00 -1.74184E+00 -2.44083E+00  1.38216E+00 -3.83450E+00 -5.20965E+00 -2.19573E+00  1.76378E+00 -9.29263E+00
  -3.29875E+00 -3.36162E+00 -6.37554E+00  2.28438E-01 -3.14879E+00 -2.51534E+00 -3.75665E+00 -5.32995E+00 -3.11002E+00 -4.64772E+00
  -3.84602E+00 -3.14174E+00 -1.98569E+00 -5.59687E+00 -1.65911E+00 -7.68680E+00 -2.01263E+00 -4.52651E+00 -6.38042E+00 -4.59162E+00
  -6.85764E+00 -7.60250E+00 -1.01858E+01 -7.97528E+00 -5.76003E+00 -8.30423E+00 -5.70052E+00 -9.70304E+00 -1.03679E+01 -9.53941E+00
  -7.46148E+00 -1.54525E+01 -1.14564E+01 -1.32343E+01 -1.13807E+01 -1.25950E+01 -1.58991E+01 -1.20238E+01 -1.43874E+01 -1.56745E+01
  -1.19345E+01 -1.04476E+01 -1.64768E+01 -1.61978E+01 -1.60392E+01 -1.41527E+01 -1.81621E+01 -1.82463E+01 -2.21654E+01 -1.81284E+01
  -1.55926E+01 -1.84694E+01 -1.90701E+01 -1.60655E+01 -1.68566E+01 -1.61035E+01 -1.20366E+01 -1.01301E+01 -5.83776E+00 -7.03767E+00
  -9.57493E+00 -1.16709E+01 -1.09477E+01 -5.87741E+00 -1.07771E+01 -1.06889E+01 -6.55082E+00 -7.61129E+00 -7.10711E+00 -6.90123E+00
  -3.45161E+00 -4.03881E+00 -4.13570E+00 -7.25328E+00 -8.01815E+00 -6.04951E+00 -8.94064E+00 -1.08367E+01 -6.82668E+00 -1.39496E+01
  -1.29991E+01 -1.41129E+01 -1.47121E+01 -1.04385E+01 -1.08852E+01 -1.34872E+01 -1.51865E+01 -1.22200E+01 -9.45269E+00 -1.11311E+01
  -1.09677E+01 -1.01708E+01 -1.14765E+01 -1.19877E+01 -1.04966E+01 -8.72741E+00 -1.06429E+01 -1.10482E+01 -1.29817E+01 -1.38896E+01
  -1.21053E+01 -1.11231E+01 -6.90932E+00 -1.11039E+01 -8.19667E+00 -8.63560E+00 -1.12574E+01 -6.17344E+00 -7.58113E+00 -9.49907E+00
  -6.97462E+00 -7.08366E+00 -1.07053E+01 -7.40537E+00 -1.14817E+01 -5.88354E+00 -7.68600E+00 -7.45383E+00 -7.08954E+00 -2.22717E+00
  -6.36359E+00 -1.17902E+01 -9.01126E+00 -7.89646E+00 -8.75846E+00 -1.03965E+01 -5.44585E+00 -8.98338E+00 -7.46911E+00 -5.43796E+00
  -8.85101E+00 -8.48203E+00 -8.38246E+00 -7.40837E+00 -8.15438E+00 -8.15228E+00 -9.32321E+00 -7.86701E+00 -1.19863E+01 -7.48395E+00
  -1.13771E+01 -5.54057E+00 -8.46120E+00 -7.34574E+00 -7.81437E+00 -3.49886E+00 -1.02805E+01 -6.62685E+00 -3.52308E+00 -5.31125E+00
  -7.73248E+00 -5.52748E+00 -4.55815E+00 -6.50623E+00 -4.77662E+00 -5.56958E+00 -5.77512E+00 -5.01735E+00 -9.75189E+00 -2.38793E+00
  -5.95625E+00 -2.03736E+00 -7.23998E+00 -1.10820E+01 -7.32445E+00 -5.67238E+00 -7.43414E+00 -6.58621E+00 -5.08059E+00 -7.94245E+00
  -4.58459E+00 -7.18149E+00 -5.27663E+00 -5.47238E+00 -7.95773E+00 -5.81763E+00 -5.80578E+00 -5.96320E+00 -4.08638E+00 -5.36064E+00
  -4.28293E+00 -2.60383E+00 -4.24349E+00 -3.87904E+00 -4.80376E+00 -5.21191E+00 -3.97981E+00 -3.70241E+00 -8.10757E+00 -6.92508E+00
  -7.18667E+00 -7.23967E+00 -6.53175E+00 -8.80594E+00 -7.54163E+00 -2.60902E+00 -2.96940E+00 -7.16633E+00 -3.65542E+00 -4.80867E+00
  -3.07519E+00 -2.10161E+00 -5.46113E+00 -7.17162E+00 -2.19184E+00 -5.86497E+00 -3.78756E+00 -7.56339E+00
 NY points of the fit to the data follow
  -2.68466E+01 -2.68997E+01 -2.67444E+01 -2.64844E+01 -2.63436E+01 -2.61340E+01 -2.52613E+01 -2.39992E+01 -2.28870E+01 -2.19547E+01
  -2.11178E+01 -2.04818E+01 -2.02325E+01 -2.04455E+01 -2.07610E+01 -2.06293E+01 -2.05092E+01 -2.10068E+01 -2.15405E+01 -2.13983E+01
  -2.12052E+01 -2.15451E+01 -2.18622E+01 -2.21066E+01 -2.15184E+01 -2.02623E+01 -1.88266E+01 -1.75747E+01 -1.65391E+01 -1.57723E+01
  -1.54422E+01 -1.56016E+01 -1.61554E+01 -1.67171E+01 -1.68959E+01 -1.70495E+01 -1.75301E+01 -1.77229E+01 -1.75524E+01 -1.76964E+01
  -1.82633E+01 -1.88383E+01 -1.85066E+01 -1.77258E+01 -1.70023E+01 -1.64067E+01 -1.59965E+01 -1.58246E+01 -1.59361E+01 -1.63698E+01
  -1.66957E+01 -1.65879E+01 -1.65311E+01 -1.68360E+01 -1.70200E+01 -1.68739E+01 -1.68325E+01 -1.71072E+01 -1.74405E+01 -1.74532E+01
  -1.72246E+01 -1.70006E+01 -1.68511E+01 -1.65827E+01 -1.62939E+01 -1.61046E+01 -1.58712E+01 -1.55847E+01 -1.53450E+01 -1.51942E+01
  -1.51055E+01 -1.49605E+01 -1.47840E+01 -1.45834E+01 -1.43748E+01 -1.41603E+01 -1.39201E+01 -1.37706E+01 -1.37513E+01 -1.37335E+01
  -1.36634E+01 -1.34946E+01 -1.34083E+01 -1.34239E+01 -1.34384E+01 -1.34721E+01 -1.35183E+01 -1.35676E+01 -1.35914E+01 -1.35412E+01
  -1.32926E+01 -1.30516E+01 -1.29771E+01 -1.26147E+01 -1.17331E+01 -1.07845E+01 -9.93752E+00 -9.33255E+00 -7.79907E+00 -5.45534E+00
  -3.48079E+00 -2.11420E+00 -1.10695E+00 -5.22976E-01 -4.87673E-01 -1.08637E+00 -2.13637E+00 -2.76292E+00 -2.82406E+00 -3.69010E+00
  -5.16022E+00 -5.83141E+00 -6.34140E+00 -7.69446E+00 -9.17332E+00 -1.03441E+01 -1.04086E+01 -9.79927E+00 -8.84805E+00 -7.69072E+00
  -6.68664E+00 -5.72644E+00 -3.87475E+00 -1.63153E+00  1.48028E-01  1.52642E+00  2.58365E+00  3.07569E+00  3.10052E+00  2.60837E+00
   1.70696E+00  1.25833E+00  9.07587E-01 -4.70149E-01 -1.99918E+00 -2.72557E+00 -3.62356E+00 -4.96411E+00 -6.21886E+00 -7.09114E+00
  -7.19140E+00 -7.02484E+00 -6.92046E+00 -6.93914E+00 -6.93020E+00 -6.86804E+00 -6.69356E+00 -6.50490E+00 -6.40036E+00 -6.36494E+00
  -6.43069E+00 -6.62014E+00 -6.80472E+00 -6.93773E+00 -6.95067E+00 -6.93502E+00 -6.94090E+00 -6.94330E+00 -6.96812E+00 -6.98696E+00
  -6.94324E+00 -6.87032E+00 -6.81130E+00 -6.72105E+00 -6.63242E+00 -6.62682E+00 -6.64879E+00 -6.66076E+00 -6.66643E+00 -6.63973E+00
  -6.59750E+00 -6.62046E+00 -6.62977E+00 -6.60263E+00 -6.61215E+00 -6.61971E+00 -6.60942E+00 -6.59612E+00 -6.52277E+00 -6.38250E+00
  -6.23599E+00 -6.04780E+00 -5.77893E+00 -5.47344E+00 -5.15398E+00 -4.77972E+00 -4.31151E+00 -3.76620E+00 -3.33717E+00 -3.09906E+00
  -2.97260E+00 -2.85105E+00 -2.78143E+00 -2.79246E+00 -2.76885E+00 -2.59366E+00 -2.15303E+00 -1.62017E+00 -1.15141E+00 -7.02171E-01
  -3.92969E-01 -3.39657E-01 -4.48069E-01 -4.97954E-01 -7.71365E-01 -1.23258E+00 -1.56464E+00 -1.67815E+00 -1.71937E+00 -1.60390E+00
  -1.48287E+00 -1.31491E+00 -1.01825E+00 -8.57585E-01 -8.15378E-01 -4.16011E-01  1.74621E-01  4.57530E-01  7.28223E-01  1.41184E+00
   2.12401E+00  2.54682E+00  2.56678E+00  2.54200E+00  2.62301E+00  2.61978E+00  2.39122E+00  2.09935E+00  2.02858E+00  2.15123E+00
   2.15448E+00  2.13891E+00  2.36025E+00  2.73199E+00  2.96633E+00  3.11496E+00  3.27869E+00  3.42791E+00  3.46327E+00  3.19739E+00
   2.81902E+00  2.77593E+00  2.96750E+00  2.94066E+00  2.90109E+00  3.31576E+00  3.89650E+00  4.38569E+00  4.97575E+00  5.56043E+00
   6.65559E+00  8.81564E+00  1.13865E+01  1.37145E+01  1.54273E+01  1.80775E+01  2.13973E+01  2.38281E+01  2.52400E+01  2.62017E+01
   2.67555E+01  2.62402E+01  2.42552E+01  2.16264E+01  1.99063E+01  1.86213E+01  1.58219E+01  1.21517E+01  1.00995E+01  8.54082E+00
   5.77252E+00  2.75490E+00  1.47219E-01 -9.88364E-01 -1.54499E+00 -1.96081E+00 -2.31709E+00 -2.64225E+00 -2.93532E+00 -3.18552E+00
  -3.40617E+00 -3.60500E+00 -3.78468E+00 -3.93699E+00 -4.05807E+00 -4.16375E+00 -4.24257E+00 -4.27163E+00 -4.25694E+00 -4.22118E+00
  -4.16142E+00 -4.08042E+00 -3.99036E+00 -3.90111E+00 -3.82293E+00 -3.76467E+00 -3.71986E+00 -3.69861E+00 -3.71495E+00 -3.77022E+00
  -3.86205E+00 -3.99894E+00 -4.18654E+00 -4.42925E+00 -4.71596E+00 -5.03625E+00 -5.39051E+00 -5.77367E+00 -6.17376E+00 -6.58419E+00
  -6.99834E+00 -7.41242E+00 -7.82058E+00 -8.21584E+00 -8.59406E+00 -8.95195E+00 -9.28727E+00 -9.59903E+00 -9.88730E+00 -1.01529E+01
  -1.03970E+01 -1.06211E+01 -1.08271E+01 -1.10168E+01 -1.11920E+01 -1.13544E+01 -1.15057E+01 -1.16472E+01 -1.17802E+01 -1.19055E+01
  -1.20241E+01 -1.21367E+01 -1.22437E+01 -1.23453E+01 -1.24418E+01 -1.25334E+01 -1.26199E+01 -1.27011E+01 -1.27764E+01 -1.28449E+01
  -1.29050E+01 -1.29539E+01 -1.29875E+01 -1.29993E+01 -1.29798E+01 -1.29162E+01 -1.27920E+01 -1.25875E+01 -1.22818E+01 -1.18558E+01
  -1.12966E+01 -1.06028E+01 -9.78917E+00 -8.89007E+00 -7.95942E+00 -7.06655E+00 -6.28826E+00 -5.69759E+00 -5.35215E+00 -5.28400E+00
  -5.49427E+00 -5.95321E+00 -6.60628E+00 -7.38387E+00 -8.21310E+00 -9.02804E+00 -9.77757E+00 -1.04286E+01 -1.09662E+01 -1.13901E+01
  -1.17104E+01 -1.19426E+01 -1.21040E+01 -1.22103E+01 -1.22749E+01 -1.23076E+01 -1.23155E+01 -1.23028E+01 -1.22719E+01 -1.22239E+01
  -1.21591E+01 -1.20768E+01 -1.19767E+01 -1.18578E+01 -1.17195E+01 -1.15610E+01 -1.13820E+01 -1.11824E+01 -1.09625E+01 -1.07227E+01
  -1.04643E+01 -1.01890E+01 -9.89922E+00 -9.59770E+00 -9.28803E+00 -8.97415E+00 -8.66065E+00 -8.35232E+00 -8.05430E+00 -7.77157E+00
  -7.50912E+00 -7.27140E+00 -7.06251E+00 -6.88566E+00 -6.74334E+00 -6.63687E+00 -6.56675E+00 -6.53224E+00 -6.53185E+00 -6.56298E+00
  -6.62248E+00 -6.70636E+00 -6.81045E+00 -6.93017E+00 -7.06110E+00 -7.19876E+00 -7.33910E+00 -7.47827E+00 -7.61313E+00 -7.74084E+00
  -7.85933E+00 -7.96684E+00 -8.06229E+00 -8.14489E+00 -8.21444E+00 -8.27090E+00 -8.31468E+00 -8.34619E+00 -8.36618E+00 -8.37531E+00
  -8.37451E+00 -8.36454E+00 -8.34633E+00 -8.32058E+00 -8.28813E+00 -8.24962E+00 -8.20582E+00 -8.15725E+00 -8.10456E+00 -8.04813E+00
  -7.98852E+00 -7.92604E+00 -7.86118E+00 -7.79416E+00 -7.72539E+00 -7.65500E+00 -7.58337E+00 -7.51061E+00 -7.43705E+00 -7.36276E+00
  -7.28800E+00 -7.21282E+00 -7.13748E+00 -7.06201E+00 -6.98657E+00 -6.91110E+00 -6.83573E+00 -6.76041E+00 -6.68527E+00 -6.61025E+00
  -6.53547E+00 -6.46083E+00 -6.38645E+00 -6.31222E+00 -6.23830E+00 -6.16458E+00 -6.09115E+00 -6.01792E+00 -5.94498E+00 -5.87223E+00
  -5.79980E+00 -5.72756E+00 -5.65562E+00 -5.58384E+00 -5.51234E+00 -5.44101E+00 -5.36997E+00 -5.29907E+00 -5.22842E+00 -5.15788E+00
  -5.08757E+00 -5.01738E+00 -4.94741E+00 -4.87753E+00 -4.80782E+00 -4.73816E+00 -4.66868E+00 -4.59925E+00 -4.52997E+00 -4.46070E+00
  -4.39155E+00 -4.32240E+00 -4.25336E+00 -4.18431E+00 -4.11536E+00 -4.04637E+00 -3.97746E+00 -3.90851E+00
 NY background values follow
    -3.204E+01   -3.184E+01   -3.165E+01   -3.145E+01   -3.125E+01   -3.105E+01   -3.085E+01   -3.065E+01   -3.045E+01   -3.025E+01
    -3.005E+01   -2.986E+01   -2.966E+01   -2.946E+01   -2.926E+01   -2.906E+01   -2.886E+01   -2.867E+01   -2.847E+01   -2.827E+01
    -2.807E+01   -2.788E+01   -2.768E+01   -2.748E+01   -2.729E+01   -2.709E+01   -2.690E+01   -2.670E+01   -2.651E+01   -2.631E+01
    -2.612E+01   -2.593E+01   -2.574E+01   -2.554E+01   -2.535E+01   -2.516E+01   -2.497E+01   -2.478E+01   -2.459E+01   -2.440E+01
    -2.421E+01   -2.403E+01   -2.384E+01   -2.365E+01   -2.347E+01   -2.328E+01   -2.310E+01   -2.292E+01   -2.273E+01   -2.255E+01
    -2.237E+01   -2.219E+01   -2.201E+01   -2.183E+01   -2.165E+01   -2.148E+01   -2.130E+01   -2.112E+01   -2.095E+01   -2.077E+01
    -2.060E+01   -2.043E+01   -2.025E+01   -2.008E+01   -1.991E+01   -1.974E+01   -1.957E+01   -1.940E+01   -1.924E+01   -1.907E+01
    -1.890E+01   -1.874E+01   -1.857E+01   -1.841E+01   -1.824E+01   -1.808E+01   -1.792E+01   -1.776E+01   -1.759E+01   -1.743E+01
    -1.728E+01   -1.712E+01   -1.696E+01   -1.680E+01   -1.664E+01   -1.649E+01   -1.633E+01   -1.618E+01   -1.603E+01   -1.587E+01
    -1.572E+01   -1.557E+01   -1.542E+01   -1.527E+01   -1.512E+01   -1.497E+01   -1.482E+01   -1.467E+01   -1.453E+01   -1.438E+01
    -1.423E+01   -1.409E+01   -1.395E+01   -1.380E+01   -1.366E+01   -1.352E+01   -1.337E+01   -1.323E+01   -1.309E+01   -1.295E+01
    -1.281E+01   -1.267E+01   -1.253E+01   -1.240E+01   -1.226E+01   -1.212E+01   -1.199E+01   -1.185E+01   -1.171E+01   -1.158E+01
    -1.144E+01   -1.131E+01   -1.118E+01   -1.104E+01   -1.091E+01   -1.078E+01   -1.065E+01   -1.051E+01   -1.038E+01   -1.025E+01
    -1.012E+01   -9.993E+00   -9.863E+00   -9.734E+00   -9.605E+00   -9.477E+00   -9.349E+00   -9.221E+00   -9.094E+00   -8.967E+00
    -8.840E+00   -8.714E+00   -8.588E+00   -8.463E+00   -8.338E+00   -8.213E+00   -8.089E+00   -7.966E+00   -7.843E+00   -7.720E+00
    -7.598E+00   -7.477E+00   -7.356E+00   -7.236E+00   -7.116E+00   -6.997E+00   -6.878E+00   -6.761E+00   -6.643E+00   -6.527E+00
    -6.411E+00   -6.296E+00   -6.181E+00   -6.068E+00   -5.955E+00   -5.842E+00   -5.731E+00   -5.620E+00   -5.510E+00   -5.401E+00
    -5.293E+00   -5.185E+00   -5.079E+00   -4.973E+00   -4.868E+00   -4.764E+00   -4.661E+00   -4.559E+00   -4.458E+00   -4.357E+00
    -4.258E+00   -4.160E+00   -4.062E+00   -3.966E+00   -3.871E+00   -3.777E+00   -3.684E+00   -3.592E+00   -3.502E+00   -3.413E+00
    -3.326E+00   -3.240E+00   -3.156E+00   -3.073E+00   -2.992E+00   -2.912E+00   -2.835E+00   -2.759E+00   -2.685E+00   -2.613E+00
    -2.543E+00   -2.475E+00   -2.409E+00   -2.345E+00   -2.283E+00   -2.224E+00   -2.167E+00   -2.112E+00   -2.060E+00   -2.010E+00
    -1.962E+00   -1.917E+00   -1.875E+00   -1.836E+00   -1.799E+00   -1.765E+00   -1.734E+00   -1.705E+00   -1.680E+00   -1.658E+00
    -1.638E+00   -1.622E+00   -1.609E+00   -1.599E+00   -1.593E+00   -1.590E+00   -1.590E+00   -1.593E+00   -1.600E+00   -1.611E+00
    -1.624E+00   -1.641E+00   -1.662E+00   -1.685E+00   -1.712E+00   -1.742E+00   -1.775E+00   -1.811E+00   -1.851E+00   -1.893E+00
    -1.939E+00   -1.987E+00   -2.039E+00   -2.093E+00   -2.151E+00   -2.211E+00   -2.274E+00   -2.340E+00   -2.409E+00   -2.481E+00
    -2.556E+00   -2.633E+00   -2.713E+00   -2.796E+00   -2.881E+00   -2.969E+00   -3.060E+00   -3.153E+00   -3.248E+00   -3.347E+00
    -3.447E+00   -3.551E+00   -3.656E+00   -3.764E+00   -3.874E+00   -3.987E+00   -4.102E+00   -4.220E+00   -4.339E+00   -4.461E+00
    -4.585E+00   -4.711E+00   -4.840E+00   -4.970E+00   -5.102E+00   -5.236E+00   -5.372E+00   -5.510E+00   -5.649E+00   -5.790E+00
    -5.932E+00   -6.076E+00   -6.221E+00   -6.367E+00   -6.513E+00   -6.661E+00   -6.810E+00   -6.959E+00   -7.110E+00   -7.260E+00
    -7.411E+00   -7.563E+00   -7.715E+00   -7.867E+00   -8.019E+00   -8.171E+00   -8.323E+00   -8.475E+00   -8.627E+00   -8.778E+00
    -8.929E+00   -9.080E+00   -9.229E+00   -9.378E+00   -9.527E+00   -9.674E+00   -9.820E+00   -9.965E+00   -1.011E+01   -1.025E+01
    -1.039E+01   -1.053E+01   -1.067E+01   -1.081E+01   -1.094E+01   -1.108E+01   -1.121E+01   -1.134E+01   -1.146E+01   -1.159E+01
    -1.171E+01   -1.183E+01   -1.195E+01   -1.207E+01   -1.218E+01   -1.229E+01   -1.240E+01   -1.251E+01   -1.262E+01   -1.272E+01
    -1.282E+01   -1.292E+01   -1.301E+01   -1.311E+01   -1.320E+01   -1.329E+01   -1.337E+01   -1.346E+01   -1.354E+01   -1.361E+01
    -1.369E+01   -1.376E+01   -1.383E+01   -1.390E+01   -1.397E+01   -1.403E+01   -1.409E+01   -1.414E+01   -1.420E+01   -1.425E+01
    -1.430E+01   -1.434E+01   -1.439E+01   -1.443E+01   -1.446E+01   -1.450E+01   -1.453E+01   -1.455E+01   -1.458E+01   -1.460E+01
    -1.462E+01   -1.463E+01   -1.465E+01   -1.466E+01   -1.466E+01   -1.466E+01   -1.466E+01   -1.466E+01   -1.466E+01   -1.465E+01
    -1.464E+01   -1.462E+01   -1.460E+01   -1.458E+01   -1.456E+01   -1.454E+01   -1.451E+01   -1.448E+01   -1.445E+01   -1.441E+01
    -1.437E+01   -1.433E+01   -1.429E+01   -1.425E+01   -1.420E+01   -1.415E+01   -1.410E+01   -1.405E+01   -1.399E+01   -1.394E+01
    -1.388E+01   -1.381E+01   -1.375E+01   -1.369E+01   -1.362E+01   -1.355E+01   -1.348E+01   -1.341E+01   -1.334E+01   -1.326E+01
    -1.318E+01   -1.311E+01   -1.303E+01   -1.294E+01   -1.286E+01   -1.278E+01   -1.269E+01   -1.261E+01   -1.252E+01   -1.243E+01
    -1.234E+01   -1.225E+01   -1.215E+01   -1.206E+01   -1.197E+01   -1.187E+01   -1.178E+01   -1.168E+01   -1.158E+01   -1.148E+01
    -1.138E+01   -1.129E+01   -1.119E+01   -1.108E+01   -1.098E+01   -1.088E+01   -1.078E+01   -1.068E+01   -1.058E+01   -1.047E+01
    -1.037E+01   -1.027E+01   -1.016E+01   -1.006E+01   -9.959E+00   -9.856E+00   -9.753E+00   -9.651E+00   -9.549E+00   -9.446E+00
    -9.345E+00   -9.243E+00   -9.142E+00   -9.042E+00   -8.942E+00   -8.842E+00   -8.743E+00   -8.645E+00   -8.547E+00   -8.450E+00
    -8.354E+00   -8.259E+00   -8.165E+00   -8.071E+00   -7.979E+00   -7.887E+00   -7.796E+00   -7.706E+00   -7.617E+00   -7.528E+00
    -7.441E+00   -7.354E+00   -7.268E+00   -7.182E+00   -7.097E+00   -7.013E+00   -6.929E+00   -6.846E+00   -6.764E+00   -6.682E+00
    -6.601E+00   -6.520E+00   -6.440E+00   -6.360E+00   -6.281E+00   -6.202E+00   -6.123E+00   -6.045E+00   -5.967E+00   -5.890E+00
    -5.812E+00   -5.736E+00   -5.659E+00   -5.583E+00   -5.507E+00   -5.431E+00   -5.355E+00   -5.279E+00   -5.204E+00   -5.129E+00
    -5.053E+00   -4.978E+00   -4.903E+00   -4.828E+00   -4.753E+00   -4.678E+00   -4.603E+00   -4.528E+00
 Asp      Conc. = 9.14E+01
