 LCModel (Version 6.3-1L) Copyright: S.W. Provencher.          Ref.: Magn. Reson. Med. 30:672-679 (1993).                
 Slice#1 Row#5 Col#9  K_02_press_1_raw_act
 36 lines in following concentration table = NCONC+1
    Conc.  %SD /Cr+PCr  Metabolite                                         
   65.713 145% 5.9E-02 Ala                                                 
    0.000 999%   0.000 Asp                                                 
  805.316  20%   0.728 Cr                                                  
  300.132  57%   0.272 PCr                                                 
    0.000 999%   0.000 GABA                                                
    0.000 999%   0.000 Glc                                                 
  147.664 125%   0.134 Gln                                                 
  923.595  22%   0.835 Glu                                                 
  453.112   5%   0.410 GPC                                                 
    0.000 999%   0.000 PCh                                                 
  334.723  20%   0.303 GSH                                                 
  936.442  23%   0.847 Ins                                                 
  407.317  26%   0.368 Lac                                                 
 1.62E+03   6%   1.463 NAA                                                 
  546.964  18%   0.495 NAAG                                                
    0.000 999%   0.000 Scyllo                                              
    0.000 999%   0.000 Tau                                                 
   38.459 260% 3.5E-02 -CrCH2                                              
  453.112   5%   0.410 GPC+PCh                                             
 2.16E+03   5%   1.958 NAA+NAAG                                            
 1.11E+03   6%   1.000 Cr+PCr                                              
 1.07E+03  26%   0.969 Glu+Gln                                             
    0.000 999%   0.000 Lip13a                                              
    0.000 999%   0.000 Lip13b                                              
    0.000 999%   0.000 Lip09                                               
 3.74E+03   9%   3.383 MM09                                                
    0.000 999%   0.000 Lip20                                               
 2.33E+03  20%   2.105 MM20                                                
 2.03E+03  15%   1.840 MM12                                                
 6.75E+03  11%   6.103 MM14                                                
 1.98E+03  26%   1.793 MM17                                                
    0.000 999%   0.000 Lip13a+Lip13b                                       
 8.78E+03   8%   7.943 MM14+Lip13a+Lip13b+MM12                             
 3.74E+03   9%   3.383 MM09+Lip09                                          
 2.33E+03  20%   2.105 MM20+Lip20                                          
   6 lines in following misc. output table
  FWHM = 0.038 ppm    S/N =  10                                            
  Data shift = 0.008 ppm                                                   
  Ph:  19 deg      11.4 deg/ppm                                            
  alphaB,S = 1.6E+00,   7.8E+01                                            
   14 spline knots.   Ns = 7(1)                                            
  ( 7) 4 infls.   ( 1) 1 extrs.                                            
  498 points on ppm-axis = NY
      4.000000     3.992357     3.984714     3.977070     3.969427     3.961784     3.954141     3.946497     3.938854     3.931211
      3.923568     3.915925     3.908281     3.900638     3.892995     3.885352     3.877708     3.870065     3.862422     3.854779
      3.847136     3.839492     3.831849     3.824206     3.816563     3.808919     3.801276     3.793633     3.785990     3.778347
      3.770703     3.763060     3.755417     3.747774     3.740130     3.732487     3.724844     3.717201     3.709558     3.701914
      3.694271     3.686628     3.678985     3.671341     3.663698     3.656055     3.648412     3.640769     3.633125     3.625482
      3.617839     3.610196     3.602552     3.594909     3.587266     3.579623     3.571980     3.564336     3.556693     3.549050
      3.541407     3.533763     3.526120     3.518477     3.510834     3.503191     3.495547     3.487904     3.480261     3.472618
      3.464974     3.457331     3.449688     3.442045     3.434402     3.426758     3.419115     3.411472     3.403829     3.396185
      3.388542     3.380899     3.373256     3.365613     3.357969     3.350326     3.342683     3.335040     3.327396     3.319753
      3.312110     3.304467     3.296824     3.289180     3.281537     3.273894     3.266251     3.258607     3.250964     3.243321
      3.235678     3.228034     3.220391     3.212748     3.205105     3.197462     3.189818     3.182175     3.174532     3.166889
      3.159245     3.151602     3.143959     3.136316     3.128673     3.121029     3.113386     3.105743     3.098100     3.090456
      3.082813     3.075170     3.067527     3.059884     3.052240     3.044597     3.036954     3.029311     3.021667     3.014024
      3.006381     2.998738     2.991095     2.983451     2.975808     2.968165     2.960522     2.952878     2.945235     2.937592
      2.929949     2.922306     2.914662     2.907019     2.899376     2.891733     2.884089     2.876446     2.868803     2.861160
      2.853517     2.845873     2.838230     2.830587     2.822944     2.815300     2.807657     2.800014     2.792371     2.784728
      2.777084     2.769441     2.761798     2.754155     2.746511     2.738868     2.731225     2.723582     2.715939     2.708295
      2.700652     2.693009     2.685366     2.677722     2.670079     2.662436     2.654793     2.647150     2.639506     2.631863
      2.624220     2.616577     2.608933     2.601290     2.593647     2.586004     2.578361     2.570717     2.563074     2.555431
      2.547788     2.540144     2.532501     2.524858     2.517215     2.509572     2.501928     2.494285     2.486642     2.478999
      2.471355     2.463712     2.456069     2.448426     2.440783     2.433139     2.425496     2.417853     2.410210     2.402566
      2.394923     2.387280     2.379637     2.371994     2.364350     2.356707     2.349064     2.341421     2.333777     2.326134
      2.318491     2.310848     2.303205     2.295561     2.287918     2.280275     2.272632     2.264988     2.257345     2.249702
      2.242059     2.234416     2.226772     2.219129     2.211486     2.203843     2.196199     2.188556     2.180913     2.173270
      2.165627     2.157983     2.150340     2.142697     2.135054     2.127410     2.119767     2.112124     2.104481     2.096838
      2.089194     2.081551     2.073908     2.066265     2.058621     2.050978     2.043335     2.035692     2.028049     2.020405
      2.012762     2.005119     1.997476     1.989833     1.982190     1.974546     1.966903     1.959260     1.951617     1.943974
      1.936331     1.928688     1.921045     1.913402     1.905759     1.898115     1.890472     1.882829     1.875186     1.867543
      1.859900     1.852257     1.844614     1.836971     1.829327     1.821684     1.814041     1.806398     1.798755     1.791112
      1.783469     1.775826     1.768183     1.760540     1.752896     1.745253     1.737610     1.729967     1.722324     1.714681
      1.707038     1.699395     1.691752     1.684108     1.676465     1.668822     1.661179     1.653536     1.645893     1.638250
      1.630607     1.622964     1.615321     1.607677     1.600034     1.592391     1.584748     1.577105     1.569462     1.561819
      1.554176     1.546533     1.538890     1.531246     1.523603     1.515960     1.508317     1.500674     1.493031     1.485388
      1.477745     1.470102     1.462458     1.454815     1.447172     1.439529     1.431886     1.424243     1.416600     1.408957
      1.401314     1.393671     1.386027     1.378384     1.370741     1.363098     1.355455     1.347812     1.340169     1.332526
      1.324883     1.317240     1.309596     1.301953     1.294310     1.286667     1.279024     1.271381     1.263738     1.256095
      1.248452     1.240808     1.233165     1.225522     1.217879     1.210236     1.202593     1.194950     1.187307     1.179664
      1.172021     1.164377     1.156734     1.149091     1.141448     1.133805     1.126162     1.118519     1.110876     1.103233
      1.095590     1.087946     1.080303     1.072660     1.065017     1.057374     1.049731     1.042088     1.034445     1.026802
      1.019158     1.011515     1.003872     0.996229     0.988586     0.980943     0.973300     0.965657     0.958014     0.950371
      0.942727     0.935084     0.927441     0.919798     0.912155     0.904512     0.896869     0.889226     0.881583     0.873940
      0.866296     0.858653     0.851010     0.843367     0.835724     0.828081     0.820438     0.812795     0.805152     0.797508
      0.789865     0.782222     0.774579     0.766936     0.759293     0.751650     0.744007     0.736364     0.728721     0.721077
      0.713434     0.705791     0.698148     0.690505     0.682862     0.675219     0.667576     0.659933     0.652290     0.644646
      0.637003     0.629360     0.621717     0.614074     0.606431     0.598788     0.591145     0.583502     0.575858     0.568215
      0.560572     0.552929     0.545286     0.537643     0.530000     0.522357     0.514714     0.507071     0.499427     0.491784
      0.484141     0.476498     0.468855     0.461212     0.453569     0.445925     0.438282     0.430639     0.422996     0.415353
      0.407710     0.400067     0.392424     0.384780     0.377137     0.369494     0.361851     0.354208     0.346565     0.338922
      0.331278     0.323635     0.315992     0.308349     0.300706     0.293063     0.285420     0.277777     0.270133     0.262490
      0.254847     0.247204     0.239561     0.231918     0.224275     0.216631     0.208988     0.201345
 NY phased data points follow
   2.11069E+01  1.71586E+01  1.81645E+01  2.23544E+01  2.14341E+01  2.61186E+01  2.87464E+01  3.22917E+01  3.35085E+01  3.93469E+01
   4.40908E+01  4.42178E+01  3.93042E+01  3.60782E+01  2.89785E+01  2.55451E+01  1.95556E+01  2.00329E+01  2.17692E+01  2.19095E+01
   1.63212E+01  1.52018E+01  9.84746E+00  1.93746E+01  1.20338E+01  2.10091E+01  1.82448E+01  2.16673E+01  2.28958E+01  2.19459E+01
   1.91877E+01  1.72455E+01  1.83822E+01  2.07366E+01  1.93603E+01  2.31286E+01  2.18481E+01  1.75881E+01  1.68953E+01  1.64038E+01
   2.25997E+01  1.77570E+01  1.26309E+01  1.20733E+01  1.91947E+01  2.15097E+01  1.66763E+01  2.92830E+01  2.00020E+01  2.16932E+01
   1.67596E+01  2.06506E+01  2.04849E+01  1.34928E+01  1.63787E+01  1.65744E+01  1.88133E+01  1.97668E+01  1.63944E+01  1.56387E+01
   1.25415E+01  9.78790E+00  1.82636E+00  9.05934E+00  6.31883E+00  7.14104E+00  5.02886E+00  1.83045E+00  7.15724E+00  8.77245E+00
   8.56749E+00  8.45034E+00  1.20283E+01  4.15347E+00  8.56106E+00  4.52475E+00  4.04542E+00  7.95587E+00  9.36637E+00  4.96989E+00
   4.33633E+00  6.06678E+00  8.53970E+00  5.32217E+00  3.47910E+00  6.21990E+00  4.63736E+00 -1.05373E+00  8.45489E+00  5.96084E+00
   4.85363E+00  8.83510E+00  8.50949E+00  8.68725E+00  1.29104E+01  8.37797E+00  9.38252E+00  1.95415E+01  2.21953E+01  2.49612E+01
   3.42766E+01  4.82441E+01  5.14439E+01  6.00734E+01  4.63067E+01  3.52956E+01  2.80817E+01  1.66929E+01  8.60318E+00  7.25752E+00
   2.92163E+00  6.92518E+00  5.24115E+00  6.31940E+00  2.33170E+00  5.00861E+00  2.32821E+00  1.15461E+00  8.00602E+00  1.47553E+01
   1.19525E+01  9.48184E+00  1.48404E+01  1.84815E+01  2.69240E+01  3.72874E+01  4.12119E+01  5.01744E+01  4.81068E+01  3.58114E+01
   2.80812E+01  1.97794E+01  9.72341E+00 -7.33956E-01  5.47005E+00  4.92604E+00 -5.03609E-01  5.67170E+00  5.54877E+00  1.44399E+01
   6.64717E+00  8.03782E+00  3.42031E+00 -3.67517E-01  1.38757E+00  2.03674E+00  4.48145E+00 -2.29237E-02  2.24650E+00  3.98222E+00
  -4.87892E-02  3.11156E+00 -5.70741E-01 -4.14302E+00  4.37180E+00  3.76380E+00  2.01626E+00  6.36707E+00  5.34256E+00  1.53026E+00
   4.21873E-01 -3.57244E+00 -4.30133E+00  2.61034E-01 -3.80168E+00  3.58199E+00 -7.29858E-01 -1.48631E-01 -2.42343E+00 -4.10358E+00
  -9.43442E+00 -7.39701E+00 -8.58012E+00 -1.22599E+01 -1.24282E+01 -9.97853E+00 -1.14789E+01 -1.14640E+01 -7.86189E+00 -9.01159E+00
  -4.67631E+00 -7.00165E+00 -1.11252E+01 -6.52128E+00 -7.42988E+00 -6.02598E+00 -5.24020E+00 -5.36587E+00  5.74970E-01 -8.71507E+00
   2.51351E+00 -4.24702E+00 -4.61477E+00 -5.35972E+00 -7.09545E+00 -8.43962E+00 -6.23598E+00 -3.01562E+00 -9.54833E+00 -1.15176E+01
   1.72207E+00 -2.26058E+00  1.22421E+00  2.23333E+00  1.28996E+00 -2.37686E+00  7.24173E-01 -2.96440E+00 -7.78660E+00 -5.16800E-01
   5.08909E-01  2.19042E+00  5.91610E+00  1.00505E+01  5.83235E+00  1.62056E+00  2.48207E+00 -1.03803E-02  3.42065E+00  4.30044E-02
  -3.53146E+00 -5.05935E+00 -8.01483E+00 -4.69582E+00 -2.37981E+00  1.78804E+00  5.68968E+00  7.90827E+00  4.85600E+00  3.10318E+00
   4.58460E+00  8.80476E+00 -8.68544E-01  1.80233E+00  2.08957E+00  2.37410E+00  5.32770E+00  5.79879E+00 -2.52636E+00 -1.90918E+00
  -1.05081E+00 -2.58480E-01 -4.04634E+00 -9.13146E-01 -7.96360E-01  8.33949E+00  6.35714E+00  9.50579E+00  1.46637E+01  1.24558E+01
   1.35329E+01  1.23984E+01  2.30210E+01  2.47475E+01  3.85035E+01  4.67848E+01  5.16716E+01  5.27797E+01  6.15520E+01  7.22116E+01
   7.67586E+01  6.92076E+01  4.69864E+01  2.47255E+01  1.05138E+01 -1.38721E+00 -3.17499E+00 -5.94304E+00  1.50640E-01 -6.26583E+00
  -3.31250E+00 -2.54104E-01 -1.29072E-01 -6.36225E+00 -2.10877E+00 -3.22692E-01 -5.48175E+00  2.41781E+00 -2.21059E+00 -2.74642E+00
  -6.67385E+00  6.88449E+00 -1.10577E+00 -4.89773E+00 -2.54552E+00 -1.16550E+00 -3.52594E-01 -2.03212E-01 -2.46821E+00 -1.53737E+00
   1.39107E+00  1.05856E+00 -2.53202E-01  1.41313E+00  4.55664E+00  5.49253E+00  3.62966E+00  3.55315E+00  4.28965E+00  6.66846E+00
   1.00108E+01  8.18584E+00  3.97846E+00  1.28047E+01  1.58603E+01  1.74182E+01  1.05724E+01  1.29084E+01  1.48152E+01  1.73578E+01
   1.60807E+01  1.49980E+01  1.51560E+01  1.44299E+01  1.52049E+01  1.76330E+01  1.42777E+01  1.42364E+01  2.59086E+01  1.92271E+01
   2.54863E+01  2.95606E+01  2.25986E+01  2.48912E+01  2.56722E+01  2.88288E+01  2.97732E+01  2.82390E+01  3.38115E+01  3.25762E+01
   2.94481E+01  3.37747E+01  2.64583E+01  3.22913E+01  3.21236E+01  3.15656E+01  2.95869E+01  3.11400E+01  2.74087E+01  3.01385E+01
   2.48703E+01  2.21652E+01  2.70352E+01  2.89622E+01  3.05567E+01  2.93323E+01  2.43886E+01  1.97921E+01  1.38364E+01  8.24954E+00
   8.99364E+00  5.34510E+00  8.55841E+00  7.07523E+00  1.15652E+01  1.37631E+01  1.20106E+01  1.40665E+01  1.37123E+01  7.97830E+00
   1.15296E+01  4.78762E+00  7.43156E+00  3.43507E+00  1.35019E+01  1.51990E+01  1.19725E+01  7.56337E+00  1.18548E+01  1.30152E+01
   9.83613E+00  1.72132E+01  1.37693E+01  1.46399E+01  1.38896E+01  1.55112E+01  1.25726E+01  1.23548E+01  1.18657E+01  1.17487E+01
   1.20981E+01  1.50086E+01  1.39178E+01  1.20397E+01  1.05856E+01  8.06562E+00  1.29806E+01  1.05749E+01  1.24915E+01  1.43593E+01
   1.19865E+01  1.42517E+01  1.13410E+01  1.38605E+01  1.38396E+01  2.12326E+01  1.34869E+01  2.17323E+01  2.01167E+01  1.63511E+01
   1.77180E+01  2.29769E+01  1.74088E+01  2.27389E+01  1.91935E+01  2.29962E+01  2.67285E+01  2.37182E+01  1.85396E+01  1.59630E+01
   1.47667E+01  1.41878E+01  1.79289E+01  9.71085E+00  1.06889E+01  9.95579E+00  7.61035E+00  1.32384E+01  5.34558E+00  6.90006E+00
   7.16003E+00  9.84943E+00  2.71436E+00  8.72622E+00  1.08628E+01  6.35935E+00  5.60038E+00  7.38333E+00  5.77349E+00  9.73269E-01
   5.90850E+00  3.01309E+00  2.81518E+00 -1.47882E+00  6.34731E+00  2.77311E+00  2.51693E+00  3.04480E+00  3.82795E+00  5.79054E+00
   5.07158E+00  1.10912E+00  2.71908E+00 -1.18263E+00 -2.07818E-01 -2.60943E+00 -7.95144E-01  3.84783E+00  2.74968E+00 -2.01423E+00
  -2.85369E-01  1.07580E+00 -8.65279E-01  3.80143E+00  2.15516E-01  1.42162E+00  3.97609E+00  2.72436E+00 -2.50610E+00  9.63652E-01
   2.44664E+00 -3.58551E+00  2.67300E+00  1.65793E+00 -3.08005E+00 -1.99485E-01 -1.94366E+00 -3.04544E+00  2.69692E+00 -2.91307E+00
  -2.04271E+00 -1.91547E-01  3.80640E+00 -1.63823E+00 -1.12070E+00 -2.84257E+00  2.65678E+00 -1.36772E+00  3.30224E+00  1.04461E+00
  -2.43111E+00 -6.01921E+00  1.20916E+00  2.83338E+00  1.64202E+00 -5.88953E+00 -3.26865E+00 -1.63644E+00  2.28394E+00  3.89466E+00
  -9.90167E-01 -5.91735E-01 -5.59640E-01 -3.93791E+00 -4.86446E+00  3.52142E-01  2.24902E+00 -4.96137E+00
 NY points of the fit to the data follow
   1.76668E+01  1.79242E+01  1.87134E+01  1.99845E+01  2.17010E+01  2.45471E+01  2.81980E+01  3.19814E+01  3.58249E+01  3.95872E+01
   4.25054E+01  4.33772E+01  4.12421E+01  3.62790E+01  3.00814E+01  2.44870E+01  2.04194E+01  1.80129E+01  1.69686E+01  1.66881E+01
   1.65499E+01  1.62181E+01  1.61220E+01  1.65249E+01  1.70715E+01  1.77951E+01  1.89788E+01  2.06581E+01  2.23883E+01  2.34493E+01
   2.33836E+01  2.23067E+01  2.06844E+01  1.89206E+01  1.71953E+01  1.57419E+01  1.47959E+01  1.43123E+01  1.40509E+01  1.40542E+01
   1.45424E+01  1.54399E+01  1.64445E+01  1.74517E+01  1.85875E+01  1.98863E+01  2.09969E+01  2.12583E+01  2.02344E+01  1.81208E+01
   1.55747E+01  1.32571E+01  1.16687E+01  1.10232E+01  1.11298E+01  1.16213E+01  1.21762E+01  1.26829E+01  1.31164E+01  1.33541E+01
   1.32153E+01  1.26120E+01  1.16462E+01  1.05735E+01  9.69874E+00  9.29376E+00  9.38186E+00  9.78936E+00  1.02949E+01  1.07348E+01
   1.10197E+01  1.10913E+01  1.09227E+01  1.05388E+01  1.00434E+01  9.56134E+00  9.16717E+00  8.88462E+00  8.69663E+00  8.54247E+00
   8.31435E+00  7.96922E+00  7.51994E+00  6.99149E+00  6.36842E+00  5.64825E+00  4.92735E+00  4.41391E+00  4.29786E+00  4.65108E+00
   5.37682E+00  6.24025E+00  7.04334E+00  7.68763E+00  8.19665E+00  8.99101E+00  1.16914E+01  1.63340E+01  2.13681E+01  2.74371E+01
   3.58657E+01  4.59762E+01  5.43538E+01  5.66003E+01  5.05785E+01  3.85048E+01  2.50651E+01  1.39778E+01  6.95093E+00  4.00040E+00
   3.77476E+00  4.47149E+00  4.91711E+00  5.00401E+00  5.01602E+00  5.02646E+00  5.05326E+00  5.12830E+00  5.31671E+00  5.85790E+00
   7.67063E+00  1.15536E+01  1.62915E+01  2.14559E+01  2.79889E+01  3.61281E+01  4.40077E+01  4.81578E+01  4.58570E+01  3.75730E+01
   2.66255E+01  1.64391E+01  8.90527E+00  4.44224E+00  2.49410E+00  1.97033E+00  1.97664E+00  2.24929E+00  2.88926E+00  3.72388E+00
   4.38476E+00  4.60776E+00  4.35212E+00  3.77994E+00  3.12386E+00  2.55059E+00  2.12037E+00  1.78709E+00  1.49856E+00  1.22615E+00
   9.39455E-01  6.52659E-01  4.02560E-01  2.06443E-01  3.88949E-02 -3.96385E-02 -4.89720E-02 -1.42196E-01 -4.27041E-01 -9.88684E-01
  -1.65150E+00 -2.04431E+00 -1.99632E+00 -1.70773E+00 -1.51940E+00 -1.70539E+00 -2.30207E+00 -3.09088E+00 -3.80656E+00 -4.29786E+00
  -4.50406E+00 -4.49004E+00 -4.56015E+00 -4.91023E+00 -5.47345E+00 -5.88647E+00 -5.82318E+00 -5.36511E+00 -4.92934E+00 -4.82867E+00
  -5.06075E+00 -5.24877E+00 -5.08214E+00 -4.61144E+00 -3.99375E+00 -3.25056E+00 -2.32651E+00 -1.15169E+00  1.97855E-01  1.37731E+00
   1.98266E+00  1.77900E+00  9.12564E-01 -2.64146E-01 -1.35939E+00 -2.07956E+00 -2.26198E+00 -1.87985E+00 -1.14820E+00 -3.06673E-01
   4.58689E-01  1.06568E+00  1.47166E+00  1.48005E+00  9.70939E-01 -6.91143E-02 -1.57164E+00 -3.16250E+00 -4.38530E+00 -4.83155E+00
  -4.50166E+00 -3.57430E+00 -2.08606E+00 -1.41744E-01  1.79691E+00  2.87168E+00  2.44673E+00  6.47677E-01 -1.89611E+00 -4.56868E+00
  -6.76134E+00 -7.84287E+00 -7.36951E+00 -5.45533E+00 -2.82080E+00 -3.13418E-01  1.50784E+00  2.40909E+00  2.42998E+00  1.88808E+00
   1.32623E+00  1.16236E+00  1.52594E+00  2.27148E+00  3.07735E+00  3.59091E+00  3.50992E+00  2.84884E+00  1.87627E+00  9.23560E-01
   2.99183E-01  2.98164E-01  1.07984E+00  2.52137E+00  4.22019E+00  5.70026E+00  6.66308E+00  7.14276E+00  7.77498E+00  9.24158E+00
   1.11413E+01  1.36444E+01  1.77525E+01  2.57014E+01  3.65119E+01  4.54505E+01  5.17520E+01  5.79319E+01  6.55247E+01  7.21183E+01
   7.26400E+01  6.38243E+01  4.77843E+01  3.00766E+01  1.51851E+01  5.31532E+00  8.22821E-01  1.06813E-01  7.35700E-01  1.04550E+00
   8.92920E-01  7.30868E-01  6.21255E-01  5.04098E-01  3.06917E-01  8.68207E-03 -3.39679E-01 -6.65839E-01 -9.19055E-01 -1.07452E+00
  -1.12741E+00 -1.09444E+00 -1.01739E+00 -9.45948E-01 -8.93701E-01 -8.38177E-01 -7.59224E-01 -6.36128E-01 -4.36454E-01 -1.27630E-01
   3.03073E-01  8.37684E-01  1.44010E+00  2.08696E+00  2.76611E+00  3.47399E+00  4.21617E+00  5.00610E+00  5.85734E+00  6.77273E+00
   7.73633E+00  8.71889E+00  9.69047E+00  1.06254E+01  1.15041E+01  1.23150E+01  1.30547E+01  1.37251E+01  1.43306E+01  1.48782E+01
   1.53788E+01  1.58464E+01  1.62983E+01  1.67550E+01  1.72388E+01  1.77713E+01  1.83720E+01  1.90573E+01  1.98416E+01  2.07399E+01
   2.17695E+01  2.28879E+01  2.40378E+01  2.52203E+01  2.64167E+01  2.75451E+01  2.84911E+01  2.91790E+01  2.96669E+01  3.00994E+01
   3.05339E+01  3.09694E+01  3.14043E+01  3.18248E+01  3.21619E+01  3.22917E+01  3.20920E+01  3.15302E+01  3.06872E+01  2.97243E+01
   2.88760E+01  2.80675E+01  2.70318E+01  2.59028E+01  2.47622E+01  2.33165E+01  2.10407E+01  1.76328E+01  1.36752E+01  1.01341E+01
   7.60280E+00  6.39089E+00  6.66706E+00  8.33831E+00  1.08281E+01  1.31822E+01  1.45559E+01  1.47374E+01  1.40777E+01  1.30494E+01
   1.20707E+01  1.14215E+01  1.11582E+01  1.11458E+01  1.12036E+01  1.12523E+01  1.12873E+01  1.13017E+01  1.12888E+01  1.12441E+01
   1.11666E+01  1.10581E+01  1.09229E+01  1.07676E+01  1.06010E+01  1.04330E+01  1.02748E+01  1.01377E+01  1.00331E+01  9.97193E+00
   9.96434E+00  1.00194E+01  1.01446E+01  1.03456E+01  1.06260E+01  1.09873E+01  1.14289E+01  1.19478E+01  1.25385E+01  1.31930E+01
   1.39007E+01  1.46493E+01  1.54242E+01  1.62092E+01  1.69867E+01  1.77379E+01  1.84441E+01  1.90868E+01  1.96487E+01  2.01137E+01
   2.04680E+01  2.07004E+01  2.08030E+01  2.07717E+01  2.06056E+01  2.03075E+01  1.98833E+01  1.93424E+01  1.86967E+01  1.79603E+01
   1.71486E+01  1.62776E+01  1.53638E+01  1.44231E+01  1.34709E+01  1.25211E+01  1.15857E+01  1.06752E+01  9.79812E+00  8.96112E+00
   8.16920E+00  7.42555E+00  6.73179E+00  6.08823E+00  5.49429E+00  4.94860E+00  4.44915E+00  3.99335E+00  3.57829E+00  3.20095E+00
   2.85842E+00  2.54784E+00  2.26643E+00  2.01139E+00  1.78013E+00  1.57034E+00  1.38000E+00  1.20729E+00  1.05043E+00  9.07772E-01
   7.77859E-01  6.59496E-01  5.51684E-01  4.53457E-01  3.63862E-01  2.82004E-01  2.07175E-01  1.38828E-01  7.64897E-02  1.96319E-02
  -3.22894E-02 -7.97569E-02 -1.23089E-01 -1.62522E-01 -1.98295E-01 -2.30748E-01 -2.60213E-01 -2.86949E-01 -3.11069E-01 -3.32680E-01
  -3.51940E-01 -3.69103E-01 -3.84375E-01 -3.97863E-01 -4.09580E-01 -4.19587E-01 -4.28028E-01 -4.35102E-01 -4.40920E-01 -4.45500E-01
  -4.48814E-01 -4.50926E-01 -4.51972E-01 -4.52099E-01 -4.51339E-01 -4.49661E-01 -4.47039E-01 -4.43564E-01 -4.39364E-01 -4.34532E-01
  -4.29038E-01 -4.22829E-01 -4.15904E-01 -4.08376E-01 -4.00348E-01 -3.91857E-01 -3.82831E-01 -3.73228E-01 -3.63085E-01 -3.52524E-01
  -3.41613E-01 -3.30333E-01 -3.18597E-01 -3.06391E-01 -2.93785E-01 -2.80894E-01 -2.67735E-01 -2.54250E-01
 NY background values follow
     1.482E+01    1.471E+01    1.460E+01    1.450E+01    1.439E+01    1.428E+01    1.418E+01    1.407E+01    1.396E+01    1.386E+01
     1.375E+01    1.364E+01    1.354E+01    1.343E+01    1.332E+01    1.322E+01    1.311E+01    1.300E+01    1.290E+01    1.279E+01
     1.268E+01    1.258E+01    1.247E+01    1.236E+01    1.226E+01    1.215E+01    1.204E+01    1.194E+01    1.183E+01    1.172E+01
     1.162E+01    1.151E+01    1.140E+01    1.130E+01    1.119E+01    1.108E+01    1.098E+01    1.087E+01    1.076E+01    1.066E+01
     1.055E+01    1.045E+01    1.034E+01    1.023E+01    1.013E+01    1.002E+01    9.916E+00    9.810E+00    9.704E+00    9.598E+00
     9.493E+00    9.387E+00    9.281E+00    9.176E+00    9.071E+00    8.965E+00    8.860E+00    8.755E+00    8.650E+00    8.545E+00
     8.440E+00    8.336E+00    8.231E+00    8.127E+00    8.023E+00    7.919E+00    7.815E+00    7.711E+00    7.607E+00    7.504E+00
     7.400E+00    7.297E+00    7.194E+00    7.091E+00    6.989E+00    6.886E+00    6.784E+00    6.682E+00    6.580E+00    6.479E+00
     6.377E+00    6.276E+00    6.175E+00    6.074E+00    5.974E+00    5.874E+00    5.773E+00    5.674E+00    5.574E+00    5.475E+00
     5.376E+00    5.277E+00    5.179E+00    5.080E+00    4.982E+00    4.885E+00    4.787E+00    4.690E+00    4.593E+00    4.497E+00
     4.401E+00    4.305E+00    4.209E+00    4.113E+00    4.018E+00    3.923E+00    3.829E+00    3.735E+00    3.641E+00    3.547E+00
     3.454E+00    3.361E+00    3.268E+00    3.175E+00    3.083E+00    2.991E+00    2.900E+00    2.808E+00    2.717E+00    2.627E+00
     2.536E+00    2.446E+00    2.357E+00    2.267E+00    2.178E+00    2.089E+00    2.001E+00    1.913E+00    1.825E+00    1.738E+00
     1.651E+00    1.564E+00    1.477E+00    1.391E+00    1.305E+00    1.220E+00    1.135E+00    1.050E+00    9.654E-01    8.813E-01
     7.976E-01    7.142E-01    6.312E-01    5.486E-01    4.664E-01    3.846E-01    3.031E-01    2.221E-01    1.415E-01    6.135E-02
    -1.839E-02   -9.769E-02   -1.765E-01   -2.550E-01   -3.329E-01   -4.104E-01   -4.874E-01   -5.639E-01   -6.399E-01   -7.155E-01
    -7.905E-01   -8.651E-01   -9.391E-01   -1.013E+00   -1.086E+00   -1.158E+00   -1.230E+00   -1.301E+00   -1.372E+00   -1.442E+00
    -1.512E+00   -1.581E+00   -1.649E+00   -1.717E+00   -1.785E+00   -1.851E+00   -1.917E+00   -1.983E+00   -2.048E+00   -2.112E+00
    -2.175E+00   -2.238E+00   -2.301E+00   -2.362E+00   -2.423E+00   -2.483E+00   -2.543E+00   -2.602E+00   -2.661E+00   -2.718E+00
    -2.775E+00   -2.832E+00   -2.888E+00   -2.943E+00   -2.998E+00   -3.052E+00   -3.105E+00   -3.158E+00   -3.210E+00   -3.262E+00
    -3.313E+00   -3.363E+00   -3.413E+00   -3.462E+00   -3.511E+00   -3.559E+00   -3.606E+00   -3.653E+00   -3.700E+00   -3.745E+00
    -3.791E+00   -3.835E+00   -3.879E+00   -3.923E+00   -3.966E+00   -4.008E+00   -4.050E+00   -4.091E+00   -4.132E+00   -4.172E+00
    -4.212E+00   -4.251E+00   -4.289E+00   -4.327E+00   -4.365E+00   -4.402E+00   -4.438E+00   -4.474E+00   -4.510E+00   -4.545E+00
    -4.579E+00   -4.613E+00   -4.646E+00   -4.679E+00   -4.711E+00   -4.743E+00   -4.774E+00   -4.805E+00   -4.835E+00   -4.864E+00
    -4.894E+00   -4.922E+00   -4.950E+00   -4.978E+00   -5.004E+00   -5.031E+00   -5.057E+00   -5.082E+00   -5.107E+00   -5.131E+00
    -5.155E+00   -5.178E+00   -5.200E+00   -5.222E+00   -5.244E+00   -5.265E+00   -5.285E+00   -5.305E+00   -5.324E+00   -5.343E+00
    -5.361E+00   -5.378E+00   -5.395E+00   -5.412E+00   -5.428E+00   -5.443E+00   -5.458E+00   -5.472E+00   -5.486E+00   -5.499E+00
    -5.511E+00   -5.523E+00   -5.534E+00   -5.545E+00   -5.555E+00   -5.565E+00   -5.574E+00   -5.583E+00   -5.591E+00   -5.598E+00
    -5.605E+00   -5.611E+00   -5.617E+00   -5.623E+00   -5.627E+00   -5.632E+00   -5.636E+00   -5.639E+00   -5.642E+00   -5.644E+00
    -5.646E+00   -5.647E+00   -5.648E+00   -5.648E+00   -5.648E+00   -5.648E+00   -5.646E+00   -5.645E+00   -5.643E+00   -5.641E+00
    -5.638E+00   -5.634E+00   -5.631E+00   -5.626E+00   -5.622E+00   -5.617E+00   -5.611E+00   -5.605E+00   -5.599E+00   -5.592E+00
    -5.585E+00   -5.578E+00   -5.570E+00   -5.561E+00   -5.553E+00   -5.544E+00   -5.534E+00   -5.524E+00   -5.514E+00   -5.503E+00
    -5.492E+00   -5.481E+00   -5.470E+00   -5.458E+00   -5.445E+00   -5.432E+00   -5.419E+00   -5.406E+00   -5.392E+00   -5.378E+00
    -5.364E+00   -5.349E+00   -5.335E+00   -5.319E+00   -5.304E+00   -5.288E+00   -5.272E+00   -5.255E+00   -5.239E+00   -5.222E+00
    -5.204E+00   -5.187E+00   -5.169E+00   -5.151E+00   -5.133E+00   -5.114E+00   -5.095E+00   -5.076E+00   -5.057E+00   -5.037E+00
    -5.017E+00   -4.997E+00   -4.977E+00   -4.957E+00   -4.936E+00   -4.915E+00   -4.894E+00   -4.873E+00   -4.851E+00   -4.829E+00
    -4.808E+00   -4.785E+00   -4.763E+00   -4.741E+00   -4.718E+00   -4.695E+00   -4.672E+00   -4.649E+00   -4.626E+00   -4.603E+00
    -4.579E+00   -4.555E+00   -4.531E+00   -4.507E+00   -4.483E+00   -4.459E+00   -4.434E+00   -4.409E+00   -4.385E+00   -4.360E+00
    -4.335E+00   -4.310E+00   -4.284E+00   -4.259E+00   -4.234E+00   -4.208E+00   -4.182E+00   -4.156E+00   -4.130E+00   -4.104E+00
    -4.078E+00   -4.052E+00   -4.026E+00   -3.999E+00   -3.973E+00   -3.946E+00   -3.920E+00   -3.893E+00   -3.866E+00   -3.839E+00
    -3.812E+00   -3.785E+00   -3.758E+00   -3.731E+00   -3.704E+00   -3.677E+00   -3.649E+00   -3.622E+00   -3.595E+00   -3.567E+00
    -3.540E+00   -3.512E+00   -3.485E+00   -3.457E+00   -3.430E+00   -3.402E+00   -3.374E+00   -3.347E+00   -3.319E+00   -3.291E+00
    -3.264E+00   -3.236E+00   -3.208E+00   -3.180E+00   -3.153E+00   -3.125E+00   -3.097E+00   -3.069E+00   -3.041E+00   -3.014E+00
    -2.986E+00   -2.958E+00   -2.930E+00   -2.902E+00   -2.875E+00   -2.847E+00   -2.819E+00   -2.791E+00   -2.764E+00   -2.736E+00
    -2.708E+00   -2.681E+00   -2.653E+00   -2.626E+00   -2.598E+00   -2.571E+00   -2.543E+00   -2.516E+00   -2.488E+00   -2.461E+00
    -2.434E+00   -2.407E+00   -2.379E+00   -2.352E+00   -2.325E+00   -2.298E+00   -2.271E+00   -2.244E+00   -2.217E+00   -2.191E+00
    -2.164E+00   -2.137E+00   -2.110E+00   -2.084E+00   -2.057E+00   -2.030E+00   -2.004E+00   -1.977E+00   -1.951E+00   -1.924E+00
    -1.898E+00   -1.871E+00   -1.845E+00   -1.819E+00   -1.792E+00   -1.766E+00   -1.740E+00   -1.713E+00   -1.687E+00   -1.661E+00
    -1.635E+00   -1.609E+00   -1.582E+00   -1.556E+00   -1.530E+00   -1.504E+00   -1.478E+00   -1.452E+00   -1.426E+00   -1.399E+00
    -1.373E+00   -1.347E+00   -1.321E+00   -1.295E+00   -1.269E+00   -1.243E+00   -1.217E+00   -1.191E+00
 Ala      Conc. = 6.57E+01
