 LCModel (Version 6.3-1L) Copyright: S.W. Provencher.          Ref.: Magn. Reson. Med. 30:672-679 (1993).                
 Slice#2 Row#7 Col#1  K_02_press_1_raw_act
 36 lines in following concentration table = NCONC+1
    Conc.  %SD /Cr+PCr  Metabolite                                         
    0.000 999%   0.000 Ala                                                 
   16.521 144%   0.141 Asp                                                 
    0.000 999%   0.000 Cr                                                  
  117.486  15%   1.000 PCr                                                 
    8.719 162% 7.4E-02 GABA                                                
    6.150 235% 5.2E-02 Glc                                                 
  194.173  29%   1.653 Gln                                                 
   40.576 141%   0.345 Glu                                                 
   22.788 121%   0.194 GPC                                                 
   23.706 118%   0.202 PCh                                                 
    0.000 999%   0.000 GSH                                                 
   38.527 178%   0.328 Ins                                                 
    3.455 823% 2.9E-02 Lac                                                 
  182.460  12%   1.553 NAA                                                 
    0.000 999%   0.000 NAAG                                                
    1.959 224% 1.7E-02 Scyllo                                              
    3.904 596% 3.3E-02 Tau                                                 
    0.000 999%   0.000 -CrCH2                                              
   46.494  16%   0.396 GPC+PCh                                             
  182.460  12%   1.553 NAA+NAAG                                            
  117.486  15%   1.000 Cr+PCr                                              
  234.749  33%   1.998 Glu+Gln                                             
  229.229  68%   1.951 Lip13a                                              
    0.000 999%   0.000 Lip13b                                              
   60.132  76%   0.512 Lip09                                               
    0.000 999%   0.000 MM09                                                
   35.057  77%   0.298 Lip20                                               
    0.772 999% 6.6E-03 MM20                                                
    0.000 999%   0.000 MM12                                                
    4.144 604% 3.5E-02 MM14                                                
    0.000 999%   0.000 MM17                                                
  229.229  68%   1.951 Lip13a+Lip13b                                       
  233.374  68%   1.986 MM14+Lip13a+Lip13b+MM12                             
   60.132  76%   0.512 MM09+Lip09                                          
   35.829  95%   0.305 MM20+Lip20                                          
   6 lines in following misc. output table
  FWHM = 0.031 ppm    S/N =   3                                            
  Data shift = 0.015 ppm                                                   
  Ph:  82 deg     -17.4 deg/ppm                                            
  alphaB,S = 7.7E-01,   6.4E+00                                            
   14 spline knots.   Ns = 5(1)                                            
  (10) 2 infls.   ( 8) 2 extrs.                                            
  498 points on ppm-axis = NY
      4.000000     3.992357     3.984714     3.977070     3.969427     3.961784     3.954141     3.946497     3.938854     3.931211
      3.923568     3.915925     3.908281     3.900638     3.892995     3.885352     3.877708     3.870065     3.862422     3.854779
      3.847136     3.839492     3.831849     3.824206     3.816563     3.808919     3.801276     3.793633     3.785990     3.778347
      3.770703     3.763060     3.755417     3.747774     3.740130     3.732487     3.724844     3.717201     3.709558     3.701914
      3.694271     3.686628     3.678985     3.671341     3.663698     3.656055     3.648412     3.640769     3.633125     3.625482
      3.617839     3.610196     3.602552     3.594909     3.587266     3.579623     3.571980     3.564336     3.556693     3.549050
      3.541407     3.533763     3.526120     3.518477     3.510834     3.503191     3.495547     3.487904     3.480261     3.472618
      3.464974     3.457331     3.449688     3.442045     3.434402     3.426758     3.419115     3.411472     3.403829     3.396185
      3.388542     3.380899     3.373256     3.365613     3.357969     3.350326     3.342683     3.335040     3.327396     3.319753
      3.312110     3.304467     3.296824     3.289180     3.281537     3.273894     3.266251     3.258607     3.250964     3.243321
      3.235678     3.228034     3.220391     3.212748     3.205105     3.197462     3.189818     3.182175     3.174532     3.166889
      3.159245     3.151602     3.143959     3.136316     3.128673     3.121029     3.113386     3.105743     3.098100     3.090456
      3.082813     3.075170     3.067527     3.059884     3.052240     3.044597     3.036954     3.029311     3.021667     3.014024
      3.006381     2.998738     2.991095     2.983451     2.975808     2.968165     2.960522     2.952878     2.945235     2.937592
      2.929949     2.922306     2.914662     2.907019     2.899376     2.891733     2.884089     2.876446     2.868803     2.861160
      2.853517     2.845873     2.838230     2.830587     2.822944     2.815300     2.807657     2.800014     2.792371     2.784728
      2.777084     2.769441     2.761798     2.754155     2.746511     2.738868     2.731225     2.723582     2.715939     2.708295
      2.700652     2.693009     2.685366     2.677722     2.670079     2.662436     2.654793     2.647150     2.639506     2.631863
      2.624220     2.616577     2.608933     2.601290     2.593647     2.586004     2.578361     2.570717     2.563074     2.555431
      2.547788     2.540144     2.532501     2.524858     2.517215     2.509572     2.501928     2.494285     2.486642     2.478999
      2.471355     2.463712     2.456069     2.448426     2.440783     2.433139     2.425496     2.417853     2.410210     2.402566
      2.394923     2.387280     2.379637     2.371994     2.364350     2.356707     2.349064     2.341421     2.333777     2.326134
      2.318491     2.310848     2.303205     2.295561     2.287918     2.280275     2.272632     2.264988     2.257345     2.249702
      2.242059     2.234416     2.226772     2.219129     2.211486     2.203843     2.196199     2.188556     2.180913     2.173270
      2.165627     2.157983     2.150340     2.142697     2.135054     2.127410     2.119767     2.112124     2.104481     2.096838
      2.089194     2.081551     2.073908     2.066265     2.058621     2.050978     2.043335     2.035692     2.028049     2.020405
      2.012762     2.005119     1.997476     1.989833     1.982190     1.974546     1.966903     1.959260     1.951617     1.943974
      1.936331     1.928688     1.921045     1.913402     1.905759     1.898115     1.890472     1.882829     1.875186     1.867543
      1.859900     1.852257     1.844614     1.836971     1.829327     1.821684     1.814041     1.806398     1.798755     1.791112
      1.783469     1.775826     1.768183     1.760540     1.752896     1.745253     1.737610     1.729967     1.722324     1.714681
      1.707038     1.699395     1.691752     1.684108     1.676465     1.668822     1.661179     1.653536     1.645893     1.638250
      1.630607     1.622964     1.615321     1.607677     1.600034     1.592391     1.584748     1.577105     1.569462     1.561819
      1.554176     1.546533     1.538890     1.531246     1.523603     1.515960     1.508317     1.500674     1.493031     1.485388
      1.477745     1.470102     1.462458     1.454815     1.447172     1.439529     1.431886     1.424243     1.416600     1.408957
      1.401314     1.393671     1.386027     1.378384     1.370741     1.363098     1.355455     1.347812     1.340169     1.332526
      1.324883     1.317240     1.309596     1.301953     1.294310     1.286667     1.279024     1.271381     1.263738     1.256095
      1.248452     1.240808     1.233165     1.225522     1.217879     1.210236     1.202593     1.194950     1.187307     1.179664
      1.172021     1.164377     1.156734     1.149091     1.141448     1.133805     1.126162     1.118519     1.110876     1.103233
      1.095590     1.087946     1.080303     1.072660     1.065017     1.057374     1.049731     1.042088     1.034445     1.026802
      1.019158     1.011515     1.003872     0.996229     0.988586     0.980943     0.973300     0.965657     0.958014     0.950371
      0.942727     0.935084     0.927441     0.919798     0.912155     0.904512     0.896869     0.889226     0.881583     0.873940
      0.866296     0.858653     0.851010     0.843367     0.835724     0.828081     0.820438     0.812795     0.805152     0.797508
      0.789865     0.782222     0.774579     0.766936     0.759293     0.751650     0.744007     0.736364     0.728721     0.721077
      0.713434     0.705791     0.698148     0.690505     0.682862     0.675219     0.667576     0.659933     0.652290     0.644646
      0.637003     0.629360     0.621717     0.614074     0.606431     0.598788     0.591145     0.583502     0.575858     0.568215
      0.560572     0.552929     0.545286     0.537643     0.530000     0.522357     0.514714     0.507071     0.499427     0.491784
      0.484141     0.476498     0.468855     0.461212     0.453569     0.445925     0.438282     0.430639     0.422996     0.415353
      0.407710     0.400067     0.392424     0.384780     0.377137     0.369494     0.361851     0.354208     0.346565     0.338922
      0.331278     0.323635     0.315992     0.308349     0.300706     0.293063     0.285420     0.277777     0.270133     0.262490
      0.254847     0.247204     0.239561     0.231918     0.224275     0.216631     0.208988     0.201345
 NY phased data points follow
   1.22228E+02  1.21463E+02  1.20289E+02  1.18005E+02  1.15866E+02  1.15461E+02  1.15939E+02  1.11732E+02  1.12232E+02  1.13025E+02
   1.14318E+02  1.12441E+02  1.09517E+02  1.06792E+02  1.05796E+02  1.03249E+02  1.04091E+02  1.03626E+02  1.00277E+02  1.02790E+02
   1.00208E+02  9.95106E+01  9.78117E+01  9.95330E+01  9.24506E+01  9.67014E+01  9.41088E+01  9.23039E+01  8.92887E+01  9.21912E+01
   9.09466E+01  9.21781E+01  9.07378E+01  8.88352E+01  8.88779E+01  8.68229E+01  8.68462E+01  8.44314E+01  8.43086E+01  8.57246E+01
   8.26994E+01  8.33882E+01  8.17674E+01  8.00635E+01  7.93940E+01  8.20402E+01  7.79289E+01  7.90803E+01  8.14237E+01  7.90336E+01
   7.70999E+01  7.94936E+01  7.64277E+01  7.63027E+01  7.35902E+01  7.33329E+01  7.45224E+01  7.58542E+01  7.19818E+01  7.40858E+01
   7.17644E+01  7.19499E+01  7.18199E+01  6.83932E+01  7.00861E+01  6.75572E+01  6.58773E+01  6.68032E+01  6.76831E+01  6.43815E+01
   6.62957E+01  6.64568E+01  6.54460E+01  6.25797E+01  6.46752E+01  6.04314E+01  6.13362E+01  6.02429E+01  6.09857E+01  5.94821E+01
   6.17168E+01  5.97793E+01  5.93657E+01  6.16915E+01  5.86971E+01  5.71644E+01  5.68829E+01  5.87164E+01  5.65625E+01  5.69973E+01
   5.38286E+01  5.70245E+01  5.46135E+01  5.29459E+01  5.53850E+01  5.49042E+01  5.59182E+01  5.45242E+01  4.98351E+01  5.30230E+01
   5.35377E+01  5.64580E+01  5.56172E+01  5.73999E+01  5.84103E+01  5.74601E+01  5.49868E+01  5.35478E+01  4.81296E+01  5.49181E+01
   4.80200E+01  5.04983E+01  4.81267E+01  4.66462E+01  4.86511E+01  4.73164E+01  4.40563E+01  4.73883E+01  4.86244E+01  4.57223E+01
   4.63756E+01  4.50191E+01  4.58335E+01  4.23995E+01  4.46966E+01  4.63397E+01  4.68797E+01  5.00283E+01  4.92906E+01  4.88009E+01
   4.60202E+01  4.39703E+01  4.22735E+01  4.14935E+01  4.26778E+01  4.17391E+01  4.20277E+01  4.20204E+01  4.28340E+01  4.33606E+01
   4.09403E+01  4.08956E+01  4.09503E+01  4.05229E+01  3.96851E+01  4.07152E+01  3.82894E+01  3.72030E+01  3.81495E+01  4.12225E+01
   3.67780E+01  3.95218E+01  4.08901E+01  3.63776E+01  3.77626E+01  3.76526E+01  3.56271E+01  3.53553E+01  3.72857E+01  3.57926E+01
   3.68778E+01  3.59126E+01  3.73207E+01  3.76149E+01  3.54261E+01  3.58542E+01  3.34065E+01  3.52066E+01  3.62565E+01  3.61606E+01
   3.58817E+01  3.40150E+01  3.75878E+01  3.48047E+01  3.54813E+01  3.58573E+01  3.29221E+01  3.23787E+01  3.46243E+01  3.34247E+01
   3.47811E+01  3.37696E+01  3.38699E+01  2.96388E+01  3.26468E+01  3.18358E+01  3.00765E+01  2.96998E+01  3.22582E+01  3.30269E+01
   3.32278E+01  3.26215E+01  3.48661E+01  3.30733E+01  3.31888E+01  3.46325E+01  2.95258E+01  2.98791E+01  3.14440E+01  3.06734E+01
   3.05692E+01  3.26290E+01  3.45988E+01  3.06325E+01  3.55067E+01  3.18071E+01  3.18553E+01  3.07957E+01  2.93542E+01  2.40608E+01
   3.10393E+01  2.90515E+01  2.83708E+01  2.90887E+01  2.94843E+01  3.13068E+01  2.97223E+01  3.32489E+01  3.04903E+01  2.96055E+01
   3.19574E+01  3.02363E+01  2.89683E+01  2.75771E+01  2.77135E+01  3.18323E+01  2.68919E+01  3.17595E+01  2.99944E+01  2.52639E+01
   3.00303E+01  2.90786E+01  3.05393E+01  2.71855E+01  2.82133E+01  2.95271E+01  2.68455E+01  2.92615E+01  2.78100E+01  2.95968E+01
   2.73801E+01  2.79537E+01  2.67925E+01  2.45103E+01  2.65005E+01  2.45646E+01  2.55869E+01  2.62947E+01  2.68859E+01  2.47092E+01
   2.69167E+01  2.76220E+01  2.42406E+01  2.73319E+01  2.61137E+01  2.38615E+01  2.38559E+01  2.55661E+01  2.59622E+01  3.08749E+01
   3.47333E+01  3.46007E+01  3.37749E+01  2.95855E+01  2.93508E+01  2.50023E+01  2.39012E+01  2.44467E+01  2.27841E+01  2.43746E+01
   2.22888E+01  2.40402E+01  2.65796E+01  2.62630E+01  2.14090E+01  2.05670E+01  2.56622E+01  2.15390E+01  2.19893E+01  2.21367E+01
   2.13974E+01  2.38132E+01  2.21675E+01  2.06380E+01  2.30293E+01  2.25667E+01  2.14856E+01  2.19314E+01  2.25873E+01  2.38263E+01
   2.26494E+01  2.12764E+01  2.25112E+01  2.31225E+01  2.06325E+01  2.14604E+01  1.96896E+01  2.01356E+01  1.87929E+01  2.13004E+01
   2.25094E+01  1.89633E+01  2.11116E+01  2.14907E+01  1.95430E+01  2.22065E+01  2.14317E+01  2.12110E+01  1.83099E+01  2.09325E+01
   2.01908E+01  2.23849E+01  1.94263E+01  1.97093E+01  1.86515E+01  2.10602E+01  2.12237E+01  1.93480E+01  2.14462E+01  1.94400E+01
   2.05877E+01  2.18960E+01  1.67604E+01  1.89445E+01  1.97975E+01  1.80670E+01  1.75263E+01  1.98951E+01  2.15211E+01  1.66939E+01
   2.09961E+01  2.00846E+01  1.92883E+01  2.12136E+01  2.18307E+01  1.89318E+01  2.13005E+01  1.66330E+01  1.92592E+01  1.93188E+01
   1.47161E+01  1.67120E+01  1.63613E+01  1.66351E+01  2.06523E+01  1.82522E+01  2.24872E+01  1.85786E+01  2.07918E+01  2.00563E+01
   1.86137E+01  1.81123E+01  1.77236E+01  1.72889E+01  1.97497E+01  2.04274E+01  1.62262E+01  1.84833E+01  1.49803E+01  1.63703E+01
   1.73868E+01  1.56636E+01  1.77255E+01  1.87435E+01  1.77709E+01  1.48986E+01  1.60988E+01  1.76870E+01  1.69209E+01  1.48619E+01
   1.62466E+01  1.46218E+01  1.83942E+01  1.82003E+01  1.66474E+01  1.46801E+01  1.75396E+01  1.50723E+01  1.48941E+01  1.48416E+01
   1.77490E+01  1.76162E+01  1.51452E+01  1.57827E+01  1.56021E+01  1.57969E+01  1.49696E+01  1.75108E+01  1.28606E+01  1.44775E+01
   1.56946E+01  1.41849E+01  1.56216E+01  1.53409E+01  1.32308E+01  1.36840E+01  1.48400E+01  1.35144E+01  1.22938E+01  1.44692E+01
   1.63522E+01  1.30375E+01  1.67207E+01  1.35836E+01  1.31498E+01  1.43425E+01  1.27027E+01  1.23762E+01  1.64200E+01  1.32613E+01
   1.42017E+01  1.60036E+01  1.39029E+01  1.55930E+01  1.24187E+01  1.14279E+01  1.29766E+01  1.49365E+01  1.50746E+01  1.41443E+01
   1.44862E+01  1.42795E+01  1.28094E+01  1.41988E+01  1.49732E+01  1.42544E+01  1.40092E+01  1.22904E+01  1.28948E+01  1.46845E+01
   1.17545E+01  1.15568E+01  1.12246E+01  1.33049E+01  1.26029E+01  1.10421E+01  1.07109E+01  1.26454E+01  1.27406E+01  1.47371E+01
   7.59948E+00  1.09070E+01  1.07327E+01  1.24107E+01  1.18238E+01  1.06921E+01  1.07222E+01  1.38959E+01  1.19568E+01  1.23108E+01
   9.67892E+00  1.25155E+01  1.08211E+01  1.02667E+01  9.61872E+00  1.19038E+01  9.16017E+00  1.21415E+01  1.10726E+01  9.25999E+00
   1.20206E+01  1.02239E+01  8.59110E+00  1.27323E+01  9.87342E+00  9.80903E+00  8.94857E+00  1.07259E+01  9.62859E+00  1.07043E+01
   1.23416E+01  1.05557E+01  8.27033E+00  9.53625E+00  1.26086E+01  1.23251E+01  7.53710E+00  1.19183E+01  1.11411E+01  1.12302E+01
   1.18083E+01  9.46689E+00  8.40861E+00  9.60404E+00  8.39347E+00  9.01871E+00  8.71592E+00  8.07007E+00  1.01391E+01  9.74834E+00
   6.00268E+00  6.54091E+00  7.57033E+00  5.98090E+00  1.12648E+01  8.52146E+00  8.08649E+00  1.06106E+01
 NY points of the fit to the data follow
   1.16175E+02  1.15341E+02  1.14523E+02  1.13677E+02  1.12643E+02  1.11809E+02  1.11581E+02  1.11760E+02  1.12291E+02  1.12755E+02
   1.12371E+02  1.10977E+02  1.09068E+02  1.07085E+02  1.05430E+02  1.04269E+02  1.03354E+02  1.02509E+02  1.01666E+02  1.00822E+02
   1.00033E+02  9.93656E+01  9.87074E+01  9.79920E+01  9.71515E+01  9.61104E+01  9.49016E+01  9.37311E+01  9.29184E+01  9.24608E+01
   9.23010E+01  9.22594E+01  9.19856E+01  9.11987E+01  8.99929E+01  8.86521E+01  8.73985E+01  8.64543E+01  8.58394E+01  8.54045E+01
   8.49580E+01  8.43960E+01  8.37036E+01  8.29417E+01  8.22111E+01  8.15585E+01  8.09936E+01  8.04512E+01  7.98456E+01  7.91455E+01
   7.83617E+01  7.75512E+01  7.67826E+01  7.60844E+01  7.54270E+01  7.47924E+01  7.41733E+01  7.35647E+01  7.29834E+01  7.24285E+01
   7.18766E+01  7.13006E+01  7.06871E+01  7.00443E+01  6.93967E+01  6.87763E+01  6.81943E+01  6.76416E+01  6.71145E+01  6.66021E+01
   6.60908E+01  6.55833E+01  6.50825E+01  6.45766E+01  6.40646E+01  6.35519E+01  6.30336E+01  6.25116E+01  6.19933E+01  6.14829E+01
   6.09817E+01  6.04875E+01  6.00260E+01  5.95988E+01  5.91849E+01  5.87718E+01  5.83334E+01  5.78449E+01  5.73273E+01  5.68249E+01
   5.63630E+01  5.59506E+01  5.55736E+01  5.52099E+01  5.48412E+01  5.44664E+01  5.40698E+01  5.35453E+01  5.27189E+01  5.23369E+01
   5.29984E+01  5.44337E+01  5.64611E+01  5.82236E+01  5.84432E+01  5.69430E+01  5.45865E+01  5.21618E+01  5.03644E+01  4.93932E+01
   4.88633E+01  4.84943E+01  4.81674E+01  4.78557E+01  4.75526E+01  4.72562E+01  4.69616E+01  4.66690E+01  4.63811E+01  4.60927E+01
   4.57933E+01  4.53947E+01  4.47048E+01  4.45102E+01  4.52265E+01  4.65616E+01  4.83978E+01  4.99172E+01  5.00001E+01  4.86285E+01
   4.66168E+01  4.45836E+01  4.31510E+01  4.24127E+01  4.20089E+01  4.17276E+01  4.14860E+01  4.12645E+01  4.10529E+01  4.08423E+01
   4.06263E+01  4.04029E+01  4.01831E+01  3.99781E+01  3.97883E+01  3.96074E+01  3.94233E+01  3.92236E+01  3.90114E+01  3.87994E+01
   3.85949E+01  3.84013E+01  3.82167E+01  3.80358E+01  3.78580E+01  3.76892E+01  3.75387E+01  3.73654E+01  3.71462E+01  3.68863E+01
   3.65870E+01  3.63353E+01  3.61878E+01  3.61266E+01  3.61062E+01  3.60513E+01  3.58957E+01  3.56625E+01  3.54153E+01  3.51858E+01
   3.49990E+01  3.48504E+01  3.46915E+01  3.44782E+01  3.42549E+01  3.40465E+01  3.38934E+01  3.38131E+01  3.37640E+01  3.36873E+01
   3.35495E+01  3.33854E+01  3.32514E+01  3.31439E+01  3.30285E+01  3.29096E+01  3.27703E+01  3.26574E+01  3.26419E+01  3.26763E+01
   3.26646E+01  3.25895E+01  3.23753E+01  3.20898E+01  3.18197E+01  3.15660E+01  3.13411E+01  3.12205E+01  3.12278E+01  3.13325E+01
   3.15931E+01  3.19623E+01  3.22801E+01  3.24433E+01  3.24476E+01  3.21269E+01  3.12552E+01  3.01403E+01  2.90548E+01  2.81988E+01
   2.79650E+01  2.83925E+01  2.91046E+01  2.97880E+01  3.03026E+01  3.05359E+01  3.05581E+01  3.04329E+01  3.01681E+01  2.98100E+01
   2.94412E+01  2.91421E+01  2.89442E+01  2.88705E+01  2.88974E+01  2.89516E+01  2.89750E+01  2.89272E+01  2.87910E+01  2.86163E+01
   2.84841E+01  2.83363E+01  2.80526E+01  2.76975E+01  2.72809E+01  2.68872E+01  2.67773E+01  2.71436E+01  2.77297E+01  2.82425E+01
   2.84898E+01  2.82350E+01  2.75435E+01  2.67350E+01  2.60636E+01  2.55903E+01  2.53966E+01  2.54376E+01  2.55963E+01  2.58375E+01
   2.61204E+01  2.63600E+01  2.64709E+01  2.64488E+01  2.62114E+01  2.54253E+01  2.48534E+01  2.57925E+01  2.78209E+01  3.07542E+01
   3.37739E+01  3.49404E+01  3.35922E+01  3.08601E+01  2.78901E+01  2.55906E+01  2.45083E+01  2.40950E+01  2.39137E+01  2.37794E+01
   2.36627E+01  2.35593E+01  2.34722E+01  2.34032E+01  2.33432E+01  2.32804E+01  2.32101E+01  2.31257E+01  2.30272E+01  2.29216E+01
   2.28129E+01  2.27059E+01  2.26064E+01  2.25149E+01  2.24299E+01  2.23508E+01  2.22748E+01  2.21981E+01  2.21195E+01  2.20397E+01
   2.19577E+01  2.18742E+01  2.17902E+01  2.17058E+01  2.16215E+01  2.15386E+01  2.14571E+01  2.13770E+01  2.12982E+01  2.12202E+01
   2.11425E+01  2.10652E+01  2.09883E+01  2.09120E+01  2.08365E+01  2.07615E+01  2.06871E+01  2.06130E+01  2.05393E+01  2.04660E+01
   2.03932E+01  2.03210E+01  2.02494E+01  2.01783E+01  2.01078E+01  2.00380E+01  1.99689E+01  1.99006E+01  1.98329E+01  1.97659E+01
   1.96998E+01  1.96347E+01  1.95705E+01  1.95074E+01  1.94453E+01  1.93844E+01  1.93250E+01  1.92669E+01  1.92104E+01  1.91554E+01
   1.91023E+01  1.90510E+01  1.90018E+01  1.89547E+01  1.89098E+01  1.88672E+01  1.88269E+01  1.87889E+01  1.87533E+01  1.87198E+01
   1.86881E+01  1.86574E+01  1.86276E+01  1.86081E+01  1.85983E+01  1.85866E+01  1.85674E+01  1.85299E+01  1.84667E+01  1.83878E+01
   1.83033E+01  1.82277E+01  1.81717E+01  1.81313E+01  1.81023E+01  1.80761E+01  1.80346E+01  1.79677E+01  1.78788E+01  1.77732E+01
   1.76618E+01  1.75513E+01  1.74416E+01  1.73315E+01  1.72207E+01  1.71097E+01  1.69989E+01  1.68889E+01  1.67803E+01  1.66735E+01
   1.65691E+01  1.64674E+01  1.63687E+01  1.62730E+01  1.61806E+01  1.60914E+01  1.60054E+01  1.59227E+01  1.58430E+01  1.57663E+01
   1.56924E+01  1.56212E+01  1.55527E+01  1.54866E+01  1.54229E+01  1.53615E+01  1.53021E+01  1.52449E+01  1.51896E+01  1.51362E+01
   1.50846E+01  1.50345E+01  1.49860E+01  1.49387E+01  1.48926E+01  1.48473E+01  1.48025E+01  1.47579E+01  1.47133E+01  1.46681E+01
   1.46222E+01  1.45749E+01  1.45261E+01  1.44753E+01  1.44223E+01  1.43668E+01  1.43086E+01  1.42476E+01  1.41839E+01  1.41174E+01
   1.40484E+01  1.39771E+01  1.39037E+01  1.38285E+01  1.37519E+01  1.36743E+01  1.35962E+01  1.35177E+01  1.34394E+01  1.33614E+01
   1.32840E+01  1.32076E+01  1.31321E+01  1.30578E+01  1.29848E+01  1.29129E+01  1.28423E+01  1.27730E+01  1.27048E+01  1.26377E+01
   1.25716E+01  1.25064E+01  1.24421E+01  1.23785E+01  1.23156E+01  1.22533E+01  1.21914E+01  1.21301E+01  1.20691E+01  1.20084E+01
   1.19479E+01  1.18877E+01  1.18277E+01  1.17679E+01  1.17081E+01  1.16485E+01  1.15889E+01  1.15294E+01  1.14699E+01  1.14104E+01
   1.13510E+01  1.12915E+01  1.12319E+01  1.11724E+01  1.11128E+01  1.10531E+01  1.09934E+01  1.09337E+01  1.08739E+01  1.08140E+01
   1.07541E+01  1.06941E+01  1.06340E+01  1.05739E+01  1.05137E+01  1.04535E+01  1.03932E+01  1.03328E+01  1.02724E+01  1.02119E+01
   1.01513E+01  1.00907E+01  1.00300E+01  9.96924E+00  9.90842E+00  9.84753E+00  9.78660E+00  9.72561E+00  9.66457E+00  9.60347E+00
   9.54229E+00  9.48107E+00  9.41980E+00  9.35850E+00  9.29714E+00  9.23571E+00  9.17424E+00  9.11273E+00  9.05118E+00  8.98961E+00
   8.92798E+00  8.86630E+00  8.80459E+00  8.74286E+00  8.68112E+00  8.61934E+00  8.55752E+00  8.49568E+00
 NY background values follow
     1.160E+02    1.151E+02    1.143E+02    1.135E+02    1.127E+02    1.119E+02    1.111E+02    1.103E+02    1.094E+02    1.086E+02
     1.078E+02    1.070E+02    1.062E+02    1.054E+02    1.046E+02    1.038E+02    1.030E+02    1.022E+02    1.014E+02    1.006E+02
     9.979E+01    9.900E+01    9.821E+01    9.742E+01    9.664E+01    9.586E+01    9.509E+01    9.432E+01    9.355E+01    9.278E+01
     9.202E+01    9.127E+01    9.051E+01    8.977E+01    8.902E+01    8.828E+01    8.755E+01    8.682E+01    8.609E+01    8.537E+01
     8.466E+01    8.395E+01    8.324E+01    8.255E+01    8.185E+01    8.117E+01    8.049E+01    7.981E+01    7.914E+01    7.848E+01
     7.782E+01    7.717E+01    7.653E+01    7.589E+01    7.525E+01    7.463E+01    7.401E+01    7.339E+01    7.278E+01    7.218E+01
     7.158E+01    7.099E+01    7.040E+01    6.982E+01    6.925E+01    6.868E+01    6.812E+01    6.756E+01    6.701E+01    6.646E+01
     6.592E+01    6.539E+01    6.486E+01    6.433E+01    6.382E+01    6.331E+01    6.280E+01    6.230E+01    6.180E+01    6.132E+01
     6.083E+01    6.035E+01    5.988E+01    5.941E+01    5.895E+01    5.850E+01    5.805E+01    5.760E+01    5.716E+01    5.673E+01
     5.630E+01    5.588E+01    5.546E+01    5.505E+01    5.464E+01    5.424E+01    5.384E+01    5.345E+01    5.306E+01    5.268E+01
     5.231E+01    5.193E+01    5.157E+01    5.121E+01    5.085E+01    5.050E+01    5.015E+01    4.980E+01    4.947E+01    4.913E+01
     4.880E+01    4.848E+01    4.816E+01    4.784E+01    4.753E+01    4.722E+01    4.691E+01    4.661E+01    4.632E+01    4.603E+01
     4.574E+01    4.545E+01    4.517E+01    4.490E+01    4.462E+01    4.435E+01    4.409E+01    4.382E+01    4.356E+01    4.331E+01
     4.306E+01    4.281E+01    4.256E+01    4.232E+01    4.208E+01    4.184E+01    4.161E+01    4.138E+01    4.115E+01    4.093E+01
     4.071E+01    4.049E+01    4.027E+01    4.006E+01    3.985E+01    3.964E+01    3.944E+01    3.923E+01    3.903E+01    3.884E+01
     3.864E+01    3.845E+01    3.826E+01    3.807E+01    3.789E+01    3.770E+01    3.752E+01    3.735E+01    3.717E+01    3.700E+01
     3.682E+01    3.666E+01    3.649E+01    3.632E+01    3.616E+01    3.600E+01    3.584E+01    3.568E+01    3.553E+01    3.537E+01
     3.522E+01    3.507E+01    3.492E+01    3.477E+01    3.463E+01    3.449E+01    3.434E+01    3.420E+01    3.407E+01    3.393E+01
     3.379E+01    3.366E+01    3.352E+01    3.339E+01    3.326E+01    3.313E+01    3.300E+01    3.288E+01    3.275E+01    3.263E+01
     3.250E+01    3.238E+01    3.226E+01    3.214E+01    3.202E+01    3.190E+01    3.178E+01    3.167E+01    3.155E+01    3.144E+01
     3.132E+01    3.121E+01    3.109E+01    3.098E+01    3.087E+01    3.076E+01    3.065E+01    3.053E+01    3.042E+01    3.031E+01
     3.021E+01    3.010E+01    2.999E+01    2.988E+01    2.977E+01    2.966E+01    2.955E+01    2.945E+01    2.934E+01    2.923E+01
     2.912E+01    2.901E+01    2.891E+01    2.880E+01    2.869E+01    2.858E+01    2.847E+01    2.836E+01    2.826E+01    2.815E+01
     2.804E+01    2.793E+01    2.782E+01    2.771E+01    2.760E+01    2.749E+01    2.738E+01    2.727E+01    2.716E+01    2.705E+01
     2.694E+01    2.683E+01    2.672E+01    2.661E+01    2.650E+01    2.639E+01    2.628E+01    2.617E+01    2.606E+01    2.595E+01
     2.584E+01    2.574E+01    2.563E+01    2.552E+01    2.541E+01    2.531E+01    2.520E+01    2.509E+01    2.499E+01    2.488E+01
     2.478E+01    2.467E+01    2.457E+01    2.447E+01    2.436E+01    2.426E+01    2.416E+01    2.406E+01    2.396E+01    2.386E+01
     2.376E+01    2.366E+01    2.357E+01    2.347E+01    2.337E+01    2.328E+01    2.319E+01    2.309E+01    2.300E+01    2.291E+01
     2.281E+01    2.272E+01    2.263E+01    2.254E+01    2.245E+01    2.237E+01    2.228E+01    2.219E+01    2.210E+01    2.202E+01
     2.193E+01    2.185E+01    2.176E+01    2.168E+01    2.159E+01    2.151E+01    2.143E+01    2.134E+01    2.126E+01    2.118E+01
     2.110E+01    2.102E+01    2.094E+01    2.086E+01    2.078E+01    2.070E+01    2.062E+01    2.054E+01    2.047E+01    2.039E+01
     2.031E+01    2.023E+01    2.016E+01    2.008E+01    2.000E+01    1.993E+01    1.985E+01    1.978E+01    1.970E+01    1.962E+01
     1.955E+01    1.947E+01    1.940E+01    1.933E+01    1.925E+01    1.918E+01    1.910E+01    1.903E+01    1.896E+01    1.889E+01
     1.881E+01    1.874E+01    1.867E+01    1.860E+01    1.852E+01    1.845E+01    1.838E+01    1.831E+01    1.824E+01    1.817E+01
     1.810E+01    1.803E+01    1.796E+01    1.789E+01    1.782E+01    1.775E+01    1.768E+01    1.761E+01    1.754E+01    1.748E+01
     1.741E+01    1.734E+01    1.727E+01    1.721E+01    1.714E+01    1.707E+01    1.701E+01    1.694E+01    1.687E+01    1.681E+01
     1.674E+01    1.668E+01    1.661E+01    1.655E+01    1.648E+01    1.642E+01    1.635E+01    1.629E+01    1.622E+01    1.616E+01
     1.610E+01    1.603E+01    1.597E+01    1.591E+01    1.585E+01    1.578E+01    1.572E+01    1.566E+01    1.560E+01    1.554E+01
     1.548E+01    1.541E+01    1.535E+01    1.529E+01    1.523E+01    1.517E+01    1.511E+01    1.505E+01    1.499E+01    1.493E+01
     1.487E+01    1.481E+01    1.475E+01    1.469E+01    1.463E+01    1.457E+01    1.451E+01    1.445E+01    1.439E+01    1.434E+01
     1.428E+01    1.422E+01    1.416E+01    1.410E+01    1.404E+01    1.398E+01    1.393E+01    1.387E+01    1.381E+01    1.375E+01
     1.369E+01    1.364E+01    1.358E+01    1.352E+01    1.346E+01    1.340E+01    1.335E+01    1.329E+01    1.323E+01    1.317E+01
     1.312E+01    1.306E+01    1.300E+01    1.294E+01    1.289E+01    1.283E+01    1.277E+01    1.271E+01    1.266E+01    1.260E+01
     1.254E+01    1.248E+01    1.243E+01    1.237E+01    1.231E+01    1.225E+01    1.220E+01    1.214E+01    1.208E+01    1.202E+01
     1.196E+01    1.191E+01    1.185E+01    1.179E+01    1.173E+01    1.167E+01    1.162E+01    1.156E+01    1.150E+01    1.144E+01
     1.138E+01    1.132E+01    1.126E+01    1.120E+01    1.115E+01    1.109E+01    1.103E+01    1.097E+01    1.091E+01    1.085E+01
     1.079E+01    1.073E+01    1.067E+01    1.061E+01    1.055E+01    1.049E+01    1.043E+01    1.037E+01    1.031E+01    1.025E+01
     1.019E+01    1.013E+01    1.007E+01    1.000E+01    9.944E+00    9.883E+00    9.822E+00    9.761E+00    9.700E+00    9.639E+00
     9.578E+00    9.516E+00    9.455E+00    9.393E+00    9.332E+00    9.270E+00    9.209E+00    9.147E+00    9.085E+00    9.023E+00
     8.962E+00    8.900E+00    8.838E+00    8.776E+00    8.714E+00    8.652E+00    8.589E+00    8.527E+00
 Asp      Conc. = 1.65E+01
