 LCModel (Version 6.3-1L) Copyright: S.W. Provencher.          Ref.: Magn. Reson. Med. 30:672-679 (1993).                
 Slice#3 Row#5 Col#2  K_02_press_1_raw_act
 36 lines in following concentration table = NCONC+1
    Conc.  %SD /Cr+PCr  Metabolite                                         
    0.000 999%   0.000 Ala                                                 
    7.313  38%   0.211 Asp                                                 
   28.389  60%   0.820 Cr                                                  
    6.224 273%   0.180 PCr                                                 
    4.347  38%   0.126 GABA                                                
    4.398  37%   0.127 Glc                                                 
   17.660 118%   0.510 Gln                                                 
   19.079 120%   0.551 Glu                                                 
    7.978  39%   0.230 GPC                                                 
    0.000 999%   0.000 PCh                                                 
    3.096 285% 8.9E-02 GSH                                                 
   30.325  93%   0.876 Ins                                                 
   28.539  42%   0.825 Lac                                                 
   49.955  23%   1.443 NAA                                                 
   37.827  26%   1.093 NAAG                                                
    1.462  37% 4.2E-02 Scyllo                                              
    7.210  38%   0.208 Tau                                                 
    3.816  85%   0.110 -CrCH2                                              
    7.978  39%   0.230 GPC+PCh                                             
   87.782  20%   2.536 NAA+NAAG                                            
   34.613  25%   1.000 Cr+PCr                                              
   36.739  73%   1.061 Glu+Gln                                             
    0.000 999%   0.000 Lip13a                                              
  546.892  18%  15.800 Lip13b                                              
    0.000 999%   0.000 Lip09                                               
 5.55E+03   8% 160.482 MM09                                                
  474.736  23%  13.716+Lip20                                               
 8.33E+03   8% 240.771 MM20                                                
 1.67E+03   8%  48.145 MM12                                                
 4.16E+03   8% 120.323 MM14                                                
 2.08E+03   8%  60.221 MM17                                                
  546.892  18%  15.800 Lip13a+Lip13b                                       
 6.38E+03   8% 184.268 MM14+Lip13a+Lip13b+MM12                             
 5.55E+03   8% 160.482 MM09+Lip09                                          
 8.81E+03   8% 254.487 MM20+Lip20                                          
   6 lines in following misc. output table
  FWHM = 0.038 ppm    S/N =   5                                            
  Data shift = 0.015 ppm                                                   
  Ph: 140 deg      10.4 deg/ppm                                            
  alphaB,S = 2.5E-01,   4.7E+00                                            
   14 spline knots.   Ns = 5(1)                                            
  ( 5) 2 infls.   ( 4) 2 extrs.                                            
  498 points on ppm-axis = NY
      4.000000     3.992357     3.984714     3.977070     3.969427     3.961784     3.954141     3.946497     3.938854     3.931211
      3.923568     3.915925     3.908281     3.900638     3.892995     3.885352     3.877708     3.870065     3.862422     3.854779
      3.847136     3.839492     3.831849     3.824206     3.816563     3.808919     3.801276     3.793633     3.785990     3.778347
      3.770703     3.763060     3.755417     3.747774     3.740130     3.732487     3.724844     3.717201     3.709558     3.701914
      3.694271     3.686628     3.678985     3.671341     3.663698     3.656055     3.648412     3.640769     3.633125     3.625482
      3.617839     3.610196     3.602552     3.594909     3.587266     3.579623     3.571980     3.564336     3.556693     3.549050
      3.541407     3.533763     3.526120     3.518477     3.510834     3.503191     3.495547     3.487904     3.480261     3.472618
      3.464974     3.457331     3.449688     3.442045     3.434402     3.426758     3.419115     3.411472     3.403829     3.396185
      3.388542     3.380899     3.373256     3.365613     3.357969     3.350326     3.342683     3.335040     3.327396     3.319753
      3.312110     3.304467     3.296824     3.289180     3.281537     3.273894     3.266251     3.258607     3.250964     3.243321
      3.235678     3.228034     3.220391     3.212748     3.205105     3.197462     3.189818     3.182175     3.174532     3.166889
      3.159245     3.151602     3.143959     3.136316     3.128673     3.121029     3.113386     3.105743     3.098100     3.090456
      3.082813     3.075170     3.067527     3.059884     3.052240     3.044597     3.036954     3.029311     3.021667     3.014024
      3.006381     2.998738     2.991095     2.983451     2.975808     2.968165     2.960522     2.952878     2.945235     2.937592
      2.929949     2.922306     2.914662     2.907019     2.899376     2.891733     2.884089     2.876446     2.868803     2.861160
      2.853517     2.845873     2.838230     2.830587     2.822944     2.815300     2.807657     2.800014     2.792371     2.784728
      2.777084     2.769441     2.761798     2.754155     2.746511     2.738868     2.731225     2.723582     2.715939     2.708295
      2.700652     2.693009     2.685366     2.677722     2.670079     2.662436     2.654793     2.647150     2.639506     2.631863
      2.624220     2.616577     2.608933     2.601290     2.593647     2.586004     2.578361     2.570717     2.563074     2.555431
      2.547788     2.540144     2.532501     2.524858     2.517215     2.509572     2.501928     2.494285     2.486642     2.478999
      2.471355     2.463712     2.456069     2.448426     2.440783     2.433139     2.425496     2.417853     2.410210     2.402566
      2.394923     2.387280     2.379637     2.371994     2.364350     2.356707     2.349064     2.341421     2.333777     2.326134
      2.318491     2.310848     2.303205     2.295561     2.287918     2.280275     2.272632     2.264988     2.257345     2.249702
      2.242059     2.234416     2.226772     2.219129     2.211486     2.203843     2.196199     2.188556     2.180913     2.173270
      2.165627     2.157983     2.150340     2.142697     2.135054     2.127410     2.119767     2.112124     2.104481     2.096838
      2.089194     2.081551     2.073908     2.066265     2.058621     2.050978     2.043335     2.035692     2.028049     2.020405
      2.012762     2.005119     1.997476     1.989833     1.982190     1.974546     1.966903     1.959260     1.951617     1.943974
      1.936331     1.928688     1.921045     1.913402     1.905759     1.898115     1.890472     1.882829     1.875186     1.867543
      1.859900     1.852257     1.844614     1.836971     1.829327     1.821684     1.814041     1.806398     1.798755     1.791112
      1.783469     1.775826     1.768183     1.760540     1.752896     1.745253     1.737610     1.729967     1.722324     1.714681
      1.707038     1.699395     1.691752     1.684108     1.676465     1.668822     1.661179     1.653536     1.645893     1.638250
      1.630607     1.622964     1.615321     1.607677     1.600034     1.592391     1.584748     1.577105     1.569462     1.561819
      1.554176     1.546533     1.538890     1.531246     1.523603     1.515960     1.508317     1.500674     1.493031     1.485388
      1.477745     1.470102     1.462458     1.454815     1.447172     1.439529     1.431886     1.424243     1.416600     1.408957
      1.401314     1.393671     1.386027     1.378384     1.370741     1.363098     1.355455     1.347812     1.340169     1.332526
      1.324883     1.317240     1.309596     1.301953     1.294310     1.286667     1.279024     1.271381     1.263738     1.256095
      1.248452     1.240808     1.233165     1.225522     1.217879     1.210236     1.202593     1.194950     1.187307     1.179664
      1.172021     1.164377     1.156734     1.149091     1.141448     1.133805     1.126162     1.118519     1.110876     1.103233
      1.095590     1.087946     1.080303     1.072660     1.065017     1.057374     1.049731     1.042088     1.034445     1.026802
      1.019158     1.011515     1.003872     0.996229     0.988586     0.980943     0.973300     0.965657     0.958014     0.950371
      0.942727     0.935084     0.927441     0.919798     0.912155     0.904512     0.896869     0.889226     0.881583     0.873940
      0.866296     0.858653     0.851010     0.843367     0.835724     0.828081     0.820438     0.812795     0.805152     0.797508
      0.789865     0.782222     0.774579     0.766936     0.759293     0.751650     0.744007     0.736364     0.728721     0.721077
      0.713434     0.705791     0.698148     0.690505     0.682862     0.675219     0.667576     0.659933     0.652290     0.644646
      0.637003     0.629360     0.621717     0.614074     0.606431     0.598788     0.591145     0.583502     0.575858     0.568215
      0.560572     0.552929     0.545286     0.537643     0.530000     0.522357     0.514714     0.507071     0.499427     0.491784
      0.484141     0.476498     0.468855     0.461212     0.453569     0.445925     0.438282     0.430639     0.422996     0.415353
      0.407710     0.400067     0.392424     0.384780     0.377137     0.369494     0.361851     0.354208     0.346565     0.338922
      0.331278     0.323635     0.315992     0.308349     0.300706     0.293063     0.285420     0.277777     0.270133     0.262490
      0.254847     0.247204     0.239561     0.231918     0.224275     0.216631     0.208988     0.201345
 NY phased data points follow
   4.93587E+01  4.61254E+01  4.90824E+01  4.84874E+01  4.74615E+01  4.67085E+01  4.73652E+01  4.52691E+01  4.43981E+01  4.34268E+01
   4.60592E+01  4.71360E+01  4.72921E+01  4.66615E+01  4.60125E+01  4.60145E+01  4.18919E+01  4.11568E+01  4.41399E+01  4.24577E+01
   4.25239E+01  4.15360E+01  3.92636E+01  3.88165E+01  3.75097E+01  3.88406E+01  3.92069E+01  3.58733E+01  3.97973E+01  3.53901E+01
   3.61646E+01  3.64981E+01  3.39887E+01  3.71713E+01  3.43460E+01  3.59027E+01  3.47462E+01  3.53468E+01  3.61688E+01  3.47336E+01
   3.56315E+01  3.21307E+01  3.22469E+01  3.42195E+01  3.19985E+01  3.09058E+01  2.95653E+01  2.85090E+01  3.24757E+01  3.01630E+01
   3.06241E+01  3.24396E+01  3.00583E+01  2.78607E+01  2.86526E+01  3.01942E+01  2.72129E+01  2.71440E+01  2.69887E+01  2.81786E+01
   2.65918E+01  2.71484E+01  2.66043E+01  2.74507E+01  2.67382E+01  2.59635E+01  2.24467E+01  2.39483E+01  2.32509E+01  2.34826E+01
   2.32103E+01  2.26444E+01  2.36817E+01  2.17251E+01  2.13569E+01  2.16732E+01  1.98640E+01  1.65372E+01  1.84539E+01  1.88295E+01
   1.92006E+01  2.21090E+01  1.81685E+01  1.78988E+01  1.63067E+01  1.58431E+01  1.80216E+01  1.44591E+01  1.57749E+01  1.64732E+01
   1.51089E+01  1.83058E+01  1.33636E+01  1.49812E+01  1.40975E+01  1.52551E+01  1.26991E+01  1.07394E+01  9.99120E+00  7.69239E+00
   1.20737E+01  1.34286E+01  1.65345E+01  1.44693E+01  1.39341E+01  1.64718E+01  1.34991E+01  1.27729E+01  1.15757E+01  1.05569E+01
   1.04803E+01  1.08611E+01  1.17651E+01  1.15521E+01  9.56303E+00  1.10685E+01  9.77494E+00  9.63841E+00  8.67593E+00  9.42818E+00
   7.60351E+00  5.31373E+00  5.64061E+00  3.84586E+00 -8.42734E-01  8.28196E+00  8.08189E+00  1.39130E+01  1.20111E+01  1.56927E+01
   1.04432E+01  1.12199E+01  1.03155E+01  7.11859E+00  1.01274E+01  9.80739E+00  5.95165E+00  7.05751E+00  7.91688E+00  9.86614E+00
   7.45025E+00  7.58199E+00  5.05318E+00  8.94338E+00  5.93676E+00  7.53890E+00  5.34354E+00  7.61883E+00  7.87067E+00  6.93150E+00
   5.68825E+00  7.29716E+00  7.76956E+00  6.45170E+00  6.99527E+00  5.27204E+00  5.00600E+00  5.94353E+00  6.50061E+00  9.90860E+00
   5.51765E+00  5.84591E+00  3.41512E+00  3.12614E-01  4.49496E+00  3.07321E+00  4.61004E+00  3.01220E+00  4.27921E+00  3.40174E+00
   3.93764E+00  5.32893E+00  3.77441E+00  1.41503E+00  3.35619E-01  4.02709E+00  1.55559E+00  1.71197E+00  2.03112E+00 -1.65094E+00
   9.57796E-01 -1.81732E+00 -3.86249E-01 -5.15999E-01 -1.53982E+00 -2.25455E+00 -1.75159E+00 -1.41222E+00 -2.28999E+00 -4.25503E-01
  -2.15840E+00  8.42321E-01 -1.81127E+00 -4.58862E-01  1.74764E-01  1.15238E-01 -1.58377E+00  2.10632E-01  1.95613E+00  2.05737E+00
   5.78387E-01  3.69052E+00  6.96116E+00  5.43819E+00  2.56844E+00  5.80182E+00  6.60874E+00  1.01105E+01  8.07553E+00  1.17604E+01
   9.59693E+00  9.18325E+00  1.11425E+01  1.05942E+01  1.28559E+01  1.65521E+01  1.93588E+01  2.18797E+01  2.03056E+01  2.25884E+01
   2.39465E+01  2.54824E+01  2.55909E+01  2.65740E+01  2.75473E+01  3.13470E+01  3.06450E+01  3.26563E+01  3.57792E+01  3.85257E+01
   3.60102E+01  3.69532E+01  3.96983E+01  4.06010E+01  3.94269E+01  4.38634E+01  4.62427E+01  4.76953E+01  4.39452E+01  4.53284E+01
   4.69607E+01  4.49740E+01  4.80069E+01  4.82189E+01  4.60648E+01  4.89421E+01  4.59952E+01  4.59450E+01  4.85955E+01  5.14226E+01
   4.98714E+01  5.02653E+01  4.96142E+01  5.11206E+01  4.84583E+01  5.03946E+01  5.09371E+01  5.34054E+01  5.36758E+01  5.51857E+01
   6.21225E+01  6.23251E+01  6.29987E+01  5.95451E+01  5.93040E+01  6.06413E+01  5.78941E+01  5.82498E+01  5.99988E+01  5.57228E+01
   5.74879E+01  5.63243E+01  5.70535E+01  5.62373E+01  5.47307E+01  5.53246E+01  5.24825E+01  5.45870E+01  5.44373E+01  5.01951E+01
   5.32181E+01  5.26423E+01  4.85843E+01  5.08509E+01  4.55351E+01  4.79256E+01  4.91168E+01  5.10342E+01  4.80932E+01  5.03533E+01
   4.66670E+01  4.66708E+01  4.87330E+01  4.74501E+01  4.78933E+01  4.40924E+01  4.45132E+01  4.28411E+01  4.77636E+01  4.54538E+01
   4.50253E+01  4.46569E+01  4.26142E+01  3.99806E+01  4.20449E+01  3.98706E+01  3.80033E+01  3.96859E+01  4.07824E+01  3.72199E+01
   4.19743E+01  3.96832E+01  3.61727E+01  3.61888E+01  3.75521E+01  3.64220E+01  4.06464E+01  3.53658E+01  3.65289E+01  3.76449E+01
   3.47573E+01  3.09892E+01  3.74398E+01  3.18331E+01  3.34599E+01  3.29492E+01  3.23148E+01  2.96453E+01  3.12238E+01  3.33780E+01
   3.25524E+01  3.27766E+01  3.31404E+01  3.19797E+01  3.32895E+01  3.51843E+01  3.16898E+01  3.07322E+01  2.95771E+01  3.17583E+01
   2.67627E+01  2.51186E+01  2.71775E+01  2.61990E+01  2.74765E+01  2.80619E+01  2.86714E+01  3.18349E+01  2.94119E+01  3.28353E+01
   3.03664E+01  3.36475E+01  3.60437E+01  2.94288E+01  2.72290E+01  3.01077E+01  2.92762E+01  3.12845E+01  2.84026E+01  2.87966E+01
   2.94830E+01  2.94542E+01  3.07064E+01  2.75861E+01  2.70606E+01  2.59811E+01  2.57784E+01  2.30779E+01  2.52446E+01  2.41423E+01
   2.28457E+01  2.47045E+01  2.51293E+01  2.17196E+01  2.35774E+01  2.61888E+01  2.64860E+01  2.51178E+01  2.46990E+01  2.60659E+01
   2.23155E+01  2.16530E+01  2.19917E+01  2.18169E+01  2.52490E+01  2.31682E+01  2.04611E+01  2.13602E+01  2.28835E+01  2.02927E+01
   1.72359E+01  1.73773E+01  2.30795E+01  2.09006E+01  2.05362E+01  2.15480E+01  1.83573E+01  2.20147E+01  2.12872E+01  1.70396E+01
   1.94264E+01  1.82009E+01  1.87811E+01  1.89482E+01  1.95252E+01  1.70887E+01  2.02009E+01  1.79275E+01  1.77820E+01  1.92362E+01
   1.71600E+01  1.89030E+01  2.05856E+01  1.96547E+01  2.11739E+01  1.78352E+01  1.93076E+01  1.78173E+01  1.62316E+01  1.77086E+01
   1.76074E+01  1.68218E+01  1.57451E+01  1.63204E+01  1.71418E+01  1.70034E+01  1.68544E+01  1.77994E+01  1.50409E+01  1.55933E+01
   1.54954E+01  1.72116E+01  1.78721E+01  1.70264E+01  1.74364E+01  1.53735E+01  1.50080E+01  1.42757E+01  1.69819E+01  1.60726E+01
   1.84272E+01  1.53123E+01  1.53479E+01  1.66662E+01  1.74741E+01  1.63635E+01  1.43347E+01  1.60375E+01  1.34859E+01  1.52166E+01
   1.21679E+01  1.23839E+01  1.36921E+01  1.64205E+01  1.50049E+01  1.32639E+01  1.17502E+01  1.28816E+01  1.21118E+01  1.33045E+01
   1.44140E+01  1.41940E+01  1.38127E+01  1.53998E+01  1.38565E+01  1.45754E+01  1.26221E+01  1.32936E+01  1.34819E+01  1.33662E+01
   1.40682E+01  1.06366E+01  1.64278E+01  1.61528E+01  1.31589E+01  1.32303E+01  1.23505E+01  1.09025E+01  1.18869E+01  1.32697E+01
   1.83008E+01  1.18231E+01  1.19609E+01  1.23860E+01  1.10588E+01  1.67623E+01  1.06834E+01  1.20359E+01  1.32467E+01  1.14090E+01
   1.23968E+01  1.46087E+01  1.11780E+01  1.26392E+01  1.28891E+01  1.11203E+01  1.29732E+01  1.14851E+01
 NY points of the fit to the data follow
   4.91943E+01  4.86125E+01  4.80329E+01  4.75240E+01  4.70390E+01  4.62241E+01  4.48474E+01  4.36649E+01  4.33239E+01  4.40088E+01
   4.52633E+01  4.63230E+01  4.67764E+01  4.67169E+01  4.63347E+01  4.55744E+01  4.43749E+01  4.31628E+01  4.24113E+01  4.18526E+01
   4.13464E+01  4.08939E+01  4.05231E+01  4.02648E+01  4.00446E+01  3.97036E+01  3.91905E+01  3.85133E+01  3.78089E+01  3.72626E+01
   3.69436E+01  3.68413E+01  3.68729E+01  3.68897E+01  3.67628E+01  3.64426E+01  3.59642E+01  3.53971E+01  3.47824E+01  3.42144E+01
   3.37317E+01  3.32992E+01  3.28092E+01  3.21355E+01  3.13978E+01  3.09032E+01  3.08058E+01  3.09964E+01  3.12375E+01  3.13067E+01
   3.11015E+01  3.06549E+01  3.00436E+01  2.93051E+01  2.85121E+01  2.78011E+01  2.72296E+01  2.67481E+01  2.63842E+01  2.61610E+01
   2.60249E+01  2.58760E+01  2.56260E+01  2.52698E+01  2.48134E+01  2.42792E+01  2.37426E+01  2.32318E+01  2.27585E+01  2.23554E+01
   2.19919E+01  2.16336E+01  2.12951E+01  2.09954E+01  2.07491E+01  2.05392E+01  2.03212E+01  2.00121E+01  1.95890E+01  1.91320E+01
   1.86693E+01  1.81449E+01  1.76300E+01  1.72798E+01  1.71226E+01  1.70772E+01  1.69920E+01  1.67336E+01  1.63149E+01  1.58594E+01
   1.54425E+01  1.50381E+01  1.46294E+01  1.42997E+01  1.40414E+01  1.37855E+01  1.32728E+01  1.19417E+01  1.04209E+01  9.69659E+00
   1.02654E+01  1.18569E+01  1.35930E+01  1.47228E+01  1.51420E+01  1.51084E+01  1.46698E+01  1.36477E+01  1.23839E+01  1.17221E+01
   1.14919E+01  1.13476E+01  1.12331E+01  1.11398E+01  1.10566E+01  1.10005E+01  1.09575E+01  1.09072E+01  1.08434E+01  1.07476E+01
   1.04995E+01  9.42800E+00  7.32307E+00  5.63154E+00  5.53477E+00  7.34385E+00  1.01782E+01  1.26710E+01  1.40959E+01  1.45932E+01
   1.44459E+01  1.34923E+01  1.17294E+01  1.01466E+01  9.44172E+00  8.99563E+00  8.56679E+00  8.15075E+00  7.77912E+00  7.45330E+00
   7.16420E+00  6.88696E+00  6.60662E+00  6.34578E+00  6.10308E+00  5.85818E+00  5.60365E+00  5.34152E+00  5.08157E+00  4.84929E+00
   4.65396E+00  4.45227E+00  4.20404E+00  3.89506E+00  3.53475E+00  3.21705E+00  3.04913E+00  3.01136E+00  2.98574E+00  2.86771E+00
   2.60973E+00  2.27737E+00  1.96995E+00  1.75212E+00  1.61651E+00  1.55635E+00  1.54686E+00  1.47829E+00  1.29063E+00  1.02917E+00
   8.17718E-01  7.76298E-01  8.81130E-01  9.42225E-01  8.64669E-01  7.14352E-01  6.33998E-01  6.82033E-01  8.17957E-01  9.21241E-01
   9.21986E-01  9.15791E-01  1.01640E+00  1.18756E+00  1.34474E+00  1.48868E+00  1.64399E+00  1.87011E+00  2.20911E+00  2.66346E+00
   3.17207E+00  3.72463E+00  4.27771E+00  4.77848E+00  5.17668E+00  5.45931E+00  5.67428E+00  5.84291E+00  6.03869E+00  6.34641E+00
   6.79129E+00  7.35314E+00  8.06892E+00  8.95188E+00  9.98877E+00  1.10979E+01  1.20537E+01  1.26777E+01  1.29780E+01  1.30649E+01
   1.30975E+01  1.31974E+01  1.35064E+01  1.41524E+01  1.51874E+01  1.65537E+01  1.80135E+01  1.93373E+01  2.05108E+01  2.15073E+01
   2.22025E+01  2.26564E+01  2.30932E+01  2.37814E+01  2.47538E+01  2.59025E+01  2.71953E+01  2.85851E+01  2.99557E+01  3.11546E+01
   3.21227E+01  3.30170E+01  3.39632E+01  3.49828E+01  3.60590E+01  3.71657E+01  3.83172E+01  3.95873E+01  4.10027E+01  4.24272E+01
   4.37476E+01  4.49152E+01  4.59782E+01  4.69898E+01  4.80364E+01  4.91233E+01  5.02015E+01  5.12466E+01  5.22476E+01  5.31181E+01
   5.35483E+01  5.27473E+01  5.12247E+01  5.05270E+01  5.14902E+01  5.31428E+01  5.37915E+01  5.40228E+01  5.50876E+01  5.78541E+01
   6.14168E+01  6.36657E+01  6.37911E+01  6.32156E+01  6.25218E+01  6.09074E+01  5.81677E+01  5.55904E+01  5.43090E+01  5.35462E+01
   5.29465E+01  5.24784E+01  5.21493E+01  5.19484E+01  5.18481E+01  5.17912E+01  5.17301E+01  5.16405E+01  5.15223E+01  5.13790E+01
   5.12221E+01  5.10639E+01  5.09273E+01  5.08127E+01  5.06792E+01  5.05010E+01  5.02745E+01  4.99775E+01  4.95860E+01  4.91046E+01
   4.85642E+01  4.79978E+01  4.74096E+01  4.68045E+01  4.61875E+01  4.55598E+01  4.49179E+01  4.42530E+01  4.35589E+01  4.28625E+01
   4.21898E+01  4.15506E+01  4.09485E+01  4.03866E+01  3.98695E+01  3.93965E+01  3.89581E+01  3.85515E+01  3.81788E+01  3.78393E+01
   3.75321E+01  3.72556E+01  3.70072E+01  3.67839E+01  3.65825E+01  3.63997E+01  3.62325E+01  3.60776E+01  3.59317E+01  3.57915E+01
   3.56538E+01  3.55150E+01  3.53717E+01  3.52206E+01  3.50586E+01  3.48827E+01  3.46900E+01  3.44779E+01  3.42442E+01  3.39872E+01
   3.37051E+01  3.33968E+01  3.30614E+01  3.26986E+01  3.23088E+01  3.18928E+01  3.14516E+01  3.09870E+01  3.05016E+01  2.99983E+01
   2.94773E+01  2.89246E+01  2.82625E+01  2.74567E+01  2.71228E+01  2.76650E+01  2.89556E+01  3.04849E+01  3.16953E+01  3.24316E+01
   3.27452E+01  3.23338E+01  3.12541E+01  2.99317E+01  2.91510E+01  2.94088E+01  3.00981E+01  3.05968E+01  3.07498E+01  3.06495E+01
   3.03030E+01  2.95400E+01  2.84518E+01  2.75598E+01  2.69272E+01  2.64617E+01  2.61107E+01  2.58342E+01  2.55988E+01  2.53775E+01
   2.51502E+01  2.49034E+01  2.46302E+01  2.43285E+01  2.40008E+01  2.36522E+01  2.32898E+01  2.29216E+01  2.25563E+01  2.22026E+01
   2.18686E+01  2.15614E+01  2.12868E+01  2.10493E+01  2.08521E+01  2.06970E+01  2.05843E+01  2.05132E+01  2.04813E+01  2.04856E+01
   2.05223E+01  2.05870E+01  2.06746E+01  2.07800E+01  2.08977E+01  2.10222E+01  2.11484E+01  2.12712E+01  2.13859E+01  2.14881E+01
   2.15737E+01  2.16395E+01  2.16825E+01  2.17006E+01  2.16920E+01  2.16555E+01  2.15906E+01  2.14975E+01  2.13766E+01  2.12287E+01
   2.10549E+01  2.08568E+01  2.06363E+01  2.03957E+01  2.01376E+01  1.98645E+01  1.95790E+01  1.92840E+01  1.89822E+01  1.86763E+01
   1.83689E+01  1.80623E+01  1.77586E+01  1.74600E+01  1.71681E+01  1.68847E+01  1.66111E+01  1.63483E+01  1.60972E+01  1.58585E+01
   1.56327E+01  1.54203E+01  1.52213E+01  1.50356E+01  1.48632E+01  1.47038E+01  1.45572E+01  1.44229E+01  1.43004E+01  1.41891E+01
   1.40884E+01  1.39978E+01  1.39166E+01  1.38442E+01  1.37797E+01  1.37225E+01  1.36719E+01  1.36273E+01  1.35879E+01  1.35531E+01
   1.35220E+01  1.34941E+01  1.34688E+01  1.34454E+01  1.34239E+01  1.34039E+01  1.33852E+01  1.33678E+01  1.33515E+01  1.33362E+01
   1.33218E+01  1.33080E+01  1.32949E+01  1.32823E+01  1.32703E+01  1.32587E+01  1.32474E+01  1.32364E+01  1.32256E+01  1.32151E+01
   1.32048E+01  1.31948E+01  1.31848E+01  1.31751E+01  1.31655E+01  1.31562E+01  1.31470E+01  1.31381E+01  1.31294E+01  1.31210E+01
   1.31129E+01  1.31052E+01  1.30979E+01  1.30910E+01  1.30846E+01  1.30787E+01  1.30734E+01  1.30688E+01  1.30649E+01  1.30617E+01
   1.30594E+01  1.30580E+01  1.30576E+01  1.30582E+01  1.30600E+01  1.30629E+01  1.30671E+01  1.30727E+01
 NY background values follow
     4.956E+01    4.917E+01    4.878E+01    4.839E+01    4.800E+01    4.761E+01    4.722E+01    4.684E+01    4.645E+01    4.607E+01
     4.569E+01    4.531E+01    4.493E+01    4.455E+01    4.417E+01    4.379E+01    4.341E+01    4.303E+01    4.266E+01    4.228E+01
     4.190E+01    4.153E+01    4.115E+01    4.078E+01    4.040E+01    4.002E+01    3.965E+01    3.927E+01    3.890E+01    3.852E+01
     3.815E+01    3.777E+01    3.739E+01    3.702E+01    3.664E+01    3.626E+01    3.588E+01    3.550E+01    3.512E+01    3.474E+01
     3.436E+01    3.398E+01    3.360E+01    3.321E+01    3.283E+01    3.244E+01    3.205E+01    3.166E+01    3.128E+01    3.088E+01
     3.049E+01    3.010E+01    2.971E+01    2.932E+01    2.892E+01    2.853E+01    2.814E+01    2.774E+01    2.735E+01    2.696E+01
     2.657E+01    2.617E+01    2.578E+01    2.539E+01    2.500E+01    2.461E+01    2.422E+01    2.384E+01    2.345E+01    2.307E+01
     2.268E+01    2.230E+01    2.192E+01    2.154E+01    2.117E+01    2.079E+01    2.042E+01    2.005E+01    1.968E+01    1.931E+01
     1.895E+01    1.859E+01    1.823E+01    1.788E+01    1.752E+01    1.718E+01    1.683E+01    1.649E+01    1.615E+01    1.581E+01
     1.548E+01    1.515E+01    1.482E+01    1.450E+01    1.419E+01    1.387E+01    1.356E+01    1.325E+01    1.295E+01    1.265E+01
     1.235E+01    1.206E+01    1.177E+01    1.148E+01    1.119E+01    1.091E+01    1.064E+01    1.036E+01    1.009E+01    9.819E+00
     9.553E+00    9.290E+00    9.029E+00    8.772E+00    8.517E+00    8.264E+00    8.015E+00    7.768E+00    7.523E+00    7.281E+00
     7.042E+00    6.805E+00    6.570E+00    6.337E+00    6.107E+00    5.880E+00    5.654E+00    5.431E+00    5.209E+00    4.990E+00
     4.773E+00    4.558E+00    4.345E+00    4.133E+00    3.924E+00    3.716E+00    3.511E+00    3.307E+00    3.105E+00    2.906E+00
     2.709E+00    2.515E+00    2.325E+00    2.138E+00    1.955E+00    1.777E+00    1.602E+00    1.432E+00    1.268E+00    1.108E+00
     9.538E-01    8.055E-01    6.633E-01    5.274E-01    3.981E-01    2.758E-01    1.606E-01    5.282E-02   -4.719E-02   -1.392E-01
    -2.229E-01   -2.980E-01   -3.643E-01   -4.215E-01   -4.692E-01   -5.073E-01   -5.354E-01   -5.532E-01   -5.606E-01   -5.571E-01
    -5.426E-01   -5.167E-01   -4.791E-01   -4.297E-01   -3.680E-01   -2.939E-01   -2.071E-01   -1.072E-01    6.027E-03    1.328E-01
     2.735E-01    4.283E-01    5.973E-01    7.802E-01    9.767E-01    1.186E+00    1.409E+00    1.644E+00    1.891E+00    2.150E+00
     2.421E+00    2.703E+00    2.996E+00    3.299E+00    3.612E+00    3.935E+00    4.267E+00    4.609E+00    4.959E+00    5.318E+00
     5.685E+00    6.059E+00    6.441E+00    6.830E+00    7.225E+00    7.627E+00    8.035E+00    8.449E+00    8.867E+00    9.291E+00
     9.720E+00    1.015E+01    1.059E+01    1.103E+01    1.147E+01    1.192E+01    1.237E+01    1.282E+01    1.327E+01    1.373E+01
     1.418E+01    1.464E+01    1.510E+01    1.555E+01    1.601E+01    1.647E+01    1.692E+01    1.738E+01    1.783E+01    1.828E+01
     1.873E+01    1.918E+01    1.962E+01    2.006E+01    2.050E+01    2.093E+01    2.136E+01    2.179E+01    2.221E+01    2.263E+01
     2.304E+01    2.344E+01    2.384E+01    2.424E+01    2.463E+01    2.501E+01    2.538E+01    2.575E+01    2.611E+01    2.646E+01
     2.681E+01    2.714E+01    2.747E+01    2.779E+01    2.809E+01    2.839E+01    2.868E+01    2.896E+01    2.923E+01    2.949E+01
     2.973E+01    2.997E+01    3.019E+01    3.040E+01    3.060E+01    3.079E+01    3.096E+01    3.112E+01    3.127E+01    3.140E+01
     3.152E+01    3.163E+01    3.172E+01    3.179E+01    3.185E+01    3.190E+01    3.193E+01    3.195E+01    3.196E+01    3.195E+01
     3.193E+01    3.190E+01    3.186E+01    3.180E+01    3.173E+01    3.165E+01    3.156E+01    3.146E+01    3.134E+01    3.122E+01
     3.108E+01    3.093E+01    3.078E+01    3.061E+01    3.043E+01    3.025E+01    3.005E+01    2.985E+01    2.964E+01    2.942E+01
     2.919E+01    2.895E+01    2.870E+01    2.845E+01    2.819E+01    2.792E+01    2.765E+01    2.737E+01    2.708E+01    2.678E+01
     2.648E+01    2.618E+01    2.587E+01    2.555E+01    2.523E+01    2.490E+01    2.457E+01    2.423E+01    2.389E+01    2.355E+01
     2.320E+01    2.285E+01    2.249E+01    2.213E+01    2.177E+01    2.141E+01    2.104E+01    2.067E+01    2.030E+01    1.993E+01
     1.955E+01    1.918E+01    1.880E+01    1.842E+01    1.804E+01    1.766E+01    1.728E+01    1.690E+01    1.652E+01    1.614E+01
     1.576E+01    1.538E+01    1.500E+01    1.463E+01    1.425E+01    1.388E+01    1.350E+01    1.313E+01    1.276E+01    1.240E+01
     1.203E+01    1.167E+01    1.132E+01    1.096E+01    1.061E+01    1.026E+01    9.918E+00    9.578E+00    9.243E+00    8.912E+00
     8.586E+00    8.265E+00    7.948E+00    7.637E+00    7.332E+00    7.032E+00    6.737E+00    6.449E+00    6.166E+00    5.889E+00
     5.618E+00    5.353E+00    5.094E+00    4.841E+00    4.595E+00    4.356E+00    4.123E+00    3.897E+00    3.678E+00    3.466E+00
     3.260E+00    3.062E+00    2.871E+00    2.688E+00    2.512E+00    2.343E+00    2.183E+00    2.030E+00    1.884E+00    1.747E+00
     1.618E+00    1.497E+00    1.385E+00    1.281E+00    1.185E+00    1.098E+00    1.020E+00    9.502E-01    8.896E-01    8.381E-01
     7.956E-01    7.625E-01    7.386E-01    7.242E-01    7.193E-01    7.241E-01    7.387E-01    7.631E-01    7.972E-01    8.409E-01
     8.937E-01    9.554E-01    1.026E+00    1.104E+00    1.190E+00    1.284E+00    1.385E+00    1.493E+00    1.607E+00    1.728E+00
     1.854E+00    1.986E+00    2.123E+00    2.266E+00    2.412E+00    2.564E+00    2.719E+00    2.877E+00    3.039E+00    3.204E+00
     3.372E+00    3.542E+00    3.714E+00    3.887E+00    4.062E+00    4.238E+00    4.415E+00    4.592E+00    4.769E+00    4.946E+00
     5.122E+00    5.297E+00    5.471E+00    5.644E+00    5.814E+00    5.983E+00    6.148E+00    6.311E+00    6.471E+00    6.627E+00
     6.779E+00    6.927E+00    7.071E+00    7.210E+00    7.344E+00    7.474E+00    7.599E+00    7.720E+00    7.837E+00    7.949E+00
     8.058E+00    8.163E+00    8.264E+00    8.362E+00    8.456E+00    8.547E+00    8.635E+00    8.719E+00    8.801E+00    8.879E+00
     8.955E+00    9.028E+00    9.099E+00    9.167E+00    9.233E+00    9.296E+00    9.358E+00    9.418E+00    9.475E+00    9.531E+00
     9.586E+00    9.639E+00    9.690E+00    9.741E+00    9.790E+00    9.838E+00    9.885E+00    9.931E+00    9.977E+00    1.002E+01
     1.007E+01    1.011E+01    1.016E+01    1.020E+01    1.024E+01    1.029E+01    1.033E+01    1.038E+01
 Asp      Conc. = 7.31E+00
