 LCModel (Version 6.3-1L) Copyright: S.W. Provencher.          Ref.: Magn. Reson. Med. 30:672-679 (1993).                
 Slice#3 Row#13 Col#9  K_02_press_1_raw_act
 36 lines in following concentration table = NCONC+1
    Conc.  %SD /Cr+PCr  Metabolite                                         
    0.000 999%   0.000 Ala                                                 
  111.993  67%   0.286 Asp                                                 
  121.625  99%   0.311 Cr                                                  
  269.624  45%   0.689 PCr                                                 
   38.610 123% 9.9E-02 GABA                                                
   58.979  79%   0.151 Glc                                                 
  481.469  45%   1.231 Gln                                                 
  684.245  36%   1.749 Glu                                                 
  119.620  11%   0.306 GPC                                                 
    0.000 999%   0.000 PCh                                                 
   62.068  81%   0.159 GSH                                                 
  619.501  28%   1.583 Ins                                                 
    0.000 999%   0.000 Lac                                                 
  539.285  11%   1.378 NAA                                                 
  198.657  30%   0.508 NAAG                                                
   44.771  28%   0.114 Scyllo                                              
  191.343  37%   0.489 Tau                                                 
  236.833  29%   0.605 -CrCH2                                              
  119.620  11%   0.306 GPC+PCh                                             
  737.942   6%   1.886 NAA+NAAG                                            
  391.249   9%   1.000 Cr+PCr                                              
 1.17E+03  34%   2.979 Glu+Gln                                             
    0.000 999%   0.000 Lip13a                                              
    0.000 999%   0.000 Lip13b                                              
    0.000 999%   0.000 Lip09                                               
  270.845  24%   0.692 MM09                                                
    0.000 999%   0.000 Lip20                                               
  500.558  25%   1.279 MM20                                                
   75.259  46%   0.192 MM12                                                
    0.000 999%   0.000 MM14                                                
  244.790  26%   0.626 MM17                                                
    0.000 999%   0.000 Lip13a+Lip13b                                       
   75.259  46%   0.192 MM14+Lip13a+Lip13b+MM12                             
  270.845  24%   0.692 MM09+Lip09                                          
  500.558  25%   1.279 MM20+Lip20                                          
   6 lines in following misc. output table
  FWHM = 0.084 ppm    S/N =   5                                            
  Data shift = 0.023 ppm                                                   
  Ph: -83 deg     -29.0 deg/ppm                                            
  alphaB,S = 6.3E-01,   5.1E+01                                            
   14 spline knots.   Ns =10(1)                                            
  (15) 6 infls.   (17) 3 extrs.                                            
  498 points on ppm-axis = NY
      4.000000     3.992357     3.984714     3.977070     3.969427     3.961784     3.954141     3.946497     3.938854     3.931211
      3.923568     3.915925     3.908281     3.900638     3.892995     3.885352     3.877708     3.870065     3.862422     3.854779
      3.847136     3.839492     3.831849     3.824206     3.816563     3.808919     3.801276     3.793633     3.785990     3.778347
      3.770703     3.763060     3.755417     3.747774     3.740130     3.732487     3.724844     3.717201     3.709558     3.701914
      3.694271     3.686628     3.678985     3.671341     3.663698     3.656055     3.648412     3.640769     3.633125     3.625482
      3.617839     3.610196     3.602552     3.594909     3.587266     3.579623     3.571980     3.564336     3.556693     3.549050
      3.541407     3.533763     3.526120     3.518477     3.510834     3.503191     3.495547     3.487904     3.480261     3.472618
      3.464974     3.457331     3.449688     3.442045     3.434402     3.426758     3.419115     3.411472     3.403829     3.396185
      3.388542     3.380899     3.373256     3.365613     3.357969     3.350326     3.342683     3.335040     3.327396     3.319753
      3.312110     3.304467     3.296824     3.289180     3.281537     3.273894     3.266251     3.258607     3.250964     3.243321
      3.235678     3.228034     3.220391     3.212748     3.205105     3.197462     3.189818     3.182175     3.174532     3.166889
      3.159245     3.151602     3.143959     3.136316     3.128673     3.121029     3.113386     3.105743     3.098100     3.090456
      3.082813     3.075170     3.067527     3.059884     3.052240     3.044597     3.036954     3.029311     3.021667     3.014024
      3.006381     2.998738     2.991095     2.983451     2.975808     2.968165     2.960522     2.952878     2.945235     2.937592
      2.929949     2.922306     2.914662     2.907019     2.899376     2.891733     2.884089     2.876446     2.868803     2.861160
      2.853517     2.845873     2.838230     2.830587     2.822944     2.815300     2.807657     2.800014     2.792371     2.784728
      2.777084     2.769441     2.761798     2.754155     2.746511     2.738868     2.731225     2.723582     2.715939     2.708295
      2.700652     2.693009     2.685366     2.677722     2.670079     2.662436     2.654793     2.647150     2.639506     2.631863
      2.624220     2.616577     2.608933     2.601290     2.593647     2.586004     2.578361     2.570717     2.563074     2.555431
      2.547788     2.540144     2.532501     2.524858     2.517215     2.509572     2.501928     2.494285     2.486642     2.478999
      2.471355     2.463712     2.456069     2.448426     2.440783     2.433139     2.425496     2.417853     2.410210     2.402566
      2.394923     2.387280     2.379637     2.371994     2.364350     2.356707     2.349064     2.341421     2.333777     2.326134
      2.318491     2.310848     2.303205     2.295561     2.287918     2.280275     2.272632     2.264988     2.257345     2.249702
      2.242059     2.234416     2.226772     2.219129     2.211486     2.203843     2.196199     2.188556     2.180913     2.173270
      2.165627     2.157983     2.150340     2.142697     2.135054     2.127410     2.119767     2.112124     2.104481     2.096838
      2.089194     2.081551     2.073908     2.066265     2.058621     2.050978     2.043335     2.035692     2.028049     2.020405
      2.012762     2.005119     1.997476     1.989833     1.982190     1.974546     1.966903     1.959260     1.951617     1.943974
      1.936331     1.928688     1.921045     1.913402     1.905759     1.898115     1.890472     1.882829     1.875186     1.867543
      1.859900     1.852257     1.844614     1.836971     1.829327     1.821684     1.814041     1.806398     1.798755     1.791112
      1.783469     1.775826     1.768183     1.760540     1.752896     1.745253     1.737610     1.729967     1.722324     1.714681
      1.707038     1.699395     1.691752     1.684108     1.676465     1.668822     1.661179     1.653536     1.645893     1.638250
      1.630607     1.622964     1.615321     1.607677     1.600034     1.592391     1.584748     1.577105     1.569462     1.561819
      1.554176     1.546533     1.538890     1.531246     1.523603     1.515960     1.508317     1.500674     1.493031     1.485388
      1.477745     1.470102     1.462458     1.454815     1.447172     1.439529     1.431886     1.424243     1.416600     1.408957
      1.401314     1.393671     1.386027     1.378384     1.370741     1.363098     1.355455     1.347812     1.340169     1.332526
      1.324883     1.317240     1.309596     1.301953     1.294310     1.286667     1.279024     1.271381     1.263738     1.256095
      1.248452     1.240808     1.233165     1.225522     1.217879     1.210236     1.202593     1.194950     1.187307     1.179664
      1.172021     1.164377     1.156734     1.149091     1.141448     1.133805     1.126162     1.118519     1.110876     1.103233
      1.095590     1.087946     1.080303     1.072660     1.065017     1.057374     1.049731     1.042088     1.034445     1.026802
      1.019158     1.011515     1.003872     0.996229     0.988586     0.980943     0.973300     0.965657     0.958014     0.950371
      0.942727     0.935084     0.927441     0.919798     0.912155     0.904512     0.896869     0.889226     0.881583     0.873940
      0.866296     0.858653     0.851010     0.843367     0.835724     0.828081     0.820438     0.812795     0.805152     0.797508
      0.789865     0.782222     0.774579     0.766936     0.759293     0.751650     0.744007     0.736364     0.728721     0.721077
      0.713434     0.705791     0.698148     0.690505     0.682862     0.675219     0.667576     0.659933     0.652290     0.644646
      0.637003     0.629360     0.621717     0.614074     0.606431     0.598788     0.591145     0.583502     0.575858     0.568215
      0.560572     0.552929     0.545286     0.537643     0.530000     0.522357     0.514714     0.507071     0.499427     0.491784
      0.484141     0.476498     0.468855     0.461212     0.453569     0.445925     0.438282     0.430639     0.422996     0.415353
      0.407710     0.400067     0.392424     0.384780     0.377137     0.369494     0.361851     0.354208     0.346565     0.338922
      0.331278     0.323635     0.315992     0.308349     0.300706     0.293063     0.285420     0.277777     0.270133     0.262490
      0.254847     0.247204     0.239561     0.231918     0.224275     0.216631     0.208988     0.201345
 NY phased data points follow
  -4.13379E+01 -4.12509E+01 -4.06667E+01 -3.87400E+01 -3.69022E+01 -3.59511E+01 -3.51554E+01 -3.04802E+01 -3.23745E+01 -3.12273E+01
  -3.09534E+01 -3.27215E+01 -3.34655E+01 -3.11923E+01 -3.09887E+01 -3.37503E+01 -3.53211E+01 -3.27433E+01 -3.48626E+01 -3.41745E+01
  -3.18937E+01 -3.34358E+01 -3.17032E+01 -3.12499E+01 -2.99362E+01 -2.94240E+01 -2.92094E+01 -3.15051E+01 -2.81701E+01 -3.05982E+01
  -2.76421E+01 -2.82538E+01 -2.83194E+01 -2.75722E+01 -2.81064E+01 -2.74024E+01 -2.85660E+01 -2.73306E+01 -2.70203E+01 -2.61591E+01
  -2.59686E+01 -2.57558E+01 -2.75043E+01 -2.44018E+01 -2.17043E+01 -2.22924E+01 -2.56599E+01 -2.32591E+01 -2.37526E+01 -2.26781E+01
  -2.26538E+01 -2.50296E+01 -2.13016E+01 -2.09621E+01 -2.38823E+01 -2.40079E+01 -1.98593E+01 -2.25011E+01 -2.14447E+01 -2.00373E+01
  -2.13001E+01 -2.30405E+01 -2.25382E+01 -2.15619E+01 -2.09271E+01 -2.37980E+01 -1.97804E+01 -2.08955E+01 -2.04453E+01 -2.19433E+01
  -2.10724E+01 -2.03399E+01 -1.88992E+01 -2.07318E+01 -1.80622E+01 -1.95156E+01 -1.92210E+01 -1.94880E+01 -2.03772E+01 -1.68475E+01
  -1.66167E+01 -1.91575E+01 -1.94712E+01 -1.82003E+01 -1.70188E+01 -1.63713E+01 -1.87212E+01 -1.62047E+01 -1.36888E+01 -1.84181E+01
  -1.70604E+01 -1.71513E+01 -1.66511E+01 -1.38593E+01 -1.30193E+01 -1.43476E+01 -1.44938E+01 -1.22947E+01 -1.21969E+01 -1.22999E+01
  -1.07442E+01 -1.01946E+01 -8.53747E+00 -9.66742E+00 -1.02646E+01 -8.58971E+00 -8.39433E+00 -1.29047E+01 -1.24427E+01 -1.23373E+01
  -1.02653E+01 -1.21420E+01 -1.34803E+01 -1.21941E+01 -1.26198E+01 -1.37877E+01 -1.25193E+01 -1.32882E+01 -1.34062E+01 -1.11227E+01
  -9.31391E+00 -1.16857E+01 -9.54727E+00 -1.06597E+01 -7.53689E+00 -7.56772E+00 -3.77451E+00 -3.39729E+00 -2.91029E+00 -2.90061E+00
  -2.58110E+00 -5.64287E+00 -6.69666E+00 -7.25788E+00 -9.21069E+00 -9.82858E+00 -1.00004E+01 -1.15255E+01 -8.62448E+00 -1.03964E+01
  -1.02952E+01 -1.05221E+01 -9.56482E+00 -1.01170E+01 -1.32371E+01 -1.05546E+01 -1.30959E+01 -1.23469E+01 -8.73952E+00 -9.46191E+00
  -1.00694E+01 -1.12847E+01 -9.26160E+00 -9.37362E+00 -1.11101E+01 -9.70631E+00 -9.76397E+00 -1.05509E+01 -1.15287E+01 -8.60241E+00
  -1.01894E+01 -1.34906E+01 -8.49677E+00 -1.20979E+01 -1.08675E+01 -1.04084E+01 -1.27205E+01 -9.10105E+00 -1.08538E+01 -9.70559E+00
  -9.99842E+00 -9.66288E+00 -1.00560E+01 -9.65284E+00 -9.51866E+00 -9.58675E+00 -9.82375E+00 -9.93088E+00 -9.17375E+00 -8.22035E+00
  -6.70378E+00 -9.62633E+00 -8.73329E+00 -6.21555E+00 -7.13223E+00 -6.87683E+00 -7.02763E+00 -1.01392E+01 -8.37288E+00 -6.18170E+00
  -5.30544E+00 -5.48359E+00 -6.26790E+00 -2.81777E+00 -5.46001E+00 -4.01703E+00 -5.67967E+00 -3.75574E+00 -3.20288E+00 -4.92228E+00
  -7.11959E+00 -3.25201E+00 -5.59020E+00 -6.33201E+00 -6.00992E+00 -4.72311E+00 -2.88401E+00 -3.18989E+00 -5.04169E+00 -7.31948E+00
  -3.68076E+00 -5.22814E+00 -4.03865E+00 -2.72883E+00 -3.23497E+00 -4.29889E+00 -3.31023E+00 -8.77131E-01 -3.47064E+00 -1.28668E+00
  -1.98969E+00 -1.49980E+00 -3.64046E+00 -5.56158E+00 -3.74326E+00 -4.22886E+00 -1.53510E+00 -2.86052E+00 -2.88209E+00 -1.17072E+00
  -9.37217E-01  1.22625E+00 -1.69133E+00 -1.27071E-01 -1.07406E+00 -2.96191E+00 -2.65265E+00 -3.37437E+00 -8.96233E-01 -4.00929E-01
  -9.72904E-01 -9.45740E-02 -7.73509E-02 -1.13723E+00 -2.32963E+00  3.54914E-01 -1.26160E+00  1.58356E+00  1.32211E+00  2.90967E+00
   6.01992E+00  2.08039E+00  3.99046E+00  4.89379E+00  8.67225E+00  1.27217E+01  1.24209E+01  1.23160E+01  1.13538E+01  1.15451E+01
   1.55501E+01  1.39356E+01  1.61052E+01  1.70943E+01  1.28398E+01  8.91473E+00  7.16559E+00  5.26798E+00  3.81204E+00  3.68837E+00
   1.65237E+00  4.12342E+00  1.98405E+00  7.87991E-01  1.39544E+00  7.30172E-01  2.96665E+00  2.99373E+00  3.83315E+00  3.60257E+00
   1.64477E+00  1.05975E+00  2.17576E+00 -4.21593E-02  2.25352E+00  1.10437E+00 -1.12331E+00  3.27742E+00  1.90894E+00  2.82434E+00
   3.86381E+00  3.69327E+00  1.66051E+00  1.19024E+00  2.85051E+00 -7.12878E-01  2.19288E+00  3.40167E+00  2.75987E+00 -2.68168E+00
   4.08198E+00  1.56778E+00  1.02512E+00  4.04525E+00  2.81023E+00  4.18774E-01  3.97269E+00  4.27493E+00  2.80085E+00  3.02068E+00
   1.13996E-01  3.64637E+00  1.01237E+00 -1.79948E+00 -9.66030E-01  1.09094E+00  1.08075E+00 -1.56845E-01 -1.12795E+00 -3.83121E-01
  -2.16180E+00  8.20880E-02 -1.15221E-01 -2.58200E+00 -2.13115E-01  2.72450E-01 -1.88050E-01 -1.67893E+00 -2.76564E+00 -2.33205E+00
   1.27470E+00 -6.85551E-01  1.55137E+00  1.30383E+00  4.42243E-01 -1.55860E+00 -8.24518E-01 -1.09015E+00 -1.60197E+00 -1.36497E+00
  -4.24120E-01  1.52300E+00  2.14380E-01 -1.59587E-01 -2.51148E-02  8.82552E-01  8.24641E-01 -2.12109E-01  2.75338E+00  3.51792E+00
   1.57146E+00  3.57533E-01 -1.97938E-01  2.10688E+00 -2.24263E+00  3.18086E-01 -5.39616E-01 -2.15683E+00  9.22411E-01 -1.25180E+00
  -1.62938E+00 -1.73991E-01  6.52992E-01  3.45673E-01 -2.20242E+00 -1.08036E-01  1.99655E+00  2.49558E+00  2.54277E+00  3.37691E+00
   2.77545E+00  1.99585E+00  4.38453E+00  3.42350E+00  3.95435E+00  1.79362E+00  2.64417E+00  1.00404E+00  4.55123E+00  1.69225E+00
  -8.88991E-01  1.34943E-01  4.70230E+00  4.12974E+00  2.17033E+00  4.06083E+00  3.35364E+00  1.45902E+00 -2.27270E-01  1.89497E+00
   1.56357E+00  3.31581E+00  1.95789E+00  3.06117E+00  1.96216E+00  4.78073E+00  1.18113E+00  5.83554E+00  1.43077E+00  2.92727E+00
   2.55523E+00  3.00878E+00  4.60013E+00  3.65860E+00  5.65941E+00  5.04998E+00  3.09412E+00  3.83001E+00  2.94738E+00  3.92997E+00
   4.81351E+00  4.13318E+00  2.36106E+00  2.97807E+00  3.21693E+00  1.43152E+00  5.51968E+00  2.91997E+00  5.42412E+00  4.80549E+00
   4.61264E+00  6.55632E+00  4.60486E+00  4.60933E+00  4.12196E+00  3.68087E+00  3.19686E+00  2.83645E+00  2.85885E+00  4.29211E+00
   5.43825E+00  3.83822E+00  4.91525E+00  1.35719E+00  2.39073E+00  3.91819E+00  4.38903E+00  2.86962E+00  1.85881E+00  1.65055E+00
   4.91642E+00  3.34608E+00  3.25698E+00  3.87599E+00  4.07413E+00  4.18230E+00  3.51071E+00  5.51957E+00  5.36375E+00  4.65657E+00
   3.05104E+00  3.11208E+00  4.71393E+00  5.44260E+00  5.66130E+00  4.99792E+00  2.62110E+00  4.60300E+00  5.82524E+00  4.69052E+00
   4.04604E+00  3.98350E+00  4.93325E+00  6.51567E+00  3.69267E+00  3.92095E+00  2.89485E+00  3.63217E+00  4.07325E+00  5.11917E+00
   4.40351E+00  1.22323E+00  3.39219E+00  2.36481E+00  3.31392E+00  4.45686E+00  5.48655E+00  4.42108E+00  5.04282E+00  3.36762E+00
   4.89767E+00  5.59439E+00  3.11298E+00  5.06691E+00  6.64747E+00  4.97976E+00  1.85060E+00  1.95255E+00  3.93325E+00  4.39978E+00
   3.04218E+00  3.35920E+00  4.93657E+00  3.01049E+00  5.28463E+00  3.34979E+00  3.24952E+00  4.16489E+00
 NY points of the fit to the data follow
  -3.67435E+01 -3.66100E+01 -3.62789E+01 -3.58534E+01 -3.53829E+01 -3.49299E+01 -3.46204E+01 -3.44016E+01 -3.40880E+01 -3.36003E+01
  -3.30073E+01 -3.24220E+01 -3.19692E+01 -3.17358E+01 -3.17393E+01 -3.18811E+01 -3.20226E+01 -3.20717E+01 -3.20833E+01 -3.20947E+01
  -3.20614E+01 -3.19586E+01 -3.16764E+01 -3.12217E+01 -3.06344E+01 -3.01168E+01 -2.98131E+01 -2.97144E+01 -2.96439E+01 -2.94410E+01
  -2.90436E+01 -2.84437E+01 -2.77687E+01 -2.72198E+01 -2.69682E+01 -2.70336E+01 -2.72455E+01 -2.73751E+01 -2.73183E+01 -2.69673E+01
  -2.64183E+01 -2.59084E+01 -2.55612E+01 -2.53619E+01 -2.51148E+01 -2.46909E+01 -2.41054E+01 -2.34842E+01 -2.30340E+01 -2.28883E+01
  -2.30726E+01 -2.34737E+01 -2.38350E+01 -2.39783E+01 -2.39397E+01 -2.38164E+01 -2.36683E+01 -2.34899E+01 -2.32722E+01 -2.29627E+01
  -2.25767E+01 -2.22180E+01 -2.19835E+01 -2.18897E+01 -2.18607E+01 -2.17711E+01 -2.15574E+01 -2.12557E+01 -2.09001E+01 -2.05618E+01
  -2.03188E+01 -2.01582E+01 -2.00216E+01 -1.98303E+01 -1.95596E+01 -1.92716E+01 -1.89890E+01 -1.87393E+01 -1.85955E+01 -1.85509E+01
  -1.85763E+01 -1.85866E+01 -1.85293E+01 -1.83406E+01 -1.79960E+01 -1.76094E+01 -1.73649E+01 -1.73186E+01 -1.73803E+01 -1.75106E+01
  -1.76449E+01 -1.76212E+01 -1.72359E+01 -1.64292E+01 -1.54548E+01 -1.44130E+01 -1.34789E+01 -1.29332E+01 -1.27283E+01 -1.24475E+01
  -1.17263E+01 -1.05061E+01 -9.20015E+00 -8.28284E+00 -7.93062E+00 -8.36835E+00 -9.58501E+00 -1.10149E+01 -1.20475E+01 -1.26327E+01
  -1.30018E+01 -1.32636E+01 -1.34840E+01 -1.38266E+01 -1.42167E+01 -1.42664E+01 -1.40926E+01 -1.35109E+01 -1.25217E+01 -1.13347E+01
  -1.00889E+01 -9.09758E+00 -8.62853E+00 -8.46394E+00 -8.03706E+00 -6.97097E+00 -5.41460E+00 -3.98057E+00 -3.12452E+00 -3.09423E+00
  -4.07792E+00 -5.74731E+00 -7.31510E+00 -8.32923E+00 -8.92056E+00 -9.35456E+00 -9.72690E+00 -1.00997E+01 -1.06268E+01 -1.09506E+01
  -1.09301E+01 -1.08301E+01 -1.07291E+01 -1.06409E+01 -1.05729E+01 -1.05135E+01 -1.04444E+01 -1.03755E+01 -1.03103E+01 -1.02465E+01
  -1.01940E+01 -1.01576E+01 -1.01457E+01 -1.01538E+01 -1.01606E+01 -1.01349E+01 -1.00546E+01 -9.93412E+00 -9.80999E+00 -9.73386E+00
  -9.73328E+00 -9.77039E+00 -9.78552E+00 -9.73461E+00 -9.60001E+00 -9.41792E+00 -9.26629E+00 -9.19968E+00 -9.20169E+00 -9.22347E+00
  -9.20514E+00 -9.12048E+00 -9.00530E+00 -8.91243E+00 -8.87850E+00 -8.87894E+00 -8.86045E+00 -8.77285E+00 -8.62803E+00 -8.45871E+00
  -8.28482E+00 -8.10579E+00 -7.90852E+00 -7.68804E+00 -7.45641E+00 -7.23611E+00 -7.06693E+00 -6.93867E+00 -6.81623E+00 -6.67154E+00
  -6.45932E+00 -6.19199E+00 -5.93470E+00 -5.73030E+00 -5.57448E+00 -5.43893E+00 -5.28616E+00 -5.08931E+00 -4.85882E+00 -4.66159E+00
  -4.59322E+00 -4.58310E+00 -4.57013E+00 -4.52124E+00 -4.41583E+00 -4.30433E+00 -4.27020E+00 -4.36832E+00 -4.63661E+00 -4.90879E+00
  -5.05145E+00 -5.07336E+00 -4.94051E+00 -4.57316E+00 -4.02458E+00 -3.47124E+00 -3.01486E+00 -2.64314E+00 -2.42324E+00 -2.53584E+00
  -3.01514E+00 -3.64244E+00 -4.21998E+00 -4.49337E+00 -4.38111E+00 -3.94768E+00 -3.29065E+00 -2.61923E+00 -2.13333E+00 -1.81402E+00
  -1.59910E+00 -1.40388E+00 -1.27208E+00 -1.23495E+00 -1.26411E+00 -1.34850E+00 -1.41883E+00 -1.35120E+00 -1.10239E+00 -7.71429E-01
  -5.67446E-01 -6.26416E-01 -8.68566E-01 -1.14736E+00 -1.34929E+00 -1.28246E+00 -7.36199E-01  1.18662E-01  9.89162E-01  1.76128E+00
   2.53319E+00  3.64118E+00  5.10638E+00  7.07202E+00  9.34775E+00  1.11995E+01  1.20724E+01  1.23601E+01  1.27650E+01  1.35828E+01
   1.45949E+01  1.53676E+01  1.56098E+01  1.47684E+01  1.25611E+01  9.75555E+00  7.39416E+00  5.72196E+00  4.64786E+00  3.89434E+00
   3.28181E+00  2.53404E+00  1.59939E+00  1.16420E+00  1.04162E+00  9.90467E-01  9.61648E-01  9.41717E-01  8.91972E-01  8.26812E-01
   7.72543E-01  7.42114E-01  7.33125E-01  7.47288E-01  7.83190E-01  8.32598E-01  8.88620E-01  9.49755E-01  1.01625E+00  1.08706E+00
   1.16370E+00  1.24934E+00  1.34485E+00  1.44341E+00  1.53809E+00  1.62363E+00  1.69425E+00  1.74680E+00  1.78384E+00  1.80717E+00
   1.81617E+00  1.81218E+00  1.79597E+00  1.76498E+00  1.71914E+00  1.65983E+00  1.58854E+00  1.50788E+00  1.42051E+00  1.33005E+00
   1.23964E+00  1.14984E+00  1.06250E+00  9.79693E-01  9.02420E-01  8.31705E-01  7.68133E-01  7.12101E-01  6.63493E-01  6.22139E-01
   5.87441E-01  5.58977E-01  5.36043E-01  5.18146E-01  5.04606E-01  4.95043E-01  4.88818E-01  4.85597E-01  4.84864E-01  4.86402E-01
   4.89819E-01  4.95020E-01  5.01721E-01  5.09909E-01  5.19361E-01  5.30123E-01  5.42023E-01  5.55156E-01  5.69405E-01  5.84896E-01
   6.01529E-01  6.19457E-01  6.38601E-01  6.59119E-01  6.80931E-01  7.04192E-01  7.28815E-01  7.54937E-01  7.82457E-01  8.11483E-01
   8.41864E-01  8.73656E-01  9.06649E-01  9.40843E-01  9.75971E-01  1.01197E+00  1.04852E+00  1.08551E+00  1.12258E+00  1.15960E+00
   1.19620E+00  1.23226E+00  1.26746E+00  1.30172E+00  1.33478E+00  1.36666E+00  1.39720E+00  1.42654E+00  1.45464E+00  1.48179E+00
   1.50809E+00  1.53392E+00  1.55950E+00  1.58534E+00  1.61172E+00  1.63921E+00  1.66820E+00  1.69929E+00  1.73290E+00  1.76969E+00
   1.81009E+00  1.85478E+00  1.90421E+00  1.95904E+00  2.01971E+00  2.08683E+00  2.16075E+00  2.24194E+00  2.33056E+00  2.42685E+00
   2.53062E+00  2.64172E+00  2.75950E+00  2.88327E+00  3.01183E+00  3.14390E+00  3.27768E+00  3.41136E+00  3.54271E+00  3.66958E+00
   3.78955E+00  3.90047E+00  4.00013E+00  4.08679E+00  4.15879E+00  4.21517E+00  4.25516E+00  4.27875E+00  4.28619E+00  4.27846E+00
   4.25672E+00  4.22271E+00  4.17824E+00  4.12547E+00  4.06646E+00  4.00343E+00  3.93830E+00  3.87303E+00  3.80914E+00  3.74811E+00
   3.69092E+00  3.63849E+00  3.59129E+00  3.54974E+00  3.51386E+00  3.48370E+00  3.45897E+00  3.43950E+00  3.42482E+00  3.41465E+00
   3.40846E+00  3.40595E+00  3.40662E+00  3.41018E+00  3.41619E+00  3.42443E+00  3.43451E+00  3.44627E+00  3.45938E+00  3.47375E+00
   3.48909E+00  3.50537E+00  3.52233E+00  3.53997E+00  3.55808E+00  3.57668E+00  3.59558E+00  3.61482E+00  3.63424E+00  3.65387E+00
   3.67358E+00  3.69341E+00  3.71323E+00  3.73311E+00  3.75293E+00  3.77276E+00  3.79251E+00  3.81225E+00  3.83187E+00  3.85148E+00
   3.87095E+00  3.89039E+00  3.90969E+00  3.92895E+00  3.94806E+00  3.96714E+00  3.98606E+00  4.00495E+00  4.02368E+00  4.04237E+00
   4.06091E+00  4.07942E+00  4.09778E+00  4.11611E+00  4.13430E+00  4.15247E+00  4.17051E+00  4.18852E+00  4.20641E+00  4.22429E+00
   4.24206E+00  4.25982E+00  4.27747E+00  4.29512E+00  4.31268E+00  4.33025E+00  4.34773E+00  4.36523E+00  4.38265E+00  4.40010E+00
   4.41748E+00  4.43489E+00  4.45224E+00  4.46964E+00  4.48698E+00  4.50437E+00  4.52171E+00  4.53911E+00
 NY background values follow
    -3.866E+01   -3.841E+01   -3.817E+01   -3.793E+01   -3.769E+01   -3.745E+01   -3.721E+01   -3.696E+01   -3.672E+01   -3.648E+01
    -3.624E+01   -3.600E+01   -3.576E+01   -3.552E+01   -3.528E+01   -3.504E+01   -3.480E+01   -3.456E+01   -3.432E+01   -3.408E+01
    -3.384E+01   -3.360E+01   -3.336E+01   -3.312E+01   -3.288E+01   -3.265E+01   -3.241E+01   -3.217E+01   -3.194E+01   -3.170E+01
    -3.147E+01   -3.123E+01   -3.100E+01   -3.077E+01   -3.054E+01   -3.030E+01   -3.007E+01   -2.984E+01   -2.961E+01   -2.938E+01
    -2.916E+01   -2.893E+01   -2.870E+01   -2.848E+01   -2.825E+01   -2.803E+01   -2.780E+01   -2.758E+01   -2.736E+01   -2.714E+01
    -2.692E+01   -2.670E+01   -2.648E+01   -2.627E+01   -2.605E+01   -2.584E+01   -2.562E+01   -2.541E+01   -2.520E+01   -2.499E+01
    -2.478E+01   -2.457E+01   -2.436E+01   -2.415E+01   -2.395E+01   -2.374E+01   -2.354E+01   -2.334E+01   -2.313E+01   -2.293E+01
    -2.273E+01   -2.254E+01   -2.234E+01   -2.214E+01   -2.195E+01   -2.175E+01   -2.156E+01   -2.137E+01   -2.118E+01   -2.099E+01
    -2.080E+01   -2.062E+01   -2.043E+01   -2.025E+01   -2.006E+01   -1.988E+01   -1.970E+01   -1.952E+01   -1.934E+01   -1.917E+01
    -1.899E+01   -1.882E+01   -1.865E+01   -1.847E+01   -1.830E+01   -1.814E+01   -1.797E+01   -1.780E+01   -1.764E+01   -1.747E+01
    -1.731E+01   -1.715E+01   -1.699E+01   -1.683E+01   -1.667E+01   -1.651E+01   -1.636E+01   -1.620E+01   -1.605E+01   -1.590E+01
    -1.574E+01   -1.559E+01   -1.544E+01   -1.530E+01   -1.515E+01   -1.500E+01   -1.486E+01   -1.471E+01   -1.457E+01   -1.443E+01
    -1.429E+01   -1.415E+01   -1.401E+01   -1.387E+01   -1.373E+01   -1.359E+01   -1.346E+01   -1.332E+01   -1.319E+01   -1.305E+01
    -1.292E+01   -1.279E+01   -1.266E+01   -1.253E+01   -1.240E+01   -1.227E+01   -1.215E+01   -1.202E+01   -1.189E+01   -1.177E+01
    -1.164E+01   -1.152E+01   -1.140E+01   -1.127E+01   -1.115E+01   -1.103E+01   -1.091E+01   -1.079E+01   -1.067E+01   -1.055E+01
    -1.044E+01   -1.032E+01   -1.020E+01   -1.009E+01   -9.973E+00   -9.858E+00   -9.745E+00   -9.632E+00   -9.520E+00   -9.408E+00
    -9.297E+00   -9.186E+00   -9.077E+00   -8.967E+00   -8.859E+00   -8.751E+00   -8.643E+00   -8.536E+00   -8.430E+00   -8.324E+00
    -8.219E+00   -8.114E+00   -8.010E+00   -7.906E+00   -7.803E+00   -7.701E+00   -7.599E+00   -7.497E+00   -7.396E+00   -7.295E+00
    -7.195E+00   -7.096E+00   -6.997E+00   -6.898E+00   -6.800E+00   -6.702E+00   -6.605E+00   -6.509E+00   -6.413E+00   -6.317E+00
    -6.222E+00   -6.128E+00   -6.034E+00   -5.941E+00   -5.848E+00   -5.756E+00   -5.665E+00   -5.574E+00   -5.484E+00   -5.394E+00
    -5.305E+00   -5.217E+00   -5.129E+00   -5.042E+00   -4.956E+00   -4.870E+00   -4.785E+00   -4.701E+00   -4.617E+00   -4.534E+00
    -4.452E+00   -4.371E+00   -4.290E+00   -4.210E+00   -4.131E+00   -4.053E+00   -3.975E+00   -3.898E+00   -3.822E+00   -3.747E+00
    -3.673E+00   -3.599E+00   -3.526E+00   -3.454E+00   -3.383E+00   -3.313E+00   -3.243E+00   -3.175E+00   -3.107E+00   -3.040E+00
    -2.974E+00   -2.909E+00   -2.845E+00   -2.782E+00   -2.719E+00   -2.658E+00   -2.597E+00   -2.537E+00   -2.478E+00   -2.420E+00
    -2.362E+00   -2.306E+00   -2.250E+00   -2.196E+00   -2.142E+00   -2.089E+00   -2.037E+00   -1.985E+00   -1.935E+00   -1.886E+00
    -1.837E+00   -1.789E+00   -1.742E+00   -1.696E+00   -1.651E+00   -1.607E+00   -1.563E+00   -1.521E+00   -1.479E+00   -1.438E+00
    -1.398E+00   -1.359E+00   -1.321E+00   -1.283E+00   -1.247E+00   -1.211E+00   -1.176E+00   -1.142E+00   -1.109E+00   -1.077E+00
    -1.045E+00   -1.015E+00   -9.852E-01   -9.564E-01   -9.284E-01   -9.012E-01   -8.748E-01   -8.491E-01   -8.242E-01   -8.000E-01
    -7.765E-01   -7.537E-01   -7.315E-01   -7.099E-01   -6.890E-01   -6.686E-01   -6.488E-01   -6.295E-01   -6.108E-01   -5.925E-01
    -5.748E-01   -5.574E-01   -5.406E-01   -5.241E-01   -5.080E-01   -4.923E-01   -4.769E-01   -4.619E-01   -4.472E-01   -4.327E-01
    -4.186E-01   -4.046E-01   -3.909E-01   -3.774E-01   -3.640E-01   -3.508E-01   -3.378E-01   -3.248E-01   -3.119E-01   -2.992E-01
    -2.864E-01   -2.737E-01   -2.610E-01   -2.482E-01   -2.355E-01   -2.226E-01   -2.097E-01   -1.967E-01   -1.836E-01   -1.703E-01
    -1.569E-01   -1.434E-01   -1.297E-01   -1.159E-01   -1.019E-01   -8.780E-02   -7.350E-02   -5.901E-02   -4.433E-02   -2.947E-02
    -1.440E-02    8.716E-04    1.636E-02    3.207E-02    4.801E-02    6.418E-02    8.060E-02    9.727E-02    1.142E-01    1.314E-01
     1.488E-01    1.666E-01    1.846E-01    2.029E-01    2.215E-01    2.405E-01    2.597E-01    2.793E-01    2.991E-01    3.194E-01
     3.399E-01    3.608E-01    3.821E-01    4.038E-01    4.258E-01    4.482E-01    4.709E-01    4.941E-01    5.176E-01    5.416E-01
     5.660E-01    5.908E-01    6.160E-01    6.417E-01    6.678E-01    6.942E-01    7.211E-01    7.484E-01    7.760E-01    8.040E-01
     8.323E-01    8.610E-01    8.900E-01    9.193E-01    9.490E-01    9.789E-01    1.009E+00    1.040E+00    1.070E+00    1.101E+00
     1.133E+00    1.164E+00    1.196E+00    1.228E+00    1.260E+00    1.292E+00    1.325E+00    1.358E+00    1.390E+00    1.423E+00
     1.457E+00    1.490E+00    1.523E+00    1.557E+00    1.590E+00    1.624E+00    1.658E+00    1.692E+00    1.726E+00    1.760E+00
     1.793E+00    1.827E+00    1.862E+00    1.896E+00    1.930E+00    1.964E+00    1.997E+00    2.031E+00    2.065E+00    2.099E+00
     2.133E+00    2.167E+00    2.200E+00    2.234E+00    2.267E+00    2.301E+00    2.334E+00    2.367E+00    2.400E+00    2.433E+00
     2.466E+00    2.499E+00    2.531E+00    2.564E+00    2.596E+00    2.628E+00    2.660E+00    2.692E+00    2.724E+00    2.755E+00
     2.787E+00    2.818E+00    2.849E+00    2.879E+00    2.910E+00    2.940E+00    2.971E+00    3.000E+00    3.030E+00    3.060E+00
     3.089E+00    3.118E+00    3.147E+00    3.175E+00    3.203E+00    3.231E+00    3.259E+00    3.287E+00    3.314E+00    3.341E+00
     3.367E+00    3.394E+00    3.419E+00    3.445E+00    3.471E+00    3.496E+00    3.520E+00    3.545E+00    3.569E+00    3.593E+00
     3.617E+00    3.640E+00    3.664E+00    3.686E+00    3.709E+00    3.732E+00    3.754E+00    3.776E+00    3.798E+00    3.820E+00
     3.842E+00    3.863E+00    3.884E+00    3.905E+00    3.926E+00    3.947E+00    3.968E+00    3.988E+00    4.008E+00    4.029E+00
     4.049E+00    4.069E+00    4.089E+00    4.109E+00    4.129E+00    4.148E+00    4.168E+00    4.188E+00    4.207E+00    4.227E+00
     4.246E+00    4.266E+00    4.285E+00    4.305E+00    4.324E+00    4.344E+00    4.363E+00    4.383E+00
 Asp      Conc. = 1.12E+02
