 LCModel (Version 6.3-1L) Copyright: S.W. Provencher.          Ref.: Magn. Reson. Med. 30:672-679 (1993).                
 Slice#3 Row#8 Col#8  K_02_press_1_raw_act
 Data of: Institute of Biomedical Engineering, Bogazici University, Istanbul
 04-January-2018  00:36
 36 lines in following concentration table = NCONC+1
    Conc.  %SD /Cr+PCr  Metabolite                                         
   83.076 148% 4.0E-02 Ala                                                 
   35.182 783% 1.7E-02 Asp                                                 
  938.540  25%   0.448 Cr                                                  
 1.16E+03  21%   0.552 PCr                                                 
   39.780 455% 1.9E-02 GABA                                                
    0.000 999%   0.000 Glc                                                 
  604.326  42%   0.288 Gln                                                 
 2.03E+03  15%   0.966 Glu                                                 
  621.896   4%   0.297 GPC                                                 
    0.000 999%   0.000 PCh                                                 
  704.254  12%   0.336 GSH                                                 
 1.68E+03  16%   0.800 Ins                                                 
  142.323  93% 6.8E-02 Lac                                                 
 2.47E+03   5%   1.177 NAA                                                 
  462.845  27%   0.221 NAAG                                                
   10.828 288% 5.2E-03 Scyllo                                              
    0.000 999%   0.000 Tau                                                 
    0.000 999%   0.000 -CrCH2                                              
  621.896   4%   0.297 GPC+PCh                                             
 2.93E+03   3%   1.398 NAA+NAAG                                            
 2.10E+03   3%   1.000 Cr+PCr                                              
 2.63E+03  15%   1.255 Glu+Gln                                             
  786.442  63%   0.375 Lip13a                                              
    0.000 999%   0.000 Lip13b                                              
   21.959 811% 1.0E-02 Lip09                                               
 1.31E+03  20%   0.625 MM09                                                
  131.965  87% 6.3E-02 Lip20                                               
 2.71E+03  14%   1.294 MM20                                                
  417.844  33%   0.199 MM12                                                
 2.07E+03  18%   0.987 MM14                                                
  769.665  28%   0.367 MM17                                                
  786.442  63%   0.375 Lip13a+Lip13b                                       
 3.27E+03  11%   1.562 MM14+Lip13a+Lip13b+MM12                             
 1.33E+03  15%   0.636 MM09+Lip09                                          
 2.84E+03  13%   1.357 MM20+Lip20                                          
   6 lines in following misc. output table
  FWHM = 0.038 ppm    S/N =  11                                            
  Data shift = 0.008 ppm                                                   
  Ph: -15 deg      -2.5 deg/ppm                                            
  alphaB,S = 8.5E+01,   6.5E+01                                            
   14 spline knots.   Ns = 6(1)                                            
   4 inflections.     1 extrema                                            
  498 points on ppm-axis = NY
      4.000000     3.992357     3.984714     3.977070     3.969427     3.961784     3.954141     3.946497     3.938854     3.931211
      3.923568     3.915925     3.908281     3.900638     3.892995     3.885352     3.877708     3.870065     3.862422     3.854779
      3.847136     3.839492     3.831849     3.824206     3.816563     3.808919     3.801276     3.793633     3.785990     3.778347
      3.770703     3.763060     3.755417     3.747774     3.740130     3.732487     3.724844     3.717201     3.709558     3.701914
      3.694271     3.686628     3.678985     3.671341     3.663698     3.656055     3.648412     3.640769     3.633125     3.625482
      3.617839     3.610196     3.602552     3.594909     3.587266     3.579623     3.571980     3.564336     3.556693     3.549050
      3.541407     3.533763     3.526120     3.518477     3.510834     3.503191     3.495547     3.487904     3.480261     3.472618
      3.464974     3.457331     3.449688     3.442045     3.434402     3.426758     3.419115     3.411472     3.403829     3.396185
      3.388542     3.380899     3.373256     3.365613     3.357969     3.350326     3.342683     3.335040     3.327396     3.319753
      3.312110     3.304467     3.296824     3.289180     3.281537     3.273894     3.266251     3.258607     3.250964     3.243321
      3.235678     3.228034     3.220391     3.212748     3.205105     3.197462     3.189818     3.182175     3.174532     3.166889
      3.159245     3.151602     3.143959     3.136316     3.128673     3.121029     3.113386     3.105743     3.098100     3.090456
      3.082813     3.075170     3.067527     3.059884     3.052240     3.044597     3.036954     3.029311     3.021667     3.014024
      3.006381     2.998738     2.991095     2.983451     2.975808     2.968165     2.960522     2.952878     2.945235     2.937592
      2.929949     2.922306     2.914662     2.907019     2.899376     2.891733     2.884089     2.876446     2.868803     2.861160
      2.853517     2.845873     2.838230     2.830587     2.822944     2.815300     2.807657     2.800014     2.792371     2.784728
      2.777084     2.769441     2.761798     2.754155     2.746511     2.738868     2.731225     2.723582     2.715939     2.708295
      2.700652     2.693009     2.685366     2.677722     2.670079     2.662436     2.654793     2.647150     2.639506     2.631863
      2.624220     2.616577     2.608933     2.601290     2.593647     2.586004     2.578361     2.570717     2.563074     2.555431
      2.547788     2.540144     2.532501     2.524858     2.517215     2.509572     2.501928     2.494285     2.486642     2.478999
      2.471355     2.463712     2.456069     2.448426     2.440783     2.433139     2.425496     2.417853     2.410210     2.402566
      2.394923     2.387280     2.379637     2.371994     2.364350     2.356707     2.349064     2.341421     2.333777     2.326134
      2.318491     2.310848     2.303205     2.295561     2.287918     2.280275     2.272632     2.264988     2.257345     2.249702
      2.242059     2.234416     2.226772     2.219129     2.211486     2.203843     2.196199     2.188556     2.180913     2.173270
      2.165627     2.157983     2.150340     2.142697     2.135054     2.127410     2.119767     2.112124     2.104481     2.096838
      2.089194     2.081551     2.073908     2.066265     2.058621     2.050978     2.043335     2.035692     2.028049     2.020405
      2.012762     2.005119     1.997476     1.989833     1.982190     1.974546     1.966903     1.959260     1.951617     1.943974
      1.936331     1.928688     1.921045     1.913402     1.905759     1.898115     1.890472     1.882829     1.875186     1.867543
      1.859900     1.852257     1.844614     1.836971     1.829327     1.821684     1.814041     1.806398     1.798755     1.791112
      1.783469     1.775826     1.768183     1.760540     1.752896     1.745253     1.737610     1.729967     1.722324     1.714681
      1.707038     1.699395     1.691752     1.684108     1.676465     1.668822     1.661179     1.653536     1.645893     1.638250
      1.630607     1.622964     1.615321     1.607677     1.600034     1.592391     1.584748     1.577105     1.569462     1.561819
      1.554176     1.546533     1.538890     1.531246     1.523603     1.515960     1.508317     1.500674     1.493031     1.485388
      1.477745     1.470102     1.462458     1.454815     1.447172     1.439529     1.431886     1.424243     1.416600     1.408957
      1.401314     1.393671     1.386027     1.378384     1.370741     1.363098     1.355455     1.347812     1.340169     1.332526
      1.324883     1.317240     1.309596     1.301953     1.294310     1.286667     1.279024     1.271381     1.263738     1.256095
      1.248452     1.240808     1.233165     1.225522     1.217879     1.210236     1.202593     1.194950     1.187307     1.179664
      1.172021     1.164377     1.156734     1.149091     1.141448     1.133805     1.126162     1.118519     1.110876     1.103233
      1.095590     1.087946     1.080303     1.072660     1.065017     1.057374     1.049731     1.042088     1.034445     1.026802
      1.019158     1.011515     1.003872     0.996229     0.988586     0.980943     0.973300     0.965657     0.958014     0.950371
      0.942727     0.935084     0.927441     0.919798     0.912155     0.904512     0.896869     0.889226     0.881583     0.873940
      0.866296     0.858653     0.851010     0.843367     0.835724     0.828081     0.820438     0.812795     0.805152     0.797508
      0.789865     0.782222     0.774579     0.766936     0.759293     0.751650     0.744007     0.736364     0.728721     0.721077
      0.713434     0.705791     0.698148     0.690505     0.682862     0.675219     0.667576     0.659933     0.652290     0.644646
      0.637003     0.629360     0.621717     0.614074     0.606431     0.598788     0.591145     0.583502     0.575858     0.568215
      0.560572     0.552929     0.545286     0.537643     0.530000     0.522357     0.514714     0.507071     0.499427     0.491784
      0.484141     0.476498     0.468855     0.461212     0.453569     0.445925     0.438282     0.430639     0.422996     0.415353
      0.407710     0.400067     0.392424     0.384780     0.377137     0.369494     0.361851     0.354208     0.346565     0.338922
      0.331278     0.323635     0.315992     0.308349     0.300706     0.293063     0.285420     0.277777     0.270133     0.262490
      0.254847     0.247204     0.239561     0.231918     0.224275     0.216631     0.208988     0.201345
 NY phased data points follow
   1.26137E+01  4.51091E+00  1.24092E+01  1.48348E+01  2.03399E+01  1.65818E+01  2.33607E+01  3.24136E+01  4.94995E+01  5.50757E+01
   6.65810E+01  6.15266E+01  6.43223E+01  4.80322E+01  3.36092E+01  2.92314E+01  2.44752E+01  2.22290E+01  1.61798E+01  1.47699E+01
   7.32972E+00  6.17316E+00  1.01291E+01  1.14202E+01  1.64697E+01  1.46230E+01  1.92557E+01  2.13352E+01  2.08578E+01  1.98979E+01
   2.96929E+01  2.33626E+01  2.53064E+01  2.97688E+01  2.19137E+01  1.49499E+01  1.50844E+01  1.24520E+01  1.89543E+01  1.38929E+01
   8.13033E+00  1.51084E+01  1.44774E+01  1.43083E+01  1.36831E+01  1.87182E+01  2.46220E+01  2.29853E+01  3.30112E+01  2.41554E+01
   2.31828E+01  1.18898E+01  1.22364E+01  7.51486E+00  1.41243E+01  1.77863E+01  1.42069E+01  1.70428E+01  1.20580E+01  8.53809E+00
   1.20824E+01  5.66995E+00  1.22461E+01 -2.50758E+00 -1.36904E+00 -1.98071E+00 -4.50029E-01  3.58618E+00  1.75958E+00 -2.28826E-01
   2.88105E+00 -3.93703E+00  6.64643E+00  1.00700E+01  2.49970E+00  5.10936E+00  3.64890E+00  6.32174E+00  7.46270E+00 -3.02144E+00
   9.78642E-01 -1.39928E+00  3.92600E+00  5.90343E+00  2.62763E+00  4.30864E+00  1.21765E-02  5.83472E+00  3.89437E+00  6.53290E+00
   2.21693E-01  9.08836E+00  5.38145E+00  9.23460E+00  9.25766E+00  1.16468E+01  1.47427E+01  1.32217E+01  1.40090E+01  1.94650E+01
   2.62352E+01  4.18331E+01  6.29557E+01  7.58604E+01  7.10849E+01  5.78333E+01  4.24434E+01  3.45377E+01  2.41738E+01  2.04441E+01
   1.59542E+01  1.31126E+01  1.30359E+01  1.25216E+01  3.36159E+00  2.32612E+00  6.48513E+00  1.00966E+01  1.16243E+01  1.42510E+01
   7.36272E+00  1.06646E+01  1.66486E+01  1.80870E+01  2.84196E+01  4.56445E+01  7.33603E+01  8.67529E+01  8.13410E+01  7.41347E+01
   5.99464E+01  4.17158E+01  3.20590E+01  1.94001E+01  1.67238E+01  1.69223E+01  1.41972E+01  4.23133E+00  7.51419E+00  5.16397E+00
   6.26428E+00  4.54116E+00  1.17380E+01  6.32573E+00  3.67611E+00  6.08458E+00 -8.51088E-02  1.08445E+01  1.14781E+01  3.34538E+00
   8.62055E+00  9.03618E+00  5.25788E+00  5.11783E+00 -2.73290E-01 -1.35440E+00 -4.08285E-01 -3.77940E+00  6.91280E+00  7.91089E+00
   1.10517E+00  3.69941E+00 -3.41902E+00 -5.06210E+00 -1.67729E+00  7.75721E+00  1.00263E+01 -2.70053E+00 -1.10829E+00  3.07459E+00
   4.32994E+00 -7.97105E-01 -2.24931E+00 -5.24062E+00 -1.95551E+00 -7.09315E+00 -9.31190E+00 -1.13555E+01 -1.05549E+01 -4.87423E+00
  -2.71114E+00 -3.77811E+00 -7.77460E+00 -1.40234E+01 -8.82372E+00 -2.23099E+00 -6.81489E+00 -1.47288E+01 -1.34270E+00 -2.47438E+00
   6.48225E+00  1.17391E+01  1.01137E+01  5.90415E+00  1.37712E+01  1.14867E+01  9.54729E+00  6.87177E+00  8.82798E+00  2.52790E+00
   3.27245E+00  5.00827E+00  4.09000E+00  7.86643E+00  6.69242E+00  8.01659E+00  7.64326E+00  6.47087E+00 -3.98741E+00 -4.84514E+00
   1.86581E+00 -4.58248E+00  5.89489E+00  2.60274E+00  1.24519E+01  1.58114E+01  2.18644E+01  2.37105E+01  1.85933E+01  5.39522E+00
   7.94510E+00 -4.59080E+00 -3.61530E+00  2.56692E+00  6.28216E+00  1.40660E+01  1.10280E+01  1.53880E+01  1.51687E+01  1.74150E+01
   1.54596E+01  1.69441E+01  1.40892E+01  1.15868E+01  1.18821E+01  1.48215E+01  8.19810E+00  1.47562E+01  1.74234E+01  1.22392E+01
   1.00544E+01  4.66699E+00  4.68871E+00  4.91909E+00  1.20830E+01  1.56902E+01  2.03751E+01  2.57423E+01  1.72285E+01  2.08953E+01
   1.73657E+01  2.58701E+01  2.43929E+01  3.25192E+01  3.82508E+01  4.52769E+01  4.41080E+01  4.98057E+01  7.23618E+01  1.01989E+02
   1.12517E+02  1.10588E+02  1.05938E+02  8.15820E+01  5.99028E+01  3.93693E+01  3.74851E+01  2.29888E+01  1.68360E+01  1.93523E+01
   1.16986E+01  1.34912E+01  1.26714E+01  7.39516E+00  1.40066E+01  1.95532E+01  1.00103E+01  8.87632E+00  1.27371E+01  1.10985E+01
   8.85230E+00  7.59941E+00  9.06105E+00  1.58644E+00  3.32862E+00  5.62823E+00  1.04091E+01  1.11783E+01  9.72686E+00  4.15283E+00
   7.65323E+00  7.38482E+00  3.57852E+00  7.40654E+00  1.10026E+01  1.15642E+01  4.37249E+00  1.31981E+01  6.19207E+00  1.02424E+01
   1.07533E+01  5.24441E+00  4.58428E+00  7.64505E+00  6.30470E+00  4.95297E+00  1.19195E+01  7.27272E+00  1.47614E+01  2.14916E+01
   1.18745E+01  1.55789E+01  9.35216E+00  1.18592E+01  1.64506E+01  1.30527E+01  1.26473E+01  1.27412E+01  1.06444E+01  5.63069E+00
   7.95600E+00  1.00284E+01  1.38364E+01  1.57162E+01  1.59062E+01  8.63293E+00  1.04612E+01  1.35739E+01  1.59707E+01  1.51764E+01
   1.73077E+01  1.46449E+01  1.37591E+01  2.12542E+01  9.14337E+00  1.78585E+01  2.30809E+01  1.81939E+01  2.14454E+01  1.70097E+01
   2.18912E+01  2.05823E+01  1.32904E+01  2.38840E+01  2.12937E+01  2.29955E+01  2.03187E+01  2.03141E+01  2.00534E+01  1.03170E+01
   1.53641E+01  1.48259E+01  1.73082E+01  1.63001E+01  1.40219E+01  1.34277E+01  1.65505E+01  1.15861E+01  1.64952E+01  1.12059E+01
   1.11720E+01  1.06840E+01  1.11792E+01  1.66529E+01  7.98747E+00  1.22763E+01  6.72989E+00  9.11830E+00  1.26223E+01  9.61441E+00
   1.25543E+01  1.06009E+01  9.55335E+00  1.95087E+01  7.18634E+00  1.55343E+01  1.01893E+01  4.04064E+00  1.23758E+01  1.25277E+01
   6.10829E+00  3.69164E+00  8.57257E+00  1.88784E+01  2.75340E+00  6.40134E+00  4.05354E+00  6.72224E+00  7.86507E+00  8.10692E+00
   1.20548E+01  1.08730E+01  1.36179E+01  3.90561E+00  3.43750E+00  9.67846E+00  1.39593E+01  1.11666E+01  1.37503E+01  1.03532E+01
   8.85190E+00  6.44980E+00  5.12470E+00  8.70985E+00  9.82974E+00  8.15284E+00  1.49005E+01  1.54151E+01  1.38462E+01  1.14524E+01
   1.53509E+01  4.57978E+00  8.31631E+00  8.02853E+00  1.04987E+01  9.88507E+00  1.56363E+01  7.28178E+00  3.01931E+00  1.16296E+01
   1.19250E+01  5.62985E+00  5.92361E+00  4.33177E+00  3.02119E+00  1.30292E+01  1.53219E+01  8.04541E+00  5.24408E+00  7.66236E+00
   1.26000E+01  4.71986E+00  6.93672E+00  2.85001E+00  6.89434E+00  1.42078E+01  1.54983E+01  3.09955E-01  6.33929E+00  1.02458E+00
   6.46956E+00  3.96777E+00  1.38113E+00 -1.99702E+00  9.92946E+00  3.75544E+00  5.35727E+00  5.41392E+00  1.28498E+00  6.34526E+00
   6.11923E+00  6.15893E+00  5.55409E+00  2.55892E-01  4.32843E+00  5.54000E+00  2.53610E+00  6.46834E+00  4.42034E+00  4.96115E+00
   1.03354E+01  2.94136E+00  1.68859E+00  1.01067E+01  2.03590E+00  5.37921E+00 -4.83353E-01  4.32526E+00  3.91529E+00  2.99954E+00
   5.39870E+00  4.22305E+00  8.31396E+00  2.09262E+00  6.39025E+00  2.54664E+00  4.73806E+00  1.18370E+01  6.69227E+00  6.03283E+00
   7.66249E+00  8.10246E+00  5.62170E+00  5.74332E+00  9.19443E+00  4.19543E+00  6.80777E+00  5.55048E+00  8.35505E+00  2.27661E-01
   3.88426E+00  9.12923E+00  7.98830E-01  3.70806E+00  9.44389E+00  3.69963E+00  6.32160E+00  1.10177E+01
 NY points of the fit to the data follow
   1.06548E+01  1.04110E+01  1.07297E+01  1.18627E+01  1.43625E+01  1.77245E+01  2.28697E+01  3.10479E+01  4.23822E+01  5.38485E+01
   6.10166E+01  6.11481E+01  5.47301E+01  4.48112E+01  3.49832E+01  2.73152E+01  2.15008E+01  1.67897E+01  1.35056E+01  1.15679E+01
   1.10173E+01  1.08107E+01  1.04662E+01  1.03093E+01  1.06325E+01  1.06001E+01  1.08665E+01  1.32133E+01  1.79353E+01  2.32539E+01
   2.72370E+01  2.90599E+01  2.82426E+01  2.50954E+01  2.10236E+01  1.71256E+01  1.33047E+01  9.99755E+00  8.51012E+00  8.26530E+00
   8.72357E+00  9.85827E+00  1.12603E+01  1.27022E+01  1.47816E+01  1.80923E+01  2.15734E+01  2.33944E+01  2.28821E+01  2.02414E+01
   1.63863E+01  1.27114E+01  1.01510E+01  8.60541E+00  7.57940E+00  7.13361E+00  7.56715E+00  8.65739E+00  1.00524E+01  1.13181E+01
   1.19588E+01  1.16838E+01  1.05038E+01  8.87526E+00  7.45475E+00  6.66311E+00  6.51502E+00  6.80900E+00  7.39416E+00  8.16497E+00
   9.04435E+00  9.72149E+00  9.99439E+00  9.84910E+00  9.37926E+00  8.79926E+00  8.29744E+00  7.97640E+00  7.74219E+00  7.49724E+00
   7.32507E+00  7.12081E+00  6.88157E+00  6.58610E+00  6.08225E+00  5.16634E+00  3.90222E+00  2.69529E+00  2.00466E+00  2.04794E+00
   2.82067E+00  4.04669E+00  5.35881E+00  6.60812E+00  7.76602E+00  8.67240E+00  9.58060E+00  1.19564E+01  1.50648E+01  1.90573E+01
   2.88334E+01  4.56834E+01  6.32474E+01  7.30526E+01  7.18318E+01  6.16706E+01  4.72367E+01  3.37996E+01  2.44916E+01  1.80231E+01
   1.15466E+01  7.15049E+00  6.16563E+00  6.08184E+00  6.19195E+00  6.38222E+00  6.61628E+00  6.85639E+00  7.14044E+00  7.61325E+00
   8.69996E+00  1.19052E+01  1.67361E+01  2.20296E+01  3.27642E+01  5.16279E+01  7.26673E+01  8.60633E+01  8.68354E+01  7.65543E+01
   6.06070E+01  4.51863E+01  3.39564E+01  2.56569E+01  1.66067E+01  8.54084E+00  4.85629E+00  3.46428E+00  3.62984E+00  4.89625E+00
   6.44997E+00  7.70515E+00  8.47350E+00  8.60714E+00  8.24599E+00  7.69468E+00  7.10150E+00  6.56101E+00  6.04380E+00  5.52315E+00
   5.12305E+00  4.73378E+00  4.32391E+00  3.99053E+00  3.83069E+00  3.81916E+00  3.95699E+00  4.12562E+00  3.95099E+00  3.30634E+00
   2.41415E+00  1.80271E+00  1.88702E+00  2.50984E+00  3.11677E+00  3.21892E+00  2.70763E+00  1.88468E+00  1.17054E+00  6.95682E-01
   4.20371E-01  2.24740E-01 -5.04685E-02 -5.74636E-01 -1.36200E+00 -2.09268E+00 -2.20424E+00 -1.64735E+00 -1.01770E+00 -8.44749E-01
  -1.08801E+00 -1.36951E+00 -1.29182E+00 -8.30859E-01 -4.68898E-01 -3.76608E-01  7.05496E-02  1.40260E+00  3.72207E+00  6.49032E+00
   8.75461E+00  9.86319E+00  9.63063E+00  8.53832E+00  7.08976E+00  5.45204E+00  3.99560E+00  3.37221E+00  3.84902E+00  5.18612E+00
   7.06964E+00  9.13023E+00  1.10087E+01  1.23484E+01  1.26187E+01  1.18575E+01  9.79854E+00  6.53727E+00  3.06001E+00  6.05452E-01
  -1.21290E-01  4.79482E-01  2.57366E+00  6.60687E+00  1.17222E+01  1.58021E+01  1.72045E+01  1.58118E+01  1.20121E+01  6.72659E+00
   1.05182E+00 -3.45744E+00 -5.40191E+00 -4.40698E+00 -6.94301E-01  4.19516E+00  8.52968E+00  1.15009E+01  1.29183E+01  1.31296E+01
   1.24860E+01  1.15704E+01  1.11246E+01  1.14854E+01  1.25247E+01  1.40702E+01  1.54635E+01  1.59530E+01  1.55854E+01  1.43638E+01
   1.23137E+01  1.01307E+01  9.01415E+00  9.48367E+00  1.10337E+01  1.31452E+01  1.53289E+01  1.69308E+01  1.75872E+01  1.78858E+01
   1.86582E+01  1.95899E+01  2.16554E+01  2.62915E+01  3.43585E+01  4.33342E+01  4.89799E+01  5.73911E+01  7.48057E+01  9.69727E+01
   1.12623E+02  1.14597E+02  1.02759E+02  8.22637E+01  6.14233E+01  4.58820E+01  3.53847E+01  2.53127E+01  1.62982E+01  1.27769E+01
   1.13930E+01  1.06024E+01  1.03056E+01  1.03192E+01  1.03012E+01  1.01652E+01  9.89310E+00  9.51212E+00  9.07277E+00  8.65634E+00
   8.29287E+00  7.99603E+00  7.79249E+00  7.68165E+00  7.61769E+00  7.55002E+00  7.46881E+00  7.39192E+00  7.33861E+00  7.31477E+00
   7.34583E+00  7.44693E+00  7.59568E+00  7.75938E+00  7.92960E+00  8.09764E+00  8.25909E+00  8.42392E+00  8.60033E+00  8.79254E+00
   9.01072E+00  9.25144E+00  9.50016E+00  9.73924E+00  9.95639E+00  1.01494E+01  1.03162E+01  1.04494E+01  1.05531E+01  1.06307E+01
   1.06838E+01  1.07162E+01  1.07342E+01  1.07446E+01  1.07556E+01  1.07753E+01  1.08124E+01  1.08762E+01  1.09770E+01  1.11259E+01
   1.13381E+01  1.16320E+01  1.19716E+01  1.23693E+01  1.28942E+01  1.34687E+01  1.39018E+01  1.40843E+01  1.40787E+01  1.40603E+01
   1.41545E+01  1.43667E+01  1.47561E+01  1.53789E+01  1.62018E+01  1.71350E+01  1.79880E+01  1.85825E+01  1.89024E+01  1.90246E+01
   1.90786E+01  1.91481E+01  1.91120E+01  1.90089E+01  1.90497E+01  1.90874E+01  1.87804E+01  1.79477E+01  1.67307E+01  1.54731E+01
   1.43428E+01  1.34573E+01  1.30203E+01  1.30851E+01  1.34793E+01  1.40221E+01  1.44371E+01  1.44911E+01  1.42190E+01  1.37830E+01
   1.33544E+01  1.29436E+01  1.24475E+01  1.19725E+01  1.15844E+01  1.12407E+01  1.09222E+01  1.06216E+01  1.03363E+01  1.00655E+01
   9.80943E+00  9.56830E+00  9.34296E+00  9.13481E+00  8.94556E+00  8.77683E+00  8.62984E+00  8.50565E+00  8.40544E+00  8.33070E+00
   8.28293E+00  8.26322E+00  8.27230E+00  8.31074E+00  8.37931E+00  8.47882E+00  8.60977E+00  8.77198E+00  8.96464E+00  9.18664E+00
   9.43659E+00  9.71255E+00  1.00116E+01  1.03297E+01  1.06619E+01  1.10028E+01  1.13464E+01  1.16861E+01  1.20146E+01  1.23241E+01
   1.26068E+01  1.28556E+01  1.30640E+01  1.32263E+01  1.33375E+01  1.33938E+01  1.33933E+01  1.33355E+01  1.32219E+01  1.30550E+01
   1.28385E+01  1.25772E+01  1.22774E+01  1.19458E+01  1.15897E+01  1.12161E+01  1.08315E+01  1.04423E+01  1.00547E+01  9.67407E+00
   9.30477E+00  8.95010E+00  8.61250E+00  8.29391E+00  7.99574E+00  7.71867E+00  7.46261E+00  7.22683E+00  7.01043E+00  6.81254E+00
   6.63222E+00  6.46827E+00  6.31919E+00  6.18344E+00  6.05976E+00  5.94718E+00  5.84479E+00  5.75150E+00  5.66614E+00  5.58773E+00
   5.51563E+00  5.44941E+00  5.38856E+00  5.33240E+00  5.28024E+00  5.23160E+00  5.18633E+00  5.14429E+00  5.10518E+00  5.06853E+00
   5.03394E+00  5.00128E+00  4.97061E+00  4.94189E+00  4.91486E+00  4.88916E+00  4.86461E+00  4.84127E+00  4.81925E+00  4.79847E+00
   4.77866E+00  4.75956E+00  4.74116E+00  4.72362E+00  4.70701E+00  4.69121E+00  4.67595E+00  4.66109E+00  4.64671E+00  4.63299E+00
   4.61996E+00  4.60741E+00  4.59513E+00  4.58309E+00  4.57148E+00  4.56042E+00  4.54984E+00  4.53951E+00  4.52929E+00  4.51925E+00
   4.50959E+00  4.50039E+00  4.49147E+00  4.48263E+00  4.47381E+00  4.46520E+00  4.45694E+00  4.44902E+00  4.44122E+00  4.43338E+00
   4.42556E+00  4.41795E+00  4.41066E+00  4.40357E+00  4.39646E+00  4.38925E+00  4.38208E+00  4.37514E+00
 NY background values follow
     3.752E+00    3.752E+00    3.751E+00    3.751E+00    3.751E+00    3.751E+00    3.751E+00    3.751E+00    3.751E+00    3.751E+00
     3.751E+00    3.751E+00    3.751E+00    3.751E+00    3.750E+00    3.750E+00    3.750E+00    3.750E+00    3.750E+00    3.750E+00
     3.750E+00    3.750E+00    3.750E+00    3.750E+00    3.750E+00    3.749E+00    3.749E+00    3.749E+00    3.749E+00    3.749E+00
     3.749E+00    3.749E+00    3.749E+00    3.749E+00    3.749E+00    3.749E+00    3.748E+00    3.748E+00    3.748E+00    3.748E+00
     3.748E+00    3.748E+00    3.748E+00    3.748E+00    3.748E+00    3.748E+00    3.747E+00    3.747E+00    3.747E+00    3.747E+00
     3.747E+00    3.747E+00    3.747E+00    3.747E+00    3.747E+00    3.747E+00    3.746E+00    3.746E+00    3.746E+00    3.746E+00
     3.746E+00    3.746E+00    3.746E+00    3.746E+00    3.746E+00    3.745E+00    3.745E+00    3.745E+00    3.745E+00    3.745E+00
     3.745E+00    3.745E+00    3.745E+00    3.745E+00    3.745E+00    3.744E+00    3.744E+00    3.744E+00    3.744E+00    3.744E+00
     3.744E+00    3.744E+00    3.744E+00    3.744E+00    3.744E+00    3.743E+00    3.743E+00    3.743E+00    3.743E+00    3.743E+00
     3.743E+00    3.743E+00    3.743E+00    3.743E+00    3.742E+00    3.742E+00    3.742E+00    3.742E+00    3.742E+00    3.742E+00
     3.742E+00    3.742E+00    3.742E+00    3.742E+00    3.741E+00    3.741E+00    3.741E+00    3.741E+00    3.741E+00    3.741E+00
     3.741E+00    3.741E+00    3.741E+00    3.740E+00    3.740E+00    3.740E+00    3.740E+00    3.740E+00    3.740E+00    3.740E+00
     3.740E+00    3.740E+00    3.740E+00    3.739E+00    3.739E+00    3.739E+00    3.739E+00    3.739E+00    3.739E+00    3.739E+00
     3.739E+00    3.739E+00    3.739E+00    3.738E+00    3.738E+00    3.738E+00    3.738E+00    3.738E+00    3.738E+00    3.738E+00
     3.738E+00    3.738E+00    3.738E+00    3.737E+00    3.737E+00    3.737E+00    3.737E+00    3.737E+00    3.737E+00    3.737E+00
     3.737E+00    3.737E+00    3.737E+00    3.736E+00    3.736E+00    3.736E+00    3.736E+00    3.736E+00    3.736E+00    3.736E+00
     3.736E+00    3.736E+00    3.736E+00    3.736E+00    3.735E+00    3.735E+00    3.735E+00    3.735E+00    3.735E+00    3.735E+00
     3.735E+00    3.735E+00    3.735E+00    3.735E+00    3.735E+00    3.734E+00    3.734E+00    3.734E+00    3.734E+00    3.734E+00
     3.734E+00    3.734E+00    3.734E+00    3.734E+00    3.734E+00    3.734E+00    3.733E+00    3.733E+00    3.733E+00    3.733E+00
     3.733E+00    3.733E+00    3.733E+00    3.733E+00    3.733E+00    3.733E+00    3.733E+00    3.733E+00    3.732E+00    3.732E+00
     3.732E+00    3.732E+00    3.732E+00    3.732E+00    3.732E+00    3.732E+00    3.732E+00    3.732E+00    3.732E+00    3.732E+00
     3.731E+00    3.731E+00    3.731E+00    3.731E+00    3.731E+00    3.731E+00    3.731E+00    3.731E+00    3.731E+00    3.731E+00
     3.731E+00    3.731E+00    3.730E+00    3.730E+00    3.730E+00    3.730E+00    3.730E+00    3.730E+00    3.730E+00    3.730E+00
     3.730E+00    3.730E+00    3.730E+00    3.730E+00    3.730E+00    3.729E+00    3.729E+00    3.729E+00    3.729E+00    3.729E+00
     3.729E+00    3.729E+00    3.729E+00    3.729E+00    3.729E+00    3.729E+00    3.729E+00    3.728E+00    3.728E+00    3.728E+00
     3.728E+00    3.728E+00    3.728E+00    3.728E+00    3.728E+00    3.728E+00    3.728E+00    3.728E+00    3.728E+00    3.727E+00
     3.727E+00    3.727E+00    3.727E+00    3.727E+00    3.727E+00    3.727E+00    3.727E+00    3.727E+00    3.727E+00    3.727E+00
     3.727E+00    3.726E+00    3.726E+00    3.726E+00    3.726E+00    3.726E+00    3.726E+00    3.726E+00    3.726E+00    3.726E+00
     3.726E+00    3.726E+00    3.726E+00    3.725E+00    3.725E+00    3.725E+00    3.725E+00    3.725E+00    3.725E+00    3.725E+00
     3.725E+00    3.725E+00    3.725E+00    3.725E+00    3.724E+00    3.724E+00    3.724E+00    3.724E+00    3.724E+00    3.724E+00
     3.724E+00    3.724E+00    3.724E+00    3.724E+00    3.724E+00    3.723E+00    3.723E+00    3.723E+00    3.723E+00    3.723E+00
     3.723E+00    3.723E+00    3.723E+00    3.723E+00    3.723E+00    3.723E+00    3.722E+00    3.722E+00    3.722E+00    3.722E+00
     3.722E+00    3.722E+00    3.722E+00    3.722E+00    3.722E+00    3.722E+00    3.721E+00    3.721E+00    3.721E+00    3.721E+00
     3.721E+00    3.721E+00    3.721E+00    3.721E+00    3.721E+00    3.721E+00    3.720E+00    3.720E+00    3.720E+00    3.720E+00
     3.720E+00    3.720E+00    3.720E+00    3.720E+00    3.720E+00    3.720E+00    3.719E+00    3.719E+00    3.719E+00    3.719E+00
     3.719E+00    3.719E+00    3.719E+00    3.719E+00    3.719E+00    3.718E+00    3.718E+00    3.718E+00    3.718E+00    3.718E+00
     3.718E+00    3.718E+00    3.718E+00    3.718E+00    3.717E+00    3.717E+00    3.717E+00    3.717E+00    3.717E+00    3.717E+00
     3.717E+00    3.717E+00    3.717E+00    3.716E+00    3.716E+00    3.716E+00    3.716E+00    3.716E+00    3.716E+00    3.716E+00
     3.716E+00    3.716E+00    3.715E+00    3.715E+00    3.715E+00    3.715E+00    3.715E+00    3.715E+00    3.715E+00    3.715E+00
     3.715E+00    3.714E+00    3.714E+00    3.714E+00    3.714E+00    3.714E+00    3.714E+00    3.714E+00    3.714E+00    3.713E+00
     3.713E+00    3.713E+00    3.713E+00    3.713E+00    3.713E+00    3.713E+00    3.713E+00    3.712E+00    3.712E+00    3.712E+00
     3.712E+00    3.712E+00    3.712E+00    3.712E+00    3.712E+00    3.712E+00    3.711E+00    3.711E+00    3.711E+00    3.711E+00
     3.711E+00    3.711E+00    3.711E+00    3.711E+00    3.710E+00    3.710E+00    3.710E+00    3.710E+00    3.710E+00    3.710E+00
     3.710E+00    3.709E+00    3.709E+00    3.709E+00    3.709E+00    3.709E+00    3.709E+00    3.709E+00    3.709E+00    3.708E+00
     3.708E+00    3.708E+00    3.708E+00    3.708E+00    3.708E+00    3.708E+00    3.708E+00    3.707E+00    3.707E+00    3.707E+00
     3.707E+00    3.707E+00    3.707E+00    3.707E+00    3.706E+00    3.706E+00    3.706E+00    3.706E+00    3.706E+00    3.706E+00
     3.706E+00    3.706E+00    3.705E+00    3.705E+00    3.705E+00    3.705E+00    3.705E+00    3.705E+00    3.705E+00    3.704E+00
     3.704E+00    3.704E+00    3.704E+00    3.704E+00    3.704E+00    3.704E+00    3.703E+00    3.703E+00    3.703E+00    3.703E+00
     3.703E+00    3.703E+00    3.703E+00    3.702E+00    3.702E+00    3.702E+00    3.702E+00    3.702E+00    3.702E+00    3.701E+00
     3.701E+00    3.701E+00    3.701E+00    3.701E+00    3.701E+00    3.701E+00    3.700E+00    3.700E+00
