 LCModel (Version 6.3-1L) Copyright: S.W. Provencher.          Ref.: Magn. Reson. Med. 30:672-679 (1993).                
 Slice#1 Row#10 Col#5  K_02_press_1_raw_act
 36 lines in following concentration table = NCONC+1
    Conc.  %SD /Cr+PCr  Metabolite                                         
   83.172  95% 6.8E-02 Ala                                                 
    0.000 999%   0.000 Asp                                                 
  529.847  29%   0.432 Cr                                                  
  697.868  23%   0.568 PCr                                                 
    0.000 999%   0.000 GABA                                                
   62.870 230% 5.1E-02 Glc                                                 
  242.598  66%   0.198 Gln                                                 
 1.31E+03  14%   1.063 Glu                                                 
  481.888  23%   0.393 GPC                                                 
   68.671 168% 5.6E-02 PCh                                                 
  350.208  17%   0.285 GSH                                                 
 1.40E+03  14%   1.137 Ins                                                 
    0.000 999%   0.000 Lac                                                 
 2.22E+03   4%   1.809 NAA                                                 
  601.932  14%   0.490 NAAG                                                
  103.146  24% 8.4E-02 Scyllo                                              
  262.998  71%   0.214 Tau                                                 
  244.172  40%   0.199 -CrCH2                                              
  550.559   4%   0.448 GPC+PCh                                             
 2.82E+03   3%   2.299 NAA+NAAG                                            
 1.23E+03   4%   1.000 Cr+PCr                                              
 1.55E+03  15%   1.261 Glu+Gln                                             
 4.29E+03  19%   3.492 Lip13a                                              
    0.000 999%   0.000 Lip13b                                              
 1.09E+03  36%   0.888 Lip09                                               
  789.553  49%   0.643 MM09                                                
  712.982  40%   0.581 Lip20                                               
 1.03E+03  39%   0.840 MM20                                                
  254.771  92%   0.208 MM12                                                
  821.517  52%   0.669 MM14                                                
  492.859  39%   0.401 MM17                                                
 4.29E+03  19%   3.492 Lip13a+Lip13b                                       
 5.36E+03   9%   4.368 MM14+Lip13a+Lip13b+MM12                             
 1.88E+03  11%   1.531 MM09+Lip09                                          
 1.74E+03  20%   1.421 MM20+Lip20                                          
   6 lines in following misc. output table
  FWHM = 0.038 ppm    S/N =  15                                            
  Data shift = 0.008 ppm                                                   
  Ph:  -8 deg      -7.3 deg/ppm                                            
  alphaB,S = 8.5E+01,   7.3E+01                                            
   14 spline knots.   Ns = 5(1)                                            
   2 inflections.     1 extrema                                            
  498 points on ppm-axis = NY
      4.000000     3.992357     3.984714     3.977070     3.969427     3.961784     3.954141     3.946497     3.938854     3.931211
      3.923568     3.915925     3.908281     3.900638     3.892995     3.885352     3.877708     3.870065     3.862422     3.854779
      3.847136     3.839492     3.831849     3.824206     3.816563     3.808919     3.801276     3.793633     3.785990     3.778347
      3.770703     3.763060     3.755417     3.747774     3.740130     3.732487     3.724844     3.717201     3.709558     3.701914
      3.694271     3.686628     3.678985     3.671341     3.663698     3.656055     3.648412     3.640769     3.633125     3.625482
      3.617839     3.610196     3.602552     3.594909     3.587266     3.579623     3.571980     3.564336     3.556693     3.549050
      3.541407     3.533763     3.526120     3.518477     3.510834     3.503191     3.495547     3.487904     3.480261     3.472618
      3.464974     3.457331     3.449688     3.442045     3.434402     3.426758     3.419115     3.411472     3.403829     3.396185
      3.388542     3.380899     3.373256     3.365613     3.357969     3.350326     3.342683     3.335040     3.327396     3.319753
      3.312110     3.304467     3.296824     3.289180     3.281537     3.273894     3.266251     3.258607     3.250964     3.243321
      3.235678     3.228034     3.220391     3.212748     3.205105     3.197462     3.189818     3.182175     3.174532     3.166889
      3.159245     3.151602     3.143959     3.136316     3.128673     3.121029     3.113386     3.105743     3.098100     3.090456
      3.082813     3.075170     3.067527     3.059884     3.052240     3.044597     3.036954     3.029311     3.021667     3.014024
      3.006381     2.998738     2.991095     2.983451     2.975808     2.968165     2.960522     2.952878     2.945235     2.937592
      2.929949     2.922306     2.914662     2.907019     2.899376     2.891733     2.884089     2.876446     2.868803     2.861160
      2.853517     2.845873     2.838230     2.830587     2.822944     2.815300     2.807657     2.800014     2.792371     2.784728
      2.777084     2.769441     2.761798     2.754155     2.746511     2.738868     2.731225     2.723582     2.715939     2.708295
      2.700652     2.693009     2.685366     2.677722     2.670079     2.662436     2.654793     2.647150     2.639506     2.631863
      2.624220     2.616577     2.608933     2.601290     2.593647     2.586004     2.578361     2.570717     2.563074     2.555431
      2.547788     2.540144     2.532501     2.524858     2.517215     2.509572     2.501928     2.494285     2.486642     2.478999
      2.471355     2.463712     2.456069     2.448426     2.440783     2.433139     2.425496     2.417853     2.410210     2.402566
      2.394923     2.387280     2.379637     2.371994     2.364350     2.356707     2.349064     2.341421     2.333777     2.326134
      2.318491     2.310848     2.303205     2.295561     2.287918     2.280275     2.272632     2.264988     2.257345     2.249702
      2.242059     2.234416     2.226772     2.219129     2.211486     2.203843     2.196199     2.188556     2.180913     2.173270
      2.165627     2.157983     2.150340     2.142697     2.135054     2.127410     2.119767     2.112124     2.104481     2.096838
      2.089194     2.081551     2.073908     2.066265     2.058621     2.050978     2.043335     2.035692     2.028049     2.020405
      2.012762     2.005119     1.997476     1.989833     1.982190     1.974546     1.966903     1.959260     1.951617     1.943974
      1.936331     1.928688     1.921045     1.913402     1.905759     1.898115     1.890472     1.882829     1.875186     1.867543
      1.859900     1.852257     1.844614     1.836971     1.829327     1.821684     1.814041     1.806398     1.798755     1.791112
      1.783469     1.775826     1.768183     1.760540     1.752896     1.745253     1.737610     1.729967     1.722324     1.714681
      1.707038     1.699395     1.691752     1.684108     1.676465     1.668822     1.661179     1.653536     1.645893     1.638250
      1.630607     1.622964     1.615321     1.607677     1.600034     1.592391     1.584748     1.577105     1.569462     1.561819
      1.554176     1.546533     1.538890     1.531246     1.523603     1.515960     1.508317     1.500674     1.493031     1.485388
      1.477745     1.470102     1.462458     1.454815     1.447172     1.439529     1.431886     1.424243     1.416600     1.408957
      1.401314     1.393671     1.386027     1.378384     1.370741     1.363098     1.355455     1.347812     1.340169     1.332526
      1.324883     1.317240     1.309596     1.301953     1.294310     1.286667     1.279024     1.271381     1.263738     1.256095
      1.248452     1.240808     1.233165     1.225522     1.217879     1.210236     1.202593     1.194950     1.187307     1.179664
      1.172021     1.164377     1.156734     1.149091     1.141448     1.133805     1.126162     1.118519     1.110876     1.103233
      1.095590     1.087946     1.080303     1.072660     1.065017     1.057374     1.049731     1.042088     1.034445     1.026802
      1.019158     1.011515     1.003872     0.996229     0.988586     0.980943     0.973300     0.965657     0.958014     0.950371
      0.942727     0.935084     0.927441     0.919798     0.912155     0.904512     0.896869     0.889226     0.881583     0.873940
      0.866296     0.858653     0.851010     0.843367     0.835724     0.828081     0.820438     0.812795     0.805152     0.797508
      0.789865     0.782222     0.774579     0.766936     0.759293     0.751650     0.744007     0.736364     0.728721     0.721077
      0.713434     0.705791     0.698148     0.690505     0.682862     0.675219     0.667576     0.659933     0.652290     0.644646
      0.637003     0.629360     0.621717     0.614074     0.606431     0.598788     0.591145     0.583502     0.575858     0.568215
      0.560572     0.552929     0.545286     0.537643     0.530000     0.522357     0.514714     0.507071     0.499427     0.491784
      0.484141     0.476498     0.468855     0.461212     0.453569     0.445925     0.438282     0.430639     0.422996     0.415353
      0.407710     0.400067     0.392424     0.384780     0.377137     0.369494     0.361851     0.354208     0.346565     0.338922
      0.331278     0.323635     0.315992     0.308349     0.300706     0.293063     0.285420     0.277777     0.270133     0.262490
      0.254847     0.247204     0.239561     0.231918     0.224275     0.216631     0.208988     0.201345
 NY phased data points follow
  -3.88444E+00 -8.83018E-01 -1.47695E+00 -5.32655E+00 -6.28853E+00 -4.12124E+00  4.69138E+00  9.39423E+00  1.12603E+01  2.00897E+01
   1.94528E+01  2.36295E+01  2.34087E+01  1.98082E+01  1.22563E+01  8.83154E+00  1.93868E+00  7.21557E-01 -1.62141E+00 -6.53653E+00
  -5.96384E+00 -3.42676E+00 -1.01184E+00 -2.91907E+00 -6.37804E+00 -7.02379E-01 -3.16842E+00  3.61566E+00  2.32948E-01  1.05438E+00
   6.29255E+00  5.37963E+00  8.47306E+00  6.52580E+00  4.44790E+00  2.91591E+00  8.59119E+00  4.21150E+00  3.62415E+00  2.06634E+00
   7.50318E-01  1.41754E+00  1.49977E+00  4.26845E+00  2.98709E+00  7.54652E+00  9.62722E+00  1.35899E+01  1.31857E+01  1.61969E+01
   6.89988E+00  6.48172E+00 -1.99177E+00 -1.85205E-01 -2.22842E-01  6.99670E+00  5.64618E+00  7.35554E+00 -1.16249E+00  2.29061E+00
   2.20575E+00  2.04112E-01  1.99587E+00 -4.12654E-01 -6.24722E+00 -6.71096E-02 -3.14649E+00 -4.82202E+00  7.92886E-01 -3.99091E+00
  -3.80462E+00 -9.09865E-01  2.27627E+00 -3.66378E-01  1.55329E+00  1.28960E+00  2.33640E+00  3.28998E-01 -5.24105E+00 -2.06111E+00
  -9.80552E-01 -2.29096E-01 -5.34669E+00  1.40686E+00 -4.19326E-01 -1.24210E+00 -5.35706E+00 -1.57705E+00  3.81213E+00 -8.32413E-01
   3.93742E+00  5.34112E+00  1.03803E+00  6.95948E+00  6.43296E+00  2.11564E+00  6.80707E+00  7.74598E+00  5.49930E+00  1.00312E+01
   2.35425E+01  3.71251E+01  5.79185E+01  6.53567E+01  5.86567E+01  4.94578E+01  2.80138E+01  1.60011E+01  1.63249E+01  7.78571E+00
   1.00315E+01 -2.03276E+00  1.75148E+00 -1.92492E+00 -1.77877E+00 -2.76171E+00 -2.38791E+00 -3.56446E-01  5.20553E-01  2.83695E+00
   3.82430E+00  2.32088E+00  2.78970E+00  7.86435E+00  9.80278E+00  2.23651E+01  4.14807E+01  5.55346E+01  5.07059E+01  4.57374E+01
   2.69365E+01  1.89230E+01  1.27434E+01  9.66216E+00  1.09423E+01  5.80446E+00  4.16249E+00 -1.96706E+00  6.76046E-01  3.96698E-01
   4.74444E+00  6.04884E-01  5.97252E+00  1.84317E+00  7.74709E-01  3.78800E+00  2.93271E+00  2.28898E+00 -4.63218E+00 -1.72491E-01
  -6.47716E-01  8.21382E-01 -3.17184E+00  6.25648E+00  2.78808E+00  2.41892E+00  1.48433E-01 -1.68143E-01  3.11839E+00  5.86889E+00
  -9.02068E-01  2.74943E+00  9.93594E-01 -4.46737E+00  5.61439E+00  4.11666E+00  1.41395E+00  3.00513E+00 -3.14608E+00 -8.50592E+00
  -1.35861E+01 -1.05662E+01 -8.38616E+00 -8.24287E+00 -1.44892E+01 -1.59898E+01 -1.57649E+01 -1.69454E+01 -1.66165E+01 -9.25123E+00
  -8.53579E+00 -1.06248E+01 -7.69148E+00 -9.44195E+00 -4.55802E+00 -5.48640E+00 -6.43718E-01 -2.70170E+00 -6.36415E+00 -5.95416E+00
  -2.08525E+00  7.12184E-01  2.01501E+00 -1.01754E+00  1.23108E+00 -3.23661E+00 -6.00152E-01 -7.22978E+00 -9.52961E+00 -9.83917E+00
  -5.77835E+00 -4.82317E+00  1.23768E+00 -6.73446E-01  6.87771E+00  7.13543E-01  1.87645E+00 -3.26733E+00 -9.43884E-01 -9.91428E-01
  -2.07007E+00 -2.24431E+00 -1.85347E+00  5.05419E+00  6.54209E+00  8.12062E+00  1.01734E+01  1.85147E+01  5.38926E+00  1.13747E+01
   5.63102E-01 -4.43813E+00 -1.04889E+01 -8.98167E+00 -3.14784E+00 -6.35480E-01  6.96008E+00  7.13627E+00  6.22963E+00  1.16038E+01
   6.92892E+00 -5.18902E-01  4.56197E+00  5.70004E+00  9.29773E+00  4.27377E+00  5.09912E+00  7.18927E+00  6.59043E+00  5.07387E+00
  -1.98994E+00  2.09408E+00 -3.09930E+00 -5.41509E+00 -6.55153E+00  2.73735E-01  4.83499E+00  2.31362E+00  7.04791E+00  8.95869E+00
   1.10915E+01  1.36364E+01  1.30327E+01  1.14509E+01  3.00706E+01  3.67866E+01  5.00818E+01  4.81016E+01  5.40524E+01  8.27927E+01
   1.12353E+02  1.20647E+02  9.83494E+01  6.95484E+01  4.40636E+01  2.63903E+01  1.55774E+01  7.86836E+00  1.30916E+00  5.07740E+00
   5.64991E+00  5.60576E+00  3.81108E+00  4.57294E+00  9.94502E+00  8.93500E+00  4.78854E+00  1.85704E+00  4.82440E+00  3.58732E+00
   2.86529E+00  5.23729E+00  1.21619E+01  1.00160E+00  7.16168E+00 -3.87944E-01  9.61564E-01  6.47014E+00  4.72871E+00  2.58095E+00
   4.92542E+00  4.68406E+00  7.88071E+00  4.82751E+00  5.95573E+00  8.58580E+00  2.48390E+00  6.06038E+00  3.28710E-01  2.89448E+00
   1.39882E+00  5.57133E+00  6.77944E+00  5.96412E+00  6.77225E+00  7.75125E+00  5.21671E-01  6.10048E+00  2.71052E+00  4.70618E+00
   7.95778E+00  7.20078E+00  4.24649E+00  6.42446E+00  6.30473E+00  7.08639E+00  7.06188E+00  3.44742E+00  8.64345E+00  3.15810E+00
   3.46172E+00  1.51565E+00  6.17176E+00  9.41242E+00  6.05714E+00  7.44800E+00  1.13630E+01  6.02723E+00  8.41610E+00  5.00702E+00
   3.11450E+00  7.37682E+00  9.71716E+00  1.30412E+01  1.52910E+01  1.29072E+01  9.10015E+00  1.53935E+01  1.86944E+01  1.43272E+01
   1.21108E+01  1.52154E+01  1.59563E+01  1.46605E+01  1.53227E+01  1.83339E+01  1.95287E+01  1.74709E+01  1.82076E+01  2.10378E+01
   2.21583E+01  1.93967E+01  1.87143E+01  1.91848E+01  1.84503E+01  1.97964E+01  1.56193E+01  1.74036E+01  1.89366E+01  1.65282E+01
   1.49557E+01  1.73495E+01  1.58528E+01  1.79955E+01  1.87920E+01  1.65663E+01  1.81800E+01  1.84723E+01  1.35298E+01  1.28095E+01
   1.43942E+01  1.16756E+01  1.56424E+01  1.47087E+01  1.23670E+01  1.01342E+01  9.03235E+00  1.30902E+01  1.27324E+01  1.05550E+01
   5.95487E+00  9.90646E+00  1.13419E+01  1.20277E+01  1.24480E+01  3.97509E+00  1.01244E+01  1.33286E+01  9.97385E+00  9.58797E+00
   1.00547E+01  8.91031E+00  1.16710E+01  5.92382E+00  1.37555E+01  1.55336E+01  1.30733E+01  1.49558E+01  1.39464E+01  1.50544E+01
   1.80078E+01  1.33818E+01  1.58305E+01  1.79778E+01  1.65753E+01  1.72084E+01  1.85475E+01  1.67810E+01  1.52929E+01  1.71127E+01
   1.53746E+01  1.33174E+01  1.27225E+01  1.08301E+01  9.87407E+00  6.61670E+00  7.02894E+00  1.40572E+01  1.10008E+01  6.94756E+00
   1.90599E+00  1.20574E+01  1.06032E+01  3.27649E+00  1.10786E+01  6.52370E+00  5.08632E+00  7.66771E+00  1.82978E+00  1.82583E+00
   6.17753E+00 -2.13065E-01  6.65303E+00  3.49405E+00  1.29740E+00  2.71047E+00  1.64975E+00  5.90535E+00  4.04579E+00  1.07217E+01
   2.27773E+00  7.65188E+00  1.09440E+01  3.02807E+00  5.20014E+00  4.72028E+00  8.01095E+00  3.19766E+00  5.77376E+00  1.38478E+00
   5.09928E+00  8.15395E+00  5.91181E+00 -1.63751E+00 -2.62911E-01  4.83578E+00  3.56423E+00  2.83428E+00  3.86106E+00  8.94666E+00
   5.99315E+00  6.81010E+00  3.73917E+00 -3.13031E-01  7.43509E-01  6.19183E+00  4.87264E+00  3.01982E+00  1.30806E+00  4.49507E+00
   3.93572E+00  1.33430E+00  5.85388E+00 -8.96391E-01  3.08415E+00  6.92552E+00 -1.03343E+00  3.78111E+00  2.37741E+00  4.34062E-01
   1.05858E+00  5.75596E-01  4.05200E+00  3.97520E+00 -3.71897E-01  2.05886E+00 -1.71073E+00  4.10180E+00 -1.36129E-01  1.55939E+00
   1.95545E+00 -7.74134E-01  3.68335E+00  1.06498E+00  5.62502E+00  1.52958E+00 -9.33811E-01 -8.94602E-01
 NY points of the fit to the data follow
  -2.63433E+00 -3.19235E+00 -3.37379E+00 -3.04112E+00 -1.93667E+00 -3.01204E-01  2.38592E+00  6.73334E+00  1.21065E+01  1.77375E+01
   2.23463E+01  2.42580E+01  2.25275E+01  1.79386E+01  1.24739E+01  7.81219E+00  4.66879E+00  2.57014E+00  1.16841E+00  3.97831E-01
  -2.55266E-02 -2.38943E-01 -3.76572E-01 -6.93571E-01 -1.06806E+00 -1.00445E+00 -8.60179E-01 -7.67823E-01  4.33615E-01  3.36102E+00
   6.99620E+00  9.54389E+00  1.03934E+01  9.92392E+00  8.51411E+00  6.40671E+00  3.94339E+00  1.68172E+00 -1.96166E-01 -1.65836E+00
  -2.19010E+00 -1.53399E+00 -5.55731E-02  1.51720E+00  3.29072E+00  6.09566E+00  9.81499E+00  1.28191E+01  1.32801E+01  1.08597E+01
   6.87242E+00  2.96825E+00  8.80065E-02 -1.55426E+00 -1.99580E+00 -1.66975E+00 -1.00337E+00 -5.68877E-02  1.21831E+00  2.60466E+00
   3.50411E+00  3.40461E+00  2.31571E+00  7.02968E-01 -7.27717E-01 -1.58589E+00 -1.66689E+00 -1.13175E+00 -4.37754E-01  1.83438E-01
   8.18577E-01  1.46872E+00  1.86722E+00  1.97660E+00  1.98435E+00  1.88155E+00  1.54601E+00  8.47891E-01 -9.43895E-02 -9.30996E-01
  -1.39141E+00 -1.47464E+00 -1.18795E+00 -6.44783E-01 -3.63659E-01 -3.71885E-02  8.06318E-01  1.83040E+00  2.17703E+00  1.51349E+00
   3.45215E-01 -6.10944E-01 -1.18949E+00 -1.58892E+00 -1.85822E+00 -1.90801E+00 -1.52344E+00  7.96104E-01  5.31194E+00  1.13502E+01
   2.21746E+01  3.93193E+01  5.68931E+01  6.54819E+01  6.07700E+01  4.68128E+01  3.11449E+01  1.86370E+01  9.92529E+00  4.57227E+00
   2.06631E+00  8.70081E-01  1.97431E-01 -2.55007E-01 -6.08451E-01 -9.01436E-01 -1.15089E+00 -1.36589E+00 -1.55717E+00 -1.70107E+00
  -1.66572E+00 -8.03763E-01  2.40537E+00  6.77631E+00  1.32080E+01  2.50732E+01  4.06529E+01  5.21114E+01  5.28262E+01  4.35817E+01
   3.05144E+01  1.93811E+01  1.19754E+01  7.10822E+00  4.21545E+00  2.22235E+00  3.76501E-01 -9.16520E-01 -1.34582E+00 -9.19796E-01
   8.57452E-02  1.22697E+00  2.00995E+00  2.20552E+00  1.95588E+00  1.50680E+00  1.06859E+00  7.65687E-01  5.63514E-01  4.09550E-01
   2.51328E-01  4.67425E-02 -2.32688E-01 -5.21253E-01 -6.74700E-01 -5.85494E-01 -3.59624E-01 -7.42508E-02 -3.70916E-03 -5.60864E-01
  -1.62433E+00 -2.71614E+00 -3.08956E+00 -2.38629E+00 -1.25313E+00 -7.17225E-01 -1.19237E+00 -2.33925E+00 -3.56580E+00 -4.36891E+00
  -4.66070E+00 -4.72696E+00 -4.80948E+00 -5.09021E+00 -5.90913E+00 -6.97010E+00 -7.56309E+00 -7.15300E+00 -6.03182E+00 -5.29713E+00
  -5.53906E+00 -6.20027E+00 -6.44421E+00 -5.97731E+00 -5.33070E+00 -5.10086E+00 -5.06779E+00 -4.35497E+00 -2.60248E+00 -2.21403E-01
   2.05016E+00  3.49422E+00  3.82517E+00  3.07953E+00  1.87912E+00  8.33030E-01  2.71941E-02 -6.55396E-01 -9.84173E-01 -5.75188E-01
   3.29878E-01  1.48894E+00  2.84452E+00  4.15507E+00  5.05729E+00  4.82112E+00  3.40899E+00  1.21686E+00 -1.36620E+00 -3.58385E+00
  -4.87703E+00 -5.01831E+00 -4.14869E+00 -2.26519E+00  1.10361E+00  5.33016E+00  8.54233E+00  8.88225E+00  6.27491E+00  2.22567E+00
  -2.09996E+00 -6.22192E+00 -9.21807E+00 -9.65104E+00 -7.07060E+00 -2.83153E+00  1.25453E+00  4.10020E+00  5.62743E+00  5.97928E+00
   5.23832E+00  3.97502E+00  3.17006E+00  3.28753E+00  4.06148E+00  5.08040E+00  6.02572E+00  6.60058E+00  6.36516E+00  5.16219E+00
   3.34348E+00  1.55192E+00  3.80325E-01  3.49168E-01  1.61517E+00  3.65222E+00  5.58282E+00  6.83516E+00  7.31324E+00  7.29468E+00
   7.71332E+00  9.08830E+00  1.14015E+01  1.63913E+01  2.46575E+01  3.60355E+01  4.64610E+01  5.16671E+01  6.22472E+01  8.49863E+01
   1.08853E+02  1.15615E+02  9.99433E+01  7.24607E+01  4.64357E+01  2.82412E+01  1.63680E+01  9.45368E+00  7.22613E+00  6.24753E+00
   5.62925E+00  5.20615E+00  4.99195E+00  4.95000E+00  4.96372E+00  4.85391E+00  4.55981E+00  4.19449E+00  3.89641E+00  3.66859E+00
   3.50050E+00  3.43069E+00  3.47425E+00  3.56109E+00  3.61301E+00  3.60346E+00  3.56588E+00  3.52824E+00  3.49188E+00  3.49200E+00
   3.58608E+00  3.77650E+00  4.01607E+00  4.24032E+00  4.41695E+00  4.55171E+00  4.64587E+00  4.69920E+00  4.74090E+00  4.80752E+00
   4.90874E+00  5.02909E+00  5.14582E+00  5.24347E+00  5.31785E+00  5.36576E+00  5.38711E+00  5.39062E+00  5.38371E+00  5.37291E+00
   5.36363E+00  5.35900E+00  5.36158E+00  5.37502E+00  5.40515E+00  5.45751E+00  5.53649E+00  5.64478E+00  5.78595E+00  5.96541E+00
   6.19209E+00  6.48298E+00  6.85697E+00  7.25219E+00  7.68820E+00  8.19941E+00  8.62237E+00  8.73046E+00  8.50451E+00  8.17917E+00
   8.07424E+00  8.27958E+00  8.69267E+00  9.35604E+00  1.03837E+01  1.16369E+01  1.27942E+01  1.36360E+01  1.41647E+01  1.45282E+01
   1.48595E+01  1.51954E+01  1.55642E+01  1.59818E+01  1.64182E+01  1.68545E+01  1.72801E+01  1.76872E+01  1.80696E+01  1.84203E+01
   1.87323E+01  1.89985E+01  1.92132E+01  1.93718E+01  1.94703E+01  1.95049E+01  1.94727E+01  1.93721E+01  1.92038E+01  1.89700E+01
   1.86741E+01  1.83195E+01  1.79113E+01  1.74557E+01  1.69606E+01  1.64339E+01  1.58839E+01  1.53179E+01  1.47440E+01  1.41701E+01
   1.36045E+01  1.30542E+01  1.25256E+01  1.20236E+01  1.15536E+01  1.11202E+01  1.07283E+01  1.03810E+01  1.00810E+01  9.83035E+00
   9.63171E+00  9.48745E+00  9.39981E+00  9.36985E+00  9.39841E+00  9.48588E+00  9.63306E+00  9.83982E+00  1.01051E+01  1.04259E+01
   1.07985E+01  1.12176E+01  1.16773E+01  1.21696E+01  1.26846E+01  1.32104E+01  1.37342E+01  1.42426E+01  1.47220E+01  1.51584E+01
   1.55377E+01  1.58471E+01  1.60758E+01  1.62154E+01  1.62605E+01  1.62076E+01  1.60565E+01  1.58095E+01  1.54726E+01  1.50544E+01
   1.45654E+01  1.40168E+01  1.34211E+01  1.27911E+01  1.21401E+01  1.14806E+01  1.08239E+01  1.01792E+01  9.55469E+00  8.95701E+00
   8.39173E+00  7.86238E+00  7.37100E+00  6.91790E+00  6.50292E+00  6.12517E+00  5.78350E+00  5.47568E+00  5.19917E+00  4.95098E+00
   4.72876E+00  4.53020E+00  4.35328E+00  4.19547E+00  4.05448E+00  3.92808E+00  3.81494E+00  3.71373E+00  3.62334E+00  3.54217E+00
   3.46900E+00  3.40277E+00  3.34314E+00  3.28953E+00  3.24140E+00  3.19771E+00  3.15797E+00  3.12174E+00  3.08916E+00  3.05989E+00
   3.03358E+00  3.00950E+00  2.98755E+00  2.96764E+00  2.95003E+00  2.93439E+00  2.92043E+00  2.90764E+00  2.89616E+00  2.88603E+00
   2.87750E+00  2.87013E+00  2.86372E+00  2.85794E+00  2.85311E+00  2.84929E+00  2.84662E+00  2.84462E+00  2.84315E+00  2.84206E+00
   2.84177E+00  2.84229E+00  2.84361E+00  2.84525E+00  2.84721E+00  2.84950E+00  2.85253E+00  2.85618E+00  2.86036E+00  2.86464E+00
   2.86915E+00  2.87399E+00  2.87954E+00  2.88553E+00  2.89184E+00  2.89813E+00  2.90469E+00  2.91163E+00  2.91922E+00  2.92709E+00
   2.93513E+00  2.94314E+00  2.95151E+00  2.96033E+00  2.96973E+00  2.97929E+00  2.98897E+00  2.99872E+00
 NY background values follow
    -4.433E+00   -4.419E+00   -4.404E+00   -4.390E+00   -4.375E+00   -4.361E+00   -4.346E+00   -4.332E+00   -4.317E+00   -4.303E+00
    -4.289E+00   -4.274E+00   -4.260E+00   -4.245E+00   -4.231E+00   -4.216E+00   -4.202E+00   -4.187E+00   -4.173E+00   -4.158E+00
    -4.144E+00   -4.129E+00   -4.115E+00   -4.100E+00   -4.086E+00   -4.071E+00   -4.057E+00   -4.042E+00   -4.028E+00   -4.013E+00
    -3.999E+00   -3.984E+00   -3.970E+00   -3.955E+00   -3.940E+00   -3.926E+00   -3.911E+00   -3.897E+00   -3.882E+00   -3.868E+00
    -3.853E+00   -3.839E+00   -3.824E+00   -3.810E+00   -3.795E+00   -3.780E+00   -3.766E+00   -3.751E+00   -3.737E+00   -3.722E+00
    -3.708E+00   -3.693E+00   -3.679E+00   -3.664E+00   -3.649E+00   -3.635E+00   -3.620E+00   -3.606E+00   -3.591E+00   -3.576E+00
    -3.562E+00   -3.547E+00   -3.533E+00   -3.518E+00   -3.503E+00   -3.489E+00   -3.474E+00   -3.460E+00   -3.445E+00   -3.430E+00
    -3.416E+00   -3.401E+00   -3.387E+00   -3.372E+00   -3.357E+00   -3.343E+00   -3.328E+00   -3.313E+00   -3.299E+00   -3.284E+00
    -3.270E+00   -3.255E+00   -3.240E+00   -3.226E+00   -3.211E+00   -3.196E+00   -3.182E+00   -3.167E+00   -3.152E+00   -3.138E+00
    -3.123E+00   -3.108E+00   -3.094E+00   -3.079E+00   -3.064E+00   -3.050E+00   -3.035E+00   -3.020E+00   -3.006E+00   -2.991E+00
    -2.976E+00   -2.962E+00   -2.947E+00   -2.932E+00   -2.918E+00   -2.903E+00   -2.888E+00   -2.874E+00   -2.859E+00   -2.844E+00
    -2.830E+00   -2.815E+00   -2.800E+00   -2.785E+00   -2.771E+00   -2.756E+00   -2.741E+00   -2.727E+00   -2.712E+00   -2.697E+00
    -2.683E+00   -2.668E+00   -2.653E+00   -2.638E+00   -2.624E+00   -2.609E+00   -2.594E+00   -2.580E+00   -2.565E+00   -2.550E+00
    -2.535E+00   -2.521E+00   -2.506E+00   -2.491E+00   -2.476E+00   -2.462E+00   -2.447E+00   -2.432E+00   -2.417E+00   -2.403E+00
    -2.388E+00   -2.373E+00   -2.359E+00   -2.344E+00   -2.329E+00   -2.314E+00   -2.300E+00   -2.285E+00   -2.270E+00   -2.255E+00
    -2.240E+00   -2.226E+00   -2.211E+00   -2.196E+00   -2.181E+00   -2.167E+00   -2.152E+00   -2.137E+00   -2.122E+00   -2.108E+00
    -2.093E+00   -2.078E+00   -2.063E+00   -2.049E+00   -2.034E+00   -2.019E+00   -2.004E+00   -1.989E+00   -1.975E+00   -1.960E+00
    -1.945E+00   -1.930E+00   -1.915E+00   -1.901E+00   -1.886E+00   -1.871E+00   -1.856E+00   -1.841E+00   -1.827E+00   -1.812E+00
    -1.797E+00   -1.782E+00   -1.767E+00   -1.753E+00   -1.738E+00   -1.723E+00   -1.708E+00   -1.693E+00   -1.679E+00   -1.664E+00
    -1.649E+00   -1.634E+00   -1.619E+00   -1.605E+00   -1.590E+00   -1.575E+00   -1.560E+00   -1.545E+00   -1.530E+00   -1.516E+00
    -1.501E+00   -1.486E+00   -1.471E+00   -1.456E+00   -1.441E+00   -1.427E+00   -1.412E+00   -1.397E+00   -1.382E+00   -1.367E+00
    -1.352E+00   -1.338E+00   -1.323E+00   -1.308E+00   -1.293E+00   -1.278E+00   -1.263E+00   -1.248E+00   -1.234E+00   -1.219E+00
    -1.204E+00   -1.189E+00   -1.174E+00   -1.159E+00   -1.144E+00   -1.130E+00   -1.115E+00   -1.100E+00   -1.085E+00   -1.070E+00
    -1.055E+00   -1.040E+00   -1.026E+00   -1.011E+00   -9.959E-01   -9.810E-01   -9.661E-01   -9.512E-01   -9.364E-01   -9.215E-01
    -9.066E-01   -8.918E-01   -8.769E-01   -8.620E-01   -8.471E-01   -8.323E-01   -8.174E-01   -8.025E-01   -7.876E-01   -7.728E-01
    -7.579E-01   -7.430E-01   -7.281E-01   -7.132E-01   -6.984E-01   -6.835E-01   -6.686E-01   -6.537E-01   -6.388E-01   -6.239E-01
    -6.091E-01   -5.942E-01   -5.793E-01   -5.644E-01   -5.495E-01   -5.346E-01   -5.197E-01   -5.048E-01   -4.899E-01   -4.750E-01
    -4.602E-01   -4.453E-01   -4.304E-01   -4.155E-01   -4.006E-01   -3.857E-01   -3.708E-01   -3.559E-01   -3.410E-01   -3.261E-01
    -3.112E-01   -2.963E-01   -2.814E-01   -2.665E-01   -2.516E-01   -2.367E-01   -2.218E-01   -2.069E-01   -1.920E-01   -1.771E-01
    -1.622E-01   -1.473E-01   -1.324E-01   -1.175E-01   -1.026E-01   -8.769E-02   -7.278E-02   -5.788E-02   -4.298E-02   -2.807E-02
    -1.317E-02    1.740E-03    1.665E-02    3.155E-02    4.646E-02    6.136E-02    7.627E-02    9.118E-02    1.061E-01    1.210E-01
     1.359E-01    1.508E-01    1.657E-01    1.806E-01    1.955E-01    2.104E-01    2.253E-01    2.403E-01    2.552E-01    2.701E-01
     2.850E-01    2.999E-01    3.148E-01    3.297E-01    3.446E-01    3.595E-01    3.744E-01    3.894E-01    4.043E-01    4.192E-01
     4.341E-01    4.490E-01    4.639E-01    4.788E-01    4.937E-01    5.086E-01    5.235E-01    5.384E-01    5.534E-01    5.683E-01
     5.832E-01    5.981E-01    6.130E-01    6.279E-01    6.428E-01    6.577E-01    6.726E-01    6.875E-01    7.024E-01    7.173E-01
     7.323E-01    7.472E-01    7.621E-01    7.770E-01    7.919E-01    8.068E-01    8.217E-01    8.366E-01    8.515E-01    8.664E-01
     8.813E-01    8.962E-01    9.111E-01    9.260E-01    9.409E-01    9.558E-01    9.707E-01    9.857E-01    1.001E+00    1.015E+00
     1.030E+00    1.045E+00    1.060E+00    1.075E+00    1.090E+00    1.105E+00    1.120E+00    1.135E+00    1.150E+00    1.164E+00
     1.179E+00    1.194E+00    1.209E+00    1.224E+00    1.239E+00    1.254E+00    1.269E+00    1.284E+00    1.299E+00    1.313E+00
     1.328E+00    1.343E+00    1.358E+00    1.373E+00    1.388E+00    1.403E+00    1.418E+00    1.433E+00    1.447E+00    1.462E+00
     1.477E+00    1.492E+00    1.507E+00    1.522E+00    1.537E+00    1.552E+00    1.567E+00    1.581E+00    1.596E+00    1.611E+00
     1.626E+00    1.641E+00    1.656E+00    1.671E+00    1.686E+00    1.700E+00    1.715E+00    1.730E+00    1.745E+00    1.760E+00
     1.775E+00    1.790E+00    1.805E+00    1.819E+00    1.834E+00    1.849E+00    1.864E+00    1.879E+00    1.894E+00    1.909E+00
     1.923E+00    1.938E+00    1.953E+00    1.968E+00    1.983E+00    1.998E+00    2.013E+00    2.027E+00    2.042E+00    2.057E+00
     2.072E+00    2.087E+00    2.102E+00    2.117E+00    2.131E+00    2.146E+00    2.161E+00    2.176E+00    2.191E+00    2.206E+00
     2.221E+00    2.235E+00    2.250E+00    2.265E+00    2.280E+00    2.295E+00    2.310E+00    2.324E+00    2.339E+00    2.354E+00
     2.369E+00    2.384E+00    2.399E+00    2.413E+00    2.428E+00    2.443E+00    2.458E+00    2.473E+00    2.487E+00    2.502E+00
     2.517E+00    2.532E+00    2.547E+00    2.562E+00    2.576E+00    2.591E+00    2.606E+00    2.621E+00    2.636E+00    2.650E+00
     2.665E+00    2.680E+00    2.695E+00    2.710E+00    2.724E+00    2.739E+00    2.754E+00    2.769E+00    2.784E+00    2.798E+00
     2.813E+00    2.828E+00    2.843E+00    2.858E+00    2.872E+00    2.887E+00    2.902E+00    2.917E+00
 Ala      Conc. = 8.32E+01
