 LCModel (Version 6.3-1L) Copyright: S.W. Provencher.          Ref.: Magn. Reson. Med. 30:672-679 (1993).                
 Slice#1 Row#3 Col#7  K_02_press_1_raw_act
 36 lines in following concentration table = NCONC+1
    Conc.  %SD /Cr+PCr  Metabolite                                         
   77.292 113% 6.6E-02 Ala                                                 
   40.490 465% 3.5E-02 Asp                                                 
  659.995  23%   0.568 Cr                                                  
  502.832  31%   0.432 PCr                                                 
    0.000 999%   0.000 GABA                                                
  143.898  85%   0.124 Glc                                                 
  311.920  55%   0.268 Gln                                                 
 1.40E+03  14%   1.204 Glu                                                 
  366.751   6%   0.315 GPC                                                 
    0.000 999%   0.000 PCh                                                 
  223.326  29%   0.192 GSH                                                 
 1.08E+03  19%   0.928 Ins                                                 
  170.290  54%   0.146 Lac                                                 
 1.72E+03   6%   1.476 NAA                                                 
  242.738  39%   0.209 NAAG                                                
   32.877  72% 2.8E-02 Scyllo                                              
   72.804 224% 6.3E-02 Tau                                                 
  310.933  33%   0.267 -CrCH2                                              
  366.751   6%   0.315 GPC+PCh                                             
 1.96E+03   5%   1.685 NAA+NAAG                                            
 1.16E+03   5%   1.000 Cr+PCr                                              
 1.71E+03  15%   1.472 Glu+Gln                                             
 3.43E+03  35%   2.949 Lip13a                                              
    0.000 999%   0.000 Lip13b                                              
  599.583  87%   0.516 Lip09                                               
 3.09E+03  19%   2.655 MM09                                                
  158.925 222%   0.137 Lip20                                               
 3.90E+03  13%   3.353 MM20                                                
 1.29E+03  37%   1.113 MM12                                                
 4.42E+03  21%   3.799 MM14                                                
 1.91E+03  26%   1.643 MM17                                                
 3.43E+03  35%   2.949 Lip13a+Lip13b                                       
 9.14E+03   8%   7.861 MM14+Lip13a+Lip13b+MM12                             
 3.69E+03   9%   3.170 MM09+Lip09                                          
 4.06E+03  11%   3.490 MM20+Lip20                                          
   6 lines in following misc. output table
  FWHM = 0.038 ppm    S/N =  11                                            
  Data shift = 0.000 ppm                                                   
  Ph:  14 deg      11.1 deg/ppm                                            
  alphaB,S = 4.5E+00,   3.7E+01                                            
   14 spline knots.   Ns = 5(1)                                            
  ( 5) 3 infls.   ( 3) 1 extrs.                                            
  498 points on ppm-axis = NY
      4.000000     3.992357     3.984714     3.977070     3.969427     3.961784     3.954141     3.946497     3.938854     3.931211
      3.923568     3.915925     3.908281     3.900638     3.892995     3.885352     3.877708     3.870065     3.862422     3.854779
      3.847136     3.839492     3.831849     3.824206     3.816563     3.808919     3.801276     3.793633     3.785990     3.778347
      3.770703     3.763060     3.755417     3.747774     3.740130     3.732487     3.724844     3.717201     3.709558     3.701914
      3.694271     3.686628     3.678985     3.671341     3.663698     3.656055     3.648412     3.640769     3.633125     3.625482
      3.617839     3.610196     3.602552     3.594909     3.587266     3.579623     3.571980     3.564336     3.556693     3.549050
      3.541407     3.533763     3.526120     3.518477     3.510834     3.503191     3.495547     3.487904     3.480261     3.472618
      3.464974     3.457331     3.449688     3.442045     3.434402     3.426758     3.419115     3.411472     3.403829     3.396185
      3.388542     3.380899     3.373256     3.365613     3.357969     3.350326     3.342683     3.335040     3.327396     3.319753
      3.312110     3.304467     3.296824     3.289180     3.281537     3.273894     3.266251     3.258607     3.250964     3.243321
      3.235678     3.228034     3.220391     3.212748     3.205105     3.197462     3.189818     3.182175     3.174532     3.166889
      3.159245     3.151602     3.143959     3.136316     3.128673     3.121029     3.113386     3.105743     3.098100     3.090456
      3.082813     3.075170     3.067527     3.059884     3.052240     3.044597     3.036954     3.029311     3.021667     3.014024
      3.006381     2.998738     2.991095     2.983451     2.975808     2.968165     2.960522     2.952878     2.945235     2.937592
      2.929949     2.922306     2.914662     2.907019     2.899376     2.891733     2.884089     2.876446     2.868803     2.861160
      2.853517     2.845873     2.838230     2.830587     2.822944     2.815300     2.807657     2.800014     2.792371     2.784728
      2.777084     2.769441     2.761798     2.754155     2.746511     2.738868     2.731225     2.723582     2.715939     2.708295
      2.700652     2.693009     2.685366     2.677722     2.670079     2.662436     2.654793     2.647150     2.639506     2.631863
      2.624220     2.616577     2.608933     2.601290     2.593647     2.586004     2.578361     2.570717     2.563074     2.555431
      2.547788     2.540144     2.532501     2.524858     2.517215     2.509572     2.501928     2.494285     2.486642     2.478999
      2.471355     2.463712     2.456069     2.448426     2.440783     2.433139     2.425496     2.417853     2.410210     2.402566
      2.394923     2.387280     2.379637     2.371994     2.364350     2.356707     2.349064     2.341421     2.333777     2.326134
      2.318491     2.310848     2.303205     2.295561     2.287918     2.280275     2.272632     2.264988     2.257345     2.249702
      2.242059     2.234416     2.226772     2.219129     2.211486     2.203843     2.196199     2.188556     2.180913     2.173270
      2.165627     2.157983     2.150340     2.142697     2.135054     2.127410     2.119767     2.112124     2.104481     2.096838
      2.089194     2.081551     2.073908     2.066265     2.058621     2.050978     2.043335     2.035692     2.028049     2.020405
      2.012762     2.005119     1.997476     1.989833     1.982190     1.974546     1.966903     1.959260     1.951617     1.943974
      1.936331     1.928688     1.921045     1.913402     1.905759     1.898115     1.890472     1.882829     1.875186     1.867543
      1.859900     1.852257     1.844614     1.836971     1.829327     1.821684     1.814041     1.806398     1.798755     1.791112
      1.783469     1.775826     1.768183     1.760540     1.752896     1.745253     1.737610     1.729967     1.722324     1.714681
      1.707038     1.699395     1.691752     1.684108     1.676465     1.668822     1.661179     1.653536     1.645893     1.638250
      1.630607     1.622964     1.615321     1.607677     1.600034     1.592391     1.584748     1.577105     1.569462     1.561819
      1.554176     1.546533     1.538890     1.531246     1.523603     1.515960     1.508317     1.500674     1.493031     1.485388
      1.477745     1.470102     1.462458     1.454815     1.447172     1.439529     1.431886     1.424243     1.416600     1.408957
      1.401314     1.393671     1.386027     1.378384     1.370741     1.363098     1.355455     1.347812     1.340169     1.332526
      1.324883     1.317240     1.309596     1.301953     1.294310     1.286667     1.279024     1.271381     1.263738     1.256095
      1.248452     1.240808     1.233165     1.225522     1.217879     1.210236     1.202593     1.194950     1.187307     1.179664
      1.172021     1.164377     1.156734     1.149091     1.141448     1.133805     1.126162     1.118519     1.110876     1.103233
      1.095590     1.087946     1.080303     1.072660     1.065017     1.057374     1.049731     1.042088     1.034445     1.026802
      1.019158     1.011515     1.003872     0.996229     0.988586     0.980943     0.973300     0.965657     0.958014     0.950371
      0.942727     0.935084     0.927441     0.919798     0.912155     0.904512     0.896869     0.889226     0.881583     0.873940
      0.866296     0.858653     0.851010     0.843367     0.835724     0.828081     0.820438     0.812795     0.805152     0.797508
      0.789865     0.782222     0.774579     0.766936     0.759293     0.751650     0.744007     0.736364     0.728721     0.721077
      0.713434     0.705791     0.698148     0.690505     0.682862     0.675219     0.667576     0.659933     0.652290     0.644646
      0.637003     0.629360     0.621717     0.614074     0.606431     0.598788     0.591145     0.583502     0.575858     0.568215
      0.560572     0.552929     0.545286     0.537643     0.530000     0.522357     0.514714     0.507071     0.499427     0.491784
      0.484141     0.476498     0.468855     0.461212     0.453569     0.445925     0.438282     0.430639     0.422996     0.415353
      0.407710     0.400067     0.392424     0.384780     0.377137     0.369494     0.361851     0.354208     0.346565     0.338922
      0.331278     0.323635     0.315992     0.308349     0.300706     0.293063     0.285420     0.277777     0.270133     0.262490
      0.254847     0.247204     0.239561     0.231918     0.224275     0.216631     0.208988     0.201345
 NY phased data points follow
   3.49023E+00  7.59364E+00  4.44808E+00  6.62500E+00  1.08949E+01  3.87094E+00  6.22382E+00  1.78039E+01  1.31864E+01  2.32172E+01
   2.69204E+01  2.69856E+01  2.46433E+01  2.15722E+01  1.91547E+01  1.20752E+01  1.38929E+01  7.06174E+00  9.87347E+00 -1.66635E+00
   4.91134E+00  8.33562E+00 -1.71188E+00  5.31164E+00  5.37898E+00  8.35437E+00  6.98837E+00  6.63973E+00  5.06680E+00  1.53034E+01
   2.95172E+00  1.41375E+01  1.14334E+01  1.04487E+01  7.73330E+00  4.96119E+00  7.05901E+00  5.87830E+00  3.39059E+00  1.30550E+01
   5.44113E+00  9.63447E+00  5.57200E+00  7.72465E+00  1.08308E+01  9.49212E+00  1.05872E+01  1.46210E+01  1.92796E+01  1.92838E+01
   9.53633E+00  6.41340E+00  1.02453E+01  8.33011E+00  4.40711E+00  5.83039E+00  8.87045E+00  8.56043E+00  1.18604E+01  8.02358E+00
   1.69381E+00  1.64966E+00  5.46992E+00  9.71284E+00 -3.44338E+00  8.38272E-01 -3.17036E+00  1.20831E+00  3.26536E+00  4.43671E+00
  -1.42005E+00  4.15744E+00  3.04689E+00  1.09995E+00 -1.10357E-01  4.56285E+00  7.61859E+00  3.05993E+00  1.84065E+00  5.11856E+00
   6.10292E+00  2.58401E+00  4.89007E+00  1.75341E-01  2.27019E+00  2.06684E+00 -4.55590E-01 -2.46308E+00  6.64330E+00  4.70935E+00
   5.98887E+00  5.32042E+00  7.22828E+00  3.69920E+00  1.18585E+00  9.06346E-01  4.77829E+00 -7.74298E-01  1.02504E+01  9.67627E+00
   2.36742E+01  2.49534E+01  3.95631E+01  4.63851E+01  5.68143E+01  3.52407E+01  2.11820E+01  6.05559E+00  4.04854E+00  1.71096E-01
   7.26232E-01  3.60457E+00  7.01592E+00  7.73864E+00  8.70394E+00  8.83299E+00  2.79251E+00  6.82784E+00  2.80394E+00  6.96958E+00
   9.02996E+00  7.81247E+00  1.34033E+01  1.53821E+01  2.44686E+01  3.14091E+01  4.21423E+01  5.71598E+01  5.90458E+01  4.31771E+01
   2.89940E+01  1.36058E+01  1.35356E+01  8.53508E+00  1.02993E+01  1.20414E+01  9.48872E+00  2.50687E+00  5.22822E-02  9.74667E-01
   1.00401E+01  3.09642E+00  1.56670E-01  3.15897E+00  1.60892E+00 -4.25059E-01  4.76790E+00  5.48009E+00  2.07254E-01  3.33639E+00
  -7.44587E+00 -2.05842E+00  1.48258E+00  2.10923E+00  2.09339E+00  4.30986E+00  4.82860E+00 -1.77344E+00 -1.09151E+00  3.20530E+00
   6.63010E+00  6.16634E-01  3.36178E+00  1.76309E+00 -1.79630E+00 -4.18097E+00  3.86816E+00 -3.51548E+00 -5.07407E+00 -3.58403E+00
  -2.53279E+00 -7.91670E+00 -5.88638E+00 -3.72049E+00 -1.17393E+01 -1.13439E+01 -9.99464E+00 -9.81981E+00 -9.61201E+00 -7.29706E+00
  -9.38450E+00 -3.02012E+00 -9.98789E+00 -9.46544E+00 -8.05871E+00 -6.14337E+00  1.16953E+00  3.13320E-01 -9.74911E+00 -5.12304E+00
   4.01893E+00 -1.13946E+00 -4.03595E+00 -5.74967E+00 -4.64999E+00 -7.08343E+00 -3.72042E+00 -5.01154E+00 -8.74959E+00 -4.97787E+00
  -8.14650E+00  1.16981E+00  7.88410E-01 -3.02960E+00  5.36434E+00  2.25003E+00 -4.62582E-02 -9.93088E+00  5.45802E-02 -1.36399E+00
  -1.37689E+00  2.46007E+00  6.39502E-01  1.47732E+01  1.35885E+01  1.67749E+01  1.18492E+01  7.23555E+00 -2.57568E-01 -3.02556E+00
  -4.85797E+00 -9.19251E+00 -9.65814E+00  3.30884E+00 -7.61562E+00  1.04725E+01  9.66425E+00  1.48167E+01  1.33784E+01  1.04967E+01
   1.47434E+01  7.88379E+00  3.10086E+00  6.50560E+00  1.33204E+01  7.09127E+00  1.21754E+01  3.35073E+00  8.35583E+00  1.28497E+01
   4.96088E+00  4.07232E+00  6.33525E+00  4.54451E+00  4.24855E+00  1.63538E+01  1.68087E+01  2.17448E+01  1.79693E+01  2.16007E+01
   2.59599E+01  2.35521E+01  2.98650E+01  2.93725E+01  2.40445E+01  3.80449E+01  4.85067E+01  4.83038E+01  6.88471E+01  8.69133E+01
   9.67498E+01  1.00396E+02  7.56302E+01  4.38768E+01  1.88239E+01  7.02727E+00  1.21178E+01  8.19191E+00  4.07253E+00 -9.70063E-01
   3.94161E+00  6.18791E+00  1.67090E+00  4.87995E+00  4.47477E+00  1.26841E+00  4.31288E+00  3.05294E+00  4.24674E+00 -2.29975E+00
   1.70885E+00  2.60924E+00  4.14760E+00 -1.67532E+00  7.13651E+00  3.60959E+00  1.93402E+00  3.53277E+00  9.76849E+00  5.46544E+00
  -8.14365E-01  4.21369E+00  4.23532E+00  6.17631E+00  3.65664E+00  7.19151E+00  4.40604E+00  4.33612E+00  4.85375E+00  1.21178E+01
   1.10585E+00  9.98601E+00  3.84591E+00  5.77585E+00  1.14032E+01  1.10703E+01  1.51900E+01  1.59965E+01  1.41880E+01  9.83511E+00
   9.63559E+00  1.61037E+01  1.23548E+01  2.05624E+01  1.84711E+01  1.52837E+01  1.24533E+01  1.87118E+01  1.78260E+01  2.00167E+01
   2.15745E+01  1.89039E+01  1.56756E+01  2.00867E+01  2.23728E+01  2.44414E+01  2.01310E+01  2.32944E+01  2.28660E+01  1.70178E+01
   2.42717E+01  1.95503E+01  2.04969E+01  2.29942E+01  2.37115E+01  3.02945E+01  2.05287E+01  2.17618E+01  3.05226E+01  2.63708E+01
   2.33677E+01  2.78204E+01  2.92686E+01  2.82931E+01  3.12004E+01  3.28175E+01  3.93713E+01  3.29229E+01  3.11377E+01  2.64926E+01
   2.79981E+01  2.80311E+01  2.06337E+01  2.31207E+01  2.62973E+01  2.60711E+01  2.92844E+01  2.53914E+01  2.56518E+01  2.11591E+01
   2.00817E+01  2.01283E+01  2.67494E+01  2.82655E+01  2.44272E+01  1.95398E+01  2.02271E+01  1.89989E+01  1.99095E+01  1.71102E+01
   1.96502E+01  1.76714E+01  1.77631E+01  2.09330E+01  1.93176E+01  1.43275E+01  8.74991E+00  1.94656E+01  2.15630E+01  1.68989E+01
   2.10133E+01  1.60536E+01  1.70340E+01  1.87130E+01  1.26613E+01  2.15580E+01  1.81223E+01  1.12901E+01  2.25467E+01  1.84432E+01
   2.43972E+01  2.60423E+01  1.61927E+01  2.45922E+01  2.33550E+01  2.26450E+01  2.76910E+01  2.16767E+01  2.17336E+01  1.65590E+01
   3.16925E+01  2.28687E+01  2.24772E+01  2.66055E+01  2.37220E+01  2.59743E+01  2.08895E+01  2.14234E+01  2.08004E+01  2.06000E+01
   1.81595E+01  1.98501E+01  1.66026E+01  1.89172E+01  1.72862E+01  8.05192E+00  1.02055E+01  8.86828E+00  7.39686E+00  1.16322E+01
   5.70826E+00  8.73672E+00  6.79803E+00  7.46871E+00  6.08723E+00  4.63550E+00  2.45664E+00  6.40676E-01  6.95548E+00  9.12025E+00
   4.00010E+00  6.21051E+00  4.96706E+00  2.64425E+00  2.47698E+00  4.00174E+00  2.04154E+00  6.46378E+00  2.94197E+00  6.70295E+00
   4.11123E+00  2.63160E+00  5.65397E+00  1.70187E+00  5.73688E+00  3.71110E-01  8.29733E-01 -1.09113E+00 -4.91018E+00  5.48360E+00
   4.92904E+00  5.18142E+00 -2.38081E+00  2.13363E+00 -1.79532E+00  5.71242E+00 -6.50226E+00  3.21707E+00  1.17851E+00 -1.96918E+00
   3.59010E-01  8.96273E-01  2.47388E+00  1.22210E+00  3.39316E+00 -1.20398E+00  2.82899E+00  2.43970E-01  2.12139E+00  5.97582E+00
  -1.47625E+00 -5.58201E+00 -1.38880E+00 -5.88277E+00 -7.00223E-01 -2.97256E+00  1.40788E+00  5.66990E+00  1.23952E+00  4.32309E+00
  -7.07610E-02  1.92945E+00  6.94480E+00 -2.97252E+00 -2.15125E+00 -6.81012E-01 -1.16479E+00 -9.49626E-01  4.92923E+00 -1.15571E+00
   9.93113E-01  2.22852E+00  5.36709E-01 -2.92528E+00 -2.24777E+00  5.63931E+00  4.55209E+00  2.11461E+00
 NY points of the fit to the data follow
   4.53123E+00  4.54418E+00  4.92290E+00  5.55950E+00  6.67223E+00  8.18587E+00  1.02777E+01  1.37576E+01  1.75721E+01  2.12752E+01
   2.49303E+01  2.74797E+01  2.73724E+01  2.35966E+01  1.70795E+01  1.06683E+01  6.79959E+00  5.59184E+00  5.42443E+00  5.31568E+00
   5.35063E+00  5.56880E+00  5.63798E+00  5.42257E+00  5.15626E+00  5.01941E+00  4.72775E+00  4.88848E+00  6.37592E+00  9.41766E+00
   1.28146E+01  1.48265E+01  1.44725E+01  1.21237E+01  8.92087E+00  5.81533E+00  3.36498E+00  2.32994E+00  2.87416E+00  4.13195E+00
   5.03105E+00  5.44703E+00  6.00163E+00  7.07432E+00  8.54420E+00  1.03784E+01  1.25402E+01  1.43783E+01  1.46076E+01  1.23660E+01
   8.41749E+00  4.69540E+00  2.54675E+00  1.92605E+00  2.22817E+00  2.95452E+00  3.76099E+00  4.57621E+00  5.38263E+00  6.18187E+00
   6.73213E+00  6.56943E+00  5.52640E+00  3.95767E+00  2.57995E+00  1.90232E+00  1.99598E+00  2.71244E+00  3.58512E+00  4.29384E+00
   4.83731E+00  5.27044E+00  5.55640E+00  5.59946E+00  5.36996E+00  4.96738E+00  4.53611E+00  4.13472E+00  3.72469E+00  3.35679E+00
   3.15100E+00  3.19169E+00  3.32217E+00  3.33219E+00  3.26145E+00  3.09902E+00  2.62719E+00  1.70356E+00  5.39587E-01 -2.53765E-01
  -1.73159E-01  7.21833E-01  1.84756E+00  2.65739E+00  3.12488E+00  3.39151E+00  3.62711E+00  4.35932E+00  7.63706E+00  1.31860E+01
   1.95856E+01  2.90007E+01  4.08281E+01  4.98904E+01  4.98464E+01  3.86230E+01  2.19155E+01  8.57081E+00  2.67805E+00  1.72643E+00
   1.88585E+00  2.02350E+00  2.19604E+00  2.39415E+00  2.58353E+00  2.75818E+00  2.94456E+00  3.16157E+00  3.42929E+00  3.80636E+00
   4.44904E+00  5.96669E+00  9.97824E+00  1.63832E+01  2.38807E+01  3.37422E+01  4.56065E+01  5.48984E+01  5.56169E+01  4.54100E+01
   2.90049E+01  1.48429E+01  7.56661E+00  5.37720E+00  4.48576E+00  3.36725E+00  2.29057E+00  1.77745E+00  1.95486E+00  2.60731E+00
   3.33609E+00  3.79681E+00  3.81469E+00  3.42758E+00  2.86152E+00  2.33575E+00  1.95147E+00  1.68470E+00  1.45679E+00  1.21708E+00
   9.65849E-01  7.26676E-01  5.01884E-01  3.18309E-01  2.24497E-01  1.81824E-01  7.57196E-02 -2.13009E-02 -2.78378E-01 -8.43560E-01
  -1.51163E+00 -2.03799E+00 -1.89938E+00 -1.02080E+00 -1.06916E-01  4.42538E-02 -7.36898E-01 -1.91730E+00 -2.82266E+00 -3.17307E+00
  -3.18841E+00 -3.27916E+00 -3.45267E+00 -3.69676E+00 -4.17907E+00 -4.68506E+00 -4.83297E+00 -4.26054E+00 -3.30767E+00 -2.78214E+00
  -3.08457E+00 -3.77249E+00 -4.10429E+00 -3.66258E+00 -2.99111E+00 -2.64581E+00 -2.39331E+00 -1.60034E+00 -5.63975E-02  1.78121E+00
   3.12711E+00  3.48778E+00  2.98597E+00  1.95493E+00  9.89102E-01  3.82601E-01  1.07232E-01  3.97124E-02  2.51595E-01  9.85106E-01
   2.19346E+00  3.60233E+00  4.77881E+00  5.49540E+00  5.28318E+00  3.88713E+00  1.63103E+00 -1.08206E+00 -3.57339E+00 -4.83404E+00
  -4.27049E+00 -1.89155E+00  1.40455E+00  5.24354E+00  9.01264E+00  1.14481E+01  1.09879E+01  6.99018E+00  1.13030E+00 -4.10979E+00
  -7.68449E+00 -9.30689E+00 -8.47338E+00 -4.84483E+00  6.96110E-01  5.94047E+00  8.98597E+00  9.75574E+00  9.32173E+00  8.43910E+00
   7.36399E+00  6.48957E+00  6.36780E+00  7.11246E+00  8.33428E+00  9.56539E+00  1.06300E+01  1.12142E+01  1.12123E+01  1.07144E+01
   9.94859E+00  9.41934E+00  9.71578E+00  1.10826E+01  1.31938E+01  1.53971E+01  1.70156E+01  1.77230E+01  1.77229E+01  1.74311E+01
   1.75578E+01  1.88716E+01  2.09684E+01  2.37369E+01  2.80040E+01  3.69106E+01  4.69746E+01  5.56945E+01  6.81935E+01  8.49548E+01
   9.79773E+01  9.60795E+01  7.53723E+01  4.62188E+01  2.38177E+01  1.40572E+01  1.16513E+01  1.06012E+01  9.59278E+00  8.73126E+00
   7.99377E+00  7.47404E+00  7.21251E+00  7.10957E+00  6.96848E+00  6.60232E+00  6.00401E+00  5.32522E+00  4.72270E+00  4.24825E+00
   3.88367E+00  3.62351E+00  3.46512E+00  3.37213E+00  3.28748E+00  3.17267E+00  3.04484E+00  2.94947E+00  2.90884E+00  2.93353E+00
   3.03598E+00  3.22202E+00  3.48278E+00  3.79424E+00  4.13382E+00  4.50214E+00  4.91113E+00  5.37205E+00  5.89315E+00  6.48081E+00
   7.14127E+00  7.86880E+00  8.64285E+00  9.43858E+00  1.02388E+01  1.10336E+01  1.18140E+01  1.25687E+01  1.32868E+01  1.39574E+01
   1.45723E+01  1.51252E+01  1.56125E+01  1.60334E+01  1.63925E+01  1.66983E+01  1.69634E+01  1.72016E+01  1.74288E+01  1.76627E+01
   1.79262E+01  1.82522E+01  1.86868E+01  1.91715E+01  1.96628E+01  2.02098E+01  2.07213E+01  2.10229E+01  2.10320E+01  2.08760E+01
   2.09197E+01  2.14236E+01  2.22546E+01  2.32597E+01  2.44197E+01  2.57135E+01  2.69500E+01  2.78406E+01  2.82721E+01  2.84177E+01
   2.85487E+01  2.88099E+01  2.92382E+01  2.96894E+01  2.99849E+01  3.02448E+01  3.03201E+01  2.98137E+01  2.84795E+01  2.65454E+01
   2.48840E+01  2.41288E+01  2.41576E+01  2.47167E+01  2.56689E+01  2.68669E+01  2.78500E+01  2.80497E+01  2.73666E+01  2.62585E+01
   2.52465E+01  2.44667E+01  2.37865E+01  2.31200E+01  2.24512E+01  2.17769E+01  2.10986E+01  2.04198E+01  1.97462E+01  1.90843E+01
   1.84426E+01  1.78301E+01  1.72567E+01  1.67313E+01  1.62629E+01  1.58602E+01  1.55320E+01  1.52863E+01  1.51302E+01  1.50689E+01
   1.51067E+01  1.52461E+01  1.54886E+01  1.58333E+01  1.62767E+01  1.68124E+01  1.74320E+01  1.81242E+01  1.88757E+01  1.96702E+01
   2.04891E+01  2.13115E+01  2.21162E+01  2.28811E+01  2.35848E+01  2.42060E+01  2.47254E+01  2.51258E+01  2.53942E+01  2.55207E+01
   2.54999E+01  2.53298E+01  2.50127E+01  2.45550E+01  2.39671E+01  2.32620E+01  2.24551E+01  2.15628E+01  2.06028E+01  1.95929E+01
   1.85511E+01  1.74938E+01  1.64360E+01  1.53905E+01  1.43689E+01  1.33806E+01  1.24334E+01  1.15326E+01  1.06819E+01  9.88310E+00
   9.13723E+00  8.44409E+00  7.80286E+00  7.21128E+00  6.66694E+00  6.16676E+00  5.70818E+00  5.28815E+00  4.90387E+00  4.55193E+00
   4.22946E+00  3.93359E+00  3.66225E+00  3.41305E+00  3.18396E+00  2.97258E+00  2.77724E+00  2.59629E+00  2.42876E+00  2.27322E+00
   2.12858E+00  1.99336E+00  1.86692E+00  1.74842E+00  1.63755E+00  1.53336E+00  1.43529E+00  1.34248E+00  1.25479E+00  1.17182E+00
   1.09350E+00  1.01912E+00  9.48384E-01  8.80785E-01  8.16484E-01  7.55223E-01  6.96986E-01  6.41156E-01  5.87628E-01  5.36108E-01
   4.86889E-01  4.39726E-01  3.94591E-01  3.50949E-01  3.08863E-01  2.68184E-01  2.29230E-01  1.91692E-01  1.55524E-01  1.20280E-01
   8.61703E-02  5.31199E-02  2.14101E-02 -9.33099E-03 -3.91366E-02 -6.83469E-02 -9.66518E-02 -1.24125E-01 -1.50565E-01 -1.76393E-01
  -2.01593E-01 -2.26392E-01 -2.50416E-01 -2.73778E-01 -2.96360E-01 -3.18600E-01 -3.40405E-01 -3.61906E-01 -3.82721E-01 -4.03039E-01
  -4.22813E-01 -4.42458E-01 -4.61786E-01 -4.80864E-01 -4.99347E-01 -5.17513E-01 -5.35353E-01 -5.53229E-01
 NY background values follow
     9.159E-01    9.041E-01    8.924E-01    8.806E-01    8.688E-01    8.571E-01    8.453E-01    8.335E-01    8.218E-01    8.100E-01
     7.982E-01    7.864E-01    7.747E-01    7.629E-01    7.511E-01    7.393E-01    7.275E-01    7.158E-01    7.040E-01    6.922E-01
     6.804E-01    6.686E-01    6.568E-01    6.450E-01    6.333E-01    6.215E-01    6.097E-01    5.979E-01    5.861E-01    5.743E-01
     5.625E-01    5.507E-01    5.389E-01    5.271E-01    5.153E-01    5.035E-01    4.917E-01    4.799E-01    4.681E-01    4.563E-01
     4.445E-01    4.328E-01    4.210E-01    4.092E-01    3.974E-01    3.856E-01    3.738E-01    3.620E-01    3.502E-01    3.384E-01
     3.266E-01    3.148E-01    3.030E-01    2.912E-01    2.794E-01    2.676E-01    2.558E-01    2.440E-01    2.322E-01    2.205E-01
     2.087E-01    1.969E-01    1.851E-01    1.734E-01    1.616E-01    1.498E-01    1.381E-01    1.263E-01    1.146E-01    1.028E-01
     9.111E-02    7.938E-02    6.765E-02    5.593E-02    4.421E-02    3.250E-02    2.079E-02    9.094E-03   -2.598E-03   -1.428E-02
    -2.596E-02   -3.763E-02   -4.930E-02   -6.095E-02   -7.260E-02   -8.424E-02   -9.587E-02   -1.075E-01   -1.191E-01   -1.307E-01
    -1.423E-01   -1.539E-01   -1.655E-01   -1.770E-01   -1.886E-01   -2.002E-01   -2.117E-01   -2.232E-01   -2.347E-01   -2.462E-01
    -2.577E-01   -2.692E-01   -2.807E-01   -2.921E-01   -3.036E-01   -3.150E-01   -3.264E-01   -3.378E-01   -3.492E-01   -3.606E-01
    -3.720E-01   -3.833E-01   -3.947E-01   -4.060E-01   -4.173E-01   -4.286E-01   -4.398E-01   -4.511E-01   -4.623E-01   -4.736E-01
    -4.848E-01   -4.960E-01   -5.071E-01   -5.183E-01   -5.294E-01   -5.406E-01   -5.517E-01   -5.627E-01   -5.738E-01   -5.849E-01
    -5.959E-01   -6.069E-01   -6.179E-01   -6.288E-01   -6.398E-01   -6.507E-01   -6.616E-01   -6.725E-01   -6.834E-01   -6.942E-01
    -7.050E-01   -7.158E-01   -7.266E-01   -7.373E-01   -7.481E-01   -7.588E-01   -7.694E-01   -7.801E-01   -7.907E-01   -8.013E-01
    -8.118E-01   -8.224E-01   -8.328E-01   -8.433E-01   -8.537E-01   -8.642E-01   -8.745E-01   -8.849E-01   -8.952E-01   -9.054E-01
    -9.157E-01   -9.259E-01   -9.360E-01   -9.461E-01   -9.562E-01   -9.663E-01   -9.763E-01   -9.863E-01   -9.962E-01   -1.006E+00
    -1.016E+00   -1.026E+00   -1.036E+00   -1.045E+00   -1.055E+00   -1.065E+00   -1.074E+00   -1.084E+00   -1.093E+00   -1.103E+00
    -1.112E+00   -1.121E+00   -1.131E+00   -1.140E+00   -1.149E+00   -1.158E+00   -1.168E+00   -1.177E+00   -1.186E+00   -1.195E+00
    -1.204E+00   -1.212E+00   -1.221E+00   -1.230E+00   -1.239E+00   -1.247E+00   -1.256E+00   -1.265E+00   -1.273E+00   -1.282E+00
    -1.290E+00   -1.299E+00   -1.307E+00   -1.315E+00   -1.324E+00   -1.332E+00   -1.340E+00   -1.348E+00   -1.356E+00   -1.364E+00
    -1.372E+00   -1.380E+00   -1.388E+00   -1.396E+00   -1.404E+00   -1.411E+00   -1.419E+00   -1.427E+00   -1.434E+00   -1.442E+00
    -1.449E+00   -1.457E+00   -1.464E+00   -1.471E+00   -1.479E+00   -1.486E+00   -1.493E+00   -1.500E+00   -1.508E+00   -1.515E+00
    -1.522E+00   -1.529E+00   -1.536E+00   -1.542E+00   -1.549E+00   -1.556E+00   -1.563E+00   -1.569E+00   -1.576E+00   -1.583E+00
    -1.589E+00   -1.596E+00   -1.602E+00   -1.609E+00   -1.615E+00   -1.621E+00   -1.628E+00   -1.634E+00   -1.640E+00   -1.646E+00
    -1.652E+00   -1.658E+00   -1.664E+00   -1.670E+00   -1.676E+00   -1.682E+00   -1.688E+00   -1.693E+00   -1.699E+00   -1.705E+00
    -1.710E+00   -1.716E+00   -1.722E+00   -1.727E+00   -1.732E+00   -1.738E+00   -1.743E+00   -1.748E+00   -1.754E+00   -1.759E+00
    -1.764E+00   -1.769E+00   -1.774E+00   -1.779E+00   -1.784E+00   -1.789E+00   -1.794E+00   -1.799E+00   -1.804E+00   -1.808E+00
    -1.813E+00   -1.818E+00   -1.822E+00   -1.827E+00   -1.831E+00   -1.836E+00   -1.840E+00   -1.845E+00   -1.849E+00   -1.853E+00
    -1.858E+00   -1.862E+00   -1.866E+00   -1.870E+00   -1.874E+00   -1.878E+00   -1.882E+00   -1.886E+00   -1.890E+00   -1.894E+00
    -1.898E+00   -1.902E+00   -1.906E+00   -1.909E+00   -1.913E+00   -1.917E+00   -1.921E+00   -1.924E+00   -1.928E+00   -1.931E+00
    -1.935E+00   -1.938E+00   -1.942E+00   -1.945E+00   -1.948E+00   -1.952E+00   -1.955E+00   -1.958E+00   -1.961E+00   -1.964E+00
    -1.968E+00   -1.971E+00   -1.974E+00   -1.977E+00   -1.980E+00   -1.983E+00   -1.986E+00   -1.989E+00   -1.991E+00   -1.994E+00
    -1.997E+00   -2.000E+00   -2.003E+00   -2.005E+00   -2.008E+00   -2.011E+00   -2.013E+00   -2.016E+00   -2.018E+00   -2.021E+00
    -2.023E+00   -2.026E+00   -2.028E+00   -2.031E+00   -2.033E+00   -2.036E+00   -2.038E+00   -2.040E+00   -2.042E+00   -2.045E+00
    -2.047E+00   -2.049E+00   -2.051E+00   -2.053E+00   -2.056E+00   -2.058E+00   -2.060E+00   -2.062E+00   -2.064E+00   -2.066E+00
    -2.068E+00   -2.070E+00   -2.072E+00   -2.074E+00   -2.075E+00   -2.077E+00   -2.079E+00   -2.081E+00   -2.083E+00   -2.084E+00
    -2.086E+00   -2.088E+00   -2.090E+00   -2.091E+00   -2.093E+00   -2.095E+00   -2.096E+00   -2.098E+00   -2.099E+00   -2.101E+00
    -2.102E+00   -2.104E+00   -2.106E+00   -2.107E+00   -2.108E+00   -2.110E+00   -2.111E+00   -2.113E+00   -2.114E+00   -2.115E+00
    -2.117E+00   -2.118E+00   -2.119E+00   -2.121E+00   -2.122E+00   -2.123E+00   -2.124E+00   -2.126E+00   -2.127E+00   -2.128E+00
    -2.129E+00   -2.130E+00   -2.132E+00   -2.133E+00   -2.134E+00   -2.135E+00   -2.136E+00   -2.137E+00   -2.138E+00   -2.139E+00
    -2.140E+00   -2.141E+00   -2.142E+00   -2.143E+00   -2.144E+00   -2.145E+00   -2.146E+00   -2.147E+00   -2.148E+00   -2.149E+00
    -2.150E+00   -2.151E+00   -2.151E+00   -2.152E+00   -2.153E+00   -2.154E+00   -2.155E+00   -2.156E+00   -2.156E+00   -2.157E+00
    -2.158E+00   -2.159E+00   -2.160E+00   -2.160E+00   -2.161E+00   -2.162E+00   -2.163E+00   -2.163E+00   -2.164E+00   -2.165E+00
    -2.165E+00   -2.166E+00   -2.167E+00   -2.167E+00   -2.168E+00   -2.169E+00   -2.169E+00   -2.170E+00   -2.171E+00   -2.171E+00
    -2.172E+00   -2.173E+00   -2.173E+00   -2.174E+00   -2.174E+00   -2.175E+00   -2.176E+00   -2.176E+00   -2.177E+00   -2.177E+00
    -2.178E+00   -2.179E+00   -2.179E+00   -2.180E+00   -2.180E+00   -2.181E+00   -2.181E+00   -2.182E+00   -2.182E+00   -2.183E+00
    -2.184E+00   -2.184E+00   -2.185E+00   -2.185E+00   -2.186E+00   -2.186E+00   -2.187E+00   -2.187E+00   -2.188E+00   -2.188E+00
    -2.189E+00   -2.189E+00   -2.190E+00   -2.190E+00   -2.191E+00   -2.191E+00   -2.192E+00   -2.192E+00   -2.193E+00   -2.193E+00
    -2.194E+00   -2.194E+00   -2.195E+00   -2.195E+00   -2.196E+00   -2.196E+00   -2.197E+00   -2.197E+00
 Ala      Conc. = 7.73E+01
