 LCModel (Version 6.3-1L) Copyright: S.W. Provencher.          Ref.: Magn. Reson. Med. 30:672-679 (1993).                
 Slice#1 Row#13 Col#13  K_02_press_1_raw_act
 36 lines in following concentration table = NCONC+1
    Conc.  %SD /Cr+PCr  Metabolite                                         
 5.07E+03   8%   0.000 Ala                                                 
    0.000 999%   0.000 Asp                                                 
    0.000 999%   0.000 Cr                                                  
    0.000 999%   0.000 PCr                                                 
    0.000 999%   0.000 GABA                                                
    0.000 999%   0.000 Glc                                                 
    0.000 999%   0.000 Gln                                                 
    0.000 999%   0.000 Glu                                                 
    0.000 999%   0.000 GPC                                                 
    0.000 999%   0.000 PCh                                                 
    0.000 999%   0.000 GSH                                                 
    0.000 999%   0.000 Ins                                                 
 3.53E+03  10%   0.000 Lac                                                 
    0.000 999%   0.000 NAA                                                 
    0.000 999%   0.000 NAAG                                                
    0.000 999%   0.000 Scyllo                                              
    0.000 999%   0.000 Tau                                                 
 5.88E-02 999%   0.000 -CrCH2                                              
    0.000 999%   0.000 GPC+PCh                                             
    0.000 999%   0.000 NAA+NAAG                                            
    0.000 999%   0.000 Cr+PCr                                              
    0.000 999%   0.000 Glu+Gln                                             
    0.000 999%   0.000 Lip13a                                              
    0.000 999%   0.000 Lip13b                                              
    0.000 999%   0.000 Lip09                                               
 1.01E+03   6%   0.000 MM09                                                
    0.000 999%   0.000 Lip20                                               
 1.52E+03   6%   0.000 MM20                                                
  304.238   6%   0.000 MM12                                                
  761.508   6%   0.000 MM14                                                
  380.729   6%   0.000 MM17                                                
    0.000 999%   0.000 Lip13a+Lip13b                                       
 1.07E+03   6%   0.000 MM14+Lip13a+Lip13b+MM12                             
 1.01E+03   6%   0.000 MM09+Lip09                                          
 1.52E+03   6%   0.000 MM20+Lip20                                          
   6 lines in following misc. output table
  FWHM = 0.183 ppm    S/N =   6                                            
  Data shift = 0.344 ppm                                                   
  Ph: -88 deg      79.5 deg/ppm                                            
  alphaB,S = 8.5E+01,   8.2E+02                                            
    7 spline knots.   Ns = 9(2)                                            
  (14) 2 infls.   ( 3) 1 extrs.                                            
  498 points on ppm-axis = NY
      4.000000     3.992357     3.984714     3.977070     3.969427     3.961784     3.954141     3.946497     3.938854     3.931211
      3.923568     3.915925     3.908281     3.900638     3.892995     3.885352     3.877708     3.870065     3.862422     3.854779
      3.847136     3.839492     3.831849     3.824206     3.816563     3.808919     3.801276     3.793633     3.785990     3.778347
      3.770703     3.763060     3.755417     3.747774     3.740130     3.732487     3.724844     3.717201     3.709558     3.701914
      3.694271     3.686628     3.678985     3.671341     3.663698     3.656055     3.648412     3.640769     3.633125     3.625482
      3.617839     3.610196     3.602552     3.594909     3.587266     3.579623     3.571980     3.564336     3.556693     3.549050
      3.541407     3.533763     3.526120     3.518477     3.510834     3.503191     3.495547     3.487904     3.480261     3.472618
      3.464974     3.457331     3.449688     3.442045     3.434402     3.426758     3.419115     3.411472     3.403829     3.396185
      3.388542     3.380899     3.373256     3.365613     3.357969     3.350326     3.342683     3.335040     3.327396     3.319753
      3.312110     3.304467     3.296824     3.289180     3.281537     3.273894     3.266251     3.258607     3.250964     3.243321
      3.235678     3.228034     3.220391     3.212748     3.205105     3.197462     3.189818     3.182175     3.174532     3.166889
      3.159245     3.151602     3.143959     3.136316     3.128673     3.121029     3.113386     3.105743     3.098100     3.090456
      3.082813     3.075170     3.067527     3.059884     3.052240     3.044597     3.036954     3.029311     3.021667     3.014024
      3.006381     2.998738     2.991095     2.983451     2.975808     2.968165     2.960522     2.952878     2.945235     2.937592
      2.929949     2.922306     2.914662     2.907019     2.899376     2.891733     2.884089     2.876446     2.868803     2.861160
      2.853517     2.845873     2.838230     2.830587     2.822944     2.815300     2.807657     2.800014     2.792371     2.784728
      2.777084     2.769441     2.761798     2.754155     2.746511     2.738868     2.731225     2.723582     2.715939     2.708295
      2.700652     2.693009     2.685366     2.677722     2.670079     2.662436     2.654793     2.647150     2.639506     2.631863
      2.624220     2.616577     2.608933     2.601290     2.593647     2.586004     2.578361     2.570717     2.563074     2.555431
      2.547788     2.540144     2.532501     2.524858     2.517215     2.509572     2.501928     2.494285     2.486642     2.478999
      2.471355     2.463712     2.456069     2.448426     2.440783     2.433139     2.425496     2.417853     2.410210     2.402566
      2.394923     2.387280     2.379637     2.371994     2.364350     2.356707     2.349064     2.341421     2.333777     2.326134
      2.318491     2.310848     2.303205     2.295561     2.287918     2.280275     2.272632     2.264988     2.257345     2.249702
      2.242059     2.234416     2.226772     2.219129     2.211486     2.203843     2.196199     2.188556     2.180913     2.173270
      2.165627     2.157983     2.150340     2.142697     2.135054     2.127410     2.119767     2.112124     2.104481     2.096838
      2.089194     2.081551     2.073908     2.066265     2.058621     2.050978     2.043335     2.035692     2.028049     2.020405
      2.012762     2.005119     1.997476     1.989833     1.982190     1.974546     1.966903     1.959260     1.951617     1.943974
      1.936331     1.928688     1.921045     1.913402     1.905759     1.898115     1.890472     1.882829     1.875186     1.867543
      1.859900     1.852257     1.844614     1.836971     1.829327     1.821684     1.814041     1.806398     1.798755     1.791112
      1.783469     1.775826     1.768183     1.760540     1.752896     1.745253     1.737610     1.729967     1.722324     1.714681
      1.707038     1.699395     1.691752     1.684108     1.676465     1.668822     1.661179     1.653536     1.645893     1.638250
      1.630607     1.622964     1.615321     1.607677     1.600034     1.592391     1.584748     1.577105     1.569462     1.561819
      1.554176     1.546533     1.538890     1.531246     1.523603     1.515960     1.508317     1.500674     1.493031     1.485388
      1.477745     1.470102     1.462458     1.454815     1.447172     1.439529     1.431886     1.424243     1.416600     1.408957
      1.401314     1.393671     1.386027     1.378384     1.370741     1.363098     1.355455     1.347812     1.340169     1.332526
      1.324883     1.317240     1.309596     1.301953     1.294310     1.286667     1.279024     1.271381     1.263738     1.256095
      1.248452     1.240808     1.233165     1.225522     1.217879     1.210236     1.202593     1.194950     1.187307     1.179664
      1.172021     1.164377     1.156734     1.149091     1.141448     1.133805     1.126162     1.118519     1.110876     1.103233
      1.095590     1.087946     1.080303     1.072660     1.065017     1.057374     1.049731     1.042088     1.034445     1.026802
      1.019158     1.011515     1.003872     0.996229     0.988586     0.980943     0.973300     0.965657     0.958014     0.950371
      0.942727     0.935084     0.927441     0.919798     0.912155     0.904512     0.896869     0.889226     0.881583     0.873940
      0.866296     0.858653     0.851010     0.843367     0.835724     0.828081     0.820438     0.812795     0.805152     0.797508
      0.789865     0.782222     0.774579     0.766936     0.759293     0.751650     0.744007     0.736364     0.728721     0.721077
      0.713434     0.705791     0.698148     0.690505     0.682862     0.675219     0.667576     0.659933     0.652290     0.644646
      0.637003     0.629360     0.621717     0.614074     0.606431     0.598788     0.591145     0.583502     0.575858     0.568215
      0.560572     0.552929     0.545286     0.537643     0.530000     0.522357     0.514714     0.507071     0.499427     0.491784
      0.484141     0.476498     0.468855     0.461212     0.453569     0.445925     0.438282     0.430639     0.422996     0.415353
      0.407710     0.400067     0.392424     0.384780     0.377137     0.369494     0.361851     0.354208     0.346565     0.338922
      0.331278     0.323635     0.315992     0.308349     0.300706     0.293063     0.285420     0.277777     0.270133     0.262490
      0.254847     0.247204     0.239561     0.231918     0.224275     0.216631     0.208988     0.201345
 NY phased data points follow
  -2.75422E+00 -1.19307E+00 -9.13119E-01 -7.64556E-01 -2.60558E+00  3.39307E-01 -8.77197E-01 -2.84847E+00 -1.33711E+00 -1.82387E+00
  -3.29984E+00 -2.43539E+00 -1.80804E+00 -2.25984E+00 -1.51703E+00 -1.67083E+00 -3.93746E+00 -2.57264E+00 -1.53422E+00 -9.87596E-01
  -8.72855E-01 -1.82817E+00 -6.87641E-01 -3.25448E+00 -1.71404E+00 -3.12478E+00 -2.43041E+00  3.55574E-01 -2.83905E-01 -2.68802E-02
  -2.15291E-01 -2.30104E+00  7.75013E-02 -1.44749E+00  1.06832E+00  1.67032E-01 -1.84594E+00 -1.61181E+00 -1.53951E+00 -1.40470E+00
  -1.94077E+00 -1.49265E+00 -1.80266E+00 -3.80044E+00 -2.85466E-01 -1.15730E+00 -1.63704E+00 -2.48363E+00  5.11119E-01 -1.44510E+00
  -9.85529E-01 -3.03778E-01  6.92105E-01 -9.99581E-01 -1.29178E+00 -9.63481E-01 -2.03560E+00 -2.26158E+00 -1.27875E+00 -1.03858E+00
  -1.57353E+00 -7.91824E-01 -3.50475E+00 -8.71920E-01 -6.46430E-01 -2.23271E+00 -8.19250E-01 -3.47826E-01 -9.61934E-01 -1.19992E+00
  -1.52378E+00 -3.84243E+00 -3.28589E+00 -2.42358E+00 -3.24950E+00 -2.88440E+00 -5.16290E-01 -1.72177E+00 -1.08401E+00 -3.54178E+00
  -1.56522E+00 -1.87579E+00 -2.60698E+00 -9.09793E-01 -2.28286E+00  6.26528E-01 -1.32471E+00 -2.34323E+00 -6.68454E-01 -8.25328E-01
  -1.95284E+00 -9.23807E-01 -3.11385E+00 -1.78014E+00 -3.77247E+00 -1.51665E+00 -2.49836E+00 -1.32050E+00 -2.66717E+00 -2.96957E+00
  -1.70928E+00 -9.87274E-01 -4.31385E-01 -1.97451E+00 -2.20049E+00  3.20469E-01 -2.95863E+00 -1.94317E+00 -2.79896E+00 -2.28065E+00
   9.02962E-01 -1.61220E+00 -1.43759E+00 -4.06525E-01  6.80611E-01 -1.66792E+00 -1.06425E+00 -2.87005E+00 -8.53923E-01 -1.38972E+00
  -2.17799E+00 -1.68616E+00 -1.72292E+00  2.45824E-01 -6.12105E-01 -1.60763E+00 -1.62292E+00 -2.18125E+00  1.11408E-02 -1.58932E+00
   8.74304E-01 -6.90235E-02 -1.46755E+00  4.60086E-01 -1.13675E+00 -1.48608E+00 -1.98485E+00 -1.59549E+00 -8.98974E-01 -1.85259E+00
  -3.77207E+00 -2.12786E+00 -2.05727E+00 -1.21106E+00 -2.14739E+00 -1.37159E+00 -9.69371E-01 -1.38692E+00 -1.93327E+00 -1.98448E+00
  -4.47779E-01 -7.05730E-01 -1.29861E-01  8.55696E-01 -2.43209E+00 -7.61226E-01 -1.08696E-01 -2.06806E+00  7.70838E-02 -1.17602E+00
  -2.07359E+00  2.93728E-01 -2.25132E+00 -1.02654E+00 -2.73965E-01 -1.23774E+00 -2.88890E+00 -5.34572E-01 -1.23367E+00 -1.34513E+00
  -5.84585E-01 -6.33702E-01  3.12087E-02 -6.94689E-01 -1.98337E+00 -9.87389E-01 -1.74511E+00 -2.57280E+00 -1.60365E+00 -1.55924E+00
  -2.46440E+00 -3.22124E-01 -1.39976E+00 -2.04041E-01 -3.15803E-01 -1.00791E+00  3.29839E-02 -4.77472E-01 -6.70832E-01 -3.16890E+00
   5.76353E-02 -1.69690E+00 -1.47259E+00 -1.86982E+00 -1.99336E+00 -1.70112E+00 -2.17994E+00 -1.36359E+00 -3.42858E-01 -1.09458E+00
  -9.20180E-01 -4.16754E-01 -1.77404E+00 -3.03962E-01 -1.16934E+00 -5.52417E-01  3.97224E-01 -1.24175E+00 -2.60156E+00 -1.60867E+00
  -4.15093E-01 -2.59914E-01 -4.84002E-01  8.97960E-01  5.98015E-01  1.27892E+00  4.19432E-01 -1.66114E-01  6.56381E-01 -4.06273E-01
  -1.32684E+00 -6.05639E-01 -2.31939E+00 -1.84266E+00 -6.89627E-01 -7.33134E-02 -1.33940E+00 -5.83787E-01 -1.07459E+00 -1.37729E+00
  -1.66638E+00 -1.46301E+00 -3.03807E+00  7.77030E-01  1.63824E-02  6.84705E-01 -3.83217E-01 -4.42860E-01 -9.70788E-01  8.19615E-02
   6.04918E-01 -5.79166E-01 -1.38308E-01 -4.37661E-01 -7.45589E-01  2.39440E-01 -1.47815E-01  1.26758E+00 -7.70023E-01  1.06283E+00
  -1.35396E-01  8.50505E-02  4.49042E-01 -1.50152E+00 -1.01593E+00  1.06036E-01 -3.29854E-01 -1.28657E+00  8.36643E-01  7.09803E-01
  -1.61075E+00 -6.15143E-01 -2.93314E+00 -1.09852E+00 -3.04944E+00 -7.85475E-01 -1.24614E+00 -1.88620E+00 -2.07263E+00 -1.63335E+00
  -1.58520E+00 -8.20360E-01 -1.48111E+00 -3.05476E+00 -4.46612E+00 -1.75420E+00 -3.55329E+00 -4.64567E+00 -1.52810E+00 -3.33771E+00
  -3.45293E+00 -2.14215E+00  7.97601E-01 -2.48577E+00 -2.25705E+00 -1.72232E+00 -2.36374E+00 -1.37156E+00 -9.79198E-01 -1.10624E+00
   1.46794E+00  1.26289E+00  2.58361E+00  3.87514E+00  5.24368E+00  5.80199E+00  6.26703E+00  7.30140E+00  1.07372E+01  8.95095E+00
   9.68835E+00  9.97386E+00  1.08303E+01  1.18689E+01  1.12751E+01  9.07788E+00  1.13080E+01  1.32222E+01  1.49056E+01  1.52127E+01
   1.61647E+01  1.53358E+01  1.36608E+01  1.45303E+01  1.48781E+01  1.52848E+01  1.57804E+01  1.25451E+01  1.52746E+01  1.58766E+01
   1.54314E+01  1.46962E+01  1.41940E+01  1.65407E+01  1.28634E+01  1.38169E+01  1.35860E+01  1.39925E+01  1.30932E+01  1.07046E+01
   1.17582E+01  1.01821E+01  1.01486E+01  8.05157E+00  9.52916E+00  9.31270E+00  6.39465E+00  7.10417E+00  5.93575E+00  7.52657E+00
   5.09405E+00  5.92071E+00  5.70323E+00  6.11967E+00  6.87578E+00  5.80592E+00  5.42327E+00  5.07130E+00  5.09339E+00  5.36777E+00
   4.12890E+00  2.84671E+00  1.81878E+00  2.73659E+00  2.10683E+00  3.38024E+00  2.71333E+00  2.43038E+00  1.89483E+00  3.71699E+00
  -5.08263E-01  8.17311E-01  2.55930E+00  1.24372E+00  2.73907E-01  1.56668E+00  6.07868E-01 -1.63637E+00 -6.98443E-01 -4.28409E-01
   2.59063E-01  1.66836E+00 -2.11696E+00 -7.37616E-02 -2.86298E+00  1.10354E+00  1.03569E+00  2.36976E-01  1.26778E-01 -2.30599E+00
  -1.56462E+00 -2.45958E+00 -2.68327E+00 -2.98208E+00  6.95180E-01 -3.11082E+00 -7.29827E-01 -9.88503E-01 -3.22710E+00 -3.16731E+00
  -3.32962E+00 -1.88407E+00 -3.04727E+00 -2.71193E+00 -1.99323E+00 -2.57559E+00 -3.23846E+00 -2.86518E+00 -3.36464E+00 -3.64123E+00
  -3.46406E+00 -1.79391E+00 -2.44169E+00 -2.95913E+00 -2.79988E+00 -3.64896E+00 -2.66158E+00 -4.93735E+00 -1.46101E+00 -2.94952E+00
  -2.64749E+00 -3.65515E+00 -1.68649E+00 -3.47588E+00 -4.30462E+00 -3.46197E+00 -3.78217E+00 -2.97085E+00 -3.84304E+00 -3.56880E+00
  -3.33770E+00 -2.45344E+00 -3.61249E+00 -2.82876E+00 -2.75445E+00 -2.50335E+00 -3.22132E+00 -3.00709E+00 -1.15407E+00 -1.84330E+00
  -1.64973E+00 -1.67602E+00 -1.48105E+00 -1.64834E+00 -3.27647E+00 -2.59770E+00 -2.93223E+00 -1.67619E+00 -1.94029E+00 -1.85098E+00
  -1.70677E+00 -2.22418E+00 -3.43022E+00 -2.60642E+00 -1.22886E+00 -2.79215E+00 -2.63310E+00 -8.84572E-01 -1.89868E+00 -1.39270E+00
  -4.31903E+00  2.93812E-01 -2.07928E+00 -1.91179E+00 -3.16146E+00 -3.79034E+00 -2.98267E+00 -2.48592E+00 -2.40945E+00 -2.06715E+00
  -3.04360E+00 -2.13168E+00 -2.00849E+00 -2.18260E+00 -1.15621E+00 -1.46921E+00 -1.97898E+00 -2.29809E+00 -2.44940E+00 -2.72326E+00
  -2.09677E+00 -1.36711E+00 -3.31064E+00 -3.30823E+00 -2.35439E+00 -3.07805E+00 -9.34637E-01 -5.14528E-01 -1.96865E+00 -1.79356E+00
  -2.17566E+00 -1.57459E+00  8.16078E-01 -2.40977E+00 -2.39325E+00 -1.44242E+00 -9.45328E-01 -1.90477E+00 -1.82165E+00 -2.06912E+00
  -2.21312E+00 -1.99828E+00 -7.01387E-01 -2.02183E+00 -2.33702E+00  1.01410E-01 -3.60389E+00 -1.88494E+00
 NY points of the fit to the data follow
  -1.01026E+00 -1.32449E-01 -8.22580E-01 -3.11462E-02 -5.34801E-01  1.02690E-01 -3.88399E-01  2.76484E-02 -6.70680E-01 -4.18362E-01
  -1.20849E+00 -9.58207E-01 -1.68199E+00 -1.27274E+00 -1.93862E+00 -1.17754E+00 -1.82332E+00 -9.01634E-01 -1.64138E+00 -7.10910E-01
  -1.57727E+00 -6.67957E-01 -1.72880E+00 -8.41304E-01 -1.95620E+00 -1.04596E+00 -2.09761E+00 -1.14804E+00 -2.05761E+00 -1.09103E+00
  -1.84335E+00 -9.36742E-01 -1.57755E+00 -8.24067E-01 -1.39732E+00 -8.50779E-01 -1.34844E+00 -9.96321E-01 -1.38116E+00 -1.16221E+00
  -1.37891E+00 -1.17856E+00 -1.22311E+00 -1.07963E+00 -1.00887E+00 -9.54884E-01 -8.61062E-01 -9.65079E-01 -1.02263E+00 -1.21753E+00
  -1.27429E+00 -1.47160E+00 -1.48119E+00 -1.60885E+00 -1.51778E+00 -1.47150E+00 -1.35718E+00 -1.32604E+00 -1.25408E+00 -1.25791E+00
  -1.24458E+00 -1.29142E+00 -1.34616E+00 -1.39272E+00 -1.43229E+00 -1.46663E+00 -1.49691E+00 -1.52400E+00 -1.54845E+00 -1.57071E+00
  -1.59107E+00 -1.60980E+00 -1.62706E+00 -1.64302E+00 -1.65778E+00 -1.67146E+00 -1.68408E+00 -1.69574E+00 -1.70647E+00 -1.71632E+00
  -1.72530E+00 -1.73345E+00 -1.74077E+00 -1.74728E+00 -1.75299E+00 -1.75791E+00 -1.76204E+00 -1.76539E+00 -1.76794E+00 -1.76972E+00
  -1.77072E+00 -1.77097E+00 -1.77045E+00 -1.76919E+00 -1.76720E+00 -1.76453E+00 -1.76118E+00 -1.75723E+00 -1.75270E+00 -1.74767E+00
  -1.74221E+00 -1.73642E+00 -1.73039E+00 -1.72426E+00 -1.71814E+00 -1.71219E+00 -1.70657E+00 -1.70147E+00 -1.69706E+00 -1.69356E+00
  -1.69114E+00 -1.69004E+00 -1.69045E+00 -1.69261E+00 -1.69668E+00 -1.70287E+00 -1.71132E+00 -1.72221E+00 -1.73564E+00 -1.75171E+00
  -1.77045E+00 -1.79187E+00 -1.81595E+00 -1.84262E+00 -1.87176E+00 -1.90322E+00 -1.93677E+00 -1.97219E+00 -2.00919E+00 -2.04750E+00
  -2.08677E+00 -2.12666E+00 -2.16680E+00 -2.20685E+00 -2.24644E+00 -2.28524E+00 -2.32291E+00 -2.35913E+00 -2.39363E+00 -2.42615E+00
  -2.45649E+00 -2.48445E+00 -2.50989E+00 -2.53270E+00 -2.55280E+00 -2.57016E+00 -2.58478E+00 -2.59669E+00 -2.60591E+00 -2.61252E+00
  -2.61662E+00 -2.61831E+00 -2.61772E+00 -2.61495E+00 -2.61013E+00 -2.60339E+00 -2.59486E+00 -2.58468E+00 -2.57294E+00 -2.55977E+00
  -2.54525E+00 -2.52950E+00 -2.51259E+00 -2.49461E+00 -2.47562E+00 -2.45567E+00 -2.43480E+00 -2.41307E+00 -2.39051E+00 -2.36715E+00
  -2.34298E+00 -2.31803E+00 -2.29229E+00 -2.26577E+00 -2.23848E+00 -2.21038E+00 -2.18146E+00 -2.15171E+00 -2.12110E+00 -2.08962E+00
  -2.05723E+00 -2.02389E+00 -1.98956E+00 -1.95422E+00 -1.91782E+00 -1.88034E+00 -1.84171E+00 -1.80191E+00 -1.76086E+00 -1.71855E+00
  -1.67493E+00 -1.62995E+00 -1.58357E+00 -1.53575E+00 -1.48644E+00 -1.43563E+00 -1.38329E+00 -1.32940E+00 -1.27392E+00 -1.21686E+00
  -1.15822E+00 -1.09801E+00 -1.03625E+00 -9.72967E-01 -9.08184E-01 -8.41954E-01 -7.74332E-01 -7.05383E-01 -6.35162E-01 -5.63732E-01
  -4.91153E-01 -4.17501E-01 -3.42835E-01 -2.67211E-01 -1.90659E-01 -1.13210E-01 -3.48747E-02  4.43308E-02  1.24419E-01  2.05409E-01
   2.87343E-01  3.70247E-01  4.54145E-01  5.39029E-01  6.24886E-01  7.11652E-01  7.99221E-01  8.87393E-01  9.75895E-01  1.06433E+00
   1.15223E+00  1.23898E+00  1.32386E+00  1.40599E+00  1.48439E+00  1.55799E+00  1.62562E+00  1.68609E+00  1.73817E+00  1.78066E+00
   1.81242E+00  1.83245E+00  1.83991E+00  1.83419E+00  1.81488E+00  1.78187E+00  1.73534E+00  1.67579E+00  1.60400E+00  1.52103E+00
   1.42818E+00  1.32694E+00  1.21900E+00  1.10613E+00  9.90157E-01  8.72884E-01  7.56061E-01  6.41332E-01  5.30225E-01  4.24104E-01
   3.24148E-01  2.31340E-01  1.46487E-01  7.02306E-02  3.07841E-03 -5.46040E-02 -1.02568E-01 -1.40654E-01 -1.68771E-01 -1.86855E-01
  -1.94864E-01 -1.92789E-01 -1.80632E-01 -1.58406E-01 -1.26106E-01 -8.37074E-02 -3.11813E-02  3.14975E-02  1.04360E-01  1.87455E-01
   2.80874E-01  3.84737E-01  4.99203E-01  6.24461E-01  7.60772E-01  9.08484E-01  1.06807E+00  1.24013E+00  1.42542E+00  1.62485E+00
   1.83960E+00  2.07109E+00  2.32112E+00  2.59180E+00  2.88571E+00  3.20586E+00  3.55587E+00  3.93997E+00  4.36312E+00  4.83108E+00
   5.35050E+00  5.92921E+00  6.57649E+00  7.30368E+00  8.12528E+00  9.06102E+00  1.01404E+01  1.14115E+01  1.29430E+01  1.45230E+01
   1.51777E+01  1.61300E+01  1.58109E+01  1.60743E+01  1.50001E+01  1.47016E+01  1.32456E+01  1.36450E+01  1.26818E+01  1.33964E+01
   1.27153E+01  1.32772E+01  1.26644E+01  1.29013E+01  1.22890E+01  1.21368E+01  1.16375E+01  1.12930E+01  1.13613E+01  1.12218E+01
   1.10861E+01  1.05650E+01  1.04059E+01  9.49362E+00  9.41930E+00  8.06014E+00  8.18165E+00  7.44993E+00  7.73539E+00  7.38364E+00
   7.51861E+00  7.36723E+00  7.24209E+00  7.31016E+00  6.89090E+00  7.09236E+00  6.39897E+00  6.76047E+00  5.83421E+00  6.29053E+00
   4.66292E+00  4.88161E+00  3.05821E+00  3.38614E+00  1.55317E+00  2.06506E+00  4.23972E-01  1.42474E+00  3.45956E-01  1.17361E+00
   3.16977E-01  9.09164E-01  2.70628E-01  7.09720E-01  3.04850E-01  6.25571E-01  4.58667E-01  7.31901E-01  7.26551E-01  9.25530E-01
   5.05939E-01  1.18850E-01 -3.90889E-01 -1.05729E+00 -1.51235E+00 -2.17702E+00 -2.38927E+00 -2.42056E+00 -2.38158E+00 -2.30653E+00
  -2.21131E+00 -2.10523E+00 -1.99476E+00 -1.88477E+00 -1.77937E+00 -1.68207E+00 -1.59599E+00 -1.52378E+00 -1.46764E+00 -1.42930E+00
  -1.41002E+00 -1.41060E+00 -1.43134E+00 -1.47199E+00 -1.53179E+00 -1.60952E+00 -1.70357E+00 -1.81200E+00 -1.93260E+00 -2.06296E+00
  -2.20053E+00 -2.34275E+00 -2.48713E+00 -2.63133E+00 -2.77317E+00 -2.91067E+00 -3.04212E+00 -3.16610E+00 -3.28149E+00 -3.38746E+00
  -3.48345E+00 -3.56911E+00 -3.64433E+00 -3.70921E+00 -3.76401E+00 -3.80913E+00 -3.84502E+00 -3.87223E+00 -3.89133E+00 -3.90297E+00
  -3.90776E+00 -3.90632E+00 -3.89922E+00 -3.88702E+00 -3.87024E+00 -3.84939E+00 -3.82491E+00 -3.79723E+00 -3.76670E+00 -3.73365E+00
  -3.69838E+00 -3.66118E+00 -3.62229E+00 -3.58192E+00 -3.54024E+00 -3.49742E+00 -3.45361E+00 -3.40897E+00 -3.36359E+00 -3.31757E+00
  -3.27099E+00 -3.22394E+00 -3.17649E+00 -3.12871E+00 -3.08065E+00 -3.03234E+00 -2.98383E+00 -2.93515E+00 -2.88636E+00 -2.83746E+00
  -2.78849E+00 -2.73946E+00 -2.69038E+00 -2.64129E+00 -2.59220E+00 -2.54311E+00 -2.49404E+00 -2.44499E+00 -2.39596E+00 -2.34699E+00
  -2.29806E+00 -2.24918E+00 -2.20035E+00 -2.15156E+00 -2.10283E+00 -2.05417E+00 -2.00557E+00 -1.95701E+00 -1.90851E+00 -1.86006E+00
  -1.81167E+00 -1.76333E+00 -1.71504E+00 -1.66678E+00 -1.61855E+00 -1.57036E+00 -1.52220E+00 -1.47407E+00 -1.42594E+00 -1.37781E+00
  -1.32967E+00 -1.28153E+00 -1.23336E+00 -1.18515E+00 -1.13688E+00 -1.08854E+00 -1.04011E+00 -9.91565E-01 -9.42886E-01 -8.94036E-01
  -8.44976E-01 -7.95667E-01 -7.46060E-01 -6.96094E-01 -6.45685E-01 -5.94728E-01 -5.43093E-01 -4.90608E-01
 NY background values follow
    -2.305E+00   -2.340E+00   -2.375E+00   -2.410E+00   -2.444E+00   -2.478E+00   -2.513E+00   -2.547E+00   -2.580E+00   -2.614E+00
    -2.648E+00   -2.681E+00   -2.714E+00   -2.747E+00   -2.780E+00   -2.812E+00   -2.845E+00   -2.877E+00   -2.909E+00   -2.941E+00
    -2.973E+00   -3.004E+00   -3.036E+00   -3.067E+00   -3.098E+00   -3.129E+00   -3.159E+00   -3.190E+00   -3.220E+00   -3.250E+00
    -3.280E+00   -3.310E+00   -3.340E+00   -3.369E+00   -3.399E+00   -3.428E+00   -3.457E+00   -3.485E+00   -3.514E+00   -3.542E+00
    -3.571E+00   -3.599E+00   -3.626E+00   -3.654E+00   -3.682E+00   -3.709E+00   -3.736E+00   -3.763E+00   -3.790E+00   -3.816E+00
    -3.843E+00   -3.869E+00   -3.895E+00   -3.921E+00   -3.947E+00   -3.972E+00   -3.998E+00   -4.023E+00   -4.048E+00   -4.073E+00
    -4.098E+00   -4.122E+00   -4.146E+00   -4.171E+00   -4.195E+00   -4.218E+00   -4.242E+00   -4.265E+00   -4.289E+00   -4.312E+00
    -4.335E+00   -4.357E+00   -4.380E+00   -4.402E+00   -4.424E+00   -4.446E+00   -4.468E+00   -4.490E+00   -4.511E+00   -4.533E+00
    -4.554E+00   -4.575E+00   -4.595E+00   -4.616E+00   -4.636E+00   -4.657E+00   -4.677E+00   -4.696E+00   -4.716E+00   -4.736E+00
    -4.755E+00   -4.774E+00   -4.793E+00   -4.812E+00   -4.831E+00   -4.849E+00   -4.867E+00   -4.885E+00   -4.903E+00   -4.921E+00
    -4.939E+00   -4.956E+00   -4.973E+00   -4.990E+00   -5.007E+00   -5.024E+00   -5.040E+00   -5.056E+00   -5.073E+00   -5.089E+00
    -5.104E+00   -5.120E+00   -5.135E+00   -5.151E+00   -5.166E+00   -5.181E+00   -5.195E+00   -5.210E+00   -5.224E+00   -5.238E+00
    -5.252E+00   -5.266E+00   -5.280E+00   -5.293E+00   -5.307E+00   -5.320E+00   -5.333E+00   -5.346E+00   -5.358E+00   -5.371E+00
    -5.383E+00   -5.395E+00   -5.407E+00   -5.419E+00   -5.430E+00   -5.441E+00   -5.453E+00   -5.464E+00   -5.475E+00   -5.485E+00
    -5.496E+00   -5.506E+00   -5.516E+00   -5.526E+00   -5.536E+00   -5.546E+00   -5.555E+00   -5.564E+00   -5.574E+00   -5.582E+00
    -5.591E+00   -5.600E+00   -5.608E+00   -5.616E+00   -5.625E+00   -5.632E+00   -5.640E+00   -5.648E+00   -5.655E+00   -5.662E+00
    -5.669E+00   -5.676E+00   -5.683E+00   -5.689E+00   -5.696E+00   -5.702E+00   -5.708E+00   -5.714E+00   -5.719E+00   -5.725E+00
    -5.730E+00   -5.735E+00   -5.740E+00   -5.745E+00   -5.750E+00   -5.754E+00   -5.759E+00   -5.763E+00   -5.767E+00   -5.770E+00
    -5.774E+00   -5.778E+00   -5.781E+00   -5.784E+00   -5.787E+00   -5.790E+00   -5.792E+00   -5.795E+00   -5.797E+00   -5.799E+00
    -5.801E+00   -5.803E+00   -5.804E+00   -5.806E+00   -5.807E+00   -5.808E+00   -5.809E+00   -5.810E+00   -5.811E+00   -5.811E+00
    -5.811E+00   -5.811E+00   -5.811E+00   -5.811E+00   -5.811E+00   -5.810E+00   -5.809E+00   -5.809E+00   -5.808E+00   -5.806E+00
    -5.805E+00   -5.803E+00   -5.802E+00   -5.800E+00   -5.798E+00   -5.796E+00   -5.793E+00   -5.791E+00   -5.788E+00   -5.785E+00
    -5.782E+00   -5.779E+00   -5.776E+00   -5.772E+00   -5.769E+00   -5.765E+00   -5.761E+00   -5.757E+00   -5.753E+00   -5.748E+00
    -5.744E+00   -5.739E+00   -5.734E+00   -5.729E+00   -5.724E+00   -5.718E+00   -5.713E+00   -5.707E+00   -5.701E+00   -5.695E+00
    -5.689E+00   -5.683E+00   -5.676E+00   -5.670E+00   -5.663E+00   -5.656E+00   -5.649E+00   -5.642E+00   -5.634E+00   -5.627E+00
    -5.619E+00   -5.611E+00   -5.603E+00   -5.595E+00   -5.587E+00   -5.578E+00   -5.569E+00   -5.561E+00   -5.552E+00   -5.543E+00
    -5.533E+00   -5.524E+00   -5.515E+00   -5.505E+00   -5.495E+00   -5.485E+00   -5.475E+00   -5.465E+00   -5.454E+00   -5.444E+00
    -5.433E+00   -5.422E+00   -5.411E+00   -5.400E+00   -5.389E+00   -5.377E+00   -5.366E+00   -5.354E+00   -5.342E+00   -5.330E+00
    -5.318E+00   -5.305E+00   -5.293E+00   -5.280E+00   -5.267E+00   -5.255E+00   -5.242E+00   -5.228E+00   -5.215E+00   -5.202E+00
    -5.188E+00   -5.174E+00   -5.160E+00   -5.146E+00   -5.132E+00   -5.118E+00   -5.103E+00   -5.089E+00   -5.074E+00   -5.059E+00
    -5.044E+00   -5.029E+00   -5.014E+00   -4.998E+00   -4.983E+00   -4.967E+00   -4.951E+00   -4.935E+00   -4.919E+00   -4.903E+00
    -4.887E+00   -4.870E+00   -4.854E+00   -4.837E+00   -4.820E+00   -4.803E+00   -4.786E+00   -4.769E+00   -4.751E+00   -4.734E+00
    -4.716E+00   -4.698E+00   -4.680E+00   -4.662E+00   -4.644E+00   -4.626E+00   -4.607E+00   -4.589E+00   -4.570E+00   -4.551E+00
    -4.532E+00   -4.513E+00   -4.494E+00   -4.474E+00   -4.455E+00   -4.435E+00   -4.416E+00   -4.396E+00   -4.376E+00   -4.356E+00
    -4.336E+00   -4.315E+00   -4.295E+00   -4.274E+00   -4.254E+00   -4.233E+00   -4.212E+00   -4.191E+00   -4.170E+00   -4.148E+00
    -4.127E+00   -4.106E+00   -4.084E+00   -4.062E+00   -4.040E+00   -4.018E+00   -3.996E+00   -3.974E+00   -3.952E+00   -3.929E+00
    -3.907E+00   -3.884E+00   -3.861E+00   -3.838E+00   -3.815E+00   -3.792E+00   -3.769E+00   -3.746E+00   -3.722E+00   -3.698E+00
    -3.675E+00   -3.651E+00   -3.627E+00   -3.603E+00   -3.579E+00   -3.555E+00   -3.530E+00   -3.506E+00   -3.481E+00   -3.457E+00
    -3.432E+00   -3.407E+00   -3.382E+00   -3.357E+00   -3.332E+00   -3.307E+00   -3.281E+00   -3.256E+00   -3.230E+00   -3.205E+00
    -3.179E+00   -3.153E+00   -3.127E+00   -3.101E+00   -3.075E+00   -3.048E+00   -3.022E+00   -2.996E+00   -2.969E+00   -2.942E+00
    -2.916E+00   -2.889E+00   -2.862E+00   -2.835E+00   -2.808E+00   -2.780E+00   -2.753E+00   -2.726E+00   -2.698E+00   -2.670E+00
    -2.643E+00   -2.615E+00   -2.587E+00   -2.559E+00   -2.531E+00   -2.503E+00   -2.475E+00   -2.446E+00   -2.418E+00   -2.389E+00
    -2.361E+00   -2.332E+00   -2.303E+00   -2.274E+00   -2.246E+00   -2.217E+00   -2.187E+00   -2.158E+00   -2.129E+00   -2.100E+00
    -2.070E+00   -2.041E+00   -2.011E+00   -1.981E+00   -1.952E+00   -1.922E+00   -1.892E+00   -1.862E+00   -1.832E+00   -1.802E+00
    -1.771E+00   -1.741E+00   -1.711E+00   -1.680E+00   -1.650E+00   -1.619E+00   -1.588E+00   -1.558E+00   -1.527E+00   -1.496E+00
    -1.465E+00   -1.434E+00   -1.403E+00   -1.372E+00   -1.340E+00   -1.309E+00   -1.278E+00   -1.246E+00   -1.215E+00   -1.183E+00
    -1.151E+00   -1.120E+00   -1.088E+00   -1.056E+00   -1.024E+00   -9.922E-01   -9.601E-01   -9.280E-01   -8.958E-01   -8.636E-01
    -8.313E-01   -7.989E-01   -7.665E-01   -7.340E-01   -7.014E-01   -6.688E-01   -6.362E-01   -6.034E-01   -5.707E-01   -5.378E-01
    -5.049E-01   -4.720E-01   -4.390E-01   -4.059E-01   -3.728E-01   -3.396E-01   -3.064E-01   -2.732E-01   -2.398E-01   -2.065E-01
    -1.730E-01   -1.395E-01   -1.060E-01   -7.243E-02   -3.881E-02   -5.128E-03    2.860E-02    6.237E-02
 Ala      Conc. = 5.07E+03
