 LCModel (Version 6.3-1L) Copyright: S.W. Provencher.          Ref.: Magn. Reson. Med. 30:672-679 (1993).                
 Slice#2 Row#5 Col#2  K_02_press_1_raw_act
 36 lines in following concentration table = NCONC+1
    Conc.  %SD /Cr+PCr  Metabolite                                         
  479.208  52%   1.235 Ala                                                 
   23.175 192% 6.0E-02 Asp                                                 
    0.000 999%   0.000 Cr                                                  
  388.114  15%   1.000 PCr                                                 
   30.313  89% 7.8E-02 GABA                                                
   17.208 158% 4.4E-02 Glc                                                 
 2.04E+03  31%   5.255 Gln                                                 
  682.858 103%   1.759 Glu                                                 
   18.834 118% 4.9E-02 GPC                                                 
    0.000 999%   0.000 PCh                                                 
  116.721  84%   0.301 GSH                                                 
  951.831  26%   2.452 Ins                                                 
  630.221  40%   1.624 Lac                                                 
  468.218  35%   1.206 NAA                                                 
   47.315 347%   0.122 NAAG                                                
    4.855 183% 1.3E-02 Scyllo                                              
    2.349 999% 6.1E-03 Tau                                                 
    0.000 999%   0.000 -CrCH2                                              
   18.834 118% 4.9E-02 GPC+PCh                                             
  515.533  12%   1.328 NAA+NAAG                                            
  388.114  15%   1.000 Cr+PCr                                              
 2.72E+03  45%   7.015 Glu+Gln                                             
   14.243 719% 3.7E-02 Lip13a                                              
    0.000 999%   0.000 Lip13b                                              
    0.000 999%   0.000 Lip09                                               
  216.190  47%   0.557 MM09                                                
   11.724 226% 3.0E-02 Lip20                                               
  328.270  47%   0.846 MM20                                                
   64.866  48%   0.167 MM12                                                
  162.061  49%   0.418 MM14                                                
   78.320  53%   0.202 MM17                                                
   14.243 719% 3.7E-02 Lip13a+Lip13b                                       
  241.170  64%   0.621 MM14+Lip13a+Lip13b+MM12                             
  216.190  47%   0.557 MM09+Lip09                                          
  339.994  46%   0.876 MM20+Lip20                                          
   6 lines in following misc. output table
  FWHM = 0.138 ppm    S/N =   2                                            
  Data shift = 0.069 ppm                                                   
  Ph: 116 deg       9.0 deg/ppm                                            
  alphaB,S = 6.9E-01,   5.5E+01                                            
   14 spline knots.   Ns = 8(2)                                            
  (12) 6 infls.   ( 6) 1 extrs.                                            
  498 points on ppm-axis = NY
      4.000000     3.992357     3.984714     3.977070     3.969427     3.961784     3.954141     3.946497     3.938854     3.931211
      3.923568     3.915925     3.908281     3.900638     3.892995     3.885352     3.877708     3.870065     3.862422     3.854779
      3.847136     3.839492     3.831849     3.824206     3.816563     3.808919     3.801276     3.793633     3.785990     3.778347
      3.770703     3.763060     3.755417     3.747774     3.740130     3.732487     3.724844     3.717201     3.709558     3.701914
      3.694271     3.686628     3.678985     3.671341     3.663698     3.656055     3.648412     3.640769     3.633125     3.625482
      3.617839     3.610196     3.602552     3.594909     3.587266     3.579623     3.571980     3.564336     3.556693     3.549050
      3.541407     3.533763     3.526120     3.518477     3.510834     3.503191     3.495547     3.487904     3.480261     3.472618
      3.464974     3.457331     3.449688     3.442045     3.434402     3.426758     3.419115     3.411472     3.403829     3.396185
      3.388542     3.380899     3.373256     3.365613     3.357969     3.350326     3.342683     3.335040     3.327396     3.319753
      3.312110     3.304467     3.296824     3.289180     3.281537     3.273894     3.266251     3.258607     3.250964     3.243321
      3.235678     3.228034     3.220391     3.212748     3.205105     3.197462     3.189818     3.182175     3.174532     3.166889
      3.159245     3.151602     3.143959     3.136316     3.128673     3.121029     3.113386     3.105743     3.098100     3.090456
      3.082813     3.075170     3.067527     3.059884     3.052240     3.044597     3.036954     3.029311     3.021667     3.014024
      3.006381     2.998738     2.991095     2.983451     2.975808     2.968165     2.960522     2.952878     2.945235     2.937592
      2.929949     2.922306     2.914662     2.907019     2.899376     2.891733     2.884089     2.876446     2.868803     2.861160
      2.853517     2.845873     2.838230     2.830587     2.822944     2.815300     2.807657     2.800014     2.792371     2.784728
      2.777084     2.769441     2.761798     2.754155     2.746511     2.738868     2.731225     2.723582     2.715939     2.708295
      2.700652     2.693009     2.685366     2.677722     2.670079     2.662436     2.654793     2.647150     2.639506     2.631863
      2.624220     2.616577     2.608933     2.601290     2.593647     2.586004     2.578361     2.570717     2.563074     2.555431
      2.547788     2.540144     2.532501     2.524858     2.517215     2.509572     2.501928     2.494285     2.486642     2.478999
      2.471355     2.463712     2.456069     2.448426     2.440783     2.433139     2.425496     2.417853     2.410210     2.402566
      2.394923     2.387280     2.379637     2.371994     2.364350     2.356707     2.349064     2.341421     2.333777     2.326134
      2.318491     2.310848     2.303205     2.295561     2.287918     2.280275     2.272632     2.264988     2.257345     2.249702
      2.242059     2.234416     2.226772     2.219129     2.211486     2.203843     2.196199     2.188556     2.180913     2.173270
      2.165627     2.157983     2.150340     2.142697     2.135054     2.127410     2.119767     2.112124     2.104481     2.096838
      2.089194     2.081551     2.073908     2.066265     2.058621     2.050978     2.043335     2.035692     2.028049     2.020405
      2.012762     2.005119     1.997476     1.989833     1.982190     1.974546     1.966903     1.959260     1.951617     1.943974
      1.936331     1.928688     1.921045     1.913402     1.905759     1.898115     1.890472     1.882829     1.875186     1.867543
      1.859900     1.852257     1.844614     1.836971     1.829327     1.821684     1.814041     1.806398     1.798755     1.791112
      1.783469     1.775826     1.768183     1.760540     1.752896     1.745253     1.737610     1.729967     1.722324     1.714681
      1.707038     1.699395     1.691752     1.684108     1.676465     1.668822     1.661179     1.653536     1.645893     1.638250
      1.630607     1.622964     1.615321     1.607677     1.600034     1.592391     1.584748     1.577105     1.569462     1.561819
      1.554176     1.546533     1.538890     1.531246     1.523603     1.515960     1.508317     1.500674     1.493031     1.485388
      1.477745     1.470102     1.462458     1.454815     1.447172     1.439529     1.431886     1.424243     1.416600     1.408957
      1.401314     1.393671     1.386027     1.378384     1.370741     1.363098     1.355455     1.347812     1.340169     1.332526
      1.324883     1.317240     1.309596     1.301953     1.294310     1.286667     1.279024     1.271381     1.263738     1.256095
      1.248452     1.240808     1.233165     1.225522     1.217879     1.210236     1.202593     1.194950     1.187307     1.179664
      1.172021     1.164377     1.156734     1.149091     1.141448     1.133805     1.126162     1.118519     1.110876     1.103233
      1.095590     1.087946     1.080303     1.072660     1.065017     1.057374     1.049731     1.042088     1.034445     1.026802
      1.019158     1.011515     1.003872     0.996229     0.988586     0.980943     0.973300     0.965657     0.958014     0.950371
      0.942727     0.935084     0.927441     0.919798     0.912155     0.904512     0.896869     0.889226     0.881583     0.873940
      0.866296     0.858653     0.851010     0.843367     0.835724     0.828081     0.820438     0.812795     0.805152     0.797508
      0.789865     0.782222     0.774579     0.766936     0.759293     0.751650     0.744007     0.736364     0.728721     0.721077
      0.713434     0.705791     0.698148     0.690505     0.682862     0.675219     0.667576     0.659933     0.652290     0.644646
      0.637003     0.629360     0.621717     0.614074     0.606431     0.598788     0.591145     0.583502     0.575858     0.568215
      0.560572     0.552929     0.545286     0.537643     0.530000     0.522357     0.514714     0.507071     0.499427     0.491784
      0.484141     0.476498     0.468855     0.461212     0.453569     0.445925     0.438282     0.430639     0.422996     0.415353
      0.407710     0.400067     0.392424     0.384780     0.377137     0.369494     0.361851     0.354208     0.346565     0.338922
      0.331278     0.323635     0.315992     0.308349     0.300706     0.293063     0.285420     0.277777     0.270133     0.262490
      0.254847     0.247204     0.239561     0.231918     0.224275     0.216631     0.208988     0.201345
 NY phased data points follow
   8.90523E+01  8.96979E+01  8.66199E+01  8.69450E+01  8.86374E+01  8.49900E+01  8.77219E+01  8.71914E+01  8.44042E+01  8.17359E+01
   8.07188E+01  7.88527E+01  8.21382E+01  8.22206E+01  7.93985E+01  7.76421E+01  7.84205E+01  7.67692E+01  7.87468E+01  7.57255E+01
   7.46849E+01  7.63406E+01  7.31607E+01  7.12739E+01  7.17866E+01  6.84115E+01  7.11951E+01  6.86643E+01  7.16172E+01  6.96787E+01
   6.86599E+01  7.34021E+01  6.96471E+01  6.75063E+01  6.69582E+01  6.63104E+01  6.37131E+01  6.52417E+01  6.40536E+01  6.54075E+01
   6.48279E+01  6.27752E+01  6.32452E+01  6.46611E+01  6.18772E+01  6.39549E+01  5.97734E+01  6.12358E+01  6.20375E+01  5.90453E+01
   5.86306E+01  6.25191E+01  6.13252E+01  5.82538E+01  5.70924E+01  5.66116E+01  5.44993E+01  5.59678E+01  5.48321E+01  5.31282E+01
   5.67880E+01  5.58115E+01  5.21548E+01  5.11447E+01  5.16703E+01  5.48257E+01  4.90671E+01  5.04090E+01  4.68177E+01  4.93207E+01
   4.72446E+01  4.90265E+01  5.00580E+01  4.71259E+01  4.83720E+01  4.81306E+01  4.60705E+01  4.51001E+01  4.48938E+01  4.58124E+01
   4.53747E+01  4.50342E+01  4.43790E+01  4.34527E+01  4.45026E+01  4.16143E+01  4.54990E+01  4.18353E+01  4.38248E+01  4.04431E+01
   3.66168E+01  3.70261E+01  3.89387E+01  4.26102E+01  4.28188E+01  4.04882E+01  3.78625E+01  4.18315E+01  3.87905E+01  3.78811E+01
   3.73710E+01  4.05237E+01  3.71665E+01  3.65146E+01  3.61698E+01  4.16955E+01  4.03685E+01  3.67172E+01  3.85236E+01  3.89523E+01
   4.10421E+01  3.48779E+01  3.45731E+01  3.26307E+01  2.98082E+01  3.31776E+01  3.10826E+01  3.19192E+01  3.51627E+01  3.53429E+01
   4.09500E+01  3.70707E+01  3.74616E+01  3.53113E+01  3.69946E+01  3.53877E+01  3.24647E+01  4.00063E+01  3.42538E+01  3.72034E+01
   3.78477E+01  3.68537E+01  3.90660E+01  3.75754E+01  3.62792E+01  3.46254E+01  3.73666E+01  3.77958E+01  3.75612E+01  3.38718E+01
   3.50619E+01  3.52125E+01  3.42933E+01  3.47401E+01  3.28518E+01  3.29037E+01  3.40041E+01  3.38186E+01  3.24934E+01  3.33009E+01
   3.13957E+01  3.29631E+01  3.14532E+01  2.99303E+01  3.10007E+01  2.98209E+01  2.87034E+01  2.84772E+01  2.89702E+01  3.10088E+01
   3.24597E+01  2.92036E+01  3.08112E+01  3.16873E+01  3.13635E+01  2.95557E+01  2.99905E+01  2.84924E+01  2.73351E+01  2.83943E+01
   3.01998E+01  2.93918E+01  2.39841E+01  2.67320E+01  2.43752E+01  2.67145E+01  2.50523E+01  2.36095E+01  2.74425E+01  2.54724E+01
   2.62250E+01  2.75917E+01  2.29525E+01  2.47079E+01  2.29523E+01  2.46492E+01  2.51391E+01  2.45852E+01  2.50811E+01  2.41482E+01
   2.35351E+01  2.60689E+01  2.31439E+01  2.42219E+01  2.72732E+01  2.54874E+01  2.64698E+01  2.35774E+01  2.56464E+01  2.58040E+01
   2.64752E+01  2.57078E+01  2.84785E+01  2.55236E+01  2.00610E+01  2.25213E+01  2.54682E+01  2.62650E+01  2.92862E+01  2.59458E+01
   2.56970E+01  2.81079E+01  2.57281E+01  2.50964E+01  2.70630E+01  2.47541E+01  2.59897E+01  2.44310E+01  2.88522E+01  2.85039E+01
   3.13032E+01  2.73908E+01  3.02473E+01  2.65351E+01  2.84414E+01  2.78448E+01  2.60778E+01  2.83666E+01  3.15401E+01  2.87904E+01
   2.79425E+01  2.54148E+01  2.77264E+01  2.78907E+01  2.70038E+01  3.00434E+01  2.68617E+01  2.77433E+01  2.98844E+01  2.67377E+01
   2.55985E+01  2.73131E+01  2.94611E+01  2.67102E+01  2.67901E+01  2.56530E+01  2.79944E+01  2.59027E+01  2.65993E+01  2.76778E+01
   2.41269E+01  2.66961E+01  2.94939E+01  3.26243E+01  3.02427E+01  2.83935E+01  2.80333E+01  2.67188E+01  3.26532E+01  2.71441E+01
   3.04880E+01  3.39205E+01  3.23191E+01  3.39215E+01  3.47782E+01  3.40182E+01  3.28085E+01  3.31654E+01  3.01898E+01  3.14568E+01
   3.30258E+01  2.91579E+01  2.99770E+01  2.69494E+01  2.88397E+01  2.65443E+01  2.64087E+01  2.46670E+01  2.75620E+01  2.60996E+01
   2.82861E+01  2.66833E+01  2.55147E+01  2.55954E+01  2.60139E+01  2.49759E+01  2.64385E+01  2.31103E+01  2.50384E+01  2.30776E+01
   2.46816E+01  2.68786E+01  2.06487E+01  2.32353E+01  2.09120E+01  2.06362E+01  1.91901E+01  2.33397E+01  2.07976E+01  2.33159E+01
   2.33908E+01  2.26434E+01  2.04069E+01  2.44239E+01  2.23168E+01  2.19476E+01  2.05984E+01  2.41213E+01  2.33751E+01  2.49883E+01
   2.30821E+01  2.12615E+01  2.10047E+01  1.81929E+01  2.21802E+01  2.45461E+01  2.12272E+01  2.31347E+01  2.07069E+01  2.19279E+01
   2.24836E+01  1.97685E+01  2.25017E+01  2.45860E+01  2.28224E+01  2.16024E+01  2.12840E+01  2.55634E+01  2.43363E+01  2.27538E+01
   2.26492E+01  2.22452E+01  2.16809E+01  1.76466E+01  2.07513E+01  2.22913E+01  2.05177E+01  1.92188E+01  2.06840E+01  2.35773E+01
   2.15400E+01  2.11890E+01  2.27697E+01  2.18597E+01  2.79914E+01  2.49380E+01  2.18561E+01  2.07142E+01  2.14270E+01  2.37927E+01
   2.15700E+01  2.06473E+01  1.89416E+01  2.19235E+01  1.86928E+01  2.21019E+01  1.91774E+01  1.77889E+01  1.78814E+01  1.97964E+01
   1.61353E+01  2.12921E+01  1.87339E+01  2.00668E+01  1.72629E+01  1.93096E+01  1.96757E+01  1.91684E+01  1.89685E+01  1.91791E+01
   1.76394E+01  1.80132E+01  2.08974E+01  1.81141E+01  1.86038E+01  1.86084E+01  2.15859E+01  1.85981E+01  1.95194E+01  1.81957E+01
   1.73904E+01  2.10824E+01  1.67263E+01  1.54437E+01  1.72604E+01  1.92610E+01  1.69147E+01  1.69952E+01  1.79394E+01  1.40950E+01
   1.82366E+01  1.82095E+01  1.73165E+01  1.70026E+01  1.52317E+01  1.54420E+01  1.60017E+01  1.53251E+01  1.50900E+01  1.80497E+01
   1.43935E+01  1.48534E+01  1.70707E+01  1.38101E+01  1.46847E+01  1.91477E+01  1.70451E+01  1.81613E+01  1.41090E+01  1.59198E+01
   1.45690E+01  1.62825E+01  1.45444E+01  1.34600E+01  1.60002E+01  1.32550E+01  1.33710E+01  1.44413E+01  1.58563E+01  1.43588E+01
   1.39330E+01  1.42888E+01  1.37358E+01  1.24473E+01  1.20793E+01  1.35319E+01  1.61254E+01  1.31912E+01  1.52980E+01  1.11822E+01
   1.44778E+01  1.50029E+01  1.31706E+01  1.46981E+01  1.26295E+01  1.47201E+01  1.52304E+01  1.74038E+01  1.11216E+01  9.14249E+00
   1.48338E+01  1.14279E+01  1.27279E+01  9.76802E+00  1.06770E+01  1.19086E+01  1.14724E+01  1.20099E+01  1.08517E+01  1.13936E+01
   1.08441E+01  1.22691E+01  1.38699E+01  9.89316E+00  1.22439E+01  1.11450E+01  1.29433E+01  1.04508E+01  1.22513E+01  1.22189E+01
   9.76545E+00  9.95165E+00  1.07514E+01  8.97790E+00  1.02792E+01  1.48827E+01  1.30489E+01  1.18343E+01  1.05186E+01  1.17436E+01
   1.12732E+01  9.49832E+00  1.40663E+01  1.31274E+01  7.20076E+00  8.14172E+00  9.56913E+00  9.68703E+00  1.24351E+01  7.68860E+00
   1.19100E+01  1.19398E+01  1.12416E+01  1.23443E+01  9.93098E+00  7.90302E+00  1.10041E+01  1.28491E+01  7.49010E+00  7.05802E+00
   1.08338E+01  8.50941E+00  8.98940E+00  9.41945E+00  1.00386E+01  1.11217E+01  1.08257E+01  7.94820E+00
 NY points of the fit to the data follow
   8.53196E+01  8.52839E+01  8.48429E+01  8.46281E+01  8.41277E+01  8.36193E+01  8.30770E+01  8.24252E+01  8.19478E+01  8.11956E+01
   8.08837E+01  8.02094E+01  8.00340E+01  7.94863E+01  7.93350E+01  7.85087E+01  7.82618E+01  7.72535E+01  7.68102E+01  7.55519E+01
   7.51323E+01  7.39827E+01  7.37129E+01  7.26976E+01  7.25919E+01  7.17100E+01  7.14396E+01  7.05976E+01  7.01219E+01  6.94667E+01
   6.90322E+01  6.84331E+01  6.80803E+01  6.75883E+01  6.73021E+01  6.69080E+01  6.66396E+01  6.63818E+01  6.58582E+01  6.55666E+01
   6.49580E+01  6.47102E+01  6.40273E+01  6.37503E+01  6.31112E+01  6.29038E+01  6.21718E+01  6.17108E+01  6.09847E+01  6.04267E+01
   5.98864E+01  5.93591E+01  5.92446E+01  5.88052E+01  5.86336E+01  5.79869E+01  5.75949E+01  5.67366E+01  5.61562E+01  5.53923E+01
   5.49136E+01  5.42168E+01  5.37794E+01  5.30957E+01  5.26908E+01  5.20425E+01  5.16476E+01  5.11225E+01  5.09115E+01  5.04996E+01
   5.02556E+01  4.98075E+01  4.95499E+01  4.91000E+01  4.88259E+01  4.83534E+01  4.80114E+01  4.75246E+01  4.70986E+01  4.65995E+01
   4.61620E+01  4.56711E+01  4.52331E+01  4.47524E+01  4.43065E+01  4.38464E+01  4.33577E+01  4.28944E+01  4.23866E+01  4.19493E+01
   4.14443E+01  4.10495E+01  4.05697E+01  4.02715E+01  3.98435E+01  3.96891E+01  3.92699E+01  3.92187E+01  3.87935E+01  3.87943E+01
   3.83547E+01  3.84004E+01  3.79499E+01  3.80307E+01  3.75871E+01  3.76930E+01  3.72748E+01  3.73411E+01  3.68814E+01  3.68669E+01
   3.63969E+01  3.62781E+01  3.58376E+01  3.56809E+01  3.53938E+01  3.54992E+01  3.53760E+01  3.55890E+01  3.56063E+01  3.61012E+01
   3.62243E+01  3.66883E+01  3.68343E+01  3.71472E+01  3.72518E+01  3.75820E+01  3.77059E+01  3.80393E+01  3.81517E+01  3.84073E+01
   3.84670E+01  3.85480E+01  3.85010E+01  3.82245E+01  3.80417E+01  3.74497E+01  3.71376E+01  3.62904E+01  3.59136E+01  3.50464E+01
   3.46422E+01  3.36899E+01  3.32717E+01  3.23235E+01  3.19448E+01  3.11104E+01  3.09025E+01  3.06312E+01  3.05604E+01  3.03242E+01
   3.02541E+01  3.00438E+01  2.99689E+01  2.97889E+01  2.97108E+01  2.95286E+01  2.94276E+01  2.92580E+01  2.91202E+01  2.89672E+01
   2.88220E+01  2.86875E+01  2.85539E+01  2.84258E+01  2.82873E+01  2.81729E+01  2.80384E+01  2.79341E+01  2.77873E+01  2.76906E+01
   2.75509E+01  2.74614E+01  2.73327E+01  2.72236E+01  2.70963E+01  2.69755E+01  2.68855E+01  2.67749E+01  2.67247E+01  2.66205E+01
   2.66292E+01  2.65287E+01  2.65738E+01  2.64800E+01  2.65237E+01  2.63681E+01  2.63252E+01  2.60941E+01  2.59951E+01  2.57357E+01
   2.57580E+01  2.55891E+01  2.57436E+01  2.58005E+01  2.61821E+01  2.63130E+01  2.66544E+01  2.66593E+01  2.66510E+01  2.64310E+01
   2.63781E+01  2.59570E+01  2.57642E+01  2.54413E+01  2.56641E+01  2.54809E+01  2.60924E+01  2.58668E+01  2.64770E+01  2.59297E+01
   2.64144E+01  2.55558E+01  2.60319E+01  2.50778E+01  2.56725E+01  2.48119E+01  2.57490E+01  2.50151E+01  2.61753E+01  2.55343E+01
   2.67435E+01  2.62023E+01  2.73280E+01  2.69105E+01  2.77930E+01  2.75815E+01  2.82875E+01  2.81929E+01  2.85155E+01  2.84266E+01
   2.81261E+01  2.80279E+01  2.79522E+01  2.79372E+01  2.78542E+01  2.76430E+01  2.77063E+01  2.71736E+01  2.72939E+01  2.66754E+01
   2.69676E+01  2.62206E+01  2.66935E+01  2.58752E+01  2.65641E+01  2.56349E+01  2.64572E+01  2.54230E+01  2.65209E+01  2.55929E+01
   2.68302E+01  2.61345E+01  2.77295E+01  2.74584E+01  2.90025E+01  2.88335E+01  2.98153E+01  2.97526E+01  3.07013E+01  3.08617E+01
   3.17829E+01  3.21989E+01  3.29224E+01  3.30952E+01  3.34845E+01  3.34081E+01  3.32008E+01  3.28541E+01  3.22327E+01  3.16606E+01
   3.06901E+01  3.01217E+01  2.91910E+01  2.86930E+01  2.77005E+01  2.72578E+01  2.63210E+01  2.58704E+01  2.50361E+01  2.47155E+01
   2.45494E+01  2.44328E+01  2.43172E+01  2.42285E+01  2.41388E+01  2.40492E+01  2.39741E+01  2.38923E+01  2.38236E+01  2.37428E+01
   2.36746E+01  2.35931E+01  2.35243E+01  2.34545E+01  2.33971E+01  2.33369E+01  2.32856E+01  2.32315E+01  2.31817E+01  2.31286E+01
   2.30748E+01  2.30190E+01  2.29624E+01  2.29045E+01  2.28459E+01  2.27868E+01  2.27281E+01  2.26690E+01  2.26103E+01  2.25522E+01
   2.24927E+01  2.24290E+01  2.24036E+01  2.23865E+01  2.24476E+01  2.25672E+01  2.26177E+01  2.27534E+01  2.28176E+01  2.29904E+01
   2.28850E+01  2.28704E+01  2.25722E+01  2.24823E+01  2.22470E+01  2.21725E+01  2.19527E+01  2.19688E+01  2.19118E+01  2.18776E+01
   2.18906E+01  2.16437E+01  2.16537E+01  2.12835E+01  2.15258E+01  2.12696E+01  2.16247E+01  2.14557E+01  2.20058E+01  2.20056E+01
   2.23413E+01  2.21241E+01  2.21920E+01  2.20519E+01  2.19973E+01  2.20628E+01  2.18374E+01  2.25704E+01  2.19274E+01  2.27773E+01
   2.16012E+01  2.23392E+01  2.06695E+01  2.13466E+01  1.94294E+01  2.04091E+01  1.87395E+01  1.99133E+01  1.85425E+01  1.98710E+01
   1.86653E+01  1.98216E+01  1.88386E+01  1.97540E+01  1.90376E+01  1.96698E+01  1.93599E+01  1.99754E+01  1.95827E+01  1.97911E+01
   1.93830E+01  1.92430E+01  1.88382E+01  1.83755E+01  1.80868E+01  1.78752E+01  1.77035E+01  1.75574E+01  1.74297E+01  1.73164E+01
   1.72153E+01  1.71248E+01  1.70440E+01  1.69724E+01  1.69095E+01  1.68552E+01  1.68091E+01  1.67710E+01  1.67406E+01  1.67173E+01
   1.67006E+01  1.66897E+01  1.66835E+01  1.66809E+01  1.66804E+01  1.66804E+01  1.66792E+01  1.66750E+01  1.66657E+01  1.66496E+01
   1.66250E+01  1.65904E+01  1.65445E+01  1.64865E+01  1.64157E+01  1.63322E+01  1.62363E+01  1.61286E+01  1.60103E+01  1.58826E+01
   1.57472E+01  1.56057E+01  1.54600E+01  1.53117E+01  1.51627E+01  1.50143E+01  1.48679E+01  1.47248E+01  1.45857E+01  1.44513E+01
   1.43220E+01  1.41981E+01  1.40797E+01  1.39666E+01  1.38587E+01  1.37558E+01  1.36574E+01  1.35632E+01  1.34729E+01  1.33860E+01
   1.33023E+01  1.32214E+01  1.31430E+01  1.30668E+01  1.29925E+01  1.29199E+01  1.28490E+01  1.27794E+01  1.27110E+01  1.26437E+01
   1.25774E+01  1.25120E+01  1.24474E+01  1.23836E+01  1.23204E+01  1.22579E+01  1.21960E+01  1.21346E+01  1.20737E+01  1.20133E+01
   1.19533E+01  1.18938E+01  1.18346E+01  1.17758E+01  1.17174E+01  1.16593E+01  1.16015E+01  1.15440E+01  1.14867E+01  1.14298E+01
   1.13731E+01  1.13166E+01  1.12604E+01  1.12044E+01  1.11486E+01  1.10930E+01  1.10375E+01  1.09823E+01  1.09272E+01  1.08723E+01
   1.08175E+01  1.07629E+01  1.07084E+01  1.06540E+01  1.05998E+01  1.05457E+01  1.04916E+01  1.04377E+01  1.03839E+01  1.03301E+01
   1.02764E+01  1.02228E+01  1.01693E+01  1.01158E+01  1.00624E+01  1.00090E+01  9.95568E+00  9.90238E+00  9.84912E+00  9.79588E+00
   9.74267E+00  9.68948E+00  9.63630E+00  9.58314E+00  9.52998E+00  9.47682E+00  9.42368E+00  9.37053E+00
 NY background values follow
     8.103E+01    8.051E+01    7.998E+01    7.946E+01    7.893E+01    7.841E+01    7.788E+01    7.736E+01    7.683E+01    7.631E+01
     7.578E+01    7.526E+01    7.473E+01    7.421E+01    7.369E+01    7.317E+01    7.265E+01    7.213E+01    7.161E+01    7.109E+01
     7.057E+01    7.006E+01    6.954E+01    6.903E+01    6.852E+01    6.801E+01    6.750E+01    6.700E+01    6.649E+01    6.599E+01
     6.549E+01    6.499E+01    6.449E+01    6.400E+01    6.351E+01    6.302E+01    6.253E+01    6.204E+01    6.156E+01    6.108E+01
     6.060E+01    6.013E+01    5.966E+01    5.919E+01    5.872E+01    5.826E+01    5.780E+01    5.735E+01    5.689E+01    5.644E+01
     5.600E+01    5.555E+01    5.511E+01    5.468E+01    5.425E+01    5.382E+01    5.339E+01    5.297E+01    5.255E+01    5.213E+01
     5.172E+01    5.131E+01    5.091E+01    5.051E+01    5.011E+01    4.972E+01    4.933E+01    4.894E+01    4.856E+01    4.818E+01
     4.781E+01    4.744E+01    4.707E+01    4.671E+01    4.635E+01    4.600E+01    4.565E+01    4.530E+01    4.496E+01    4.462E+01
     4.429E+01    4.396E+01    4.363E+01    4.331E+01    4.300E+01    4.268E+01    4.238E+01    4.207E+01    4.177E+01    4.148E+01
     4.119E+01    4.090E+01    4.062E+01    4.034E+01    4.007E+01    3.980E+01    3.954E+01    3.928E+01    3.902E+01    3.877E+01
     3.852E+01    3.828E+01    3.804E+01    3.780E+01    3.757E+01    3.734E+01    3.712E+01    3.690E+01    3.668E+01    3.647E+01
     3.626E+01    3.605E+01    3.585E+01    3.565E+01    3.545E+01    3.526E+01    3.507E+01    3.488E+01    3.470E+01    3.452E+01
     3.434E+01    3.416E+01    3.399E+01    3.382E+01    3.366E+01    3.349E+01    3.333E+01    3.317E+01    3.302E+01    3.287E+01
     3.271E+01    3.257E+01    3.242E+01    3.228E+01    3.214E+01    3.200E+01    3.186E+01    3.173E+01    3.159E+01    3.146E+01
     3.133E+01    3.121E+01    3.108E+01    3.096E+01    3.084E+01    3.072E+01    3.061E+01    3.049E+01    3.038E+01    3.027E+01
     3.016E+01    3.005E+01    2.995E+01    2.985E+01    2.975E+01    2.965E+01    2.955E+01    2.945E+01    2.936E+01    2.927E+01
     2.918E+01    2.909E+01    2.900E+01    2.892E+01    2.884E+01    2.875E+01    2.867E+01    2.860E+01    2.852E+01    2.844E+01
     2.837E+01    2.830E+01    2.823E+01    2.816E+01    2.809E+01    2.803E+01    2.796E+01    2.790E+01    2.784E+01    2.778E+01
     2.772E+01    2.766E+01    2.761E+01    2.756E+01    2.750E+01    2.745E+01    2.740E+01    2.735E+01    2.730E+01    2.726E+01
     2.721E+01    2.717E+01    2.712E+01    2.708E+01    2.704E+01    2.700E+01    2.696E+01    2.692E+01    2.688E+01    2.684E+01
     2.681E+01    2.677E+01    2.674E+01    2.670E+01    2.667E+01    2.663E+01    2.660E+01    2.657E+01    2.653E+01    2.650E+01
     2.647E+01    2.644E+01    2.641E+01    2.637E+01    2.634E+01    2.631E+01    2.628E+01    2.625E+01    2.622E+01    2.619E+01
     2.616E+01    2.613E+01    2.610E+01    2.606E+01    2.603E+01    2.600E+01    2.597E+01    2.593E+01    2.590E+01    2.587E+01
     2.583E+01    2.580E+01    2.576E+01    2.573E+01    2.569E+01    2.566E+01    2.562E+01    2.558E+01    2.555E+01    2.551E+01
     2.547E+01    2.543E+01    2.539E+01    2.535E+01    2.531E+01    2.527E+01    2.523E+01    2.519E+01    2.514E+01    2.510E+01
     2.506E+01    2.501E+01    2.497E+01    2.492E+01    2.487E+01    2.483E+01    2.478E+01    2.473E+01    2.468E+01    2.463E+01
     2.458E+01    2.453E+01    2.448E+01    2.443E+01    2.437E+01    2.432E+01    2.426E+01    2.421E+01    2.415E+01    2.409E+01
     2.404E+01    2.398E+01    2.392E+01    2.386E+01    2.379E+01    2.373E+01    2.367E+01    2.361E+01    2.354E+01    2.348E+01
     2.341E+01    2.334E+01    2.328E+01    2.321E+01    2.314E+01    2.307E+01    2.300E+01    2.293E+01    2.286E+01    2.279E+01
     2.272E+01    2.265E+01    2.258E+01    2.251E+01    2.244E+01    2.236E+01    2.229E+01    2.222E+01    2.214E+01    2.207E+01
     2.199E+01    2.192E+01    2.185E+01    2.177E+01    2.170E+01    2.162E+01    2.155E+01    2.147E+01    2.140E+01    2.132E+01
     2.125E+01    2.117E+01    2.110E+01    2.102E+01    2.095E+01    2.087E+01    2.080E+01    2.072E+01    2.065E+01    2.058E+01
     2.050E+01    2.043E+01    2.036E+01    2.028E+01    2.021E+01    2.014E+01    2.006E+01    1.999E+01    1.992E+01    1.984E+01
     1.977E+01    1.970E+01    1.963E+01    1.956E+01    1.948E+01    1.941E+01    1.934E+01    1.927E+01    1.920E+01    1.913E+01
     1.905E+01    1.898E+01    1.891E+01    1.884E+01    1.877E+01    1.870E+01    1.863E+01    1.855E+01    1.848E+01    1.841E+01
     1.834E+01    1.827E+01    1.820E+01    1.813E+01    1.806E+01    1.799E+01    1.792E+01    1.784E+01    1.777E+01    1.770E+01
     1.763E+01    1.756E+01    1.749E+01    1.742E+01    1.735E+01    1.728E+01    1.721E+01    1.713E+01    1.706E+01    1.699E+01
     1.692E+01    1.685E+01    1.678E+01    1.671E+01    1.664E+01    1.657E+01    1.650E+01    1.642E+01    1.635E+01    1.628E+01
     1.621E+01    1.614E+01    1.607E+01    1.600E+01    1.593E+01    1.586E+01    1.579E+01    1.572E+01    1.565E+01    1.558E+01
     1.552E+01    1.545E+01    1.538E+01    1.531E+01    1.524E+01    1.517E+01    1.510E+01    1.504E+01    1.497E+01    1.490E+01
     1.483E+01    1.477E+01    1.470E+01    1.463E+01    1.457E+01    1.450E+01    1.444E+01    1.437E+01    1.431E+01    1.424E+01
     1.418E+01    1.411E+01    1.405E+01    1.398E+01    1.392E+01    1.386E+01    1.379E+01    1.373E+01    1.367E+01    1.361E+01
     1.355E+01    1.348E+01    1.342E+01    1.336E+01    1.330E+01    1.324E+01    1.318E+01    1.312E+01    1.306E+01    1.300E+01
     1.294E+01    1.288E+01    1.282E+01    1.276E+01    1.270E+01    1.264E+01    1.259E+01    1.253E+01    1.247E+01    1.241E+01
     1.235E+01    1.230E+01    1.224E+01    1.218E+01    1.213E+01    1.207E+01    1.201E+01    1.196E+01    1.190E+01    1.185E+01
     1.179E+01    1.174E+01    1.168E+01    1.163E+01    1.157E+01    1.152E+01    1.146E+01    1.141E+01    1.135E+01    1.130E+01
     1.124E+01    1.119E+01    1.114E+01    1.108E+01    1.103E+01    1.098E+01    1.092E+01    1.087E+01    1.082E+01    1.076E+01
     1.071E+01    1.066E+01    1.060E+01    1.055E+01    1.050E+01    1.045E+01    1.039E+01    1.034E+01    1.029E+01    1.024E+01
     1.018E+01    1.013E+01    1.008E+01    1.003E+01    9.975E+00    9.923E+00    9.871E+00    9.819E+00    9.767E+00    9.714E+00
     9.662E+00    9.610E+00    9.557E+00    9.505E+00    9.453E+00    9.400E+00    9.348E+00    9.296E+00
 Ala      Conc. = 4.79E+02
