 LCModel (Version 6.3-1L) Copyright: S.W. Provencher.          Ref.: Magn. Reson. Med. 30:672-679 (1993).                
 Slice#3 Row#8 Col#11  K_02_press_1_raw_act
 36 lines in following concentration table = NCONC+1
    Conc.  %SD /Cr+PCr  Metabolite                                         
  113.960  87% 6.7E-02 Ala                                                 
    0.000 999%   0.000 Asp                                                 
  207.441 124%   0.122 Cr                                                  
 1.49E+03  18%   0.878 PCr                                                 
    0.000 999%   0.000 GABA                                                
    0.000 999%   0.000 Glc                                                 
  743.067  27%   0.437 Gln                                                 
 1.46E+03  15%   0.858 Glu                                                 
  467.409   5%   0.275 GPC                                                 
    0.000 999%   0.000 PCh                                                 
  365.454  19%   0.215 GSH                                                 
  927.793  26%   0.546 Ins                                                 
   12.458 846% 7.3E-03 Lac                                                 
 2.56E+03   5%   1.507 NAA                                                 
  236.527  55%   0.139 NAAG                                                
   51.352  52% 3.0E-02 Scyllo                                              
    0.000 999%   0.000 Tau                                                 
  929.640  13%   0.547 -CrCH2                                              
  467.409   5%   0.275 GPC+PCh                                             
 2.80E+03   3%   1.646 NAA+NAAG                                            
 1.70E+03   4%   1.000 Cr+PCr                                              
 2.20E+03  14%   1.295 Glu+Gln                                             
 6.04E+03  21%   3.551 Lip13a                                              
    0.000 999%   0.000 Lip13b                                              
 1.37E+03  37%   0.807 Lip09                                               
  847.914  53%   0.499 MM09                                                
  908.729  38%   0.534 Lip20                                               
 3.57E+03  16%   2.096 MM20                                                
  492.858  73%   0.290 MM12                                                
 2.80E+03  21%   1.645 MM14                                                
  944.079  39%   0.555 MM17                                                
 6.04E+03  21%   3.551 Lip13a+Lip13b                                       
 9.33E+03  10%   5.487 MM14+Lip13a+Lip13b+MM12                             
 2.22E+03  15%   1.305 MM09+Lip09                                          
 4.47E+03  12%   2.631 MM20+Lip20                                          
   6 lines in following misc. output table
  FWHM = 0.038 ppm    S/N =  16                                            
  Data shift = 0.000 ppm                                                   
  Ph: -18 deg     -11.1 deg/ppm                                            
  alphaB,S = 5.3E-01,   8.6E+01                                            
   14 spline knots.   Ns = 6(1)                                            
  ( 9) 3 infls.   ( 5) 1 extrs.                                            
  498 points on ppm-axis = NY
      4.000000     3.992357     3.984714     3.977070     3.969427     3.961784     3.954141     3.946497     3.938854     3.931211
      3.923568     3.915925     3.908281     3.900638     3.892995     3.885352     3.877708     3.870065     3.862422     3.854779
      3.847136     3.839492     3.831849     3.824206     3.816563     3.808919     3.801276     3.793633     3.785990     3.778347
      3.770703     3.763060     3.755417     3.747774     3.740130     3.732487     3.724844     3.717201     3.709558     3.701914
      3.694271     3.686628     3.678985     3.671341     3.663698     3.656055     3.648412     3.640769     3.633125     3.625482
      3.617839     3.610196     3.602552     3.594909     3.587266     3.579623     3.571980     3.564336     3.556693     3.549050
      3.541407     3.533763     3.526120     3.518477     3.510834     3.503191     3.495547     3.487904     3.480261     3.472618
      3.464974     3.457331     3.449688     3.442045     3.434402     3.426758     3.419115     3.411472     3.403829     3.396185
      3.388542     3.380899     3.373256     3.365613     3.357969     3.350326     3.342683     3.335040     3.327396     3.319753
      3.312110     3.304467     3.296824     3.289180     3.281537     3.273894     3.266251     3.258607     3.250964     3.243321
      3.235678     3.228034     3.220391     3.212748     3.205105     3.197462     3.189818     3.182175     3.174532     3.166889
      3.159245     3.151602     3.143959     3.136316     3.128673     3.121029     3.113386     3.105743     3.098100     3.090456
      3.082813     3.075170     3.067527     3.059884     3.052240     3.044597     3.036954     3.029311     3.021667     3.014024
      3.006381     2.998738     2.991095     2.983451     2.975808     2.968165     2.960522     2.952878     2.945235     2.937592
      2.929949     2.922306     2.914662     2.907019     2.899376     2.891733     2.884089     2.876446     2.868803     2.861160
      2.853517     2.845873     2.838230     2.830587     2.822944     2.815300     2.807657     2.800014     2.792371     2.784728
      2.777084     2.769441     2.761798     2.754155     2.746511     2.738868     2.731225     2.723582     2.715939     2.708295
      2.700652     2.693009     2.685366     2.677722     2.670079     2.662436     2.654793     2.647150     2.639506     2.631863
      2.624220     2.616577     2.608933     2.601290     2.593647     2.586004     2.578361     2.570717     2.563074     2.555431
      2.547788     2.540144     2.532501     2.524858     2.517215     2.509572     2.501928     2.494285     2.486642     2.478999
      2.471355     2.463712     2.456069     2.448426     2.440783     2.433139     2.425496     2.417853     2.410210     2.402566
      2.394923     2.387280     2.379637     2.371994     2.364350     2.356707     2.349064     2.341421     2.333777     2.326134
      2.318491     2.310848     2.303205     2.295561     2.287918     2.280275     2.272632     2.264988     2.257345     2.249702
      2.242059     2.234416     2.226772     2.219129     2.211486     2.203843     2.196199     2.188556     2.180913     2.173270
      2.165627     2.157983     2.150340     2.142697     2.135054     2.127410     2.119767     2.112124     2.104481     2.096838
      2.089194     2.081551     2.073908     2.066265     2.058621     2.050978     2.043335     2.035692     2.028049     2.020405
      2.012762     2.005119     1.997476     1.989833     1.982190     1.974546     1.966903     1.959260     1.951617     1.943974
      1.936331     1.928688     1.921045     1.913402     1.905759     1.898115     1.890472     1.882829     1.875186     1.867543
      1.859900     1.852257     1.844614     1.836971     1.829327     1.821684     1.814041     1.806398     1.798755     1.791112
      1.783469     1.775826     1.768183     1.760540     1.752896     1.745253     1.737610     1.729967     1.722324     1.714681
      1.707038     1.699395     1.691752     1.684108     1.676465     1.668822     1.661179     1.653536     1.645893     1.638250
      1.630607     1.622964     1.615321     1.607677     1.600034     1.592391     1.584748     1.577105     1.569462     1.561819
      1.554176     1.546533     1.538890     1.531246     1.523603     1.515960     1.508317     1.500674     1.493031     1.485388
      1.477745     1.470102     1.462458     1.454815     1.447172     1.439529     1.431886     1.424243     1.416600     1.408957
      1.401314     1.393671     1.386027     1.378384     1.370741     1.363098     1.355455     1.347812     1.340169     1.332526
      1.324883     1.317240     1.309596     1.301953     1.294310     1.286667     1.279024     1.271381     1.263738     1.256095
      1.248452     1.240808     1.233165     1.225522     1.217879     1.210236     1.202593     1.194950     1.187307     1.179664
      1.172021     1.164377     1.156734     1.149091     1.141448     1.133805     1.126162     1.118519     1.110876     1.103233
      1.095590     1.087946     1.080303     1.072660     1.065017     1.057374     1.049731     1.042088     1.034445     1.026802
      1.019158     1.011515     1.003872     0.996229     0.988586     0.980943     0.973300     0.965657     0.958014     0.950371
      0.942727     0.935084     0.927441     0.919798     0.912155     0.904512     0.896869     0.889226     0.881583     0.873940
      0.866296     0.858653     0.851010     0.843367     0.835724     0.828081     0.820438     0.812795     0.805152     0.797508
      0.789865     0.782222     0.774579     0.766936     0.759293     0.751650     0.744007     0.736364     0.728721     0.721077
      0.713434     0.705791     0.698148     0.690505     0.682862     0.675219     0.667576     0.659933     0.652290     0.644646
      0.637003     0.629360     0.621717     0.614074     0.606431     0.598788     0.591145     0.583502     0.575858     0.568215
      0.560572     0.552929     0.545286     0.537643     0.530000     0.522357     0.514714     0.507071     0.499427     0.491784
      0.484141     0.476498     0.468855     0.461212     0.453569     0.445925     0.438282     0.430639     0.422996     0.415353
      0.407710     0.400067     0.392424     0.384780     0.377137     0.369494     0.361851     0.354208     0.346565     0.338922
      0.331278     0.323635     0.315992     0.308349     0.300706     0.293063     0.285420     0.277777     0.270133     0.262490
      0.254847     0.247204     0.239561     0.231918     0.224275     0.216631     0.208988     0.201345
 NY phased data points follow
   1.74338E+01  1.74587E+01  1.52355E+01  1.64396E+01  1.78153E+01  2.08542E+01  2.45884E+01  2.39442E+01  2.95633E+01  3.33344E+01
   3.57568E+01  3.92897E+01  3.31720E+01  3.19389E+01  2.81540E+01  2.24984E+01  2.12462E+01  1.83841E+01  1.73537E+01  1.96395E+01
   1.41686E+01  1.42267E+01  1.52594E+01  1.66604E+01  2.04113E+01  1.66978E+01  2.35869E+01  1.91274E+01  1.86638E+01  1.97412E+01
   2.43672E+01  2.20331E+01  2.21830E+01  2.46652E+01  2.15485E+01  1.84563E+01  1.42278E+01  1.80493E+01  1.95323E+01  2.17115E+01
   1.64011E+01  1.91575E+01  1.44266E+01  1.92957E+01  1.37767E+01  2.18155E+01  2.29552E+01  2.51322E+01  2.64045E+01  2.16531E+01
   2.43405E+01  2.39030E+01  2.03464E+01  1.53579E+01  1.87765E+01  1.81503E+01  1.12466E+01  1.79839E+01  1.69835E+01  1.18785E+01
   1.48509E+01  1.04809E+01  1.15733E+01  8.47387E+00  3.82322E+00  7.11200E+00  9.64438E+00  4.83996E+00  9.02132E+00  8.49663E+00
   7.94950E+00  1.17465E+01  1.15461E+01  9.30461E+00  9.02549E+00  9.45856E+00  8.58313E+00  6.43571E+00  6.10899E+00  1.37005E+01
   7.43864E+00  1.04116E+01  9.21633E+00  8.45242E+00  1.11227E+01  1.00319E+01  9.67046E+00  8.60097E+00  1.02182E+01  1.25938E+01
   1.12167E+01  9.91412E+00  1.07634E+01  1.39368E+01  1.22100E+01  1.32767E+01  1.64977E+01  2.15902E+01  1.95326E+01  2.09456E+01
   2.64776E+01  3.92488E+01  4.80779E+01  5.73686E+01  5.27997E+01  4.86721E+01  4.00539E+01  2.91005E+01  2.18610E+01  1.43486E+01
   1.67203E+01  1.63864E+01  1.04448E+01  8.73583E+00  9.60259E+00  9.71737E+00  1.21329E+01  1.16139E+01  1.24804E+01  1.50625E+01
   9.69660E+00  1.59309E+01  1.59977E+01  1.73887E+01  2.87264E+01  4.23919E+01  6.27930E+01  7.36344E+01  7.36654E+01  6.12764E+01
   5.10313E+01  3.67120E+01  2.62456E+01  2.01191E+01  1.65599E+01  7.72568E+00  1.08045E+01  1.16877E+01  7.58204E+00  9.34308E+00
   6.14922E+00  9.02037E+00  7.41385E+00  6.50247E+00  6.88595E+00  6.53571E+00  5.58090E+00  4.66070E+00  5.73971E+00  4.14677E+00
  -1.54551E+00  6.83931E+00  3.57635E+00  6.57532E+00  3.91777E+00  4.27928E+00  7.33646E+00  4.18545E+00  5.54737E+00  7.10788E+00
   4.13827E+00  4.04827E+00 -9.10377E-01  7.84512E-01  3.28763E+00  1.61242E+00  1.94038E+00 -1.90933E+00 -4.21977E+00 -6.08241E+00
  -6.60402E+00 -1.03113E+01 -9.07359E+00 -1.10356E+01 -1.48944E+01 -1.47203E+01 -1.86372E+01 -1.45370E+01 -9.16509E+00 -9.39248E+00
  -3.87049E+00 -6.90158E+00 -6.74358E+00 -6.06829E+00 -3.56882E+00 -5.13061E+00 -6.79134E+00 -4.91016E+00 -3.61903E+00 -5.83576E+00
  -2.82432E+00  4.48790E+00  6.23995E+00  5.32585E+00  3.62941E+00 -1.97525E-01  2.12427E+00 -5.40389E+00 -6.88797E+00 -7.67374E+00
  -5.38675E+00 -3.81316E+00  3.06520E+00  8.38221E+00  8.94352E+00  8.71315E+00  7.75330E+00  3.12473E+00 -2.47658E-01 -2.65326E+00
  -6.76328E-01  4.95169E+00  6.17864E+00  1.39548E+01  1.68839E+01  2.03802E+01  2.38350E+01  2.05371E+01  1.66706E+01  9.89375E+00
   5.36318E+00  1.94316E+00  1.91431E+00  3.68479E+00  5.87085E+00  1.15889E+01  1.41236E+01  1.45635E+01  1.60721E+01  1.69786E+01
   1.41283E+01  1.42856E+01  1.11470E+01  9.98682E+00  1.20885E+01  1.38693E+01  1.35227E+01  1.19099E+01  1.02606E+01  1.27651E+01
   1.55785E+01  8.79592E+00  6.56006E+00  9.59533E+00  7.63434E+00  1.53308E+01  1.63940E+01  1.61534E+01  1.88014E+01  1.63448E+01
   2.12129E+01  2.53806E+01  1.97854E+01  2.56507E+01  3.61853E+01  4.82406E+01  5.29763E+01  6.33641E+01  7.90508E+01  1.05507E+02
   1.22622E+02  1.27087E+02  1.06249E+02  7.59250E+01  4.52104E+01  3.27350E+01  2.41422E+01  2.25045E+01  1.90641E+01  1.29479E+01
   1.04274E+01  1.46764E+01  1.27615E+01  1.45412E+01  6.82300E+00  9.88426E+00  7.81009E+00  8.81185E+00  8.92940E+00  1.34170E+01
   8.48808E+00  9.78666E+00  7.07830E+00  9.54679E+00  9.79716E+00  8.54885E+00  9.58883E+00  7.95421E+00  8.09025E+00  1.21979E+01
   1.13739E+01  1.03385E+01  1.00019E+01  1.17332E+01  1.07597E+01  8.10364E+00  7.81744E+00  8.26060E+00  6.60035E+00  7.07532E+00
   7.86363E+00  6.56819E+00  1.16006E+01  1.20473E+01  1.11047E+01  9.08793E+00  9.79601E+00  1.34620E+01  1.55892E+01  1.31108E+01
   1.63052E+01  1.91926E+01  1.68297E+01  1.67257E+01  1.63719E+01  2.01924E+01  2.08344E+01  1.97299E+01  1.36916E+01  1.67037E+01
   1.75657E+01  1.46599E+01  1.46800E+01  2.22989E+01  2.34236E+01  1.96609E+01  2.11009E+01  2.12854E+01  2.80525E+01  2.52953E+01
   2.65067E+01  2.69193E+01  3.06305E+01  3.16606E+01  3.22609E+01  3.35551E+01  3.57070E+01  3.82790E+01  3.81725E+01  3.89109E+01
   4.08105E+01  3.56763E+01  3.48317E+01  3.91146E+01  3.66774E+01  3.99840E+01  3.53314E+01  3.37031E+01  3.18121E+01  2.96043E+01
   2.92249E+01  3.19794E+01  3.38226E+01  2.75402E+01  3.19866E+01  2.97348E+01  2.55109E+01  2.78853E+01  2.51682E+01  2.84384E+01
   2.59998E+01  2.71447E+01  2.81936E+01  2.45238E+01  2.83880E+01  2.68472E+01  2.55191E+01  2.51619E+01  2.61445E+01  2.34512E+01
   2.87647E+01  2.92043E+01  2.39462E+01  2.41347E+01  2.71947E+01  2.61414E+01  2.43358E+01  2.52410E+01  2.53156E+01  2.62348E+01
   1.97062E+01  2.04517E+01  2.23083E+01  1.87117E+01  1.79546E+01  1.82856E+01  2.31315E+01  2.08387E+01  2.03399E+01  1.97868E+01
   2.08423E+01  1.98626E+01  1.90949E+01  1.96800E+01  1.97039E+01  2.26312E+01  2.36666E+01  2.04275E+01  2.31939E+01  2.07907E+01
   2.48819E+01  1.97720E+01  1.95600E+01  2.12532E+01  2.19310E+01  2.03215E+01  2.20081E+01  1.96777E+01  2.44125E+01  2.51816E+01
   2.29967E+01  2.03894E+01  2.00049E+01  2.17507E+01  2.04706E+01  1.94627E+01  1.92697E+01  1.80504E+01  1.57953E+01  1.37237E+01
   1.63975E+01  1.53557E+01  2.02822E+01  1.09025E+01  1.27015E+01  1.24765E+01  1.62618E+01  1.42009E+01  1.27004E+01  1.38665E+01
   1.68739E+01  1.42422E+01  1.33820E+01  1.46952E+01  1.29908E+01  1.60102E+01  1.35457E+01  1.56184E+01  1.59021E+01  1.24397E+01
   1.47065E+01  1.53389E+01  1.05760E+01  1.10988E+01  1.08016E+01  1.10306E+01  1.23379E+01  1.11040E+01  1.33802E+01  1.07759E+01
   8.02549E+00  1.15350E+01  7.53687E+00  8.22663E+00  1.10685E+01  9.10247E+00  1.15683E+01  7.32443E+00  8.80127E+00  8.51425E+00
   1.00543E+01  8.08097E+00  8.85655E+00  8.20662E+00  8.67142E+00  1.05735E+01  8.31152E+00  9.83765E+00  7.75402E+00  9.77635E+00
   7.14744E+00  6.77067E+00  6.56879E+00  1.02577E+01  7.12474E+00  6.15819E+00  7.09600E+00  5.75927E+00  4.68067E+00  8.09769E+00
   8.22011E+00  1.05889E+01  8.79147E+00  7.63264E+00  9.12179E+00  8.64594E+00  8.87082E+00  7.90539E+00  1.02758E+01  9.05354E+00
   4.15484E+00  9.01038E+00  1.09159E+01  6.49068E+00  6.17296E+00  8.24897E+00  4.52641E+00  8.40395E+00
 NY points of the fit to the data follow
   1.77774E+01  1.74159E+01  1.73619E+01  1.76183E+01  1.90492E+01  2.07218E+01  2.24592E+01  2.50287E+01  2.90228E+01  3.37728E+01
   3.73982E+01  3.81626E+01  3.56676E+01  3.11501E+01  2.66281E+01  2.34523E+01  2.14622E+01  1.98472E+01  1.89450E+01  1.84416E+01
   1.81401E+01  1.78832E+01  1.75143E+01  1.72475E+01  1.72466E+01  1.70104E+01  1.67074E+01  1.71135E+01  1.88822E+01  2.18318E+01
   2.49667E+01  2.71294E+01  2.74507E+01  2.59196E+01  2.31666E+01  1.99226E+01  1.68291E+01  1.46837E+01  1.39983E+01  1.42555E+01
   1.49755E+01  1.58746E+01  1.67848E+01  1.75467E+01  1.82897E+01  1.93667E+01  2.07746E+01  2.20397E+01  2.24816E+01  2.15814E+01
   1.95007E+01  1.70354E+01  1.49382E+01  1.35460E+01  1.28245E+01  1.25618E+01  1.26538E+01  1.29791E+01  1.34616E+01  1.40036E+01
   1.43923E+01  1.43874E+01  1.38583E+01  1.29151E+01  1.18837E+01  1.10984E+01  1.07478E+01  1.07897E+01  1.10747E+01  1.14483E+01
   1.18375E+01  1.21580E+01  1.23114E+01  1.22403E+01  1.19431E+01  1.15164E+01  1.10978E+01  1.07817E+01  1.05768E+01  1.04339E+01
   1.04292E+01  1.05288E+01  1.05575E+01  1.06265E+01  1.08971E+01  1.12447E+01  1.12953E+01  1.07815E+01  9.80351E+00  8.76774E+00
   8.12266E+00  8.07955E+00  8.44275E+00  8.91173E+00  9.40585E+00  1.00192E+01  1.10864E+01  1.38153E+01  1.74333E+01  2.13173E+01
   2.76568E+01  3.77757E+01  4.93583E+01  5.73744E+01  5.77206E+01  5.01731E+01  3.82912E+01  2.69132E+01  1.89782E+01  1.41063E+01
   1.05648E+01  8.53863E+00  7.94379E+00  7.77476E+00  7.73453E+00  7.76138E+00  7.83625E+00  7.95643E+00  8.15210E+00  8.53650E+00
   9.57121E+00  1.29878E+01  1.83280E+01  2.37036E+01  3.14618E+01  4.39679E+01  5.91865E+01  7.09878E+01  7.34383E+01  6.51734E+01
   5.03100E+01  3.53271E+01  2.45730E+01  1.78828E+01  1.25506E+01  8.45320E+00  6.41977E+00  5.42235E+00  5.26298E+00  5.77280E+00
   6.55333E+00  7.23314E+00  7.58553E+00  7.50799E+00  7.10558E+00  6.59174E+00  6.10782E+00  5.72327E+00  5.39985E+00  5.09828E+00
   4.83899E+00  4.58607E+00  4.33070E+00  4.10947E+00  3.90755E+00  3.65135E+00  3.50107E+00  3.40493E+00  3.11572E+00  2.52062E+00
   1.62004E+00  9.37427E-01  9.69692E-01  1.63001E+00  2.30890E+00  2.37043E+00  1.63784E+00  4.96446E-01 -5.47396E-01 -1.34438E+00
  -1.93105E+00 -2.34132E+00 -2.65860E+00 -3.08776E+00 -3.79274E+00 -4.52634E+00 -4.67043E+00 -4.09952E+00 -3.32681E+00 -2.97229E+00
  -3.21627E+00 -3.73534E+00 -3.82014E+00 -3.39345E+00 -3.00368E+00 -2.80996E+00 -2.38278E+00 -1.28060E+00  5.69713E-01  2.68364E+00
   4.42379E+00  5.29642E+00  5.09510E+00  4.29859E+00  3.36675E+00  2.41873E+00  1.65530E+00  1.32380E+00  1.62087E+00  2.58359E+00
   4.17808E+00  6.10840E+00  7.92965E+00  9.05877E+00  8.95703E+00  7.79709E+00  5.51030E+00  2.23797E+00 -1.06107E+00 -3.33267E+00
  -3.82048E+00 -2.69726E+00 -1.40942E-01  3.65749E+00  7.98492E+00  1.15123E+01  1.29792E+01  1.19667E+01  8.93124E+00  5.01013E+00
   1.16560E+00 -1.75227E+00 -2.86367E+00 -1.72972E+00  1.53351E+00  5.62066E+00  9.15785E+00  1.14981E+01  1.26131E+01  1.27707E+01
   1.22051E+01  1.14610E+01  1.10703E+01  1.11822E+01  1.17012E+01  1.26244E+01  1.37019E+01  1.46109E+01  1.52921E+01  1.54762E+01
   1.49108E+01  1.38412E+01  1.29657E+01  1.27918E+01  1.33842E+01  1.46408E+01  1.61749E+01  1.74966E+01  1.83421E+01  1.90348E+01
   2.00630E+01  2.12533E+01  2.28495E+01  2.61858E+01  3.47624E+01  4.49057E+01  5.32512E+01  6.48883E+01  8.39777E+01  1.06580E+02
   1.22226E+02  1.21924E+02  1.04682E+02  7.82096E+01  5.35726E+01  3.71655E+01  2.73310E+01  1.94523E+01  1.47899E+01  1.32471E+01
   1.23385E+01  1.16809E+01  1.13010E+01  1.11193E+01  1.09675E+01  1.07477E+01  1.04141E+01  9.99777E+00  9.56507E+00  9.16842E+00
   8.82567E+00  8.55655E+00  8.37624E+00  8.27332E+00  8.20958E+00  8.14893E+00  8.08727E+00  8.04152E+00  8.02340E+00  8.04195E+00
   8.11019E+00  8.23727E+00  8.41683E+00  8.63199E+00  8.87208E+00  9.13147E+00  9.40509E+00  9.69669E+00  1.00098E+01  1.03486E+01
   1.07166E+01  1.11106E+01  1.15178E+01  1.19253E+01  1.23214E+01  1.27012E+01  1.30600E+01  1.33933E+01  1.36999E+01  1.39828E+01
   1.42445E+01  1.44916E+01  1.47298E+01  1.49686E+01  1.52191E+01  1.54968E+01  1.58171E+01  1.61972E+01  1.66531E+01  1.72048E+01
   1.78787E+01  1.87122E+01  1.96465E+01  2.06457E+01  2.17873E+01  2.30451E+01  2.42418E+01  2.51853E+01  2.58276E+01  2.63703E+01
   2.70762E+01  2.80053E+01  2.91631E+01  3.05457E+01  3.21200E+01  3.38041E+01  3.53479E+01  3.64618E+01  3.70566E+01  3.72276E+01
   3.71597E+01  3.69833E+01  3.66869E+01  3.62746E+01  3.58260E+01  3.53416E+01  3.48062E+01  3.42137E+01  3.35766E+01  3.29377E+01
   3.23336E+01  3.17865E+01  3.13104E+01  3.09102E+01  3.05767E+01  3.02937E+01  3.00276E+01  2.97465E+01  2.94404E+01  2.91182E+01
   2.87905E+01  2.84584E+01  2.81105E+01  2.77459E+01  2.73631E+01  2.69595E+01  2.65332E+01  2.60861E+01  2.56192E+01  2.51368E+01
   2.46428E+01  2.41437E+01  2.36445E+01  2.31519E+01  2.26704E+01  2.22069E+01  2.17665E+01  2.13557E+01  2.09786E+01  2.06401E+01
   2.03429E+01  2.00914E+01  1.98878E+01  1.97353E+01  1.96343E+01  1.95859E+01  1.95891E+01  1.96442E+01  1.97489E+01  1.99013E+01
   2.00966E+01  2.03302E+01  2.05958E+01  2.08874E+01  2.11967E+01  2.15156E+01  2.18337E+01  2.21418E+01  2.24296E+01  2.26886E+01
   2.29089E+01  2.30829E+01  2.32023E+01  2.32623E+01  2.32583E+01  2.31891E+01  2.30534E+01  2.28529E+01  2.25895E+01  2.22687E+01
   2.18957E+01  2.14779E+01  2.10219E+01  2.05356E+01  2.00260E+01  1.95018E+01  1.89696E+01  1.84367E+01  1.79080E+01  1.73890E+01
   1.68833E+01  1.63955E+01  1.59275E+01  1.54817E+01  1.50584E+01  1.46589E+01  1.42827E+01  1.39305E+01  1.36012E+01  1.32942E+01
   1.30077E+01  1.27413E+01  1.24933E+01  1.22634E+01  1.20496E+01  1.18510E+01  1.16656E+01  1.14933E+01  1.13325E+01  1.11831E+01
   1.10430E+01  1.09121E+01  1.07888E+01  1.06733E+01  1.05646E+01  1.04626E+01  1.03658E+01  1.02743E+01  1.01870E+01  1.01046E+01
   1.00260E+01  9.95141E+00  9.87957E+00  9.81089E+00  9.74469E+00  9.68164E+00  9.62080E+00  9.56241E+00  9.50544E+00  9.45058E+00
   9.39724E+00  9.34610E+00  9.29618E+00  9.24783E+00  9.20022E+00  9.15418E+00  9.10916E+00  9.06573E+00  9.02291E+00  8.98115E+00
   8.93979E+00  8.89974E+00  8.86038E+00  8.82221E+00  8.78428E+00  8.74716E+00  8.71033E+00  8.67466E+00  8.63946E+00  8.60515E+00
   8.57086E+00  8.53728E+00  8.50397E+00  8.47174E+00  8.43980E+00  8.40856E+00  8.37724E+00  8.34666E+00  8.31638E+00  8.28710E+00
   8.25796E+00  8.22941E+00  8.20080E+00  8.17301E+00  8.14555E+00  8.11903E+00  8.09254E+00  8.06663E+00
 NY background values follow
     1.410E+01    1.402E+01    1.395E+01    1.387E+01    1.380E+01    1.372E+01    1.365E+01    1.357E+01    1.350E+01    1.342E+01
     1.335E+01    1.327E+01    1.320E+01    1.312E+01    1.305E+01    1.297E+01    1.289E+01    1.282E+01    1.274E+01    1.267E+01
     1.259E+01    1.252E+01    1.244E+01    1.236E+01    1.229E+01    1.221E+01    1.214E+01    1.206E+01    1.198E+01    1.191E+01
     1.183E+01    1.175E+01    1.168E+01    1.160E+01    1.152E+01    1.144E+01    1.137E+01    1.129E+01    1.121E+01    1.113E+01
     1.106E+01    1.098E+01    1.090E+01    1.082E+01    1.074E+01    1.066E+01    1.058E+01    1.050E+01    1.042E+01    1.034E+01
     1.026E+01    1.018E+01    1.010E+01    1.002E+01    9.943E+00    9.862E+00    9.781E+00    9.700E+00    9.618E+00    9.537E+00
     9.455E+00    9.372E+00    9.290E+00    9.207E+00    9.125E+00    9.042E+00    8.958E+00    8.875E+00    8.791E+00    8.707E+00
     8.623E+00    8.538E+00    8.454E+00    8.369E+00    8.284E+00    8.198E+00    8.113E+00    8.027E+00    7.941E+00    7.854E+00
     7.768E+00    7.681E+00    7.594E+00    7.506E+00    7.419E+00    7.331E+00    7.243E+00    7.154E+00    7.066E+00    6.977E+00
     6.887E+00    6.798E+00    6.708E+00    6.618E+00    6.528E+00    6.438E+00    6.347E+00    6.256E+00    6.165E+00    6.074E+00
     5.982E+00    5.891E+00    5.799E+00    5.707E+00    5.615E+00    5.523E+00    5.431E+00    5.339E+00    5.247E+00    5.155E+00
     5.062E+00    4.970E+00    4.878E+00    4.786E+00    4.693E+00    4.601E+00    4.509E+00    4.417E+00    4.325E+00    4.233E+00
     4.141E+00    4.049E+00    3.957E+00    3.866E+00    3.775E+00    3.683E+00    3.592E+00    3.502E+00    3.411E+00    3.321E+00
     3.230E+00    3.141E+00    3.051E+00    2.961E+00    2.872E+00    2.783E+00    2.695E+00    2.607E+00    2.519E+00    2.432E+00
     2.345E+00    2.258E+00    2.172E+00    2.087E+00    2.003E+00    1.919E+00    1.836E+00    1.753E+00    1.672E+00    1.591E+00
     1.512E+00    1.433E+00    1.356E+00    1.279E+00    1.204E+00    1.129E+00    1.056E+00    9.847E-01    9.142E-01    8.452E-01
     7.775E-01    7.112E-01    6.465E-01    5.833E-01    5.217E-01    4.618E-01    4.035E-01    3.469E-01    2.921E-01    2.392E-01
     1.881E-01    1.389E-01    9.172E-02    4.651E-02    3.362E-03   -3.769E-02   -7.659E-02   -1.133E-01   -1.478E-01   -1.800E-01
    -2.098E-01   -2.373E-01   -2.624E-01   -2.851E-01   -3.055E-01   -3.237E-01   -3.396E-01   -3.534E-01   -3.651E-01   -3.747E-01
    -3.824E-01   -3.880E-01   -3.917E-01   -3.936E-01   -3.937E-01   -3.919E-01   -3.885E-01   -3.833E-01   -3.766E-01   -3.683E-01
    -3.584E-01   -3.471E-01   -3.343E-01   -3.201E-01   -3.046E-01   -2.878E-01   -2.698E-01   -2.506E-01   -2.302E-01   -2.088E-01
    -1.863E-01   -1.628E-01   -1.383E-01   -1.130E-01   -8.678E-02   -5.978E-02   -3.201E-02   -3.543E-03    2.559E-02    5.533E-02
     8.563E-02    1.164E-01    1.477E-01    1.794E-01    2.115E-01    2.439E-01    2.766E-01    3.095E-01    3.426E-01    3.760E-01
     4.095E-01    4.434E-01    4.775E-01    5.118E-01    5.463E-01    5.811E-01    6.162E-01    6.515E-01    6.871E-01    7.229E-01
     7.589E-01    7.953E-01    8.319E-01    8.687E-01    9.058E-01    9.432E-01    9.809E-01    1.019E+00    1.057E+00    1.096E+00
     1.134E+00    1.173E+00    1.213E+00    1.252E+00    1.292E+00    1.332E+00    1.373E+00    1.414E+00    1.455E+00    1.496E+00
     1.538E+00    1.580E+00    1.622E+00    1.665E+00    1.708E+00    1.751E+00    1.794E+00    1.838E+00    1.882E+00    1.927E+00
     1.972E+00    2.017E+00    2.062E+00    2.108E+00    2.154E+00    2.200E+00    2.247E+00    2.294E+00    2.341E+00    2.389E+00
     2.437E+00    2.485E+00    2.533E+00    2.581E+00    2.630E+00    2.679E+00    2.728E+00    2.777E+00    2.827E+00    2.876E+00
     2.926E+00    2.976E+00    3.026E+00    3.076E+00    3.126E+00    3.177E+00    3.227E+00    3.278E+00    3.328E+00    3.379E+00
     3.430E+00    3.481E+00    3.532E+00    3.583E+00    3.634E+00    3.685E+00    3.736E+00    3.787E+00    3.838E+00    3.889E+00
     3.939E+00    3.990E+00    4.041E+00    4.092E+00    4.143E+00    4.193E+00    4.244E+00    4.294E+00    4.344E+00    4.395E+00
     4.445E+00    4.495E+00    4.544E+00    4.594E+00    4.644E+00    4.693E+00    4.742E+00    4.791E+00    4.840E+00    4.889E+00
     4.937E+00    4.986E+00    5.034E+00    5.082E+00    5.129E+00    5.177E+00    5.224E+00    5.271E+00    5.318E+00    5.364E+00
     5.410E+00    5.456E+00    5.502E+00    5.547E+00    5.592E+00    5.637E+00    5.682E+00    5.726E+00    5.770E+00    5.813E+00
     5.856E+00    5.899E+00    5.942E+00    5.984E+00    6.026E+00    6.067E+00    6.108E+00    6.149E+00    6.190E+00    6.230E+00
     6.269E+00    6.308E+00    6.347E+00    6.385E+00    6.423E+00    6.461E+00    6.498E+00    6.534E+00    6.570E+00    6.606E+00
     6.641E+00    6.676E+00    6.711E+00    6.745E+00    6.778E+00    6.811E+00    6.844E+00    6.876E+00    6.907E+00    6.939E+00
     6.969E+00    6.999E+00    7.029E+00    7.058E+00    7.087E+00    7.115E+00    7.143E+00    7.170E+00    7.197E+00    7.223E+00
     7.249E+00    7.274E+00    7.299E+00    7.323E+00    7.347E+00    7.370E+00    7.393E+00    7.415E+00    7.436E+00    7.457E+00
     7.478E+00    7.498E+00    7.517E+00    7.536E+00    7.554E+00    7.572E+00    7.589E+00    7.605E+00    7.621E+00    7.637E+00
     7.651E+00    7.666E+00    7.679E+00    7.693E+00    7.705E+00    7.717E+00    7.729E+00    7.740E+00    7.750E+00    7.760E+00
     7.769E+00    7.778E+00    7.786E+00    7.794E+00    7.801E+00    7.808E+00    7.814E+00    7.820E+00    7.825E+00    7.830E+00
     7.834E+00    7.837E+00    7.840E+00    7.843E+00    7.845E+00    7.846E+00    7.848E+00    7.848E+00    7.848E+00    7.848E+00
     7.847E+00    7.845E+00    7.844E+00    7.841E+00    7.838E+00    7.835E+00    7.831E+00    7.827E+00    7.822E+00    7.817E+00
     7.812E+00    7.806E+00    7.799E+00    7.792E+00    7.785E+00    7.777E+00    7.768E+00    7.760E+00    7.751E+00    7.741E+00
     7.731E+00    7.721E+00    7.711E+00    7.700E+00    7.689E+00    7.677E+00    7.666E+00    7.654E+00    7.642E+00    7.629E+00
     7.616E+00    7.603E+00    7.590E+00    7.577E+00    7.563E+00    7.550E+00    7.536E+00    7.522E+00    7.508E+00    7.494E+00
     7.479E+00    7.465E+00    7.450E+00    7.436E+00    7.421E+00    7.406E+00    7.392E+00    7.377E+00    7.362E+00    7.348E+00
     7.333E+00    7.318E+00    7.304E+00    7.289E+00    7.275E+00    7.260E+00    7.246E+00    7.232E+00
 Ala      Conc. = 1.14E+02
