 LCModel (Version 6.3-1L) Copyright: S.W. Provencher.          Ref.: Magn. Reson. Med. 30:672-679 (1993).                
 Slice#3 Row#2 Col#9  K_02_press_1_raw_act
 36 lines in following concentration table = NCONC+1
    Conc.  %SD /Cr+PCr  Metabolite                                         
    0.000 999%   0.000 Ala                                                 
  119.743  77%   0.222 Asp                                                 
  267.590  54%   0.497 Cr                                                  
  270.736  53%   0.503 PCr                                                 
   31.916 179% 5.9E-02 GABA                                                
    6.908 818% 1.3E-02 Glc                                                 
  357.220  53%   0.664 Gln                                                 
  655.984  34%   1.219 Glu                                                 
  122.571  13%   0.228 GPC                                                 
    0.000 999%   0.000 PCh                                                 
  183.066  31%   0.340 GSH                                                 
  790.715  26%   1.469 Ins                                                 
    0.000 999%   0.000 Lac                                                 
  785.198   7%   1.459 NAA                                                 
    0.000 999%   0.000 NAAG                                                
   12.981 116% 2.4E-02 Scyllo                                              
    0.000 999%   0.000 Tau                                                 
    0.000 999%   0.000 -CrCH2                                              
  122.571  13%   0.228 GPC+PCh                                             
  785.198   7%   1.459 NAA+NAAG                                            
  538.326   8%   1.000 Cr+PCr                                              
 1.01E+03  32%   1.882 Glu+Gln                                             
 8.21E+03  11%  15.259 Lip13a                                              
    0.000 999%   0.000 Lip13b                                              
 1.52E+03  22%   2.819 Lip09                                               
    0.000 999%   0.000 MM09                                                
 1.19E+03  32%   2.203 Lip20                                               
   16.945 999% 3.1E-02 MM20                                                
   68.991 253%   0.128 MM12                                                
 2.50E+03   9%   4.649 MM14                                                
 1.16E+03  29%   2.162 MM17                                                
 8.21E+03  11%  15.259 Lip13a+Lip13b                                       
 1.08E+04   8%  20.037 MM14+Lip13a+Lip13b+MM12                             
 1.52E+03  22%   2.819 MM09+Lip09                                          
 1.20E+03  29%   2.235 MM20+Lip20                                          
   6 lines in following misc. output table
  FWHM = 0.054 ppm    S/N =   5                                            
  Data shift = 0.038 ppm                                                   
  Ph:  59 deg      -9.5 deg/ppm                                            
  alphaB,S = 7.9E-01,   2.6E+01                                            
   14 spline knots.   Ns = 8(1)                                            
  (13) 6 infls.   (12) 1 extrs.                                            
  498 points on ppm-axis = NY
      4.000000     3.992357     3.984714     3.977070     3.969427     3.961784     3.954141     3.946497     3.938854     3.931211
      3.923568     3.915925     3.908281     3.900638     3.892995     3.885352     3.877708     3.870065     3.862422     3.854779
      3.847136     3.839492     3.831849     3.824206     3.816563     3.808919     3.801276     3.793633     3.785990     3.778347
      3.770703     3.763060     3.755417     3.747774     3.740130     3.732487     3.724844     3.717201     3.709558     3.701914
      3.694271     3.686628     3.678985     3.671341     3.663698     3.656055     3.648412     3.640769     3.633125     3.625482
      3.617839     3.610196     3.602552     3.594909     3.587266     3.579623     3.571980     3.564336     3.556693     3.549050
      3.541407     3.533763     3.526120     3.518477     3.510834     3.503191     3.495547     3.487904     3.480261     3.472618
      3.464974     3.457331     3.449688     3.442045     3.434402     3.426758     3.419115     3.411472     3.403829     3.396185
      3.388542     3.380899     3.373256     3.365613     3.357969     3.350326     3.342683     3.335040     3.327396     3.319753
      3.312110     3.304467     3.296824     3.289180     3.281537     3.273894     3.266251     3.258607     3.250964     3.243321
      3.235678     3.228034     3.220391     3.212748     3.205105     3.197462     3.189818     3.182175     3.174532     3.166889
      3.159245     3.151602     3.143959     3.136316     3.128673     3.121029     3.113386     3.105743     3.098100     3.090456
      3.082813     3.075170     3.067527     3.059884     3.052240     3.044597     3.036954     3.029311     3.021667     3.014024
      3.006381     2.998738     2.991095     2.983451     2.975808     2.968165     2.960522     2.952878     2.945235     2.937592
      2.929949     2.922306     2.914662     2.907019     2.899376     2.891733     2.884089     2.876446     2.868803     2.861160
      2.853517     2.845873     2.838230     2.830587     2.822944     2.815300     2.807657     2.800014     2.792371     2.784728
      2.777084     2.769441     2.761798     2.754155     2.746511     2.738868     2.731225     2.723582     2.715939     2.708295
      2.700652     2.693009     2.685366     2.677722     2.670079     2.662436     2.654793     2.647150     2.639506     2.631863
      2.624220     2.616577     2.608933     2.601290     2.593647     2.586004     2.578361     2.570717     2.563074     2.555431
      2.547788     2.540144     2.532501     2.524858     2.517215     2.509572     2.501928     2.494285     2.486642     2.478999
      2.471355     2.463712     2.456069     2.448426     2.440783     2.433139     2.425496     2.417853     2.410210     2.402566
      2.394923     2.387280     2.379637     2.371994     2.364350     2.356707     2.349064     2.341421     2.333777     2.326134
      2.318491     2.310848     2.303205     2.295561     2.287918     2.280275     2.272632     2.264988     2.257345     2.249702
      2.242059     2.234416     2.226772     2.219129     2.211486     2.203843     2.196199     2.188556     2.180913     2.173270
      2.165627     2.157983     2.150340     2.142697     2.135054     2.127410     2.119767     2.112124     2.104481     2.096838
      2.089194     2.081551     2.073908     2.066265     2.058621     2.050978     2.043335     2.035692     2.028049     2.020405
      2.012762     2.005119     1.997476     1.989833     1.982190     1.974546     1.966903     1.959260     1.951617     1.943974
      1.936331     1.928688     1.921045     1.913402     1.905759     1.898115     1.890472     1.882829     1.875186     1.867543
      1.859900     1.852257     1.844614     1.836971     1.829327     1.821684     1.814041     1.806398     1.798755     1.791112
      1.783469     1.775826     1.768183     1.760540     1.752896     1.745253     1.737610     1.729967     1.722324     1.714681
      1.707038     1.699395     1.691752     1.684108     1.676465     1.668822     1.661179     1.653536     1.645893     1.638250
      1.630607     1.622964     1.615321     1.607677     1.600034     1.592391     1.584748     1.577105     1.569462     1.561819
      1.554176     1.546533     1.538890     1.531246     1.523603     1.515960     1.508317     1.500674     1.493031     1.485388
      1.477745     1.470102     1.462458     1.454815     1.447172     1.439529     1.431886     1.424243     1.416600     1.408957
      1.401314     1.393671     1.386027     1.378384     1.370741     1.363098     1.355455     1.347812     1.340169     1.332526
      1.324883     1.317240     1.309596     1.301953     1.294310     1.286667     1.279024     1.271381     1.263738     1.256095
      1.248452     1.240808     1.233165     1.225522     1.217879     1.210236     1.202593     1.194950     1.187307     1.179664
      1.172021     1.164377     1.156734     1.149091     1.141448     1.133805     1.126162     1.118519     1.110876     1.103233
      1.095590     1.087946     1.080303     1.072660     1.065017     1.057374     1.049731     1.042088     1.034445     1.026802
      1.019158     1.011515     1.003872     0.996229     0.988586     0.980943     0.973300     0.965657     0.958014     0.950371
      0.942727     0.935084     0.927441     0.919798     0.912155     0.904512     0.896869     0.889226     0.881583     0.873940
      0.866296     0.858653     0.851010     0.843367     0.835724     0.828081     0.820438     0.812795     0.805152     0.797508
      0.789865     0.782222     0.774579     0.766936     0.759293     0.751650     0.744007     0.736364     0.728721     0.721077
      0.713434     0.705791     0.698148     0.690505     0.682862     0.675219     0.667576     0.659933     0.652290     0.644646
      0.637003     0.629360     0.621717     0.614074     0.606431     0.598788     0.591145     0.583502     0.575858     0.568215
      0.560572     0.552929     0.545286     0.537643     0.530000     0.522357     0.514714     0.507071     0.499427     0.491784
      0.484141     0.476498     0.468855     0.461212     0.453569     0.445925     0.438282     0.430639     0.422996     0.415353
      0.407710     0.400067     0.392424     0.384780     0.377137     0.369494     0.361851     0.354208     0.346565     0.338922
      0.331278     0.323635     0.315992     0.308349     0.300706     0.293063     0.285420     0.277777     0.270133     0.262490
      0.254847     0.247204     0.239561     0.231918     0.224275     0.216631     0.208988     0.201345
 NY phased data points follow
  -7.98938E-01 -1.14292E+00 -2.40641E+00  1.25275E+00 -3.42023E+00 -2.55507E+00 -1.64492E+00 -5.66438E-01  1.46806E-01  3.59212E+00
   5.58311E+00  4.89696E+00  5.71076E+00  2.60260E+00  3.92094E+00  7.40096E+00 -1.34600E+00 -1.26698E+00 -1.67884E+00 -1.29572E+00
  -4.22878E+00 -4.86744E+00 -5.63797E-01 -5.30535E+00 -4.28017E+00 -4.23569E+00 -3.19912E+00 -2.88371E-02 -1.95248E+00 -2.38670E+00
  -1.52265E+00 -1.00167E+00 -1.53517E+00 -7.00598E+00 -1.77835E+00 -3.10134E+00 -9.24385E-01 -1.63995E+00  1.25042E+00 -1.09186E+00
  -1.93676E+00 -2.32305E+00 -6.47780E+00 -5.90739E+00 -5.69047E-01  2.49198E-01 -4.48184E-01  6.71295E-01 -1.80635E+00  1.45263E+00
  -1.58788E+00  2.78303E+00 -2.98817E+00 -1.91306E+00 -4.81735E+00 -3.61900E+00 -5.44259E+00 -4.25021E+00 -3.32333E+00 -4.86981E+00
  -4.42774E+00 -6.08447E+00 -6.02275E+00 -2.78920E+00 -6.88543E+00 -5.90483E+00 -8.63623E+00 -5.90703E+00 -6.72594E+00 -4.14640E+00
  -6.18384E+00 -5.90968E+00 -9.78655E+00 -5.66952E+00 -4.76620E+00 -6.88984E+00 -5.28901E+00 -1.02770E+01 -8.02057E+00 -6.59081E+00
  -7.40296E+00 -7.70162E+00 -7.77086E+00 -3.51485E+00 -4.28506E+00 -4.90042E+00 -6.03372E+00 -8.83353E+00 -5.94164E+00 -5.99016E+00
  -1.05895E+01 -4.04108E+00 -2.14241E+00 -9.98360E+00 -2.55421E+00 -7.36552E+00 -3.59802E+00 -2.98992E+00 -4.81180E+00 -6.31613E+00
  -1.44419E+00  1.83982E+00  2.57733E+00  2.81150E+00  7.80197E+00  3.28129E+00  2.36537E+00  1.64073E+00 -2.00267E+00 -2.13662E-01
  -2.04579E+00 -6.05317E+00 -4.94319E+00 -2.70427E+00 -4.30900E+00 -1.61659E+00 -7.61965E+00 -6.03934E+00 -3.84633E+00 -2.75259E+00
  -1.00667E+01 -5.03517E+00 -6.65742E-01 -6.57241E+00  3.30262E+00  3.45902E+00  1.03038E+01  1.26441E+01  1.62861E+01  7.73526E+00
   1.09123E+01  1.08787E+01  6.39639E+00  6.18213E+00  3.91814E+00  1.82084E+00 -3.29316E-01  2.27210E-02 -1.39881E+00  1.27355E+00
  -9.66861E-01 -3.63577E-01 -3.07745E+00 -1.43558E+00 -2.01191E+00 -2.13529E+00 -9.99012E-01  2.80492E+00  1.18656E+00 -2.16373E+00
  -2.82730E+00 -2.14883E+00 -5.06069E-01 -7.04681E-01 -1.94301E+00 -2.34862E+00 -4.69557E-01  6.05315E-01  9.90731E-02 -5.42935E-01
   1.26034E+00 -5.12756E+00  9.71097E-02  6.96624E-01  9.32995E-01  3.12347E-01 -3.60953E-01 -6.52905E-01 -7.74656E-01  1.29759E-01
  -1.74688E+00  2.25775E+00 -2.02485E+00  1.69190E-01  5.16293E-01  5.83663E-01  1.41160E+00 -2.02719E+00 -1.15607E-01  5.99714E-01
   9.71940E-01  3.85895E+00 -6.19094E-01  6.36835E+00 -7.25300E-01  3.01505E+00 -3.04995E+00 -1.71935E+00  6.59586E-01  1.69626E+00
   3.75451E+00  6.89270E+00  3.11250E+00  7.40840E+00  8.93912E+00  4.69904E+00  8.65210E+00  7.90529E+00  3.44068E+00  6.01471E+00
   3.74464E+00  5.33962E+00  9.63573E+00  1.02604E+01  9.78890E+00  3.85237E+00  9.34285E+00  8.83355E+00  6.75804E+00  7.53621E+00
   1.10410E+01  6.28974E+00  4.81201E+00  1.23782E+01  1.27331E+01  1.07029E+01  1.43381E+01  1.58898E+01  1.38010E+01  1.48053E+01
   1.25364E+01  9.29724E+00  8.08490E+00  8.74258E+00  1.41414E+01  1.24644E+01  1.27034E+01  1.49019E+01  1.36013E+01  7.01245E+00
   1.73162E+01  1.32878E+01  1.28330E+01  1.22070E+01  9.21555E+00  1.33000E+01  1.85111E+01  1.57650E+01  1.30579E+01  1.18114E+01
   1.33612E+01  1.44545E+01  1.12256E+01  1.31544E+01  1.06257E+01  1.76721E+01  1.13500E+01  1.28172E+01  1.34036E+01  1.32846E+01
   1.49149E+01  1.28763E+01  1.38882E+01  1.88356E+01  1.92185E+01  1.96311E+01  1.88615E+01  1.95598E+01  2.79949E+01  3.93121E+01
   4.20084E+01  3.99467E+01  3.73273E+01  3.40333E+01  3.48196E+01  3.02661E+01  2.58016E+01  2.53186E+01  2.13473E+01  2.30634E+01
   2.13290E+01  1.79815E+01  1.81210E+01  1.81630E+01  1.66551E+01  1.91414E+01  1.84886E+01  1.86016E+01  2.07059E+01  1.62096E+01
   2.12125E+01  1.74271E+01  1.37991E+01  2.17158E+01  1.77811E+01  1.61910E+01  1.53886E+01  2.07255E+01  2.23846E+01  1.96865E+01
   1.91270E+01  1.53316E+01  1.49335E+01  2.00401E+01  1.80800E+01  2.06546E+01  1.62646E+01  1.80544E+01  1.97080E+01  2.19298E+01
   1.77407E+01  2.16963E+01  2.66774E+01  2.36449E+01  2.50518E+01  2.32858E+01  2.85879E+01  2.40430E+01  3.02495E+01  2.96301E+01
   3.00562E+01  3.61662E+01  3.43879E+01  3.52789E+01  3.51921E+01  3.59434E+01  3.43135E+01  3.47873E+01  3.76446E+01  3.75927E+01
   3.78054E+01  3.60738E+01  3.77649E+01  3.81883E+01  4.47634E+01  4.28414E+01  4.36557E+01  4.28675E+01  4.67169E+01  4.19554E+01
   4.50060E+01  4.11758E+01  4.14337E+01  4.70879E+01  4.64314E+01  4.26589E+01  4.65095E+01  4.01695E+01  4.53698E+01  3.84506E+01
   3.92664E+01  3.48978E+01  4.03762E+01  3.49651E+01  3.26811E+01  3.34526E+01  3.43034E+01  3.55015E+01  3.16807E+01  3.40644E+01
   3.87078E+01  3.68367E+01  3.73550E+01  3.44858E+01  4.13002E+01  3.86716E+01  3.61315E+01  4.15798E+01  3.71416E+01  3.97246E+01
   4.00671E+01  3.53083E+01  3.46369E+01  3.68363E+01  4.02154E+01  3.50166E+01  3.74534E+01  3.81608E+01  3.83813E+01  3.43168E+01
   3.49980E+01  3.52436E+01  3.37727E+01  3.57223E+01  3.35122E+01  3.01333E+01  3.20469E+01  3.14113E+01  3.17555E+01  2.95168E+01
   2.74532E+01  2.95425E+01  3.20529E+01  2.95864E+01  2.47290E+01  3.07737E+01  2.48535E+01  2.97125E+01  2.61485E+01  2.67148E+01
   2.70516E+01  2.18427E+01  2.63974E+01  2.26979E+01  2.25714E+01  2.30439E+01  2.54154E+01  2.26210E+01  2.19836E+01  2.51875E+01
   2.48821E+01  2.44195E+01  2.30059E+01  2.01348E+01  2.49822E+01  2.25800E+01  2.05914E+01  2.34809E+01  2.42445E+01  2.31606E+01
   2.31692E+01  1.83297E+01  2.17267E+01  2.35424E+01  2.22231E+01  2.16862E+01  2.19555E+01  1.99542E+01  2.02571E+01  1.52596E+01
   2.05302E+01  2.15523E+01  1.78548E+01  2.15943E+01  1.72974E+01  2.12152E+01  1.74075E+01  1.86873E+01  1.82941E+01  1.23956E+01
   1.67830E+01  1.84500E+01  1.72268E+01  1.50136E+01  1.18214E+01  1.60127E+01  1.13363E+01  1.31978E+01  1.16301E+01  1.26334E+01
   1.18948E+01  1.36440E+01  1.29871E+01  1.21352E+01  1.77742E+01  9.46443E+00  1.32095E+01  1.19494E+01  1.13671E+01  1.51766E+01
   1.21330E+01  1.39364E+01  1.54402E+01  1.60603E+01  1.41367E+01  9.97294E+00  1.12795E+01  1.09479E+01  1.07218E+01  8.83516E+00
   1.06077E+01  1.39393E+01  1.19774E+01  1.29448E+01  9.60715E+00  9.44678E+00  1.25179E+01  9.60181E+00  1.05671E+01  1.41547E+01
   7.14251E+00  1.44884E+01  1.20688E+01  1.46122E+01  9.11180E+00  1.29285E+01  1.51525E+01  1.19110E+01  1.22034E+01  1.30975E+01
   1.29165E+01  1.16850E+01  9.25835E+00  9.33243E+00  7.63764E+00  1.26639E+01  6.22835E+00  8.48971E+00  1.03444E+01  1.09941E+01
   1.06263E+01  6.68663E+00  9.73138E+00  1.05900E+01  8.30785E+00  8.48422E+00  1.05740E+01  8.26762E+00
 NY points of the fit to the data follow
  -3.04615E+00 -3.42074E+00 -3.71386E+00 -3.74785E+00 -3.78646E+00 -3.75110E+00 -2.98036E+00 -1.42861E+00  7.36703E-01  3.11158E+00
   4.81952E+00  5.36322E+00  5.00379E+00  4.12300E+00  3.11282E+00  2.21310E+00  1.14939E+00 -9.53769E-02 -1.41329E+00 -2.45792E+00
  -3.24045E+00 -3.97979E+00 -4.16037E+00 -4.08539E+00 -4.13992E+00 -4.55572E+00 -4.82612E+00 -4.33376E+00 -3.21587E+00 -1.97920E+00
  -1.02550E+00 -4.74470E-01 -2.18904E-01 -2.91773E-01 -8.65380E-01 -1.63256E+00 -2.33493E+00 -2.91463E+00 -3.56353E+00 -4.25349E+00
  -4.46164E+00 -4.54581E+00 -4.80255E+00 -4.93132E+00 -4.27325E+00 -2.63954E+00 -8.72163E-01  8.62020E-02  8.70581E-03 -7.11837E-01
  -1.54746E+00 -2.33486E+00 -3.12418E+00 -3.76569E+00 -4.22793E+00 -4.68700E+00 -5.15416E+00 -5.32850E+00 -4.96686E+00 -4.34777E+00
  -3.93017E+00 -3.89041E+00 -4.11134E+00 -4.45292E+00 -4.78973E+00 -5.00438E+00 -5.07639E+00 -5.08445E+00 -5.09393E+00 -5.00469E+00
  -4.77925E+00 -4.56365E+00 -4.41943E+00 -4.38242E+00 -4.38980E+00 -4.39563E+00 -4.46290E+00 -4.57433E+00 -4.67673E+00 -4.76758E+00
  -4.90400E+00 -5.11382E+00 -5.19595E+00 -5.11829E+00 -5.09281E+00 -5.34567E+00 -5.85325E+00 -6.37995E+00 -6.71079E+00 -6.80469E+00
  -6.75996E+00 -6.62337E+00 -6.36637E+00 -5.98917E+00 -5.56419E+00 -5.10449E+00 -4.69587E+00 -4.65676E+00 -5.03304E+00 -4.45124E+00
  -1.78451E+00  1.77121E+00  4.23395E+00  4.80961E+00  4.05515E+00  3.06122E+00  2.34258E+00  1.36095E+00  1.52149E-01 -7.59907E-01
  -1.48588E+00 -2.48404E+00 -3.88532E+00 -4.51550E+00 -4.57194E+00 -4.52138E+00 -4.43780E+00 -4.35160E+00 -4.20398E+00 -3.78785E+00
  -3.10315E+00 -2.59483E+00 -2.71229E+00 -2.36245E+00  6.79655E-01  6.09637E+00  1.09642E+01  1.31448E+01  1.27293E+01  1.13026E+01
   1.02741E+01  9.24675E+00  7.50591E+00  5.65014E+00  4.02547E+00  2.24720E+00 -7.74377E-02 -1.76742E+00 -2.01270E+00 -1.77504E+00
  -1.47265E+00 -1.25258E+00 -1.09726E+00 -9.03042E-01 -6.30401E-01 -3.93293E-01 -2.27952E-01 -1.04064E-01 -4.05590E-02 -1.01042E-02
  -4.18164E-03  4.10049E-03  5.24410E-02  1.10801E-01  1.86210E-01  2.93684E-01  4.45718E-01  5.67873E-01  5.42509E-01  3.97341E-01
   2.56384E-01  2.70011E-01  4.93946E-01  7.94443E-01  1.00474E+00  1.09994E+00  1.14448E+00  1.17272E+00  1.19863E+00  1.21748E+00
   1.27312E+00  1.35926E+00  1.38195E+00  1.23074E+00  9.48816E-01  8.24131E-01  9.74031E-01  1.23448E+00  1.37093E+00  1.31816E+00
   1.27615E+00  1.43900E+00  1.73517E+00  1.96377E+00  2.01473E+00  2.04839E+00  2.28253E+00  2.72440E+00  3.35868E+00  4.02462E+00
   4.53321E+00  4.82728E+00  4.95038E+00  4.97465E+00  4.93453E+00  4.86060E+00  4.84402E+00  4.96618E+00  5.26608E+00  5.71746E+00
   6.24162E+00  6.85763E+00  7.56369E+00  8.21053E+00  8.61220E+00  8.70975E+00  8.30787E+00  7.46709E+00  6.62805E+00  6.16366E+00
   6.01075E+00  6.08268E+00  6.56985E+00  7.68143E+00  9.22101E+00  1.04730E+01  1.10178E+01  1.11122E+01  1.09963E+01  1.05313E+01
   9.36305E+00  8.20382E+00  7.90324E+00  8.33426E+00  8.98096E+00  9.51628E+00  1.01786E+01  1.10425E+01  1.16700E+01  1.19345E+01
   1.21703E+01  1.26330E+01  1.30324E+01  1.30950E+01  1.30894E+01  1.33487E+01  1.37505E+01  1.40997E+01  1.43210E+01  1.43340E+01
   1.41319E+01  1.37635E+01  1.34326E+01  1.34097E+01  1.36910E+01  1.40520E+01  1.42743E+01  1.45156E+01  1.48027E+01  1.50222E+01
   1.52626E+01  1.57604E+01  1.67362E+01  1.80782E+01  1.91340E+01  1.91006E+01  1.88673E+01  2.19521E+01  2.92317E+01  3.67622E+01
   4.06943E+01  4.04791E+01  3.80585E+01  3.57559E+01  3.36818E+01  3.06990E+01  2.76835E+01  2.55068E+01  2.34156E+01  2.03397E+01
   1.72150E+01  1.62478E+01  1.60977E+01  1.61067E+01  1.61836E+01  1.62925E+01  1.63702E+01  1.64384E+01  1.64881E+01  1.65234E+01
   1.65616E+01  1.66169E+01  1.66760E+01  1.67363E+01  1.68147E+01  1.69181E+01  1.70426E+01  1.71880E+01  1.73558E+01  1.75494E+01
   1.77713E+01  1.80147E+01  1.82870E+01  1.85959E+01  1.89438E+01  1.93355E+01  1.97786E+01  2.02765E+01  2.08291E+01  2.14363E+01
   2.20991E+01  2.28150E+01  2.35780E+01  2.43820E+01  2.52179E+01  2.60766E+01  2.69491E+01  2.78263E+01  2.86998E+01  2.95627E+01
   3.04101E+01  3.12396E+01  3.20513E+01  3.28480E+01  3.36346E+01  3.44169E+01  3.52007E+01  3.59916E+01  3.67931E+01  3.76061E+01
   3.84274E+01  3.92499E+01  4.00624E+01  4.08498E+01  4.15939E+01  4.22746E+01  4.28707E+01  4.33620E+01  4.37310E+01  4.39638E+01
   4.40516E+01  4.39914E+01  4.37863E+01  4.34458E+01  4.29853E+01  4.24250E+01  4.17893E+01  4.11047E+01  4.03986E+01  3.96982E+01
   3.90289E+01  3.84132E+01  3.78695E+01  3.74116E+01  3.70486E+01  3.67847E+01  3.66195E+01  3.65485E+01  3.65632E+01  3.66522E+01
   3.68020E+01  3.69976E+01  3.72235E+01  3.74637E+01  3.77029E+01  3.79265E+01  3.81215E+01  3.82765E+01  3.83819E+01  3.84299E+01
   3.84148E+01  3.83327E+01  3.81819E+01  3.79624E+01  3.76757E+01  3.73251E+01  3.69147E+01  3.64500E+01  3.59375E+01  3.53842E+01
   3.47974E+01  3.41848E+01  3.35539E+01  3.29124E+01  3.22675E+01  3.16261E+01  3.09945E+01  3.03784E+01  2.97828E+01  2.92122E+01
   2.86703E+01  2.81603E+01  2.76843E+01  2.72441E+01  2.68407E+01  2.64747E+01  2.61462E+01  2.58543E+01  2.55980E+01  2.53757E+01
   2.51853E+01  2.50245E+01  2.48904E+01  2.47796E+01  2.46886E+01  2.46134E+01  2.45499E+01  2.44940E+01  2.44410E+01  2.43867E+01
   2.43266E+01  2.42565E+01  2.41728E+01  2.40719E+01  2.39508E+01  2.38071E+01  2.36389E+01  2.34452E+01  2.32255E+01  2.29803E+01
   2.27104E+01  2.24172E+01  2.21029E+01  2.17701E+01  2.14217E+01  2.10609E+01  2.06907E+01  2.03146E+01  1.99358E+01  1.95574E+01
   1.91821E+01  1.88127E+01  1.84511E+01  1.80992E+01  1.77588E+01  1.74309E+01  1.71164E+01  1.68158E+01  1.65292E+01  1.62568E+01
   1.59984E+01  1.57537E+01  1.55221E+01  1.53031E+01  1.50960E+01  1.49002E+01  1.47150E+01  1.45398E+01  1.43737E+01  1.42160E+01
   1.40662E+01  1.39237E+01  1.37879E+01  1.36583E+01  1.35343E+01  1.34154E+01  1.33013E+01  1.31916E+01  1.30861E+01  1.29842E+01
   1.28856E+01  1.27902E+01  1.26978E+01  1.26081E+01  1.25208E+01  1.24359E+01  1.23530E+01  1.22720E+01  1.21930E+01  1.21157E+01
   1.20399E+01  1.19656E+01  1.18925E+01  1.18208E+01  1.17504E+01  1.16810E+01  1.16127E+01  1.15453E+01  1.14788E+01  1.14132E+01
   1.13484E+01  1.12844E+01  1.12211E+01  1.11585E+01  1.10964E+01  1.10351E+01  1.09743E+01  1.09141E+01  1.08543E+01  1.07950E+01
   1.07362E+01  1.06779E+01  1.06200E+01  1.05626E+01  1.05054E+01  1.04487E+01  1.03924E+01  1.03364E+01  1.02808E+01  1.02255E+01
   1.01705E+01  1.01158E+01  1.00615E+01  1.00076E+01  9.95390E+00  9.90050E+00  9.84741E+00  9.79470E+00
 NY background values follow
    -5.864E+00   -5.887E+00   -5.910E+00   -5.932E+00   -5.955E+00   -5.978E+00   -6.001E+00   -6.024E+00   -6.046E+00   -6.069E+00
    -6.092E+00   -6.115E+00   -6.137E+00   -6.160E+00   -6.182E+00   -6.204E+00   -6.227E+00   -6.249E+00   -6.270E+00   -6.292E+00
    -6.314E+00   -6.335E+00   -6.356E+00   -6.377E+00   -6.397E+00   -6.418E+00   -6.438E+00   -6.458E+00   -6.477E+00   -6.496E+00
    -6.515E+00   -6.534E+00   -6.552E+00   -6.570E+00   -6.587E+00   -6.604E+00   -6.620E+00   -6.636E+00   -6.652E+00   -6.667E+00
    -6.682E+00   -6.696E+00   -6.710E+00   -6.723E+00   -6.736E+00   -6.748E+00   -6.760E+00   -6.771E+00   -6.781E+00   -6.791E+00
    -6.800E+00   -6.809E+00   -6.816E+00   -6.824E+00   -6.830E+00   -6.836E+00   -6.841E+00   -6.845E+00   -6.848E+00   -6.851E+00
    -6.853E+00   -6.854E+00   -6.854E+00   -6.853E+00   -6.852E+00   -6.849E+00   -6.846E+00   -6.842E+00   -6.836E+00   -6.830E+00
    -6.823E+00   -6.814E+00   -6.805E+00   -6.795E+00   -6.783E+00   -6.771E+00   -6.757E+00   -6.742E+00   -6.726E+00   -6.709E+00
    -6.691E+00   -6.672E+00   -6.651E+00   -6.629E+00   -6.606E+00   -6.582E+00   -6.556E+00   -6.529E+00   -6.501E+00   -6.471E+00
    -6.440E+00   -6.408E+00   -6.374E+00   -6.339E+00   -6.303E+00   -6.265E+00   -6.226E+00   -6.185E+00   -6.143E+00   -6.100E+00
    -6.055E+00   -6.009E+00   -5.962E+00   -5.913E+00   -5.863E+00   -5.811E+00   -5.759E+00   -5.704E+00   -5.649E+00   -5.592E+00
    -5.534E+00   -5.474E+00   -5.413E+00   -5.351E+00   -5.288E+00   -5.223E+00   -5.157E+00   -5.089E+00   -5.020E+00   -4.950E+00
    -4.878E+00   -4.806E+00   -4.731E+00   -4.656E+00   -4.579E+00   -4.501E+00   -4.422E+00   -4.341E+00   -4.259E+00   -4.175E+00
    -4.091E+00   -4.005E+00   -3.918E+00   -3.829E+00   -3.739E+00   -3.648E+00   -3.556E+00   -3.462E+00   -3.367E+00   -3.271E+00
    -3.173E+00   -3.075E+00   -2.975E+00   -2.874E+00   -2.771E+00   -2.668E+00   -2.564E+00   -2.458E+00   -2.351E+00   -2.244E+00
    -2.135E+00   -2.025E+00   -1.914E+00   -1.802E+00   -1.690E+00   -1.576E+00   -1.461E+00   -1.345E+00   -1.229E+00   -1.111E+00
    -9.931E-01   -8.739E-01   -7.539E-01   -6.330E-01   -5.114E-01   -3.889E-01   -2.657E-01   -1.417E-01   -1.703E-02    1.084E-01
     2.345E-01    3.613E-01    4.888E-01    6.169E-01    7.457E-01    8.750E-01    1.005E+00    1.136E+00    1.267E+00    1.398E+00
     1.530E+00    1.663E+00    1.796E+00    1.930E+00    2.064E+00    2.198E+00    2.333E+00    2.468E+00    2.604E+00    2.739E+00
     2.875E+00    3.011E+00    3.148E+00    3.284E+00    3.421E+00    3.557E+00    3.694E+00    3.831E+00    3.968E+00    4.104E+00
     4.241E+00    4.377E+00    4.514E+00    4.650E+00    4.786E+00    4.922E+00    5.058E+00    5.193E+00    5.328E+00    5.463E+00
     5.597E+00    5.731E+00    5.864E+00    5.998E+00    6.130E+00    6.262E+00    6.394E+00    6.524E+00    6.655E+00    6.784E+00
     6.913E+00    7.042E+00    7.169E+00    7.296E+00    7.422E+00    7.547E+00    7.671E+00    7.795E+00    7.917E+00    8.039E+00
     8.159E+00    8.279E+00    8.398E+00    8.516E+00    8.633E+00    8.749E+00    8.864E+00    8.979E+00    9.092E+00    9.204E+00
     9.316E+00    9.426E+00    9.536E+00    9.644E+00    9.752E+00    9.858E+00    9.964E+00    1.007E+01    1.017E+01    1.027E+01
     1.038E+01    1.048E+01    1.058E+01    1.067E+01    1.077E+01    1.087E+01    1.096E+01    1.106E+01    1.115E+01    1.124E+01
     1.134E+01    1.143E+01    1.151E+01    1.160E+01    1.169E+01    1.178E+01    1.186E+01    1.194E+01    1.203E+01    1.211E+01
     1.219E+01    1.227E+01    1.235E+01    1.242E+01    1.250E+01    1.257E+01    1.265E+01    1.272E+01    1.279E+01    1.286E+01
     1.293E+01    1.300E+01    1.307E+01    1.313E+01    1.320E+01    1.326E+01    1.332E+01    1.338E+01    1.344E+01    1.350E+01
     1.356E+01    1.362E+01    1.368E+01    1.373E+01    1.379E+01    1.384E+01    1.389E+01    1.394E+01    1.399E+01    1.404E+01
     1.409E+01    1.414E+01    1.418E+01    1.423E+01    1.427E+01    1.431E+01    1.436E+01    1.440E+01    1.444E+01    1.447E+01
     1.451E+01    1.455E+01    1.458E+01    1.462E+01    1.465E+01    1.469E+01    1.472E+01    1.475E+01    1.478E+01    1.481E+01
     1.484E+01    1.486E+01    1.489E+01    1.491E+01    1.494E+01    1.496E+01    1.498E+01    1.500E+01    1.502E+01    1.504E+01
     1.506E+01    1.508E+01    1.510E+01    1.511E+01    1.513E+01    1.514E+01    1.516E+01    1.517E+01    1.518E+01    1.519E+01
     1.520E+01    1.521E+01    1.522E+01    1.522E+01    1.523E+01    1.524E+01    1.524E+01    1.525E+01    1.525E+01    1.525E+01
     1.525E+01    1.525E+01    1.525E+01    1.525E+01    1.525E+01    1.525E+01    1.525E+01    1.524E+01    1.524E+01    1.523E+01
     1.523E+01    1.522E+01    1.521E+01    1.520E+01    1.519E+01    1.518E+01    1.517E+01    1.516E+01    1.515E+01    1.514E+01
     1.513E+01    1.511E+01    1.510E+01    1.508E+01    1.507E+01    1.505E+01    1.503E+01    1.502E+01    1.500E+01    1.498E+01
     1.496E+01    1.494E+01    1.492E+01    1.490E+01    1.487E+01    1.485E+01    1.483E+01    1.480E+01    1.478E+01    1.476E+01
     1.473E+01    1.470E+01    1.468E+01    1.465E+01    1.462E+01    1.460E+01    1.457E+01    1.454E+01    1.451E+01    1.448E+01
     1.445E+01    1.442E+01    1.438E+01    1.435E+01    1.432E+01    1.429E+01    1.425E+01    1.422E+01    1.419E+01    1.415E+01
     1.412E+01    1.408E+01    1.404E+01    1.401E+01    1.397E+01    1.393E+01    1.390E+01    1.386E+01    1.382E+01    1.378E+01
     1.374E+01    1.370E+01    1.366E+01    1.362E+01    1.358E+01    1.354E+01    1.350E+01    1.346E+01    1.342E+01    1.338E+01
     1.334E+01    1.329E+01    1.325E+01    1.321E+01    1.316E+01    1.312E+01    1.308E+01    1.303E+01    1.299E+01    1.295E+01
     1.290E+01    1.286E+01    1.281E+01    1.277E+01    1.272E+01    1.268E+01    1.263E+01    1.258E+01    1.254E+01    1.249E+01
     1.245E+01    1.240E+01    1.235E+01    1.231E+01    1.226E+01    1.221E+01    1.217E+01    1.212E+01    1.207E+01    1.203E+01
     1.198E+01    1.193E+01    1.188E+01    1.184E+01    1.179E+01    1.174E+01    1.169E+01    1.165E+01    1.160E+01    1.155E+01
     1.150E+01    1.145E+01    1.140E+01    1.136E+01    1.131E+01    1.126E+01    1.121E+01    1.116E+01    1.111E+01    1.107E+01
     1.102E+01    1.097E+01    1.092E+01    1.087E+01    1.082E+01    1.077E+01    1.072E+01    1.067E+01    1.062E+01    1.058E+01
     1.053E+01    1.048E+01    1.043E+01    1.038E+01    1.033E+01    1.028E+01    1.023E+01    1.018E+01
 Asp      Conc. = 1.20E+02
