 LCModel (Version 6.3-1L) Copyright: S.W. Provencher.          Ref.: Magn. Reson. Med. 30:672-679 (1993).                
 Slice#1 Row#6 Col#3  K_02_press_1_raw_act
 36 lines in following concentration table = NCONC+1
    Conc.  %SD /Cr+PCr  Metabolite                                         
  113.033 123% 9.1E-02 Ala                                                 
    0.000 999%   0.000 Asp                                                 
    0.000 999%   0.000 Cr                                                  
 1.24E+03   4%   1.000 PCr                                                 
   99.237 161% 8.0E-02 GABA                                                
    0.000 999%   0.000 Glc                                                 
  720.641  45%   0.582 Gln                                                 
 1.51E+03  25%   1.222 Glu                                                 
  396.990   6%   0.321 GPC                                                 
    0.000 999%   0.000 PCh                                                 
  278.379  28%   0.225 GSH                                                 
  785.861  30%   0.635 Ins                                                 
    0.000 999%   0.000 Lac                                                 
 2.28E+03   7%   1.841 NAA                                                 
  105.204 175% 8.5E-02 NAAG                                                
   70.331  40% 5.7E-02 Scyllo                                              
  101.812 184% 8.2E-02 Tau                                                 
  413.006  25%   0.334 -CrCH2                                              
  396.990   6%   0.321 GPC+PCh                                             
 2.38E+03   3%   1.926 NAA+NAAG                                            
 1.24E+03   4%   1.000 Cr+PCr                                              
 2.23E+03  26%   1.805 Glu+Gln                                             
    0.000 999%   0.000 Lip13a                                              
  122.765  58% 9.9E-02 Lip13b                                              
    0.000 999%   0.000 Lip09                                               
  671.307  16%   0.542 MM09                                                
   40.197 105% 3.2E-02 Lip20                                               
 1.54E+03  13%   1.241 MM20                                                
  201.648  29%   0.163 MM12                                                
    0.000 999%   0.000 MM14                                                
  395.959  27%   0.320 MM17                                                
  122.765  58% 9.9E-02 Lip13a+Lip13b                                       
  324.413  26%   0.262 MM14+Lip13a+Lip13b+MM12                             
  671.307  16%   0.542 MM09+Lip09                                          
 1.58E+03  13%   1.274 MM20+Lip20                                          
   6 lines in following misc. output table
  FWHM = 0.069 ppm    S/N =  10                                            
  Data shift = 0.054 ppm                                                   
  Ph: -30 deg      -6.8 deg/ppm                                            
  alphaB,S = 8.5E+01,   2.0E+02                                            
   14 spline knots.   Ns = 9(1)                                            
   5 inflections.     1 extrema                                            
  498 points on ppm-axis = NY
      4.000000     3.992357     3.984714     3.977070     3.969427     3.961784     3.954141     3.946497     3.938854     3.931211
      3.923568     3.915925     3.908281     3.900638     3.892995     3.885352     3.877708     3.870065     3.862422     3.854779
      3.847136     3.839492     3.831849     3.824206     3.816563     3.808919     3.801276     3.793633     3.785990     3.778347
      3.770703     3.763060     3.755417     3.747774     3.740130     3.732487     3.724844     3.717201     3.709558     3.701914
      3.694271     3.686628     3.678985     3.671341     3.663698     3.656055     3.648412     3.640769     3.633125     3.625482
      3.617839     3.610196     3.602552     3.594909     3.587266     3.579623     3.571980     3.564336     3.556693     3.549050
      3.541407     3.533763     3.526120     3.518477     3.510834     3.503191     3.495547     3.487904     3.480261     3.472618
      3.464974     3.457331     3.449688     3.442045     3.434402     3.426758     3.419115     3.411472     3.403829     3.396185
      3.388542     3.380899     3.373256     3.365613     3.357969     3.350326     3.342683     3.335040     3.327396     3.319753
      3.312110     3.304467     3.296824     3.289180     3.281537     3.273894     3.266251     3.258607     3.250964     3.243321
      3.235678     3.228034     3.220391     3.212748     3.205105     3.197462     3.189818     3.182175     3.174532     3.166889
      3.159245     3.151602     3.143959     3.136316     3.128673     3.121029     3.113386     3.105743     3.098100     3.090456
      3.082813     3.075170     3.067527     3.059884     3.052240     3.044597     3.036954     3.029311     3.021667     3.014024
      3.006381     2.998738     2.991095     2.983451     2.975808     2.968165     2.960522     2.952878     2.945235     2.937592
      2.929949     2.922306     2.914662     2.907019     2.899376     2.891733     2.884089     2.876446     2.868803     2.861160
      2.853517     2.845873     2.838230     2.830587     2.822944     2.815300     2.807657     2.800014     2.792371     2.784728
      2.777084     2.769441     2.761798     2.754155     2.746511     2.738868     2.731225     2.723582     2.715939     2.708295
      2.700652     2.693009     2.685366     2.677722     2.670079     2.662436     2.654793     2.647150     2.639506     2.631863
      2.624220     2.616577     2.608933     2.601290     2.593647     2.586004     2.578361     2.570717     2.563074     2.555431
      2.547788     2.540144     2.532501     2.524858     2.517215     2.509572     2.501928     2.494285     2.486642     2.478999
      2.471355     2.463712     2.456069     2.448426     2.440783     2.433139     2.425496     2.417853     2.410210     2.402566
      2.394923     2.387280     2.379637     2.371994     2.364350     2.356707     2.349064     2.341421     2.333777     2.326134
      2.318491     2.310848     2.303205     2.295561     2.287918     2.280275     2.272632     2.264988     2.257345     2.249702
      2.242059     2.234416     2.226772     2.219129     2.211486     2.203843     2.196199     2.188556     2.180913     2.173270
      2.165627     2.157983     2.150340     2.142697     2.135054     2.127410     2.119767     2.112124     2.104481     2.096838
      2.089194     2.081551     2.073908     2.066265     2.058621     2.050978     2.043335     2.035692     2.028049     2.020405
      2.012762     2.005119     1.997476     1.989833     1.982190     1.974546     1.966903     1.959260     1.951617     1.943974
      1.936331     1.928688     1.921045     1.913402     1.905759     1.898115     1.890472     1.882829     1.875186     1.867543
      1.859900     1.852257     1.844614     1.836971     1.829327     1.821684     1.814041     1.806398     1.798755     1.791112
      1.783469     1.775826     1.768183     1.760540     1.752896     1.745253     1.737610     1.729967     1.722324     1.714681
      1.707038     1.699395     1.691752     1.684108     1.676465     1.668822     1.661179     1.653536     1.645893     1.638250
      1.630607     1.622964     1.615321     1.607677     1.600034     1.592391     1.584748     1.577105     1.569462     1.561819
      1.554176     1.546533     1.538890     1.531246     1.523603     1.515960     1.508317     1.500674     1.493031     1.485388
      1.477745     1.470102     1.462458     1.454815     1.447172     1.439529     1.431886     1.424243     1.416600     1.408957
      1.401314     1.393671     1.386027     1.378384     1.370741     1.363098     1.355455     1.347812     1.340169     1.332526
      1.324883     1.317240     1.309596     1.301953     1.294310     1.286667     1.279024     1.271381     1.263738     1.256095
      1.248452     1.240808     1.233165     1.225522     1.217879     1.210236     1.202593     1.194950     1.187307     1.179664
      1.172021     1.164377     1.156734     1.149091     1.141448     1.133805     1.126162     1.118519     1.110876     1.103233
      1.095590     1.087946     1.080303     1.072660     1.065017     1.057374     1.049731     1.042088     1.034445     1.026802
      1.019158     1.011515     1.003872     0.996229     0.988586     0.980943     0.973300     0.965657     0.958014     0.950371
      0.942727     0.935084     0.927441     0.919798     0.912155     0.904512     0.896869     0.889226     0.881583     0.873940
      0.866296     0.858653     0.851010     0.843367     0.835724     0.828081     0.820438     0.812795     0.805152     0.797508
      0.789865     0.782222     0.774579     0.766936     0.759293     0.751650     0.744007     0.736364     0.728721     0.721077
      0.713434     0.705791     0.698148     0.690505     0.682862     0.675219     0.667576     0.659933     0.652290     0.644646
      0.637003     0.629360     0.621717     0.614074     0.606431     0.598788     0.591145     0.583502     0.575858     0.568215
      0.560572     0.552929     0.545286     0.537643     0.530000     0.522357     0.514714     0.507071     0.499427     0.491784
      0.484141     0.476498     0.468855     0.461212     0.453569     0.445925     0.438282     0.430639     0.422996     0.415353
      0.407710     0.400067     0.392424     0.384780     0.377137     0.369494     0.361851     0.354208     0.346565     0.338922
      0.331278     0.323635     0.315992     0.308349     0.300706     0.293063     0.285420     0.277777     0.270133     0.262490
      0.254847     0.247204     0.239561     0.231918     0.224275     0.216631     0.208988     0.201345
 NY phased data points follow
  -5.08251E+00 -1.85629E-01 -8.94531E-01 -2.61357E+00 -5.42638E+00  1.58997E+00  4.51761E+00  8.63343E+00  8.27983E+00  9.81424E+00
   7.09952E+00  1.25676E+01  1.01746E+01  7.92307E+00  5.66289E+00  9.57649E-01  1.50952E+00 -1.51316E-02 -2.65833E+00 -4.71155E+00
  -5.84576E+00 -9.45863E-01 -3.27234E+00 -1.81291E+00  3.55755E-01  6.19295E-02 -2.42868E+00  9.72749E-01  1.04290E-01  2.15016E+00
   1.21151E+00  7.56294E-02 -2.32270E+00  9.90465E-01 -1.02370E-02 -5.81182E+00 -7.89635E-01 -7.10882E-01 -3.48200E+00 -1.37493E+00
  -1.42334E+00  1.77759E+00  1.64878E+00  4.16704E+00  2.30397E+00  2.25032E+00  6.71046E-01  6.98949E+00  3.26809E+00  7.19342E-01
   1.06793E+00 -2.32099E+00 -3.04553E-01 -3.86113E+00  2.97668E-01 -7.42980E-02  9.95043E-01 -2.90013E+00  2.21845E+00 -1.62540E+00
  -5.77415E+00  2.45878E-02 -6.91661E+00 -7.23512E+00 -5.70820E+00 -4.72961E+00 -2.56617E+00 -6.42766E+00 -7.61402E+00 -6.59152E+00
  -2.64628E+00 -3.00788E+00 -6.21213E+00 -7.90949E+00 -2.33411E+00 -3.69080E+00 -5.36564E+00 -4.78721E-01 -3.75665E+00 -2.42560E+00
  -5.55525E+00 -8.22653E+00 -5.13137E+00 -7.99711E-01 -6.20579E+00 -4.61967E+00 -5.06591E+00 -3.49696E-01 -4.21577E+00 -5.13829E+00
  -4.52065E+00 -4.77818E-02  4.33330E-01 -2.18937E-01  3.18605E+00 -6.55049E-01  2.32369E+00  1.11870E+01  8.64165E+00  1.63884E+01
   1.84484E+01  2.09347E+01  1.92996E+01  2.20908E+01  2.32455E+01  1.67485E+01  1.45917E+01  1.37575E+01  6.13491E+00  6.85719E+00
   3.85752E+00 -3.72587E-02 -5.00063E+00  1.19467E-02  7.21374E-02  9.67766E-01  1.91898E+00 -1.47887E+00  4.59629E+00  2.72740E+00
   4.85029E+00  7.34842E+00  1.02184E+01  1.20621E+01  1.86445E+01  2.31444E+01  2.58169E+01  2.88554E+01  2.86839E+01  2.61308E+01
   2.04478E+01  1.65935E+01  1.05578E+01  8.89255E+00  1.31080E+01  5.28633E-01  1.23357E+00  2.80791E+00 -5.08839E+00 -1.71193E+00
  -7.64256E-01 -2.38323E-01  6.28188E-01  2.52787E-01 -1.87660E+00 -1.44646E+00 -2.01240E+00 -2.07851E+00 -4.07694E+00 -1.30104E+00
  -1.03046E+00  1.03313E+00 -2.48606E+00 -5.82924E+00  5.99724E-01 -6.55367E+00 -2.04165E-01 -6.78192E+00 -9.13243E-01 -3.18279E+00
  -1.22381E+00 -1.76283E+00 -5.14190E+00 -9.72757E-01 -5.53219E+00 -2.77875E+00 -2.69699E+00 -4.35119E+00 -8.27555E+00 -8.66710E+00
  -8.72892E+00 -1.22564E+01 -1.55516E+01 -1.04598E+01 -1.14455E+01 -1.08681E+01 -1.23343E+01 -1.18902E+01 -1.42373E+01 -1.37590E+01
  -1.32587E+01 -1.21005E+01 -1.33031E+01 -9.69679E+00 -8.61163E+00 -5.17180E+00 -4.90783E+00 -6.07835E+00 -9.19837E+00 -4.39937E+00
  -4.68678E+00 -4.95738E+00 -1.63473E+00 -2.71226E+00 -1.13887E+01 -2.02956E+00 -7.91700E+00 -7.66462E+00 -5.43236E+00 -6.00546E+00
  -1.03958E+01 -7.41774E+00 -7.67083E+00 -2.77570E+00 -4.30821E+00 -3.91229E+00 -2.87563E+00 -4.69902E+00 -3.15271E+00 -6.84572E+00
  -3.77869E+00 -2.97971E+00 -1.02279E+00  2.44824E+00  3.65016E+00  5.71401E+00  5.31845E+00  4.36048E+00  2.13518E+00  1.30481E+00
  -2.38996E+00 -3.82709E+00 -8.51680E+00  1.50438E+00 -2.32798E+00 -4.66970E+00 -1.46065E+00 -8.76005E-01 -1.37803E+00  2.28505E+00
  -1.43362E-01  3.22915E+00  2.26679E+00 -1.98001E+00  1.24090E+00  2.43296E+00  8.08415E+00 -1.61086E+00  8.04963E-01 -1.56918E+00
   2.95703E+00 -1.74197E+00  3.04925E+00  2.13922E+00  1.65277E+00  4.16719E+00  4.49485E+00  4.29415E+00  3.79701E+00  6.25998E+00
   8.98430E+00  1.54239E+01  1.55222E+01  1.54474E+01  2.16842E+01  2.32842E+01  3.35246E+01  4.94600E+01  5.39727E+01  5.61593E+01
   6.14828E+01  5.62191E+01  5.48917E+01  4.61227E+01  3.70108E+01  3.38807E+01  2.86957E+01  2.29217E+01  1.18087E+01  1.26600E+01
   7.31864E+00  5.57338E+00  5.75466E-01  1.12159E-01  2.87211E+00 -1.66949E+00  6.30393E+00 -1.35367E+00  1.56273E+00 -1.31379E+00
   1.69535E-01 -8.98812E-01  2.18593E-02 -1.25005E+00 -4.05138E+00 -1.75488E+00 -6.37569E+00  1.80746E+00 -1.24249E+00  7.60979E-01
  -1.33745E+00 -1.49716E+00 -3.36516E+00  2.14769E+00  7.50925E-02 -2.68988E+00 -2.44162E+00 -2.25113E+00  2.26206E+00 -3.02787E+00
  -1.98386E+00 -3.48023E+00 -2.10397E+00  4.41689E+00  1.32949E+00  1.83658E+00 -1.13530E+00  9.75787E-01  4.59502E-01  2.24734E+00
  -9.59403E-01 -1.83420E+00  2.81856E+00  2.59136E+00  1.54655E+00  4.52069E-01 -3.12119E+00  1.56526E+00 -1.19570E+00 -1.50966E+00
  -2.36641E+00 -2.49843E+00 -1.87672E+00 -2.60309E+00 -5.05090E+00 -1.52799E+00 -4.96897E+00 -9.56184E+00 -1.80553E+00 -5.11389E+00
  -4.58329E+00 -5.75021E+00 -4.85332E+00 -7.97497E+00 -7.25132E+00 -4.18385E+00 -7.07999E+00 -3.59818E+00 -2.33751E+00 -6.57912E-01
  -4.17912E+00 -3.41977E+00 -2.91684E+00 -3.22510E+00 -1.67037E+00 -4.26934E+00 -2.27688E+00 -5.25553E+00 -2.42160E+00  4.30380E-01
   1.31586E+00  8.47456E-02 -1.40060E-01 -1.91656E+00  2.91059E+00 -4.13658E+00 -1.81533E+00  1.36122E+00  3.49452E+00 -1.74155E+00
  -1.67266E+00  2.76477E+00  7.08548E-01 -2.20894E+00  6.42840E-01 -2.98305E+00  3.24336E+00  5.59262E-01 -1.75999E+00  2.74976E-01
  -1.08571E+00 -7.51335E-03 -5.05173E-01 -2.27005E+00 -2.00572E+00 -2.16403E+00 -2.36394E-01  1.07336E+00  6.57683E-01 -1.99993E+00
  -1.92409E+00 -2.14971E+00  6.04108E-01 -2.72842E+00  4.60784E-01  2.76258E-01 -1.73687E+00  6.00960E-01 -1.00791E+00  1.54067E+00
   2.60858E-01  7.90164E-01  2.61811E+00  1.63107E+00 -1.73287E+00  1.93091E+00 -1.44154E+00  2.20690E+00  1.87641E+00 -6.99834E-01
  -7.61521E-01  3.71316E-01  1.22435E+00  1.21196E-01  1.85252E+00  4.93702E+00 -1.51000E+00  1.23273E+00  2.77757E+00  1.14464E+00
  -2.95085E+00  2.37050E-01  8.35544E-01  2.57212E+00 -1.91726E+00 -1.04079E+00 -2.34734E+00 -5.65089E+00 -2.08909E+00 -3.02008E+00
   3.57007E-01 -4.90037E-01 -3.99756E-02  7.35171E-03 -3.96076E+00 -8.11371E-01 -2.53823E+00  1.78856E+00 -7.53816E-01  8.27466E-01
  -1.96848E+00 -1.28280E+00 -2.30658E+00  1.95947E+00 -1.94048E+00 -8.45854E-01 -1.30216E+00 -1.26417E+00 -2.87268E+00 -3.68951E+00
   2.15679E+00 -3.10878E+00 -1.96871E+00 -2.64380E-01 -4.05324E+00 -1.80790E+00 -4.42762E+00 -2.62880E+00  3.68225E+00 -1.38554E-01
  -1.11531E+00 -1.00165E+00 -3.02247E-01 -7.46390E-01 -1.93847E+00 -2.11962E+00 -1.11110E+00 -3.46680E+00  6.62137E-01 -2.74719E+00
  -7.37436E-01 -6.35228E-01 -1.14082E+00 -3.57340E+00 -9.62807E-01 -3.59408E-03  7.81295E-01  2.80025E+00 -3.82051E+00 -1.50184E+00
  -4.23838E+00  1.59083E+00 -4.36383E+00 -2.37353E+00 -3.88222E+00 -3.72440E+00 -1.27668E+00 -4.12119E-01 -1.50252E+00 -2.76869E+00
   2.43887E+00  7.72359E-01 -2.00786E+00 -8.68596E-01  9.23067E-02 -4.03894E+00 -3.81522E+00 -4.29186E+00 -3.02495E+00 -6.46320E+00
  -4.96136E+00 -2.73974E+00  6.32361E-02 -1.34326E+00 -6.58451E-01  2.37711E-01  7.24523E-02  2.96444E-01
 NY points of the fit to the data follow
  -3.97764E+00 -3.17498E+00 -2.34123E+00 -1.24538E+00  3.93793E-01  2.55870E+00  4.94118E+00  7.10294E+00  8.68871E+00  9.53919E+00
   9.62596E+00  8.99184E+00  7.81457E+00  6.41755E+00  5.05247E+00  3.77554E+00  2.52764E+00  1.20347E+00 -1.21071E-01 -1.30751E+00
  -2.01043E+00 -2.18749E+00 -2.22881E+00 -2.23489E+00 -2.16108E+00 -1.89434E+00 -1.36448E+00 -6.65077E-01  1.23333E-01  9.56181E-01
   1.69380E+00  2.17182E+00  2.33149E+00  2.15534E+00  1.66210E+00  9.20771E-01  1.21583E-01 -5.68635E-01 -1.01721E+00 -1.25804E+00
  -1.33461E+00 -1.18072E+00 -8.26813E-01 -2.88316E-01  3.35160E-01  9.20833E-01  1.35675E+00  1.52635E+00  1.37685E+00  9.32555E-01
   2.85360E-01 -4.42778E-01 -1.09702E+00 -1.61372E+00 -2.02448E+00 -2.36749E+00 -2.63440E+00 -2.80631E+00 -2.87027E+00 -2.88130E+00
  -2.90608E+00 -3.01075E+00 -3.17978E+00 -3.35357E+00 -3.50627E+00 -3.61640E+00 -3.66063E+00 -3.63597E+00 -3.59091E+00 -3.55803E+00
  -3.52359E+00 -3.48382E+00 -3.44422E+00 -3.42228E+00 -3.45159E+00 -3.54197E+00 -3.66817E+00 -3.74721E+00 -3.73085E+00 -3.73611E+00
  -3.74373E+00 -3.67080E+00 -3.48075E+00 -3.22508E+00 -3.02077E+00 -2.94593E+00 -3.00011E+00 -3.13842E+00 -3.36303E+00 -3.65377E+00
  -3.93437E+00 -4.12309E+00 -3.96826E+00 -2.71989E+00 -8.35370E-01  9.24987E-01  2.99971E+00  6.10144E+00  1.03181E+01  1.49109E+01
   1.89075E+01  2.16569E+01  2.29041E+01  2.25942E+01  2.08013E+01  1.79056E+01  1.46115E+01  1.15000E+01  8.69516E+00  6.01210E+00
   3.28174E+00  5.76937E-01 -1.70966E+00 -2.95326E+00 -3.40684E+00 -3.62130E+00 -3.66281E+00 -3.11811E+00 -1.26671E+00  9.54260E-01
   3.11573E+00  5.87219E+00  9.80344E+00  1.47289E+01  1.97640E+01  2.38936E+01  2.65048E+01  2.74272E+01  2.66587E+01  2.43365E+01
   2.09904E+01  1.73662E+01  1.39419E+01  1.07470E+01  7.56909E+00  4.35641E+00  1.36398E+00 -8.47581E-01 -1.74863E+00 -1.97878E+00
  -2.04707E+00 -2.09615E+00 -2.16922E+00 -2.26213E+00 -2.34903E+00 -2.43351E+00 -2.54457E+00 -2.67912E+00 -2.84299E+00 -3.03800E+00
  -3.23206E+00 -3.41851E+00 -3.62376E+00 -3.81816E+00 -3.96490E+00 -4.07653E+00 -4.17642E+00 -4.34318E+00 -4.59054E+00 -4.82504E+00
  -4.97541E+00 -5.04553E+00 -5.07902E+00 -5.12016E+00 -5.20498E+00 -5.37230E+00 -5.65251E+00 -6.04840E+00 -6.48217E+00 -6.81657E+00
  -7.07060E+00 -7.34770E+00 -7.74266E+00 -8.16986E+00 -8.46982E+00 -8.60561E+00 -8.62719E+00 -8.61831E+00 -8.63031E+00 -8.59736E+00
  -8.47322E+00 -8.31294E+00 -8.12828E+00 -7.86029E+00 -7.45963E+00 -6.92001E+00 -6.27261E+00 -5.59582E+00 -4.91446E+00 -4.27028E+00
  -3.72711E+00 -3.34584E+00 -3.14800E+00 -3.08313E+00 -3.03996E+00 -2.87885E+00 -2.58074E+00 -2.19799E+00 -1.78050E+00 -1.35865E+00
  -9.49406E-01 -6.65900E-01 -5.07168E-01 -5.85830E-01 -1.09593E+00 -1.98024E+00 -2.99945E+00 -3.89434E+00 -4.47301E+00 -4.84717E+00
  -4.87632E+00 -4.38198E+00 -3.40810E+00 -2.29963E+00 -1.46103E+00 -9.53259E-01 -7.31155E-01 -9.55172E-01 -1.73189E+00 -2.89679E+00
  -4.07471E+00 -4.92371E+00 -5.26308E+00 -5.14105E+00 -4.67193E+00 -3.95564E+00 -3.15339E+00 -2.36673E+00 -1.55660E+00 -8.38672E-01
  -2.21841E-01  3.55763E-01  8.98680E-01  1.30729E+00  1.51190E+00  1.61041E+00  1.73311E+00  1.82499E+00  1.77281E+00  1.58230E+00
   1.34491E+00  1.16338E+00  1.07513E+00  1.11272E+00  1.35481E+00  1.79599E+00  2.33689E+00  2.95045E+00  3.61962E+00  4.38086E+00
   5.60740E+00  8.65638E+00  1.35742E+01  1.83498E+01  2.30775E+01  2.90164E+01  3.66673E+01  4.50319E+01  5.23423E+01  5.72446E+01
   5.92025E+01  5.81174E+01  5.40913E+01  4.76908E+01  4.02185E+01  3.30118E+01  2.65927E+01  2.07527E+01  1.50636E+01  9.51184E+00
   4.66843E+00  1.65894E+00  5.70484E-01  1.28268E-01 -1.25549E-01 -2.98746E-01 -4.44192E-01 -6.11201E-01 -7.91316E-01 -9.66083E-01
  -1.12880E+00 -1.27669E+00 -1.40772E+00 -1.52421E+00 -1.62226E+00 -1.69117E+00 -1.72699E+00 -1.73315E+00 -1.71322E+00 -1.67067E+00
  -1.60826E+00 -1.52826E+00 -1.43707E+00 -1.33625E+00 -1.22533E+00 -1.10579E+00 -9.78660E-01 -8.44626E-01 -7.07273E-01 -5.71522E-01
  -4.42275E-01 -3.24129E-01 -2.22084E-01 -1.40123E-01 -8.17290E-02 -5.00937E-02 -4.66086E-02 -7.12807E-02 -1.23079E-01 -2.00080E-01
  -2.99591E-01 -4.17434E-01 -5.48820E-01 -6.88559E-01 -8.30804E-01 -9.68895E-01 -1.09487E+00 -1.19579E+00 -1.25492E+00 -1.31143E+00
  -1.39320E+00 -1.46620E+00 -1.51756E+00 -1.57709E+00 -1.69473E+00 -1.90298E+00 -2.16034E+00 -2.41497E+00 -2.68187E+00 -2.94526E+00
  -3.14305E+00 -3.21100E+00 -3.13584E+00 -2.96137E+00 -2.74590E+00 -2.52676E+00 -2.31906E+00 -2.13133E+00 -1.97111E+00 -1.86180E+00
  -1.80293E+00 -1.76547E+00 -1.73803E+00 -1.72378E+00 -1.72461E+00 -1.73008E+00 -1.69986E+00 -1.60283E+00 -1.45265E+00 -1.25991E+00
  -1.03383E+00 -7.86881E-01 -5.35731E-01 -3.00163E-01 -1.00738E-01  4.43219E-02  1.22235E-01  1.27990E-01  6.52451E-02 -5.44245E-02
  -2.13816E-01 -3.93287E-01 -5.74066E-01 -7.40891E-01 -8.83521E-01 -9.97008E-01 -1.08097E+00 -1.13830E+00 -1.17362E+00 -1.19202E+00
  -1.19804E+00 -1.19515E+00 -1.18560E+00 -1.17052E+00 -1.15016E+00 -1.12409E+00 -1.09148E+00 -1.05119E+00 -1.00200E+00 -9.42703E-01
  -8.72174E-01 -7.89400E-01 -6.93524E-01 -5.83893E-01 -4.60120E-01 -3.22162E-01 -1.70343E-01 -5.40272E-03  1.71475E-01  3.58602E-01
   5.53754E-01  7.54157E-01  9.56538E-01  1.15718E+00  1.35203E+00  1.53675E+00  1.70692E+00  1.85813E+00  1.98624E+00  2.08755E+00
   2.15896E+00  2.19811E+00  2.20352E+00  2.17463E+00  2.11192E+00  2.01681E+00  1.89166E+00  1.73957E+00  1.56428E+00  1.37001E+00
   1.16123E+00  9.42522E-01  7.18355E-01  4.92911E-01  2.69987E-01  5.28917E-02 -1.55595E-01 -3.53282E-01 -5.38553E-01 -7.10361E-01
  -8.68137E-01 -1.01174E+00 -1.14137E+00 -1.25751E+00 -1.36087E+00 -1.45233E+00 -1.53283E+00 -1.60333E+00 -1.66479E+00 -1.71817E+00
  -1.76436E+00 -1.80420E+00 -1.83845E+00 -1.86777E+00 -1.89277E+00 -1.91398E+00 -1.93189E+00 -1.94692E+00 -1.95940E+00 -1.96966E+00
  -1.97793E+00 -1.98447E+00 -1.98949E+00 -1.99316E+00 -1.99562E+00 -1.99699E+00 -1.99739E+00 -1.99694E+00 -1.99572E+00 -1.99380E+00
  -1.99124E+00 -1.98810E+00 -1.98443E+00 -1.98029E+00 -1.97572E+00 -1.97075E+00 -1.96539E+00 -1.95970E+00 -1.95368E+00 -1.94739E+00
  -1.94082E+00 -1.93401E+00 -1.92694E+00 -1.91965E+00 -1.91216E+00 -1.90448E+00 -1.89662E+00 -1.88858E+00 -1.88036E+00 -1.87199E+00
  -1.86346E+00 -1.85480E+00 -1.84599E+00 -1.83703E+00 -1.82792E+00 -1.81870E+00 -1.80934E+00 -1.79986E+00 -1.79024E+00 -1.78049E+00
  -1.77060E+00 -1.76059E+00 -1.75044E+00 -1.74017E+00 -1.72974E+00 -1.71916E+00 -1.70843E+00 -1.69755E+00 -1.68649E+00 -1.67526E+00
  -1.66382E+00 -1.65217E+00 -1.64030E+00 -1.62820E+00 -1.61582E+00 -1.60314E+00 -1.59012E+00 -1.57673E+00
 NY background values follow
    -6.115E+00   -6.106E+00   -6.097E+00   -6.088E+00   -6.079E+00   -6.071E+00   -6.062E+00   -6.053E+00   -6.044E+00   -6.035E+00
    -6.026E+00   -6.017E+00   -6.008E+00   -5.999E+00   -5.990E+00   -5.981E+00   -5.972E+00   -5.963E+00   -5.955E+00   -5.946E+00
    -5.937E+00   -5.928E+00   -5.919E+00   -5.910E+00   -5.901E+00   -5.892E+00   -5.883E+00   -5.873E+00   -5.864E+00   -5.855E+00
    -5.846E+00   -5.837E+00   -5.828E+00   -5.819E+00   -5.810E+00   -5.801E+00   -5.792E+00   -5.783E+00   -5.774E+00   -5.765E+00
    -5.756E+00   -5.746E+00   -5.737E+00   -5.728E+00   -5.719E+00   -5.710E+00   -5.701E+00   -5.692E+00   -5.682E+00   -5.673E+00
    -5.664E+00   -5.655E+00   -5.646E+00   -5.637E+00   -5.627E+00   -5.618E+00   -5.609E+00   -5.600E+00   -5.591E+00   -5.581E+00
    -5.572E+00   -5.563E+00   -5.554E+00   -5.544E+00   -5.535E+00   -5.526E+00   -5.517E+00   -5.507E+00   -5.498E+00   -5.489E+00
    -5.480E+00   -5.470E+00   -5.461E+00   -5.452E+00   -5.442E+00   -5.433E+00   -5.424E+00   -5.414E+00   -5.405E+00   -5.396E+00
    -5.386E+00   -5.377E+00   -5.368E+00   -5.358E+00   -5.349E+00   -5.340E+00   -5.330E+00   -5.321E+00   -5.311E+00   -5.302E+00
    -5.293E+00   -5.283E+00   -5.274E+00   -5.264E+00   -5.255E+00   -5.246E+00   -5.236E+00   -5.227E+00   -5.217E+00   -5.208E+00
    -5.198E+00   -5.189E+00   -5.179E+00   -5.170E+00   -5.161E+00   -5.151E+00   -5.142E+00   -5.132E+00   -5.123E+00   -5.113E+00
    -5.104E+00   -5.094E+00   -5.085E+00   -5.075E+00   -5.066E+00   -5.056E+00   -5.047E+00   -5.037E+00   -5.028E+00   -5.018E+00
    -5.008E+00   -4.999E+00   -4.989E+00   -4.980E+00   -4.970E+00   -4.961E+00   -4.951E+00   -4.941E+00   -4.932E+00   -4.922E+00
    -4.913E+00   -4.903E+00   -4.894E+00   -4.884E+00   -4.874E+00   -4.865E+00   -4.855E+00   -4.845E+00   -4.836E+00   -4.826E+00
    -4.817E+00   -4.807E+00   -4.797E+00   -4.788E+00   -4.778E+00   -4.768E+00   -4.759E+00   -4.749E+00   -4.739E+00   -4.730E+00
    -4.720E+00   -4.710E+00   -4.701E+00   -4.691E+00   -4.681E+00   -4.672E+00   -4.662E+00   -4.652E+00   -4.642E+00   -4.633E+00
    -4.623E+00   -4.613E+00   -4.604E+00   -4.594E+00   -4.584E+00   -4.574E+00   -4.565E+00   -4.555E+00   -4.545E+00   -4.535E+00
    -4.526E+00   -4.516E+00   -4.506E+00   -4.496E+00   -4.487E+00   -4.477E+00   -4.467E+00   -4.457E+00   -4.447E+00   -4.438E+00
    -4.428E+00   -4.418E+00   -4.408E+00   -4.399E+00   -4.389E+00   -4.379E+00   -4.369E+00   -4.359E+00   -4.349E+00   -4.340E+00
    -4.330E+00   -4.320E+00   -4.310E+00   -4.300E+00   -4.290E+00   -4.281E+00   -4.271E+00   -4.261E+00   -4.251E+00   -4.241E+00
    -4.231E+00   -4.221E+00   -4.212E+00   -4.202E+00   -4.192E+00   -4.182E+00   -4.172E+00   -4.162E+00   -4.152E+00   -4.142E+00
    -4.133E+00   -4.123E+00   -4.113E+00   -4.103E+00   -4.093E+00   -4.083E+00   -4.073E+00   -4.063E+00   -4.053E+00   -4.043E+00
    -4.034E+00   -4.024E+00   -4.014E+00   -4.004E+00   -3.994E+00   -3.984E+00   -3.974E+00   -3.964E+00   -3.954E+00   -3.944E+00
    -3.934E+00   -3.924E+00   -3.914E+00   -3.904E+00   -3.894E+00   -3.884E+00   -3.874E+00   -3.865E+00   -3.855E+00   -3.845E+00
    -3.835E+00   -3.825E+00   -3.815E+00   -3.805E+00   -3.795E+00   -3.785E+00   -3.775E+00   -3.765E+00   -3.755E+00   -3.745E+00
    -3.735E+00   -3.725E+00   -3.715E+00   -3.705E+00   -3.695E+00   -3.685E+00   -3.675E+00   -3.665E+00   -3.655E+00   -3.645E+00
    -3.635E+00   -3.625E+00   -3.615E+00   -3.605E+00   -3.595E+00   -3.585E+00   -3.575E+00   -3.565E+00   -3.555E+00   -3.545E+00
    -3.535E+00   -3.524E+00   -3.514E+00   -3.504E+00   -3.494E+00   -3.484E+00   -3.474E+00   -3.464E+00   -3.454E+00   -3.444E+00
    -3.434E+00   -3.424E+00   -3.414E+00   -3.404E+00   -3.394E+00   -3.384E+00   -3.374E+00   -3.364E+00   -3.354E+00   -3.344E+00
    -3.333E+00   -3.323E+00   -3.313E+00   -3.303E+00   -3.293E+00   -3.283E+00   -3.273E+00   -3.263E+00   -3.253E+00   -3.243E+00
    -3.233E+00   -3.223E+00   -3.213E+00   -3.203E+00   -3.192E+00   -3.182E+00   -3.172E+00   -3.162E+00   -3.152E+00   -3.142E+00
    -3.132E+00   -3.122E+00   -3.112E+00   -3.102E+00   -3.092E+00   -3.081E+00   -3.071E+00   -3.061E+00   -3.051E+00   -3.041E+00
    -3.031E+00   -3.021E+00   -3.011E+00   -3.001E+00   -2.991E+00   -2.980E+00   -2.970E+00   -2.960E+00   -2.950E+00   -2.940E+00
    -2.930E+00   -2.920E+00   -2.910E+00   -2.900E+00   -2.889E+00   -2.879E+00   -2.869E+00   -2.859E+00   -2.849E+00   -2.839E+00
    -2.829E+00   -2.819E+00   -2.809E+00   -2.798E+00   -2.788E+00   -2.778E+00   -2.768E+00   -2.758E+00   -2.748E+00   -2.738E+00
    -2.728E+00   -2.718E+00   -2.707E+00   -2.697E+00   -2.687E+00   -2.677E+00   -2.667E+00   -2.657E+00   -2.647E+00   -2.637E+00
    -2.626E+00   -2.616E+00   -2.606E+00   -2.596E+00   -2.586E+00   -2.576E+00   -2.566E+00   -2.556E+00   -2.545E+00   -2.535E+00
    -2.525E+00   -2.515E+00   -2.505E+00   -2.495E+00   -2.485E+00   -2.475E+00   -2.465E+00   -2.454E+00   -2.444E+00   -2.434E+00
    -2.424E+00   -2.414E+00   -2.404E+00   -2.394E+00   -2.384E+00   -2.373E+00   -2.363E+00   -2.353E+00   -2.343E+00   -2.333E+00
    -2.323E+00   -2.313E+00   -2.303E+00   -2.293E+00   -2.282E+00   -2.272E+00   -2.262E+00   -2.252E+00   -2.242E+00   -2.232E+00
    -2.222E+00   -2.212E+00   -2.202E+00   -2.191E+00   -2.181E+00   -2.171E+00   -2.161E+00   -2.151E+00   -2.141E+00   -2.131E+00
    -2.121E+00   -2.111E+00   -2.101E+00   -2.090E+00   -2.080E+00   -2.070E+00   -2.060E+00   -2.050E+00   -2.040E+00   -2.030E+00
    -2.020E+00   -2.010E+00   -2.000E+00   -1.989E+00   -1.979E+00   -1.969E+00   -1.959E+00   -1.949E+00   -1.939E+00   -1.929E+00
    -1.919E+00   -1.909E+00   -1.899E+00   -1.889E+00   -1.879E+00   -1.869E+00   -1.858E+00   -1.848E+00   -1.838E+00   -1.828E+00
    -1.818E+00   -1.808E+00   -1.798E+00   -1.788E+00   -1.778E+00   -1.768E+00   -1.758E+00   -1.748E+00   -1.738E+00   -1.728E+00
    -1.718E+00   -1.708E+00   -1.697E+00   -1.687E+00   -1.677E+00   -1.667E+00   -1.657E+00   -1.647E+00   -1.637E+00   -1.627E+00
    -1.617E+00   -1.607E+00   -1.597E+00   -1.587E+00   -1.577E+00   -1.567E+00   -1.557E+00   -1.547E+00   -1.537E+00   -1.527E+00
    -1.517E+00   -1.507E+00   -1.497E+00   -1.487E+00   -1.477E+00   -1.467E+00   -1.457E+00   -1.447E+00   -1.437E+00   -1.427E+00
    -1.417E+00   -1.407E+00   -1.397E+00   -1.387E+00   -1.377E+00   -1.367E+00   -1.357E+00   -1.347E+00   -1.337E+00   -1.327E+00
    -1.317E+00   -1.307E+00   -1.297E+00   -1.287E+00   -1.277E+00   -1.267E+00   -1.257E+00   -1.247E+00
 Ala      Conc. = 1.13E+02
