 LCModel (Version 6.3-1L) Copyright: S.W. Provencher.          Ref.: Magn. Reson. Med. 30:672-679 (1993).                
 Slice#1 Row#13 Col#10  K_02_press_1_raw_act
 36 lines in following concentration table = NCONC+1
    Conc.  %SD /Cr+PCr  Metabolite                                         
   39.485  87%   0.227 Ala                                                 
    0.000 999%   0.000 Asp                                                 
    0.000 999%   0.000 Cr                                                  
  174.006  11%   1.000 PCr                                                 
   25.526  91%   0.147 GABA                                                
   23.086 102%   0.133 Glc                                                 
   55.395 122%   0.318 Gln                                                 
  202.502  37%   1.164 Glu                                                 
    0.000 999%   0.000 GPC                                                 
   51.820  13%   0.298 PCh                                                 
   29.944  82%   0.172 GSH                                                 
   78.664  97%   0.452 Ins                                                 
    6.618 561% 3.8E-02 Lac                                                 
  401.596   7%   2.308 NAA                                                 
   41.577  69%   0.239 NAAG                                                
    8.321  77% 4.8E-02 Scyllo                                              
   41.285  89%   0.237 Tau                                                 
  110.945  26%   0.638 -CrCH2                                              
   51.820  13%   0.298 GPC+PCh                                             
  443.174   7%   2.547 NAA+NAAG                                            
  174.006  11%   1.000 Cr+PCr                                              
  257.897  38%   1.482 Glu+Gln                                             
  474.958  31%   2.730 Lip13a                                              
    0.000 999%   0.000 Lip13b                                              
  115.059  48%   0.661 Lip09                                               
  331.988  22%   1.908 MM09                                                
   79.980  44%   0.460 Lip20                                               
  540.307  22%   3.105 MM20                                                
  103.746  49%   0.596 MM12                                                
  504.409  17%   2.899 MM14                                                
  193.463  32%   1.112 MM17                                                
  474.958  31%   2.730 Lip13a+Lip13b                                       
 1.08E+03   9%   6.225 MM14+Lip13a+Lip13b+MM12                             
  447.047  13%   2.569 MM09+Lip09                                          
  620.287  18%   3.565 MM20+Lip20                                          
   6 lines in following misc. output table
  FWHM = 0.054 ppm    S/N =   6                                            
  Data shift =-0.008 ppm                                                   
  Ph: -77 deg     -23.3 deg/ppm                                            
  alphaB,S = 8.5E+01,   5.1E+01                                            
   14 spline knots.   Ns = 5(1)                                            
   2 inflections.     1 extrema                                            
  498 points on ppm-axis = NY
      4.000000     3.992357     3.984714     3.977070     3.969427     3.961784     3.954141     3.946497     3.938854     3.931211
      3.923568     3.915925     3.908281     3.900638     3.892995     3.885352     3.877708     3.870065     3.862422     3.854779
      3.847136     3.839492     3.831849     3.824206     3.816563     3.808919     3.801276     3.793633     3.785990     3.778347
      3.770703     3.763060     3.755417     3.747774     3.740130     3.732487     3.724844     3.717201     3.709558     3.701914
      3.694271     3.686628     3.678985     3.671341     3.663698     3.656055     3.648412     3.640769     3.633125     3.625482
      3.617839     3.610196     3.602552     3.594909     3.587266     3.579623     3.571980     3.564336     3.556693     3.549050
      3.541407     3.533763     3.526120     3.518477     3.510834     3.503191     3.495547     3.487904     3.480261     3.472618
      3.464974     3.457331     3.449688     3.442045     3.434402     3.426758     3.419115     3.411472     3.403829     3.396185
      3.388542     3.380899     3.373256     3.365613     3.357969     3.350326     3.342683     3.335040     3.327396     3.319753
      3.312110     3.304467     3.296824     3.289180     3.281537     3.273894     3.266251     3.258607     3.250964     3.243321
      3.235678     3.228034     3.220391     3.212748     3.205105     3.197462     3.189818     3.182175     3.174532     3.166889
      3.159245     3.151602     3.143959     3.136316     3.128673     3.121029     3.113386     3.105743     3.098100     3.090456
      3.082813     3.075170     3.067527     3.059884     3.052240     3.044597     3.036954     3.029311     3.021667     3.014024
      3.006381     2.998738     2.991095     2.983451     2.975808     2.968165     2.960522     2.952878     2.945235     2.937592
      2.929949     2.922306     2.914662     2.907019     2.899376     2.891733     2.884089     2.876446     2.868803     2.861160
      2.853517     2.845873     2.838230     2.830587     2.822944     2.815300     2.807657     2.800014     2.792371     2.784728
      2.777084     2.769441     2.761798     2.754155     2.746511     2.738868     2.731225     2.723582     2.715939     2.708295
      2.700652     2.693009     2.685366     2.677722     2.670079     2.662436     2.654793     2.647150     2.639506     2.631863
      2.624220     2.616577     2.608933     2.601290     2.593647     2.586004     2.578361     2.570717     2.563074     2.555431
      2.547788     2.540144     2.532501     2.524858     2.517215     2.509572     2.501928     2.494285     2.486642     2.478999
      2.471355     2.463712     2.456069     2.448426     2.440783     2.433139     2.425496     2.417853     2.410210     2.402566
      2.394923     2.387280     2.379637     2.371994     2.364350     2.356707     2.349064     2.341421     2.333777     2.326134
      2.318491     2.310848     2.303205     2.295561     2.287918     2.280275     2.272632     2.264988     2.257345     2.249702
      2.242059     2.234416     2.226772     2.219129     2.211486     2.203843     2.196199     2.188556     2.180913     2.173270
      2.165627     2.157983     2.150340     2.142697     2.135054     2.127410     2.119767     2.112124     2.104481     2.096838
      2.089194     2.081551     2.073908     2.066265     2.058621     2.050978     2.043335     2.035692     2.028049     2.020405
      2.012762     2.005119     1.997476     1.989833     1.982190     1.974546     1.966903     1.959260     1.951617     1.943974
      1.936331     1.928688     1.921045     1.913402     1.905759     1.898115     1.890472     1.882829     1.875186     1.867543
      1.859900     1.852257     1.844614     1.836971     1.829327     1.821684     1.814041     1.806398     1.798755     1.791112
      1.783469     1.775826     1.768183     1.760540     1.752896     1.745253     1.737610     1.729967     1.722324     1.714681
      1.707038     1.699395     1.691752     1.684108     1.676465     1.668822     1.661179     1.653536     1.645893     1.638250
      1.630607     1.622964     1.615321     1.607677     1.600034     1.592391     1.584748     1.577105     1.569462     1.561819
      1.554176     1.546533     1.538890     1.531246     1.523603     1.515960     1.508317     1.500674     1.493031     1.485388
      1.477745     1.470102     1.462458     1.454815     1.447172     1.439529     1.431886     1.424243     1.416600     1.408957
      1.401314     1.393671     1.386027     1.378384     1.370741     1.363098     1.355455     1.347812     1.340169     1.332526
      1.324883     1.317240     1.309596     1.301953     1.294310     1.286667     1.279024     1.271381     1.263738     1.256095
      1.248452     1.240808     1.233165     1.225522     1.217879     1.210236     1.202593     1.194950     1.187307     1.179664
      1.172021     1.164377     1.156734     1.149091     1.141448     1.133805     1.126162     1.118519     1.110876     1.103233
      1.095590     1.087946     1.080303     1.072660     1.065017     1.057374     1.049731     1.042088     1.034445     1.026802
      1.019158     1.011515     1.003872     0.996229     0.988586     0.980943     0.973300     0.965657     0.958014     0.950371
      0.942727     0.935084     0.927441     0.919798     0.912155     0.904512     0.896869     0.889226     0.881583     0.873940
      0.866296     0.858653     0.851010     0.843367     0.835724     0.828081     0.820438     0.812795     0.805152     0.797508
      0.789865     0.782222     0.774579     0.766936     0.759293     0.751650     0.744007     0.736364     0.728721     0.721077
      0.713434     0.705791     0.698148     0.690505     0.682862     0.675219     0.667576     0.659933     0.652290     0.644646
      0.637003     0.629360     0.621717     0.614074     0.606431     0.598788     0.591145     0.583502     0.575858     0.568215
      0.560572     0.552929     0.545286     0.537643     0.530000     0.522357     0.514714     0.507071     0.499427     0.491784
      0.484141     0.476498     0.468855     0.461212     0.453569     0.445925     0.438282     0.430639     0.422996     0.415353
      0.407710     0.400067     0.392424     0.384780     0.377137     0.369494     0.361851     0.354208     0.346565     0.338922
      0.331278     0.323635     0.315992     0.308349     0.300706     0.293063     0.285420     0.277777     0.270133     0.262490
      0.254847     0.247204     0.239561     0.231918     0.224275     0.216631     0.208988     0.201345
 NY phased data points follow
  -3.05390E+00 -4.17544E+00 -5.54981E+00 -5.86315E+00 -3.50173E+00 -2.42560E+00 -1.85880E+00 -2.42275E+00 -3.52725E+00 -5.94453E-01
  -2.86617E+00 -8.29754E-01 -4.74408E+00 -4.39968E+00 -6.37474E+00 -6.26205E+00 -6.70169E+00 -4.09207E+00 -3.87900E+00 -3.53595E+00
  -1.97774E+00 -2.02707E+00 -6.43250E+00 -2.69408E+00 -3.15202E+00 -1.04763E+00 -4.86842E+00 -2.55453E+00 -1.97880E+00 -3.56696E+00
  -1.15356E+00 -2.20319E+00 -2.35480E+00 -5.02378E+00 -1.70582E+00 -3.07438E+00 -1.09294E+00 -2.46574E+00 -5.21378E+00 -4.43083E+00
  -3.15733E+00 -3.45557E+00 -1.56310E+00 -7.73294E-01 -3.62241E+00 -2.59455E+00 -1.40282E+00 -1.83023E+00 -5.38281E-01 -2.89464E+00
  -4.67148E+00 -1.47174E+00 -3.85025E+00 -4.91094E+00 -2.54363E+00 -3.31853E+00 -1.14158E+00 -1.91493E+00 -3.42963E+00 -6.88660E-01
  -4.20121E-01 -2.03093E+00 -1.78988E+00 -2.07612E+00 -2.00247E+00 -2.14499E+00 -3.45326E+00 -1.85874E+00 -2.79220E-01 -4.16885E+00
  -4.28537E+00 -1.28321E+00 -1.80629E+00 -9.89911E-01 -3.27316E-01 -1.51748E+00 -3.11437E+00 -1.83943E+00 -2.48249E+00 -2.10907E+00
  -9.94486E-01 -1.15702E+00 -3.24009E+00 -2.57336E+00 -2.30493E+00 -2.40103E+00 -2.13630E-01 -1.88537E+00 -9.77085E-01 -2.71498E+00
  -1.57980E+00 -1.27947E+00  4.00187E-01 -1.26534E+00 -2.86968E+00 -1.81532E+00 -3.22991E+00 -2.50680E+00 -2.46220E+00  3.15737E+00
   2.64880E+00  3.25481E+00  5.10528E+00  3.29343E+00  3.98595E+00  4.61297E-01 -1.52065E+00 -2.94301E+00 -3.62397E+00 -2.86023E-01
  -2.98989E+00 -1.06668E+00 -1.89046E+00 -2.56114E+00 -1.73144E+00 -1.32190E+00 -1.65368E+00 -2.81837E-01 -1.48715E+00 -2.91810E+00
  -3.21925E-01 -1.56073E+00 -1.70488E+00  3.68144E+00  5.31609E+00  4.49624E+00  4.72819E+00  4.39686E+00  7.46415E+00  3.26865E+00
   1.30108E+00 -1.45120E+00  1.56637E-01 -2.37386E+00 -9.93522E-01 -6.54964E-02 -2.89062E+00 -1.57091E+00 -1.84574E+00  2.32426E+00
  -5.21874E-01  2.20685E-01  7.91883E-01  6.31323E-01 -3.33254E+00 -1.96701E+00 -1.76807E+00 -9.53732E-01 -8.33727E-01  1.51060E+00
   7.38998E-01  5.20139E-01  5.03174E-01  1.20028E+00  1.79727E+00  1.04202E+00  1.11216E+00 -2.85168E+00 -2.18522E+00 -2.87478E+00
   4.93595E-01 -6.39538E-01 -1.57697E+00 -1.00179E-01 -1.10730E+00 -1.67766E+00 -2.01448E-01 -4.28562E+00 -1.49178E+00 -5.27985E+00
  -2.54556E+00 -2.46481E+00 -3.95778E+00 -4.73964E+00 -1.19307E+00 -4.59822E+00 -4.45948E+00 -2.65010E+00 -4.60910E-01 -1.23539E+00
  -8.45012E-01 -4.33785E+00 -3.75473E+00 -2.90911E-01 -3.52392E+00 -6.08989E-01  3.82370E-01 -2.27946E+00 -3.18129E+00 -3.56736E+00
   1.51246E-01  8.78698E-01 -1.03587E+00 -1.10934E+00 -2.36919E+00  5.27705E-01 -1.35605E+00 -4.92598E+00 -1.35053E+00 -2.30372E+00
   6.53335E-01 -3.61017E+00  8.11351E-01 -1.81857E-01  1.10959E+00  1.15977E+00 -3.59765E-01 -1.63808E+00 -2.18536E+00 -4.55022E-01
  -1.90018E+00 -1.33488E+00  1.58347E+00  1.07043E+00  1.33970E+00  2.81681E-01  2.37332E+00 -2.46941E-01  5.85399E-01 -7.44182E-01
  -2.23160E+00 -2.27660E+00 -6.88573E-01 -1.36901E+00  1.62399E+00  8.40070E-03  2.94623E-01  2.86645E+00 -1.85020E-01  6.62031E-01
   3.43750E-01  1.32612E+00 -7.16847E-02  4.26814E-01  7.88153E-01  1.55627E+00 -6.44947E-01  1.30583E+00  1.55234E+00 -1.32529E-01
   6.34591E-01  5.80792E-01 -2.02832E+00 -6.95745E-01 -9.29319E-01  1.65577E-01  5.10810E-01  3.33437E+00  2.74582E+00  2.46335E+00
   1.72000E+00  2.85713E+00  3.01345E+00  3.18556E+00  3.01956E+00  6.47704E+00  1.16188E+01  1.22526E+01  1.55586E+01  1.72539E+01
   1.56125E+01  1.87695E+01  1.31886E+01  9.13507E+00  4.83344E+00  4.02321E-01  1.41533E+00 -2.63900E+00 -2.02946E+00 -1.22352E+00
   6.48750E-01  7.32780E-02  1.24932E+00  5.94392E-01 -2.26255E+00  2.79711E+00  1.02582E+00  3.24806E+00  3.10262E+00 -8.44781E-01
   4.62216E-01  2.30626E+00  1.62352E+00 -3.19262E-01  1.86917E-01  1.18543E+00 -4.51007E-01 -9.98832E-01  9.89763E-02 -1.19667E+00
   1.91827E+00 -1.52016E+00  4.80404E-01  1.81180E+00  2.40926E-01  9.22655E-01  1.65894E+00  1.86493E+00  1.18360E+00  3.71151E+00
   2.49919E-01  3.50573E+00  2.84716E+00  2.55018E+00  1.26746E+00  2.56738E+00  1.07867E+00 -1.74257E+00  8.36232E-01  1.98585E-02
  -2.22104E+00  1.97575E+00  1.73694E-01 -4.46606E-01  9.63120E-01 -1.58934E+00  5.00834E-01 -4.46358E-01  1.38993E+00 -7.35107E-01
   4.08898E+00  2.69015E+00 -1.61622E+00 -4.88690E-01 -1.97011E-01 -1.47445E-01 -1.24193E+00  1.97653E-01  7.48875E-02  1.39403E+00
   1.90040E+00  1.50475E-02 -7.10002E-01  1.72560E+00  1.53555E+00  3.52339E+00  5.11369E+00  5.86259E+00  3.78052E+00  2.40384E+00
   5.59682E+00  4.55490E+00  5.23118E+00  7.66397E+00  7.40879E+00  8.52814E+00  8.93327E+00  7.65212E+00  4.78335E+00  5.62163E+00
   6.67315E+00  4.03631E+00  5.32073E+00  4.77068E+00  3.91336E+00  4.60352E+00  2.34266E-01  3.43984E+00  2.87874E+00  1.82363E+00
   4.39312E+00  3.95836E+00  4.15997E+00  4.01827E+00  4.29133E+00  1.02848E+00  3.73761E+00  1.25593E+00  2.02730E+00  4.88436E+00
   7.68167E-01  8.32519E-01  1.47073E+00  5.93343E+00  2.47884E+00  3.09815E+00  2.34144E+00  2.51760E+00  2.18195E+00 -1.00659E-01
   3.39839E+00  9.23770E-01  1.34153E+00  3.81512E+00  1.59478E-01  1.63698E+00  4.09188E+00 -3.79998E-01 -2.19300E-01  2.86328E+00
  -3.09506E-01  2.69690E+00  1.74692E+00  2.92536E+00  2.88315E+00  3.58560E-01 -1.03800E+00  4.81797E+00  5.26068E+00  1.57131E+00
   3.39539E+00  4.79340E+00  2.67327E+00  3.69408E+00  4.43563E+00  3.41012E+00  1.40068E+00  2.97596E+00  4.64402E+00  4.79328E+00
   3.75085E+00  4.36712E+00  5.21226E+00  3.65069E+00  2.71195E+00  1.92163E+00  3.63592E+00  4.58171E+00  4.29050E+00 -6.90362E-02
   2.51815E+00  1.94037E+00  4.44274E+00  1.85231E+00  1.66461E+00  3.14349E+00  2.94387E+00  3.50384E+00  1.89699E+00  1.95558E+00
   1.09419E+00 -5.53948E-01  1.15373E+00  3.73311E+00  2.38382E-01  4.03117E+00  2.52026E+00  1.15957E+00  3.15872E-01  1.06257E+00
   2.28290E+00 -8.63868E-02 -4.39115E-01  2.32025E+00  2.05698E+00  2.13366E+00  6.01379E-01 -1.16049E+00  1.34987E-01  1.98317E+00
   6.79384E-01  1.77800E+00 -1.45006E+00  2.83156E+00  1.41466E+00  3.63666E+00  2.28022E+00 -1.03879E-01  2.75673E+00 -7.94734E-01
   9.44891E-01  1.61374E+00  1.72400E+00 -3.81162E-01  2.31458E+00  1.37993E+00  9.55350E-01  7.13972E-03  3.21277E+00  2.16380E-01
   2.93595E+00 -1.20243E-01 -8.64871E-01  2.11555E+00  9.36921E-02 -2.20724E-01 -9.02133E-01  2.49452E+00  1.96241E+00  1.40202E+00
  -5.49566E-01  5.38083E-01  8.65439E-02  1.64725E+00  3.70133E-01  2.69107E-01  2.45880E+00  4.15785E-01  1.99407E+00  2.49638E-01
   1.51655E+00  1.64178E+00 -1.44575E+00  1.78733E+00  3.27580E+00  3.72472E-01  2.79069E+00  2.86900E+00
 NY points of the fit to the data follow
  -3.14239E+00 -3.14165E+00 -3.11757E+00 -3.06955E+00 -2.88209E+00 -2.47521E+00 -2.03149E+00 -1.68436E+00 -1.46379E+00 -1.38711E+00
  -1.49817E+00 -1.83579E+00 -2.32314E+00 -2.78755E+00 -3.06245E+00 -3.10881E+00 -3.05005E+00 -2.99775E+00 -2.92714E+00 -2.83509E+00
  -2.71730E+00 -2.59848E+00 -2.52111E+00 -2.54570E+00 -2.64444E+00 -2.68943E+00 -2.66182E+00 -2.57583E+00 -2.39543E+00 -2.10283E+00
  -1.75905E+00 -1.51337E+00 -1.47829E+00 -1.66945E+00 -2.02887E+00 -2.41277E+00 -2.72376E+00 -2.93884E+00 -3.01312E+00 -2.94493E+00
  -2.80379E+00 -2.65474E+00 -2.50684E+00 -2.34892E+00 -2.20264E+00 -2.09214E+00 -2.02616E+00 -2.01740E+00 -2.08777E+00 -2.24313E+00
  -2.44777E+00 -2.62440E+00 -2.70334E+00 -2.68400E+00 -2.61160E+00 -2.52712E+00 -2.44740E+00 -2.37193E+00 -2.30834E+00 -2.26966E+00
  -2.26159E+00 -2.28273E+00 -2.32286E+00 -2.37545E+00 -2.40956E+00 -2.40920E+00 -2.38396E+00 -2.33831E+00 -2.28789E+00 -2.25123E+00
  -2.20986E+00 -2.13617E+00 -2.04810E+00 -1.98096E+00 -1.95550E+00 -1.97526E+00 -2.04010E+00 -2.12834E+00 -2.21492E+00 -2.27910E+00
  -2.28362E+00 -2.17352E+00 -1.98601E+00 -1.82875E+00 -1.75027E+00 -1.74640E+00 -1.79836E+00 -1.89150E+00 -2.01960E+00 -2.16006E+00
  -2.26369E+00 -2.28999E+00 -2.25705E+00 -2.21720E+00 -2.16816E+00 -2.09287E+00 -1.96130E+00 -1.58496E+00 -4.91530E-01  1.06059E+00
   2.46693E+00  3.46065E+00  3.98210E+00  3.94315E+00  3.17096E+00  1.69885E+00 -1.87791E-02 -1.34961E+00 -1.92504E+00 -1.92333E+00
  -1.85908E+00 -1.85559E+00 -1.85277E+00 -1.84109E+00 -1.82156E+00 -1.80710E+00 -1.79479E+00 -1.77557E+00 -1.74875E+00 -1.70553E+00
  -1.60723E+00 -1.26583E+00 -1.15443E-01  1.67413E+00  3.39319E+00  4.67756E+00  5.42873E+00  5.52520E+00  4.75779E+00  3.13732E+00
   1.14556E+00 -4.98240E-01 -1.32646E+00 -1.47431E+00 -1.50899E+00 -1.60160E+00 -1.65461E+00 -1.63678E+00 -1.55735E+00 -1.44421E+00
  -1.33838E+00 -1.27416E+00 -1.26041E+00 -1.29286E+00 -1.34841E+00 -1.39982E+00 -1.43599E+00 -1.45606E+00 -1.46648E+00 -1.48067E+00
  -1.50200E+00 -1.52312E+00 -1.53578E+00 -1.53473E+00 -1.51717E+00 -1.49934E+00 -1.53326E+00 -1.62233E+00 -1.72430E+00 -1.80137E+00
  -1.81473E+00 -1.78257E+00 -1.73189E+00 -1.66281E+00 -1.59784E+00 -1.59444E+00 -1.69583E+00 -1.87393E+00 -2.03863E+00 -2.13277E+00
  -2.16744E+00 -2.21048E+00 -2.30162E+00 -2.36943E+00 -2.37813E+00 -2.34777E+00 -2.31743E+00 -2.27672E+00 -2.19408E+00 -2.09540E+00
  -2.04493E+00 -2.07353E+00 -2.15343E+00 -2.17462E+00 -2.06737E+00 -1.88799E+00 -1.68921E+00 -1.47221E+00 -1.21403E+00 -9.47756E-01
  -7.47362E-01 -6.66434E-01 -6.94837E-01 -8.09972E-01 -9.43668E-01 -1.04222E+00 -1.09120E+00 -1.08924E+00 -1.03559E+00 -9.02663E-01
  -6.98041E-01 -4.61483E-01 -2.65333E-01 -1.80840E-01 -2.48424E-01 -5.05175E-01 -8.98196E-01 -1.31718E+00 -1.69038E+00 -1.90929E+00
  -1.87313E+00 -1.51554E+00 -9.31007E-01 -3.40982E-01  1.15099E-01  3.60986E-01  3.27788E-01 -4.74944E-02 -7.36875E-01 -1.47167E+00
  -1.91859E+00 -1.97834E+00 -1.71372E+00 -1.24642E+00 -6.60426E-01 -6.66543E-02  3.46210E-01  4.70718E-01  3.74367E-01  2.20325E-01
   1.28344E-01  1.07289E-01  1.65357E-01  3.22689E-01  5.32671E-01  7.18012E-01  8.28314E-01  8.59290E-01  8.06523E-01  7.14097E-01
   6.37992E-01  6.20046E-01  6.75139E-01  8.20900E-01  1.04061E+00  1.27752E+00  1.46620E+00  1.56988E+00  1.60806E+00  1.63887E+00
   1.77165E+00  2.14761E+00  2.71010E+00  3.31462E+00  4.07487E+00  5.99432E+00  9.55089E+00  1.32327E+01  1.59364E+01  1.74596E+01
   1.77569E+01  1.64541E+01  1.32363E+01  8.70457E+00  4.41246E+00  1.76852E+00  1.01145E+00  1.03136E+00  9.13295E-01  7.83675E-01
   7.03823E-01  6.63054E-01  6.52072E-01  6.61279E-01  6.66325E-01  6.48157E-01  5.96274E-01  5.17458E-01  4.29797E-01  3.53921E-01
   3.01149E-01  2.74143E-01  2.71274E-01  2.87104E-01  3.15788E-01  3.52321E-01  3.91857E-01  4.33828E-01  4.81338E-01  5.34288E-01
   5.92354E-01  6.56030E-01  7.24274E-01  7.92824E-01  8.57306E-01  9.16214E-01  9.69614E-01  1.01760E+00  1.06010E+00  1.09528E+00
   1.12152E+00  1.13815E+00  1.14407E+00  1.13804E+00  1.11968E+00  1.08993E+00  1.05104E+00  1.00502E+00  9.53979E-01  9.00163E-01
   8.45717E-01  7.92663E-01  7.43083E-01  6.98939E-01  6.62287E-01  6.35192E-01  6.19864E-01  6.18621E-01  6.34318E-01  6.70906E-01
   7.35398E-01  8.43833E-01  1.02064E+00  1.20929E+00  1.33125E+00  1.38070E+00  1.37865E+00  1.33600E+00  1.25743E+00  1.17543E+00
   1.21458E+00  1.49343E+00  1.97937E+00  2.56036E+00  3.13663E+00  3.68117E+00  4.17202E+00  4.55250E+00  4.79718E+00  4.94215E+00
   5.06170E+00  5.21352E+00  5.38577E+00  5.53076E+00  5.62694E+00  5.67013E+00  5.66310E+00  5.60858E+00  5.50910E+00  5.37358E+00
   5.22961E+00  5.09904E+00  4.98072E+00  4.86201E+00  4.73047E+00  4.58383E+00  4.42226E+00  4.24113E+00  4.04211E+00  3.83596E+00
   3.63720E+00  3.45422E+00  3.28301E+00  3.11916E+00  2.96275E+00  2.81390E+00  2.67272E+00  2.53926E+00  2.41362E+00  2.29588E+00
   2.18622E+00  2.08481E+00  1.99188E+00  1.90759E+00  1.83212E+00  1.76562E+00  1.70832E+00  1.66039E+00  1.62205E+00  1.59346E+00
   1.57484E+00  1.56638E+00  1.56844E+00  1.58129E+00  1.60532E+00  1.64082E+00  1.68816E+00  1.74765E+00  1.81961E+00  1.90419E+00
   2.00139E+00  2.11094E+00  2.23236E+00  2.36481E+00  2.50711E+00  2.65759E+00  2.81419E+00  2.97433E+00  3.13514E+00  3.29337E+00
   3.44556E+00  3.58805E+00  3.71725E+00  3.82968E+00  3.92228E+00  3.99243E+00  4.03814E+00  4.05805E+00  4.05168E+00  4.01927E+00
   3.96197E+00  3.88156E+00  3.78052E+00  3.66172E+00  3.52848E+00  3.38425E+00  3.23260E+00  3.07691E+00  2.92037E+00  2.76577E+00
   2.61557E+00  2.47176E+00  2.33592E+00  2.20912E+00  2.09206E+00  1.98501E+00  1.88804E+00  1.80089E+00  1.72317E+00  1.65428E+00
   1.59358E+00  1.54033E+00  1.49387E+00  1.45350E+00  1.41858E+00  1.38844E+00  1.36253E+00  1.34031E+00  1.32138E+00  1.30532E+00
   1.29179E+00  1.28044E+00  1.27102E+00  1.26329E+00  1.25708E+00  1.25221E+00  1.24853E+00  1.24586E+00  1.24414E+00  1.24324E+00
   1.24313E+00  1.24369E+00  1.24487E+00  1.24658E+00  1.24880E+00  1.25148E+00  1.25461E+00  1.25812E+00  1.26198E+00  1.26613E+00
   1.27060E+00  1.27534E+00  1.28037E+00  1.28562E+00  1.29108E+00  1.29672E+00  1.30257E+00  1.30861E+00  1.31483E+00  1.32118E+00
   1.32767E+00  1.33428E+00  1.34105E+00  1.34794E+00  1.35495E+00  1.36204E+00  1.36923E+00  1.37651E+00  1.38391E+00  1.39139E+00
   1.39896E+00  1.40657E+00  1.41426E+00  1.42202E+00  1.42987E+00  1.43778E+00  1.44574E+00  1.45373E+00  1.46180E+00  1.46992E+00
   1.47812E+00  1.48634E+00  1.49461E+00  1.50291E+00  1.51127E+00  1.51968E+00  1.52816E+00  1.53665E+00
 NY background values follow
    -3.315E+00   -3.305E+00   -3.295E+00   -3.286E+00   -3.276E+00   -3.267E+00   -3.257E+00   -3.247E+00   -3.238E+00   -3.228E+00
    -3.218E+00   -3.209E+00   -3.199E+00   -3.190E+00   -3.180E+00   -3.170E+00   -3.161E+00   -3.151E+00   -3.141E+00   -3.132E+00
    -3.122E+00   -3.113E+00   -3.103E+00   -3.093E+00   -3.084E+00   -3.074E+00   -3.064E+00   -3.055E+00   -3.045E+00   -3.036E+00
    -3.026E+00   -3.016E+00   -3.007E+00   -2.997E+00   -2.987E+00   -2.978E+00   -2.968E+00   -2.959E+00   -2.949E+00   -2.939E+00
    -2.930E+00   -2.920E+00   -2.910E+00   -2.901E+00   -2.891E+00   -2.882E+00   -2.872E+00   -2.862E+00   -2.853E+00   -2.843E+00
    -2.833E+00   -2.824E+00   -2.814E+00   -2.805E+00   -2.795E+00   -2.785E+00   -2.776E+00   -2.766E+00   -2.757E+00   -2.747E+00
    -2.737E+00   -2.728E+00   -2.718E+00   -2.708E+00   -2.699E+00   -2.689E+00   -2.680E+00   -2.670E+00   -2.660E+00   -2.651E+00
    -2.641E+00   -2.631E+00   -2.622E+00   -2.612E+00   -2.603E+00   -2.593E+00   -2.583E+00   -2.574E+00   -2.564E+00   -2.554E+00
    -2.545E+00   -2.535E+00   -2.526E+00   -2.516E+00   -2.506E+00   -2.497E+00   -2.487E+00   -2.477E+00   -2.468E+00   -2.458E+00
    -2.449E+00   -2.439E+00   -2.429E+00   -2.420E+00   -2.410E+00   -2.400E+00   -2.391E+00   -2.381E+00   -2.372E+00   -2.362E+00
    -2.352E+00   -2.343E+00   -2.333E+00   -2.323E+00   -2.314E+00   -2.304E+00   -2.295E+00   -2.285E+00   -2.275E+00   -2.266E+00
    -2.256E+00   -2.246E+00   -2.237E+00   -2.227E+00   -2.218E+00   -2.208E+00   -2.198E+00   -2.189E+00   -2.179E+00   -2.169E+00
    -2.160E+00   -2.150E+00   -2.141E+00   -2.131E+00   -2.121E+00   -2.112E+00   -2.102E+00   -2.092E+00   -2.083E+00   -2.073E+00
    -2.064E+00   -2.054E+00   -2.044E+00   -2.035E+00   -2.025E+00   -2.015E+00   -2.006E+00   -1.996E+00   -1.987E+00   -1.977E+00
    -1.967E+00   -1.958E+00   -1.948E+00   -1.938E+00   -1.929E+00   -1.919E+00   -1.910E+00   -1.900E+00   -1.890E+00   -1.881E+00
    -1.871E+00   -1.861E+00   -1.852E+00   -1.842E+00   -1.833E+00   -1.823E+00   -1.813E+00   -1.804E+00   -1.794E+00   -1.784E+00
    -1.775E+00   -1.765E+00   -1.756E+00   -1.746E+00   -1.736E+00   -1.727E+00   -1.717E+00   -1.707E+00   -1.698E+00   -1.688E+00
    -1.679E+00   -1.669E+00   -1.659E+00   -1.650E+00   -1.640E+00   -1.630E+00   -1.621E+00   -1.611E+00   -1.602E+00   -1.592E+00
    -1.582E+00   -1.573E+00   -1.563E+00   -1.554E+00   -1.544E+00   -1.534E+00   -1.525E+00   -1.515E+00   -1.505E+00   -1.496E+00
    -1.486E+00   -1.477E+00   -1.467E+00   -1.457E+00   -1.448E+00   -1.438E+00   -1.428E+00   -1.419E+00   -1.409E+00   -1.400E+00
    -1.390E+00   -1.380E+00   -1.371E+00   -1.361E+00   -1.351E+00   -1.342E+00   -1.332E+00   -1.323E+00   -1.313E+00   -1.303E+00
    -1.294E+00   -1.284E+00   -1.274E+00   -1.265E+00   -1.255E+00   -1.246E+00   -1.236E+00   -1.226E+00   -1.217E+00   -1.207E+00
    -1.197E+00   -1.188E+00   -1.178E+00   -1.169E+00   -1.159E+00   -1.149E+00   -1.140E+00   -1.130E+00   -1.120E+00   -1.111E+00
    -1.101E+00   -1.092E+00   -1.082E+00   -1.072E+00   -1.063E+00   -1.053E+00   -1.043E+00   -1.034E+00   -1.024E+00   -1.015E+00
    -1.005E+00   -9.954E-01   -9.857E-01   -9.761E-01   -9.665E-01   -9.569E-01   -9.473E-01   -9.376E-01   -9.280E-01   -9.184E-01
    -9.088E-01   -8.991E-01   -8.895E-01   -8.799E-01   -8.703E-01   -8.607E-01   -8.510E-01   -8.414E-01   -8.318E-01   -8.222E-01
    -8.125E-01   -8.029E-01   -7.933E-01   -7.837E-01   -7.740E-01   -7.644E-01   -7.548E-01   -7.452E-01   -7.356E-01   -7.259E-01
    -7.163E-01   -7.067E-01   -6.971E-01   -6.874E-01   -6.778E-01   -6.682E-01   -6.586E-01   -6.490E-01   -6.393E-01   -6.297E-01
    -6.201E-01   -6.105E-01   -6.008E-01   -5.912E-01   -5.816E-01   -5.720E-01   -5.624E-01   -5.527E-01   -5.431E-01   -5.335E-01
    -5.239E-01   -5.142E-01   -5.046E-01   -4.950E-01   -4.854E-01   -4.758E-01   -4.661E-01   -4.565E-01   -4.469E-01   -4.373E-01
    -4.276E-01   -4.180E-01   -4.084E-01   -3.988E-01   -3.892E-01   -3.795E-01   -3.699E-01   -3.603E-01   -3.507E-01   -3.410E-01
    -3.314E-01   -3.218E-01   -3.122E-01   -3.026E-01   -2.929E-01   -2.833E-01   -2.737E-01   -2.641E-01   -2.544E-01   -2.448E-01
    -2.352E-01   -2.256E-01   -2.160E-01   -2.063E-01   -1.967E-01   -1.871E-01   -1.775E-01   -1.678E-01   -1.582E-01   -1.486E-01
    -1.390E-01   -1.294E-01   -1.197E-01   -1.101E-01   -1.005E-01   -9.086E-02   -8.124E-02   -7.162E-02   -6.200E-02   -5.238E-02
    -4.275E-02   -3.313E-02   -2.351E-02   -1.389E-02   -4.265E-03    5.358E-03    1.498E-02    2.460E-02    3.422E-02    4.385E-02
     5.347E-02    6.309E-02    7.271E-02    8.233E-02    9.196E-02    1.016E-01    1.112E-01    1.208E-01    1.304E-01    1.401E-01
     1.497E-01    1.593E-01    1.689E-01    1.786E-01    1.882E-01    1.978E-01    2.074E-01    2.170E-01    2.267E-01    2.363E-01
     2.459E-01    2.555E-01    2.652E-01    2.748E-01    2.844E-01    2.940E-01    3.036E-01    3.133E-01    3.229E-01    3.325E-01
     3.421E-01    3.517E-01    3.614E-01    3.710E-01    3.806E-01    3.902E-01    3.999E-01    4.095E-01    4.191E-01    4.287E-01
     4.383E-01    4.480E-01    4.576E-01    4.672E-01    4.768E-01    4.865E-01    4.961E-01    5.057E-01    5.153E-01    5.249E-01
     5.346E-01    5.442E-01    5.538E-01    5.634E-01    5.731E-01    5.827E-01    5.923E-01    6.019E-01    6.115E-01    6.212E-01
     6.308E-01    6.404E-01    6.500E-01    6.596E-01    6.693E-01    6.789E-01    6.885E-01    6.981E-01    7.078E-01    7.174E-01
     7.270E-01    7.366E-01    7.462E-01    7.559E-01    7.655E-01    7.751E-01    7.847E-01    7.944E-01    8.040E-01    8.136E-01
     8.232E-01    8.328E-01    8.425E-01    8.521E-01    8.617E-01    8.713E-01    8.810E-01    8.906E-01    9.002E-01    9.098E-01
     9.194E-01    9.291E-01    9.387E-01    9.483E-01    9.579E-01    9.675E-01    9.772E-01    9.868E-01    9.964E-01    1.006E+00
     1.016E+00    1.025E+00    1.035E+00    1.045E+00    1.054E+00    1.064E+00    1.073E+00    1.083E+00    1.093E+00    1.102E+00
     1.112E+00    1.121E+00    1.131E+00    1.141E+00    1.150E+00    1.160E+00    1.170E+00    1.179E+00    1.189E+00    1.198E+00
     1.208E+00    1.218E+00    1.227E+00    1.237E+00    1.247E+00    1.256E+00    1.266E+00    1.275E+00    1.285E+00    1.295E+00
     1.304E+00    1.314E+00    1.324E+00    1.333E+00    1.343E+00    1.352E+00    1.362E+00    1.372E+00    1.381E+00    1.391E+00
     1.401E+00    1.410E+00    1.420E+00    1.429E+00    1.439E+00    1.449E+00    1.458E+00    1.468E+00
 Ala      Conc. = 3.95E+01
