 LCModel (Version 6.3-1L) Copyright: S.W. Provencher.          Ref.: Magn. Reson. Med. 30:672-679 (1993).                
 Slice#1 Row#1 Col#8  K_02_press_1_raw_act
 36 lines in following concentration table = NCONC+1
    Conc.  %SD /Cr+PCr  Metabolite                                         
 3.08E+03  18%   0.000 Ala                                                 
    1.026 572%   0.000 Asp                                                 
    0.000 999%   0.000 Cr                                                  
    0.000 999%   0.000 PCr                                                 
    0.617 570%   0.000 GABA                                                
    0.630 559%   0.000 Glc                                                 
    0.000 999%   0.000 Gln                                                 
    0.000 999%   0.000 Glu                                                 
    0.000 999%   0.000 GPC                                                 
    7.204 332%   0.000 PCh                                                 
  159.892  69%   0.000 GSH                                                 
    0.000 999%   0.000 Ins                                                 
 4.50E+03  13%   0.000 Lac                                                 
    0.000 999%   0.000 NAA                                                 
    0.000 999%   0.000 NAAG                                                
    0.190 616%   0.000 Scyllo                                              
    1.065 548%   0.000 Tau                                                 
    1.165 617%   0.000 -CrCH2                                              
    7.204 332%   0.000 GPC+PCh                                             
    0.000 999%   0.000 NAA+NAAG                                            
    0.000 999%   0.000 Cr+PCr                                              
    0.000 999%   0.000 Glu+Gln                                             
    0.000 999%   0.000 Lip13a                                              
    0.000 999%   0.000 Lip13b                                              
    0.000 999%   0.000 Lip09                                               
  804.300  14%   0.000 MM09                                                
    0.000 999%   0.000 Lip20                                               
  399.174  45%   0.000 MM20                                                
  242.229  37%   0.000 MM12                                                
 2.14E+03  11%   0.000+MM14                                                
  949.851  20%   0.000 MM17                                                
    0.000 999%   0.000 Lip13a+Lip13b                                       
 2.39E+03  11%   0.000 MM14+Lip13a+Lip13b+MM12                             
  804.300  14%   0.000 MM09+Lip09                                          
  399.174  45%   0.000 MM20+Lip20                                          
   6 lines in following misc. output table
  FWHM = 0.153 ppm    S/N =   5                                            
  Data shift = 0.092 ppm                                                   
  Ph: -12 deg      26.1 deg/ppm                                            
  alphaB,S = 8.5E+01,   2.0E+02                                            
   10 spline knots.   Ns = 9(2)                                            
   2 inflections.     1 extrema                                            
  498 points on ppm-axis = NY
      4.000000     3.992357     3.984714     3.977070     3.969427     3.961784     3.954141     3.946497     3.938854     3.931211
      3.923568     3.915925     3.908281     3.900638     3.892995     3.885352     3.877708     3.870065     3.862422     3.854779
      3.847136     3.839492     3.831849     3.824206     3.816563     3.808919     3.801276     3.793633     3.785990     3.778347
      3.770703     3.763060     3.755417     3.747774     3.740130     3.732487     3.724844     3.717201     3.709558     3.701914
      3.694271     3.686628     3.678985     3.671341     3.663698     3.656055     3.648412     3.640769     3.633125     3.625482
      3.617839     3.610196     3.602552     3.594909     3.587266     3.579623     3.571980     3.564336     3.556693     3.549050
      3.541407     3.533763     3.526120     3.518477     3.510834     3.503191     3.495547     3.487904     3.480261     3.472618
      3.464974     3.457331     3.449688     3.442045     3.434402     3.426758     3.419115     3.411472     3.403829     3.396185
      3.388542     3.380899     3.373256     3.365613     3.357969     3.350326     3.342683     3.335040     3.327396     3.319753
      3.312110     3.304467     3.296824     3.289180     3.281537     3.273894     3.266251     3.258607     3.250964     3.243321
      3.235678     3.228034     3.220391     3.212748     3.205105     3.197462     3.189818     3.182175     3.174532     3.166889
      3.159245     3.151602     3.143959     3.136316     3.128673     3.121029     3.113386     3.105743     3.098100     3.090456
      3.082813     3.075170     3.067527     3.059884     3.052240     3.044597     3.036954     3.029311     3.021667     3.014024
      3.006381     2.998738     2.991095     2.983451     2.975808     2.968165     2.960522     2.952878     2.945235     2.937592
      2.929949     2.922306     2.914662     2.907019     2.899376     2.891733     2.884089     2.876446     2.868803     2.861160
      2.853517     2.845873     2.838230     2.830587     2.822944     2.815300     2.807657     2.800014     2.792371     2.784728
      2.777084     2.769441     2.761798     2.754155     2.746511     2.738868     2.731225     2.723582     2.715939     2.708295
      2.700652     2.693009     2.685366     2.677722     2.670079     2.662436     2.654793     2.647150     2.639506     2.631863
      2.624220     2.616577     2.608933     2.601290     2.593647     2.586004     2.578361     2.570717     2.563074     2.555431
      2.547788     2.540144     2.532501     2.524858     2.517215     2.509572     2.501928     2.494285     2.486642     2.478999
      2.471355     2.463712     2.456069     2.448426     2.440783     2.433139     2.425496     2.417853     2.410210     2.402566
      2.394923     2.387280     2.379637     2.371994     2.364350     2.356707     2.349064     2.341421     2.333777     2.326134
      2.318491     2.310848     2.303205     2.295561     2.287918     2.280275     2.272632     2.264988     2.257345     2.249702
      2.242059     2.234416     2.226772     2.219129     2.211486     2.203843     2.196199     2.188556     2.180913     2.173270
      2.165627     2.157983     2.150340     2.142697     2.135054     2.127410     2.119767     2.112124     2.104481     2.096838
      2.089194     2.081551     2.073908     2.066265     2.058621     2.050978     2.043335     2.035692     2.028049     2.020405
      2.012762     2.005119     1.997476     1.989833     1.982190     1.974546     1.966903     1.959260     1.951617     1.943974
      1.936331     1.928688     1.921045     1.913402     1.905759     1.898115     1.890472     1.882829     1.875186     1.867543
      1.859900     1.852257     1.844614     1.836971     1.829327     1.821684     1.814041     1.806398     1.798755     1.791112
      1.783469     1.775826     1.768183     1.760540     1.752896     1.745253     1.737610     1.729967     1.722324     1.714681
      1.707038     1.699395     1.691752     1.684108     1.676465     1.668822     1.661179     1.653536     1.645893     1.638250
      1.630607     1.622964     1.615321     1.607677     1.600034     1.592391     1.584748     1.577105     1.569462     1.561819
      1.554176     1.546533     1.538890     1.531246     1.523603     1.515960     1.508317     1.500674     1.493031     1.485388
      1.477745     1.470102     1.462458     1.454815     1.447172     1.439529     1.431886     1.424243     1.416600     1.408957
      1.401314     1.393671     1.386027     1.378384     1.370741     1.363098     1.355455     1.347812     1.340169     1.332526
      1.324883     1.317240     1.309596     1.301953     1.294310     1.286667     1.279024     1.271381     1.263738     1.256095
      1.248452     1.240808     1.233165     1.225522     1.217879     1.210236     1.202593     1.194950     1.187307     1.179664
      1.172021     1.164377     1.156734     1.149091     1.141448     1.133805     1.126162     1.118519     1.110876     1.103233
      1.095590     1.087946     1.080303     1.072660     1.065017     1.057374     1.049731     1.042088     1.034445     1.026802
      1.019158     1.011515     1.003872     0.996229     0.988586     0.980943     0.973300     0.965657     0.958014     0.950371
      0.942727     0.935084     0.927441     0.919798     0.912155     0.904512     0.896869     0.889226     0.881583     0.873940
      0.866296     0.858653     0.851010     0.843367     0.835724     0.828081     0.820438     0.812795     0.805152     0.797508
      0.789865     0.782222     0.774579     0.766936     0.759293     0.751650     0.744007     0.736364     0.728721     0.721077
      0.713434     0.705791     0.698148     0.690505     0.682862     0.675219     0.667576     0.659933     0.652290     0.644646
      0.637003     0.629360     0.621717     0.614074     0.606431     0.598788     0.591145     0.583502     0.575858     0.568215
      0.560572     0.552929     0.545286     0.537643     0.530000     0.522357     0.514714     0.507071     0.499427     0.491784
      0.484141     0.476498     0.468855     0.461212     0.453569     0.445925     0.438282     0.430639     0.422996     0.415353
      0.407710     0.400067     0.392424     0.384780     0.377137     0.369494     0.361851     0.354208     0.346565     0.338922
      0.331278     0.323635     0.315992     0.308349     0.300706     0.293063     0.285420     0.277777     0.270133     0.262490
      0.254847     0.247204     0.239561     0.231918     0.224275     0.216631     0.208988     0.201345
 NY phased data points follow
  -2.70592E+00 -7.37670E+00 -6.52383E+00 -1.19218E+01 -3.70964E+00 -4.24476E+00 -7.43870E+00 -5.73319E+00 -5.63542E+00 -2.95443E+00
  -7.90978E+00 -6.86067E+00 -9.15703E+00 -9.05879E+00 -5.75824E+00 -5.40065E+00 -5.52490E+00 -5.59719E+00 -6.13625E+00 -6.75343E+00
  -6.94343E+00 -5.44292E+00 -7.55602E+00 -6.01442E-01 -3.88529E+00 -6.44920E+00 -2.25193E+00 -3.64912E+00 -4.74012E+00 -5.95372E+00
  -4.84697E+00 -4.33846E+00 -8.30000E+00 -1.51152E+00 -4.61491E+00 -2.96931E-01 -5.15005E+00 -2.39367E+00 -2.42015E+00 -4.13515E+00
   4.75478E-01 -7.94201E+00 -5.55130E+00 -3.58704E+00  9.72931E-01 -7.64390E+00 -4.45669E+00 -9.39555E+00 -5.10777E+00 -1.01193E+01
  -4.54546E+00 -3.01677E+00 -8.39303E+00 -4.16929E+00 -3.53927E+00 -5.66652E+00 -4.04787E+00 -6.83657E+00 -6.15445E+00 -4.57680E+00
  -3.05399E+00 -1.38077E+00  2.33891E-02 -5.03600E+00 -5.05162E+00 -2.73561E+00 -5.78842E+00 -1.77276E+00 -1.48058E+00 -2.09919E+00
  -2.64594E+00 -2.44963E+00 -3.63962E+00 -7.57491E+00 -2.71916E+00 -4.34570E+00 -7.34048E+00 -7.10107E+00 -6.80051E+00  2.30976E+00
  -7.27174E+00 -3.76258E+00 -4.41487E+00 -8.82678E+00 -3.77378E+00 -6.48791E+00 -6.33502E+00 -4.01151E+00 -2.57926E+00 -4.86330E+00
  -6.09824E+00 -2.18948E+00 -5.41807E+00 -6.82135E+00 -5.53921E+00 -3.22536E+00 -4.24471E+00 -1.97074E+00 -5.62079E-01 -6.57077E+00
  -6.04107E+00 -6.17346E+00 -8.77516E+00 -3.75527E+00 -1.86066E+00 -3.29489E+00 -1.95115E+00 -7.00493E+00 -2.92739E+00 -4.87709E+00
  -4.49918E+00 -4.16994E-01  3.12401E-02 -2.38692E+00 -1.40037E-01 -2.04902E+00 -6.28756E+00 -3.58239E+00 -1.32401E+00 -1.89854E+00
  -4.00186E-01 -4.27167E+00 -1.04165E+00 -6.03595E+00 -8.64067E+00 -6.59652E+00 -4.51993E+00 -4.55988E+00 -3.39514E+00 -3.68237E+00
  -3.58219E+00  4.91926E-01 -5.46503E-01  3.15238E-01 -3.46793E+00 -2.08927E-01 -7.62978E-01 -7.73451E-01 -5.13371E+00 -1.81715E-01
  -4.10380E+00 -3.16818E-01 -4.64087E-01 -3.02044E+00 -7.33680E+00 -3.40273E+00 -5.48259E+00 -2.78128E+00 -6.55024E-01 -3.86557E+00
  -8.06721E+00  3.00941E+00 -5.00742E+00 -1.12518E+00 -3.87158E-01 -1.06564E+00 -4.01062E+00 -3.66421E+00  3.77248E-01 -1.42870E+00
  -5.60121E+00 -3.61814E+00 -2.74911E+00 -4.06049E+00 -8.42361E-01 -6.81635E-01 -5.15080E+00 -1.16856E+00 -1.11167E+00  5.74946E+00
  -3.92200E+00 -5.98363E+00 -1.92675E+00 -1.11315E-01 -4.16381E+00 -2.79834E+00  2.51598E+00 -2.03340E+00 -3.31464E+00  1.64976E-01
  -4.45314E+00 -5.24785E+00 -5.27654E+00 -3.32694E+00 -5.26298E+00 -4.57098E+00 -3.69591E+00 -2.36476E+00 -4.96528E+00 -6.34521E-01
  -3.02919E+00 -2.36638E+00 -3.67482E+00 -2.05659E+00 -9.43759E-01  2.90012E+00 -4.03538E+00 -2.71154E+00 -2.69460E+00 -2.15723E+00
   2.48256E+00 -2.24213E+00 -3.26970E+00 -4.99690E+00  1.33043E+00 -1.99524E-01 -5.93576E-01 -7.02539E-01 -2.95285E-01  2.76080E+00
  -3.35844E+00 -2.90903E+00 -2.99172E+00  1.80722E+00 -3.70353E+00 -3.72974E+00  1.91364E+00 -5.58985E+00  2.85691E-01 -1.95013E+00
  -2.20293E+00  2.26370E-01 -3.28242E+00 -2.83198E+00 -2.58117E+00 -3.44401E+00  9.53637E-01  3.63190E-01 -1.27057E+00  1.15249E+00
   3.78159E-01 -3.25123E+00 -4.23456E+00 -8.21051E-01  5.63745E+00  2.21170E+00 -7.00556E+00 -1.42327E+00 -3.62672E+00  4.38964E-01
   3.65909E-02 -2.56678E+00 -6.04948E+00  7.17651E-01 -4.60119E+00 -1.69241E+00 -3.96755E+00 -2.21225E+00  1.09101E-01  3.08535E+00
  -7.25940E+00 -6.57705E+00 -1.55892E+00  1.32343E+00 -3.18900E+00 -4.56878E+00 -9.22767E+00 -4.29190E+00 -3.36937E+00 -4.77633E+00
  -1.99007E-01 -2.77640E+00  1.30818E+00  3.14766E+00 -4.34021E+00 -7.99506E-01  2.71500E+00 -1.47984E+00 -4.08374E+00 -9.94530E-02
   4.06261E-01 -6.20631E+00 -4.76411E+00 -3.76184E+00 -2.11546E+00 -8.49455E-02  2.10837E+00 -4.44231E+00  7.79697E-01  3.81343E+00
   1.35283E+00  1.60606E+00  2.40491E+00 -1.82277E+00  3.03946E+00  9.44340E-01 -5.98237E+00 -4.85127E+00 -2.74722E+00 -1.45358E+00
  -3.72933E+00  3.77590E-01 -3.36628E+00  5.19379E+00 -2.68556E+00 -1.56684E+00 -2.32730E+00 -7.21439E-01  4.23022E+00 -6.96816E-01
   1.54382E+00  1.28356E+00  7.29451E-01  2.86126E+00  2.36195E+00 -3.99417E-01 -1.47152E-01  4.04823E+00  1.45962E+00  5.79842E+00
   2.10312E+00  1.43797E+00  5.28558E+00  8.63712E+00  5.10163E+00  1.02368E+01  8.66001E+00  1.25076E+01  1.96409E+01  1.70675E+01
   2.17640E+01  1.79068E+01  2.53667E+01  2.82571E+01  2.69902E+01  3.03183E+01  2.63218E+01  2.65530E+01  2.75107E+01  3.08146E+01
   3.27178E+01  3.29066E+01  3.05716E+01  2.97638E+01  3.11670E+01  2.97010E+01  2.91637E+01  3.14738E+01  3.20135E+01  2.83679E+01
   2.42349E+01  2.24802E+01  2.77290E+01  1.86458E+01  2.13526E+01  2.44652E+01  2.25048E+01  1.87932E+01  1.47691E+01  1.88885E+01
   1.63346E+01  1.46010E+01  1.01930E+01  1.22458E+01  8.04993E+00  8.48575E+00  9.89296E+00  1.08639E+01  6.61207E+00  4.46143E+00
   7.39545E+00  9.95531E+00  1.21731E+01  7.07859E+00  4.30308E+00  6.06484E+00  1.35323E+01  4.55211E+00  8.98023E+00  7.28332E+00
   4.50669E+00  6.96948E+00  4.22108E+00  1.26936E+01  5.45005E+00  8.61009E+00  7.34498E+00  5.61059E+00  6.66911E+00  1.23171E+01
   8.30917E+00  8.92179E+00  4.28351E+00  3.87107E+00  4.63566E+00  5.67384E+00  5.33772E+00  6.50176E+00  8.55331E+00  9.58847E+00
   2.75981E+00  7.61451E+00 -8.26544E-02  9.61785E+00  2.20700E+00 -1.36430E+00  4.36807E+00  5.67442E+00  7.52914E-01  2.45471E+00
   4.18267E+00  3.65321E+00  3.74126E-01  4.60468E+00  3.30056E+00  1.14805E+00  1.27295E+00  7.90154E-01  4.55667E+00  3.93114E+00
   3.16650E+00 -3.06275E+00  3.64835E+00  3.92092E+00  5.09188E+00 -1.22138E+00  2.16196E+00  9.65805E-01  6.03170E+00 -3.99890E-01
   4.61183E-01  4.88118E+00  4.08145E-01  3.29920E+00  3.27296E+00  7.75932E-01 -5.63700E-01  9.17477E-01 -1.47665E+00  3.17524E-01
  -2.94966E+00  8.92563E-01  1.53871E+00  1.98340E+00 -1.76582E+00 -2.82467E-01  3.36282E-01  7.09115E-01 -5.05776E-01  5.03356E-01
  -1.46911E+00  1.64290E+00  1.48268E+00  2.42497E+00 -1.09661E+00 -1.60831E+00 -1.42719E+00 -2.23711E+00 -1.43163E+00 -5.54333E+00
   3.10020E+00  8.47505E-01 -2.35017E+00  1.19797E+00 -2.60360E+00 -1.00905E+00 -3.58336E+00 -2.97013E+00 -3.36340E+00  2.65572E+00
  -4.07644E-02 -1.14918E+00  2.83228E+00 -1.51415E-01 -1.78001E+00  2.20343E+00 -2.96410E+00 -2.35550E+00 -2.88451E-01  2.72577E+00
  -1.36256E+00 -5.02208E-01 -2.75259E+00 -4.64001E-01  3.31412E+00 -7.43707E+00 -4.56903E+00 -4.90893E+00  2.51524E+00  3.96342E-01
  -3.59177E+00  1.33596E-01 -1.70664E+00 -1.89741E+00 -2.33892E+00 -2.96451E+00 -2.07178E+00 -3.74233E+00  2.85272E+00  1.71984E+00
  -2.02960E+00 -3.84032E+00 -1.76259E+00 -4.04644E+00 -1.51003E+00 -2.72948E+00  4.70910E-01  7.77506E-01
 NY points of the fit to the data follow
  -4.90490E+00 -5.60845E+00 -4.89528E+00 -5.32888E+00 -4.61125E+00 -4.98304E+00 -4.55322E+00 -4.77536E+00 -4.69755E+00 -4.82293E+00
  -5.05329E+00 -5.02674E+00 -5.09876E+00 -4.83172E+00 -5.02163E+00 -4.51827E+00 -4.78336E+00 -4.17571E+00 -4.58347E+00 -4.04722E+00
  -4.47453E+00 -3.90174E+00 -4.34728E+00 -3.81294E+00 -4.22506E+00 -3.76526E+00 -4.09115E+00 -3.78014E+00 -4.02471E+00 -3.85508E+00
  -3.94271E+00 -3.91467E+00 -3.84623E+00 -3.97455E+00 -3.72641E+00 -3.98797E+00 -3.63786E+00 -4.08230E+00 -3.66041E+00 -4.22765E+00
  -3.80310E+00 -4.43229E+00 -3.99095E+00 -4.58885E+00 -4.08931E+00 -4.63332E+00 -4.11878E+00 -4.50854E+00 -4.16460E+00 -4.55784E+00
  -4.34260E+00 -4.68425E+00 -4.50703E+00 -4.81156E+00 -4.75406E+00 -4.86376E+00 -4.73842E+00 -4.76566E+00 -4.64438E+00 -4.61777E+00
  -4.51557E+00 -4.46344E+00 -4.44282E+00 -4.42945E+00 -4.42043E+00 -4.41165E+00 -4.40471E+00 -4.39689E+00 -4.39015E+00 -4.38218E+00
  -4.37522E+00 -4.36703E+00 -4.35958E+00 -4.35121E+00 -4.34303E+00 -4.33420E+00 -4.32540E+00 -4.31628E+00 -4.30695E+00 -4.29757E+00
  -4.28770E+00 -4.27794E+00 -4.26745E+00 -4.25703E+00 -4.24467E+00 -4.22716E+00 -4.20904E+00 -4.19168E+00 -4.17018E+00 -4.15311E+00
  -4.12745E+00 -4.10840E+00 -4.07633E+00 -4.05609E+00 -4.01687E+00 -3.99857E+00 -3.95311E+00 -3.93961E+00 -3.88914E+00 -3.87956E+00
  -3.82386E+00 -3.81993E+00 -3.76204E+00 -3.76600E+00 -3.70842E+00 -3.72103E+00 -3.66606E+00 -3.68460E+00 -3.63506E+00 -3.65594E+00
  -3.61289E+00 -3.63374E+00 -3.59712E+00 -3.61090E+00 -3.57684E+00 -3.57707E+00 -3.54405E+00 -3.54010E+00 -3.51500E+00 -3.50728E+00
  -3.48800E+00 -3.46943E+00 -3.44555E+00 -3.41707E+00 -3.38296E+00 -3.34981E+00 -3.30759E+00 -3.28870E+00 -3.24231E+00 -3.23548E+00
  -3.17841E+00 -3.18639E+00 -3.11919E+00 -3.14946E+00 -3.07710E+00 -3.13056E+00 -3.05498E+00 -3.12645E+00 -3.04362E+00 -3.12537E+00
  -3.03596E+00 -3.12798E+00 -3.04016E+00 -3.13749E+00 -3.05536E+00 -3.15624E+00 -3.08444E+00 -3.17790E+00 -3.11824E+00 -3.20293E+00
  -3.15738E+00 -3.23117E+00 -3.19938E+00 -3.25865E+00 -3.23598E+00 -3.27009E+00 -3.25164E+00 -3.28437E+00 -3.28349E+00 -3.31276E+00
  -3.32511E+00 -3.34200E+00 -3.35190E+00 -3.35417E+00 -3.35470E+00 -3.35328E+00 -3.35045E+00 -3.35113E+00 -3.34733E+00 -3.34976E+00
  -3.34421E+00 -3.34582E+00 -3.33476E+00 -3.33485E+00 -3.31829E+00 -3.32152E+00 -3.30411E+00 -3.31138E+00 -3.29088E+00 -3.30212E+00
  -3.28024E+00 -3.28409E+00 -3.25647E+00 -3.25483E+00 -3.22741E+00 -3.22289E+00 -3.19972E+00 -3.18724E+00 -3.16847E+00 -3.14341E+00
  -3.12949E+00 -3.09138E+00 -3.08562E+00 -3.03878E+00 -3.04438E+00 -2.98854E+00 -3.00340E+00 -2.93719E+00 -2.95638E+00 -2.88055E+00
  -2.89934E+00 -2.81673E+00 -2.83358E+00 -2.75148E+00 -2.76509E+00 -2.68489E+00 -2.69089E+00 -2.62167E+00 -2.62164E+00 -2.55866E+00
  -2.54939E+00 -2.49408E+00 -2.47230E+00 -2.42405E+00 -2.39497E+00 -2.35445E+00 -2.32325E+00 -2.29156E+00 -2.26040E+00 -2.23817E+00
  -2.21140E+00 -2.19049E+00 -2.16416E+00 -2.14314E+00 -2.11575E+00 -2.09128E+00 -2.06047E+00 -2.03147E+00 -1.99331E+00 -1.96493E+00
  -1.92190E+00 -1.89447E+00 -1.84482E+00 -1.81353E+00 -1.75285E+00 -1.71830E+00 -1.64673E+00 -1.61343E+00 -1.53269E+00 -1.50167E+00
  -1.41561E+00 -1.38675E+00 -1.29756E+00 -1.26557E+00 -1.17425E+00 -1.14373E+00 -1.05791E+00 -1.02944E+00 -9.55150E-01 -9.35726E-01
  -8.80735E-01 -8.68773E-01 -8.34502E-01 -8.39267E-01 -8.32260E-01 -8.42044E-01 -8.49853E-01 -8.61501E-01 -8.79245E-01 -8.85280E-01
  -9.07053E-01 -9.25667E-01 -9.59770E-01 -9.86847E-01 -1.02577E+00 -1.05612E+00 -1.09562E+00 -1.11904E+00 -1.14658E+00 -1.16417E+00
  -1.18386E+00 -1.19763E+00 -1.21100E+00 -1.22205E+00 -1.23205E+00 -1.24042E+00 -1.24639E+00 -1.24978E+00 -1.25041E+00 -1.24808E+00
  -1.24269E+00 -1.23401E+00 -1.22206E+00 -1.20657E+00 -1.18750E+00 -1.16463E+00 -1.13788E+00 -1.10713E+00 -1.07220E+00 -1.03296E+00
  -9.89027E-01 -9.40202E-01 -8.85872E-01 -8.25619E-01 -7.58495E-01 -6.83593E-01 -5.99281E-01 -5.03862E-01 -3.94673E-01 -2.68695E-01
  -1.21492E-01  5.23026E-02  2.60061E-01  5.10891E-01  8.17212E-01  1.19550E+00  1.67032E+00  2.28337E+00  3.13028E+00  4.28282E+00
   5.07928E+00  6.32552E+00  7.16927E+00  8.62889E+00  9.58126E+00  1.13088E+01  1.21392E+01  1.44784E+01  1.54709E+01  1.79461E+01
   1.87924E+01  2.11151E+01  2.17589E+01  2.40272E+01  2.44781E+01  2.65687E+01  2.69194E+01  2.87303E+01  2.94142E+01  3.02707E+01
   3.03779E+01  3.04187E+01  3.03814E+01  2.98868E+01  2.98991E+01  2.87292E+01  2.95113E+01  2.81299E+01  2.87420E+01  2.67708E+01
   2.69329E+01  2.47936E+01  2.48558E+01  2.26520E+01  2.24876E+01  2.05468E+01  2.00923E+01  1.84621E+01  1.74953E+01  1.66217E+01
   1.49028E+01  1.42439E+01  1.23999E+01  1.21511E+01  1.01846E+01  1.03687E+01  8.39497E+00  9.41298E+00  7.83825E+00  9.13376E+00
   8.03086E+00  9.33848E+00  8.31241E+00  9.39670E+00  8.62038E+00  9.60201E+00  8.93980E+00  9.84692E+00  9.93983E+00  1.02128E+01
   9.51439E+00  9.26241E+00  8.07075E+00  7.41560E+00  5.87328E+00  4.95039E+00  4.40481E+00  4.04849E+00  3.81190E+00  3.66145E+00
   3.57781E+00  3.54855E+00  3.56474E+00  3.61930E+00  3.70592E+00  3.81865E+00  3.95162E+00  4.09898E+00  4.25465E+00  4.41245E+00
   4.56598E+00  4.70902E+00  4.83550E+00  4.93999E+00  5.01754E+00  5.06412E+00  5.07653E+00  5.05279E+00  4.99203E+00  4.89471E+00
   4.76231E+00  4.59742E+00  4.40340E+00  4.18448E+00  3.94529E+00  3.69087E+00  3.42618E+00  3.15615E+00  2.88526E+00  2.61770E+00
   2.35702E+00  2.10626E+00  1.86768E+00  1.64303E+00  1.43335E+00  1.23934E+00  1.06108E+00  8.98432E-01  7.50759E-01  6.17369E-01
   4.97290E-01  3.89623E-01  2.93280E-01  2.07294E-01  1.30570E-01  6.22185E-02  1.29250E-03 -5.29276E-02 -1.01245E-01 -1.44262E-01
  -1.82657E-01 -2.16881E-01 -2.47448E-01 -2.74676E-01 -2.98993E-01 -3.20657E-01 -3.40019E-01 -3.57241E-01 -3.72584E-01 -3.86157E-01
  -3.98199E-01 -4.08802E-01 -4.18163E-01 -4.26314E-01 -4.33408E-01 -4.39469E-01 -4.44657E-01 -4.48988E-01 -4.52588E-01 -4.55435E-01
  -4.57639E-01 -4.59190E-01 -4.60211E-01 -4.60678E-01 -4.60684E-01 -4.60182E-01 -4.59269E-01 -4.57916E-01 -4.56227E-01 -4.54152E-01
  -4.51773E-01 -4.49028E-01 -4.46014E-01 -4.42686E-01 -4.39139E-01 -4.35305E-01 -4.31262E-01 -4.26943E-01 -4.22446E-01 -4.17716E-01
  -4.12838E-01 -4.07732E-01 -4.02479E-01 -3.97012E-01 -3.91426E-01 -3.85657E-01 -3.79782E-01 -3.73721E-01 -3.67551E-01 -3.61210E-01
  -3.54787E-01 -3.48212E-01 -3.41553E-01 -3.34734E-01 -3.27830E-01 -3.20782E-01 -3.13668E-01 -3.06416E-01 -2.99084E-01 -2.91601E-01
  -2.84038E-01 -2.76335E-01 -2.68553E-01 -2.60612E-01 -2.52560E-01 -2.44319E-01 -2.35938E-01 -2.27325E-01
 NY background values follow
    -5.312E+00   -5.302E+00   -5.292E+00   -5.282E+00   -5.272E+00   -5.262E+00   -5.252E+00   -5.242E+00   -5.232E+00   -5.222E+00
    -5.212E+00   -5.202E+00   -5.192E+00   -5.182E+00   -5.172E+00   -5.162E+00   -5.152E+00   -5.142E+00   -5.132E+00   -5.122E+00
    -5.112E+00   -5.102E+00   -5.092E+00   -5.082E+00   -5.072E+00   -5.062E+00   -5.052E+00   -5.042E+00   -5.032E+00   -5.022E+00
    -5.012E+00   -5.002E+00   -4.992E+00   -4.982E+00   -4.972E+00   -4.962E+00   -4.952E+00   -4.942E+00   -4.932E+00   -4.922E+00
    -4.912E+00   -4.902E+00   -4.892E+00   -4.882E+00   -4.872E+00   -4.862E+00   -4.852E+00   -4.842E+00   -4.832E+00   -4.822E+00
    -4.812E+00   -4.802E+00   -4.792E+00   -4.782E+00   -4.772E+00   -4.762E+00   -4.752E+00   -4.742E+00   -4.732E+00   -4.722E+00
    -4.712E+00   -4.702E+00   -4.692E+00   -4.682E+00   -4.672E+00   -4.662E+00   -4.652E+00   -4.642E+00   -4.632E+00   -4.622E+00
    -4.612E+00   -4.602E+00   -4.592E+00   -4.582E+00   -4.572E+00   -4.562E+00   -4.552E+00   -4.542E+00   -4.532E+00   -4.522E+00
    -4.512E+00   -4.502E+00   -4.492E+00   -4.482E+00   -4.472E+00   -4.462E+00   -4.452E+00   -4.442E+00   -4.432E+00   -4.422E+00
    -4.412E+00   -4.402E+00   -4.392E+00   -4.382E+00   -4.372E+00   -4.362E+00   -4.352E+00   -4.342E+00   -4.332E+00   -4.322E+00
    -4.312E+00   -4.302E+00   -4.292E+00   -4.282E+00   -4.272E+00   -4.262E+00   -4.252E+00   -4.242E+00   -4.232E+00   -4.222E+00
    -4.212E+00   -4.202E+00   -4.192E+00   -4.182E+00   -4.172E+00   -4.162E+00   -4.152E+00   -4.141E+00   -4.131E+00   -4.121E+00
    -4.111E+00   -4.101E+00   -4.091E+00   -4.081E+00   -4.071E+00   -4.061E+00   -4.051E+00   -4.041E+00   -4.031E+00   -4.021E+00
    -4.011E+00   -4.001E+00   -3.991E+00   -3.981E+00   -3.971E+00   -3.961E+00   -3.951E+00   -3.941E+00   -3.931E+00   -3.921E+00
    -3.911E+00   -3.901E+00   -3.891E+00   -3.881E+00   -3.871E+00   -3.861E+00   -3.851E+00   -3.841E+00   -3.831E+00   -3.821E+00
    -3.811E+00   -3.801E+00   -3.791E+00   -3.781E+00   -3.771E+00   -3.761E+00   -3.751E+00   -3.741E+00   -3.731E+00   -3.721E+00
    -3.711E+00   -3.701E+00   -3.691E+00   -3.681E+00   -3.671E+00   -3.661E+00   -3.651E+00   -3.641E+00   -3.631E+00   -3.622E+00
    -3.612E+00   -3.602E+00   -3.592E+00   -3.582E+00   -3.572E+00   -3.562E+00   -3.552E+00   -3.542E+00   -3.532E+00   -3.522E+00
    -3.512E+00   -3.502E+00   -3.492E+00   -3.482E+00   -3.472E+00   -3.462E+00   -3.452E+00   -3.442E+00   -3.432E+00   -3.422E+00
    -3.412E+00   -3.402E+00   -3.392E+00   -3.382E+00   -3.372E+00   -3.362E+00   -3.352E+00   -3.342E+00   -3.332E+00   -3.322E+00
    -3.312E+00   -3.302E+00   -3.292E+00   -3.282E+00   -3.272E+00   -3.262E+00   -3.252E+00   -3.242E+00   -3.232E+00   -3.222E+00
    -3.212E+00   -3.202E+00   -3.192E+00   -3.182E+00   -3.172E+00   -3.162E+00   -3.152E+00   -3.142E+00   -3.132E+00   -3.122E+00
    -3.112E+00   -3.102E+00   -3.092E+00   -3.082E+00   -3.072E+00   -3.062E+00   -3.052E+00   -3.042E+00   -3.032E+00   -3.022E+00
    -3.012E+00   -3.002E+00   -2.992E+00   -2.982E+00   -2.972E+00   -2.962E+00   -2.952E+00   -2.942E+00   -2.932E+00   -2.922E+00
    -2.912E+00   -2.902E+00   -2.892E+00   -2.882E+00   -2.872E+00   -2.862E+00   -2.852E+00   -2.842E+00   -2.832E+00   -2.822E+00
    -2.812E+00   -2.802E+00   -2.792E+00   -2.782E+00   -2.772E+00   -2.762E+00   -2.752E+00   -2.743E+00   -2.733E+00   -2.723E+00
    -2.713E+00   -2.703E+00   -2.693E+00   -2.683E+00   -2.673E+00   -2.663E+00   -2.653E+00   -2.643E+00   -2.633E+00   -2.623E+00
    -2.613E+00   -2.603E+00   -2.593E+00   -2.583E+00   -2.573E+00   -2.563E+00   -2.553E+00   -2.543E+00   -2.533E+00   -2.523E+00
    -2.513E+00   -2.503E+00   -2.493E+00   -2.483E+00   -2.473E+00   -2.463E+00   -2.453E+00   -2.443E+00   -2.433E+00   -2.423E+00
    -2.413E+00   -2.403E+00   -2.393E+00   -2.383E+00   -2.373E+00   -2.363E+00   -2.353E+00   -2.343E+00   -2.333E+00   -2.323E+00
    -2.313E+00   -2.303E+00   -2.293E+00   -2.283E+00   -2.274E+00   -2.264E+00   -2.254E+00   -2.244E+00   -2.234E+00   -2.224E+00
    -2.214E+00   -2.204E+00   -2.194E+00   -2.184E+00   -2.174E+00   -2.164E+00   -2.154E+00   -2.144E+00   -2.134E+00   -2.124E+00
    -2.114E+00   -2.104E+00   -2.094E+00   -2.084E+00   -2.074E+00   -2.064E+00   -2.054E+00   -2.044E+00   -2.034E+00   -2.024E+00
    -2.014E+00   -2.004E+00   -1.994E+00   -1.984E+00   -1.974E+00   -1.964E+00   -1.954E+00   -1.944E+00   -1.934E+00   -1.924E+00
    -1.914E+00   -1.904E+00   -1.895E+00   -1.885E+00   -1.875E+00   -1.865E+00   -1.855E+00   -1.845E+00   -1.835E+00   -1.825E+00
    -1.815E+00   -1.805E+00   -1.795E+00   -1.785E+00   -1.775E+00   -1.765E+00   -1.755E+00   -1.745E+00   -1.735E+00   -1.725E+00
    -1.715E+00   -1.705E+00   -1.695E+00   -1.685E+00   -1.675E+00   -1.665E+00   -1.655E+00   -1.645E+00   -1.635E+00   -1.625E+00
    -1.615E+00   -1.605E+00   -1.595E+00   -1.585E+00   -1.575E+00   -1.566E+00   -1.556E+00   -1.546E+00   -1.536E+00   -1.526E+00
    -1.516E+00   -1.506E+00   -1.496E+00   -1.486E+00   -1.476E+00   -1.466E+00   -1.456E+00   -1.446E+00   -1.436E+00   -1.426E+00
    -1.416E+00   -1.406E+00   -1.396E+00   -1.386E+00   -1.376E+00   -1.366E+00   -1.356E+00   -1.346E+00   -1.336E+00   -1.326E+00
    -1.316E+00   -1.306E+00   -1.296E+00   -1.286E+00   -1.276E+00   -1.267E+00   -1.257E+00   -1.247E+00   -1.237E+00   -1.227E+00
    -1.217E+00   -1.207E+00   -1.197E+00   -1.187E+00   -1.177E+00   -1.167E+00   -1.157E+00   -1.147E+00   -1.137E+00   -1.127E+00
    -1.117E+00   -1.107E+00   -1.097E+00   -1.087E+00   -1.077E+00   -1.067E+00   -1.057E+00   -1.047E+00   -1.037E+00   -1.027E+00
    -1.017E+00   -1.007E+00   -9.975E-01   -9.875E-01   -9.776E-01   -9.676E-01   -9.576E-01   -9.477E-01   -9.377E-01   -9.277E-01
    -9.178E-01   -9.078E-01   -8.978E-01   -8.879E-01   -8.779E-01   -8.680E-01   -8.580E-01   -8.480E-01   -8.381E-01   -8.281E-01
    -8.181E-01   -8.082E-01   -7.982E-01   -7.882E-01   -7.783E-01   -7.683E-01   -7.584E-01   -7.484E-01   -7.384E-01   -7.285E-01
    -7.185E-01   -7.085E-01   -6.986E-01   -6.886E-01   -6.787E-01   -6.687E-01   -6.587E-01   -6.488E-01   -6.388E-01   -6.288E-01
    -6.189E-01   -6.089E-01   -5.990E-01   -5.890E-01   -5.790E-01   -5.691E-01   -5.591E-01   -5.491E-01   -5.392E-01   -5.292E-01
    -5.193E-01   -5.093E-01   -4.993E-01   -4.894E-01   -4.794E-01   -4.694E-01   -4.595E-01   -4.495E-01   -4.396E-01   -4.296E-01
    -4.196E-01   -4.097E-01   -3.997E-01   -3.897E-01   -3.798E-01   -3.698E-01   -3.599E-01   -3.499E-01
 Ala      Conc. = 3.08E+03
