 LCModel (Version 6.3-1L) Copyright: S.W. Provencher.          Ref.: Magn. Reson. Med. 30:672-679 (1993).                
 Slice#3 Row#14 Col#1  K_02_press_1_raw_act
 36 lines in following concentration table = NCONC+1
    Conc.  %SD /Cr+PCr  Metabolite                                         
    0.000 999%   0.000 Ala                                                 
    7.440 113% 9.3E-02 Asp                                                 
    0.000 999%   0.000 Cr                                                  
   80.339  23%   1.000 PCr                                                 
    4.851 104% 6.0E-02 GABA                                                
    4.098 123% 5.1E-02 Glc                                                 
  211.663  59%   2.635 Gln                                                 
   92.616 140%   1.153 Glu                                                 
   11.585  58%   0.144 GPC                                                 
    0.000 999%   0.000 PCh                                                 
    0.000 999%   0.000 GSH                                                 
    0.000 999%   0.000 Ins                                                 
    0.000 999%   0.000 Lac                                                 
   46.676  45%   0.581 NAA                                                 
    0.000 999%   0.000 NAAG                                                
    0.488 342% 6.1E-03 Scyllo                                              
    4.706 178% 5.9E-02 Tau                                                 
    0.000 999%   0.000 -CrCH2                                              
   11.585  58%   0.144 GPC+PCh                                             
   46.676  45%   0.581 NAA+NAAG                                            
   80.339  23%   1.000 Cr+PCr                                              
  304.279  71%   3.787 Glu+Gln                                             
    0.000 999%   0.000 Lip13a                                              
    0.000 999%   0.000 Lip13b                                              
    0.000 999%   0.000 Lip09                                               
  117.370  43%   1.461 MM09                                                
    1.234 603% 1.5E-02 Lip20                                               
  205.972  40%   2.564 MM20                                                
   33.268  65%   0.414 MM12                                                
   69.600  93%   0.866 MM14                                                
   56.188  78%   0.699 MM17                                                
    0.000 999%   0.000 Lip13a+Lip13b                                       
  102.868  75%   1.280 MM14+Lip13a+Lip13b+MM12                             
  117.370  43%   1.461 MM09+Lip09                                          
  207.206  40%   2.579 MM20+Lip20                                          
   6 lines in following misc. output table
  FWHM = 0.076 ppm    S/N =   1                                            
  Data shift = 0.023 ppm                                                   
  Ph: 116 deg      14.2 deg/ppm                                            
  alphaB,S = 3.9E-01,   4.7E+01                                            
   14 spline knots.   Ns = 8(1)                                            
  ( 9) 6 infls.   ( 9) 1 extrs.                                            
  498 points on ppm-axis = NY
      4.000000     3.992357     3.984714     3.977070     3.969427     3.961784     3.954141     3.946497     3.938854     3.931211
      3.923568     3.915925     3.908281     3.900638     3.892995     3.885352     3.877708     3.870065     3.862422     3.854779
      3.847136     3.839492     3.831849     3.824206     3.816563     3.808919     3.801276     3.793633     3.785990     3.778347
      3.770703     3.763060     3.755417     3.747774     3.740130     3.732487     3.724844     3.717201     3.709558     3.701914
      3.694271     3.686628     3.678985     3.671341     3.663698     3.656055     3.648412     3.640769     3.633125     3.625482
      3.617839     3.610196     3.602552     3.594909     3.587266     3.579623     3.571980     3.564336     3.556693     3.549050
      3.541407     3.533763     3.526120     3.518477     3.510834     3.503191     3.495547     3.487904     3.480261     3.472618
      3.464974     3.457331     3.449688     3.442045     3.434402     3.426758     3.419115     3.411472     3.403829     3.396185
      3.388542     3.380899     3.373256     3.365613     3.357969     3.350326     3.342683     3.335040     3.327396     3.319753
      3.312110     3.304467     3.296824     3.289180     3.281537     3.273894     3.266251     3.258607     3.250964     3.243321
      3.235678     3.228034     3.220391     3.212748     3.205105     3.197462     3.189818     3.182175     3.174532     3.166889
      3.159245     3.151602     3.143959     3.136316     3.128673     3.121029     3.113386     3.105743     3.098100     3.090456
      3.082813     3.075170     3.067527     3.059884     3.052240     3.044597     3.036954     3.029311     3.021667     3.014024
      3.006381     2.998738     2.991095     2.983451     2.975808     2.968165     2.960522     2.952878     2.945235     2.937592
      2.929949     2.922306     2.914662     2.907019     2.899376     2.891733     2.884089     2.876446     2.868803     2.861160
      2.853517     2.845873     2.838230     2.830587     2.822944     2.815300     2.807657     2.800014     2.792371     2.784728
      2.777084     2.769441     2.761798     2.754155     2.746511     2.738868     2.731225     2.723582     2.715939     2.708295
      2.700652     2.693009     2.685366     2.677722     2.670079     2.662436     2.654793     2.647150     2.639506     2.631863
      2.624220     2.616577     2.608933     2.601290     2.593647     2.586004     2.578361     2.570717     2.563074     2.555431
      2.547788     2.540144     2.532501     2.524858     2.517215     2.509572     2.501928     2.494285     2.486642     2.478999
      2.471355     2.463712     2.456069     2.448426     2.440783     2.433139     2.425496     2.417853     2.410210     2.402566
      2.394923     2.387280     2.379637     2.371994     2.364350     2.356707     2.349064     2.341421     2.333777     2.326134
      2.318491     2.310848     2.303205     2.295561     2.287918     2.280275     2.272632     2.264988     2.257345     2.249702
      2.242059     2.234416     2.226772     2.219129     2.211486     2.203843     2.196199     2.188556     2.180913     2.173270
      2.165627     2.157983     2.150340     2.142697     2.135054     2.127410     2.119767     2.112124     2.104481     2.096838
      2.089194     2.081551     2.073908     2.066265     2.058621     2.050978     2.043335     2.035692     2.028049     2.020405
      2.012762     2.005119     1.997476     1.989833     1.982190     1.974546     1.966903     1.959260     1.951617     1.943974
      1.936331     1.928688     1.921045     1.913402     1.905759     1.898115     1.890472     1.882829     1.875186     1.867543
      1.859900     1.852257     1.844614     1.836971     1.829327     1.821684     1.814041     1.806398     1.798755     1.791112
      1.783469     1.775826     1.768183     1.760540     1.752896     1.745253     1.737610     1.729967     1.722324     1.714681
      1.707038     1.699395     1.691752     1.684108     1.676465     1.668822     1.661179     1.653536     1.645893     1.638250
      1.630607     1.622964     1.615321     1.607677     1.600034     1.592391     1.584748     1.577105     1.569462     1.561819
      1.554176     1.546533     1.538890     1.531246     1.523603     1.515960     1.508317     1.500674     1.493031     1.485388
      1.477745     1.470102     1.462458     1.454815     1.447172     1.439529     1.431886     1.424243     1.416600     1.408957
      1.401314     1.393671     1.386027     1.378384     1.370741     1.363098     1.355455     1.347812     1.340169     1.332526
      1.324883     1.317240     1.309596     1.301953     1.294310     1.286667     1.279024     1.271381     1.263738     1.256095
      1.248452     1.240808     1.233165     1.225522     1.217879     1.210236     1.202593     1.194950     1.187307     1.179664
      1.172021     1.164377     1.156734     1.149091     1.141448     1.133805     1.126162     1.118519     1.110876     1.103233
      1.095590     1.087946     1.080303     1.072660     1.065017     1.057374     1.049731     1.042088     1.034445     1.026802
      1.019158     1.011515     1.003872     0.996229     0.988586     0.980943     0.973300     0.965657     0.958014     0.950371
      0.942727     0.935084     0.927441     0.919798     0.912155     0.904512     0.896869     0.889226     0.881583     0.873940
      0.866296     0.858653     0.851010     0.843367     0.835724     0.828081     0.820438     0.812795     0.805152     0.797508
      0.789865     0.782222     0.774579     0.766936     0.759293     0.751650     0.744007     0.736364     0.728721     0.721077
      0.713434     0.705791     0.698148     0.690505     0.682862     0.675219     0.667576     0.659933     0.652290     0.644646
      0.637003     0.629360     0.621717     0.614074     0.606431     0.598788     0.591145     0.583502     0.575858     0.568215
      0.560572     0.552929     0.545286     0.537643     0.530000     0.522357     0.514714     0.507071     0.499427     0.491784
      0.484141     0.476498     0.468855     0.461212     0.453569     0.445925     0.438282     0.430639     0.422996     0.415353
      0.407710     0.400067     0.392424     0.384780     0.377137     0.369494     0.361851     0.354208     0.346565     0.338922
      0.331278     0.323635     0.315992     0.308349     0.300706     0.293063     0.285420     0.277777     0.270133     0.262490
      0.254847     0.247204     0.239561     0.231918     0.224275     0.216631     0.208988     0.201345
 NY phased data points follow
   1.58409E+01  1.53361E+01  1.33898E+01  1.29432E+01  1.39338E+01  1.49463E+01  1.13977E+01  1.19866E+01  1.37104E+01  1.35723E+01
   1.38806E+01  1.19917E+01  1.35216E+01  1.28982E+01  1.18509E+01  1.09783E+01  1.16222E+01  9.60277E+00  1.24422E+01  1.09949E+01
   1.28496E+01  9.77979E+00  8.26787E+00  9.80535E+00  9.01172E+00  6.56480E+00  6.79292E+00  1.01400E+01  9.34823E+00  7.84051E+00
   9.30321E+00  7.90618E+00  7.11285E+00  7.99431E+00  8.03502E+00  7.76930E+00  7.23597E+00  7.19581E+00  5.76058E+00  7.32948E+00
   8.35372E+00  7.55794E+00  7.61426E+00  8.63452E+00  5.68464E+00  5.45183E+00  6.56528E+00  6.35711E+00  8.98670E+00  5.36149E+00
   8.46921E+00  5.37660E+00  5.46738E+00  5.15633E+00  5.34499E+00  6.07886E+00  5.99662E+00  3.32830E+00  4.29624E+00  6.62238E+00
   5.46589E+00  3.69817E+00  5.95077E+00  6.35486E+00  2.85619E+00  6.72882E+00  4.04965E+00  5.48469E+00  3.95617E+00  2.99013E+00
   4.36962E+00  4.39229E+00  4.65283E+00  3.34098E+00  6.11932E+00  2.58099E+00  4.71152E+00  4.58204E+00  3.72618E+00  3.45618E+00
   6.14005E+00  4.66643E+00  2.87010E+00  3.24487E+00  3.92317E+00  2.28976E+00  3.18813E+00  2.42101E+00  2.00383E-01  1.55299E+00
   3.03470E+00  4.10631E+00  2.32356E+00  2.62892E+00  2.19003E+00  3.39294E+00  3.74302E+00  1.15780E+00  2.68900E+00  3.56453E+00
   3.23604E+00  2.97234E+00  5.51943E+00  5.45207E+00  3.79473E+00  5.26048E+00  4.22065E+00  2.66489E+00  3.86412E+00  2.84556E+00
   5.58781E+00  3.44222E+00  3.71364E+00  2.92824E+00  6.10295E+00  2.00043E+00  1.81560E+00  4.70083E+00  4.02601E+00  3.80258E+00
   3.08305E+00  3.05261E+00  1.48978E+00  3.34383E+00  4.68026E+00  2.74047E+00  3.85708E+00  4.18544E+00  3.09374E+00  4.05050E+00
   4.26019E+00  4.89480E+00  4.36222E+00  4.06114E+00  6.08982E+00  3.10277E+00  5.21837E+00  1.23498E+00  3.54038E+00  2.57973E+00
   4.73304E+00  3.61943E+00  4.10017E+00  2.25637E+00  4.10076E+00  3.69605E+00  2.86633E+00  5.29337E+00  2.36720E+00  3.20503E+00
   2.09236E+00  3.80999E+00  2.08031E+00  3.92438E+00  4.27320E+00  4.56046E+00  9.42865E-01  3.90198E+00  1.61507E+00  2.26407E+00
   6.27666E-01  3.79726E+00  4.92369E+00  3.91631E+00  3.44582E+00  3.71102E+00  3.95349E+00  4.56291E+00  4.19324E+00  1.65690E+00
   3.32901E+00  2.81345E+00  3.85075E+00  2.13118E+00  2.77255E+00  2.05765E+00  2.84392E+00  3.83987E+00  2.18394E+00  3.45352E+00
   2.41287E+00  4.49102E+00  3.52994E+00  2.48777E+00  2.82761E+00  6.94564E-01  2.05895E+00  3.48097E+00  3.63930E+00  3.03132E+00
   1.94143E+00  3.10801E+00  4.05784E+00  2.17486E+00  3.80939E+00  2.26057E+00  3.00170E+00  6.93182E-01  4.36898E+00  2.80955E+00
   2.04636E+00  2.60916E+00  4.03679E+00  2.35224E+00  3.26169E+00  5.12921E+00  3.42940E+00  2.15363E+00  1.15256E+00  4.81318E+00
   3.93957E+00  2.22426E+00  4.14140E+00  3.17638E+00  2.81601E+00  4.78516E+00  3.58865E+00  3.89714E+00  5.25320E+00  5.27847E+00
   3.60020E+00  2.19618E+00  2.45368E+00  4.28885E+00  3.97187E+00  3.17450E+00  1.92163E+00  5.60574E+00  5.07398E+00  4.62345E+00
   3.74806E+00  2.87597E+00  4.77189E+00  2.71019E+00  2.37836E+00  3.40686E+00  3.37284E+00  4.98104E+00  5.42435E+00  3.86144E+00
   5.48746E+00  3.73439E+00  5.51450E+00  4.86776E+00  4.87686E+00  4.82344E+00  2.72658E+00  1.26942E+00  2.28775E+00  3.79412E+00
   2.45999E+00  3.27461E+00  4.16970E+00  2.29312E+00  2.46162E+00  2.84253E+00  3.25071E+00  4.40514E+00  5.90809E+00  4.03327E+00
   4.54316E+00  4.05963E+00  6.19571E+00  3.01398E+00  4.94557E+00  4.18985E+00  6.04653E+00  2.49073E+00  2.77232E+00  3.16498E+00
   3.11045E+00  3.66316E+00  3.24923E+00  3.75447E+00  1.58647E+00  3.49402E+00  3.47339E+00  3.93817E+00  2.28603E+00  2.66579E+00
   2.59401E+00  3.13823E+00  2.69722E+00  3.21973E+00  2.22276E+00  1.62671E+00  1.53654E+00  4.13774E+00  1.72130E+00  2.92952E+00
   2.22959E+00  2.26420E-01  1.10207E+00  3.64568E+00  2.10997E+00  3.94396E+00  7.72780E-01  4.55654E+00  3.85011E+00  2.09254E+00
   4.55202E+00  3.75491E+00  2.30846E+00  3.58714E+00  1.07633E+00  3.27088E+00  2.63808E+00  1.36944E+00  9.84829E-01  2.24298E+00
   1.50208E+00  3.64253E+00  1.98339E+00  1.34272E+00  2.77261E+00  2.36875E+00  1.67743E+00  1.50698E+00  1.17174E+00  1.66531E+00
   2.18786E+00  2.33038E+00 -8.46213E-02  1.99258E+00  2.89072E+00  1.99925E+00  1.57803E+00 -1.67939E+00  2.03437E+00  9.77805E-01
   3.60346E+00  1.91876E-01  1.04452E+00  2.97882E+00  6.61089E-01  1.20990E+00  2.78042E+00  2.00113E+00  2.84691E+00  2.69786E+00
   1.44960E+00  1.84641E+00  3.01026E+00 -3.47547E-01  1.84793E+00  2.39005E+00 -4.76458E-01 -9.28411E-02  1.69947E+00  1.05656E+00
   1.36481E+00  2.28683E+00  1.23099E+00  2.17881E+00  1.02618E+00 -7.19856E-01  1.52628E+00  9.75441E-01  1.29084E-01  1.04587E+00
   1.66855E+00  1.01924E+00  3.42304E-01  1.15308E+00  8.98631E-01  1.00342E+00  2.57390E+00  6.09243E-01 -9.56268E-01  1.70232E+00
   4.10443E-01  1.87780E+00  2.21209E-01  8.60014E-01  4.20598E-01  1.35483E+00 -8.04218E-01  1.31050E-01  2.06839E+00 -3.97947E-01
   1.42776E-01 -1.58716E+00 -8.42510E-02  1.84949E+00 -4.38534E-01  3.01618E+00  3.10840E-01  1.14802E+00  1.56161E+00 -1.49191E+00
  -5.78247E-01  6.71158E-01  1.40446E+00  2.27502E+00  1.51617E+00  7.68603E-01  1.99520E-01  1.88285E+00 -1.54576E-01  5.69088E-01
  -5.94073E-01  5.07625E-02  5.53684E-01  6.15477E-01  1.65777E+00  2.57614E+00  3.07563E-01 -7.02800E-01  1.17205E+00  7.96199E-01
  -6.55661E-02  7.08957E-01  1.55513E+00  1.66661E+00  1.12816E+00  1.37703E+00  2.37954E+00  1.58156E+00  1.55295E+00  2.18657E-01
   1.35771E+00 -3.11704E-01  7.04740E-01  4.22188E-01 -9.60532E-01  1.27562E-01  6.64141E-01  1.95515E+00  5.08203E-01  1.12150E+00
  -3.41719E-01  1.49523E+00 -1.82001E-02  9.04769E-01  3.92491E-01 -1.88240E-01 -1.66909E+00 -1.11224E+00 -5.14228E-02  2.82683E-01
  -1.15258E+00 -7.49597E-01  3.58152E-01  2.07852E+00  2.45537E-01  4.55581E-01 -1.90538E+00 -3.47464E+00 -2.24254E+00  3.05311E-01
  -1.60545E+00 -1.76951E+00 -1.41045E+00  3.50874E-01  1.34132E-01  1.96855E+00  2.18497E+00  4.34962E-01  1.44996E+00  2.61878E-01
  -4.42959E-02  1.53430E+00  5.57010E-01  3.95347E-01  5.24809E-01 -2.62508E-01 -1.17649E+00  6.62142E-02 -4.23928E-01  1.34268E-01
   1.00144E+00 -5.56346E-01  1.24308E+00  9.10562E-01  1.24263E+00 -6.98623E-02 -7.13641E-01 -8.64467E-01  1.64916E+00 -1.86616E-01
   1.88903E-01  5.58793E-02  1.34256E+00 -1.51959E+00 -3.10318E-01  1.09113E+00 -9.44111E-02 -1.78212E-01  1.50702E+00 -1.21118E+00
   1.81510E+00  2.24436E-01  1.59978E+00  2.28170E+00  8.42382E-01  1.76643E+00 -1.78870E-01 -2.83915E-01
 NY points of the fit to the data follow
   1.15648E+01  1.14730E+01  1.14018E+01  1.13893E+01  1.14651E+01  1.16151E+01  1.17858E+01  1.19214E+01  1.19927E+01  1.19974E+01
   1.19475E+01  1.18538E+01  1.17114E+01  1.15033E+01  1.12298E+01  1.09187E+01  1.05956E+01  1.02761E+01  1.00005E+01  9.82922E+00
   9.73206E+00  9.63524E+00  9.50830E+00  9.34323E+00  9.14935E+00  8.95677E+00  8.80767E+00  8.72927E+00  8.71149E+00  8.71601E+00
   8.70541E+00  8.65758E+00  8.56755E+00  8.45258E+00  8.34388E+00  8.25309E+00  8.15072E+00  8.01616E+00  7.85438E+00  7.67812E+00
   7.50185E+00  7.36007E+00  7.29021E+00  7.26463E+00  7.24326E+00  7.20935E+00  7.15182E+00  7.06031E+00  6.93951E+00  6.81672E+00
   6.70417E+00  6.59795E+00  6.49682E+00  6.40082E+00  6.30696E+00  6.21344E+00  6.12192E+00  6.03217E+00  5.94252E+00  5.85373E+00
   5.76812E+00  5.68589E+00  5.60645E+00  5.52908E+00  5.45324E+00  5.37886E+00  5.30578E+00  5.23379E+00  5.16301E+00  5.09413E+00
   5.02798E+00  4.96464E+00  4.90318E+00  4.84226E+00  4.78096E+00  4.71919E+00  4.65764E+00  4.59695E+00  4.53719E+00  4.47846E+00
   4.42056E+00  4.36409E+00  4.30978E+00  4.25715E+00  4.20559E+00  4.15588E+00  4.10838E+00  4.06184E+00  4.01524E+00  3.96769E+00
   3.91851E+00  3.86841E+00  3.81961E+00  3.77406E+00  3.73211E+00  3.69433E+00  3.67408E+00  3.69741E+00  3.78141E+00  3.91394E+00
   4.05837E+00  4.17970E+00  4.26091E+00  4.30101E+00  4.30745E+00  4.28591E+00  4.23139E+00  4.13308E+00  3.99477E+00  3.83547E+00
   3.66794E+00  3.50024E+00  3.35948E+00  3.28299E+00  3.24869E+00  3.22558E+00  3.20698E+00  3.19150E+00  3.17842E+00  3.16867E+00
   3.19216E+00  3.31099E+00  3.56808E+00  3.93726E+00  4.33483E+00  4.67921E+00  4.93002E+00  5.08556E+00  5.16303E+00  5.17424E+00
   5.10678E+00  4.93488E+00  4.66408E+00  4.33618E+00  3.98349E+00  3.62595E+00  3.32546E+00  3.16937E+00  3.11041E+00  3.07678E+00
   3.05295E+00  3.03521E+00  3.02125E+00  3.00905E+00  2.99714E+00  2.98521E+00  2.97393E+00  2.96332E+00  2.95326E+00  2.94400E+00
   2.93549E+00  2.92759E+00  2.92003E+00  2.91293E+00  2.90612E+00  2.89866E+00  2.88992E+00  2.87987E+00  2.86997E+00  2.86257E+00
   2.85875E+00  2.85781E+00  2.85813E+00  2.85867E+00  2.85944E+00  2.86111E+00  2.86396E+00  2.86748E+00  2.87089E+00  2.87319E+00
   2.87251E+00  2.86742E+00  2.85972E+00  2.85297E+00  2.84970E+00  2.85028E+00  2.85188E+00  2.85313E+00  2.85530E+00  2.86015E+00
   2.86822E+00  2.87817E+00  2.88830E+00  2.89860E+00  2.91078E+00  2.92598E+00  2.94274E+00  2.95791E+00  2.96825E+00  2.96796E+00
   2.95148E+00  2.91571E+00  2.86342E+00  2.80214E+00  2.74311E+00  2.70325E+00  2.70140E+00  2.74972E+00  2.84980E+00  2.99278E+00
   3.16308E+00  3.34030E+00  3.49633E+00  3.58754E+00  3.56716E+00  3.42322E+00  3.18608E+00  2.92369E+00  2.69438E+00  2.52352E+00
   2.42504E+00  2.41541E+00  2.49518E+00  2.64743E+00  2.85669E+00  3.10138E+00  3.32940E+00  3.50206E+00  3.60975E+00  3.63167E+00
   3.55176E+00  3.43725E+00  3.34564E+00  3.28034E+00  3.24274E+00  3.24399E+00  3.29332E+00  3.37065E+00  3.45344E+00  3.52095E+00
   3.54989E+00  3.52322E+00  3.44468E+00  3.35250E+00  3.29926E+00  3.31486E+00  3.39039E+00  3.49185E+00  3.57963E+00  3.63652E+00
   3.66574E+00  3.66776E+00  3.64061E+00  3.59161E+00  3.52561E+00  3.43099E+00  3.30697E+00  3.20287E+00  3.15135E+00  3.15569E+00
   3.21729E+00  3.33075E+00  3.45328E+00  3.54748E+00  3.64644E+00  3.78624E+00  3.97139E+00  4.17480E+00  4.35422E+00  4.47543E+00
   4.53421E+00  4.54938E+00  4.53769E+00  4.50102E+00  4.42184E+00  4.28416E+00  4.09693E+00  3.87902E+00  3.63888E+00  3.39863E+00
   3.22203E+00  3.12902E+00  3.06728E+00  3.01764E+00  2.97650E+00  2.93944E+00  2.90367E+00  2.86965E+00  2.83616E+00  2.80218E+00
   2.76736E+00  2.73167E+00  2.69532E+00  2.66024E+00  2.62844E+00  2.60036E+00  2.57605E+00  2.55540E+00  2.53791E+00  2.52294E+00
   2.50975E+00  2.49770E+00  2.48680E+00  2.47694E+00  2.46783E+00  2.45932E+00  2.45129E+00  2.44340E+00  2.43513E+00  2.42616E+00
   2.41620E+00  2.40477E+00  2.39147E+00  2.37607E+00  2.35826E+00  2.33792E+00  2.31507E+00  2.28978E+00  2.26227E+00  2.23282E+00
   2.20177E+00  2.16952E+00  2.13651E+00  2.10322E+00  2.07010E+00  2.03756E+00  2.00601E+00  1.97578E+00  1.94713E+00  1.92025E+00
   1.89526E+00  1.87222E+00  1.85112E+00  1.83187E+00  1.81434E+00  1.79833E+00  1.78362E+00  1.76994E+00  1.75699E+00  1.74447E+00
   1.73206E+00  1.71945E+00  1.70635E+00  1.69247E+00  1.67759E+00  1.66148E+00  1.64400E+00  1.62503E+00  1.60453E+00  1.58248E+00
   1.55893E+00  1.53399E+00  1.50779E+00  1.48053E+00  1.45239E+00  1.42363E+00  1.39447E+00  1.36515E+00  1.33592E+00  1.30699E+00
   1.27855E+00  1.25076E+00  1.22375E+00  1.19760E+00  1.17237E+00  1.14807E+00  1.12467E+00  1.10211E+00  1.08030E+00  1.05915E+00
   1.03852E+00  1.01829E+00  9.98332E-01  9.78527E-01  9.58763E-01  9.38954E-01  9.19035E-01  8.98970E-01  8.78753E-01  8.58406E-01
   8.37983E-01  8.17567E-01  7.97266E-01  7.77214E-01  7.57566E-01  7.38495E-01  7.20191E-01  7.02863E-01  6.86729E-01  6.72025E-01
   6.58996E-01  6.47898E-01  6.39002E-01  6.32583E-01  6.28924E-01  6.28301E-01  6.30983E-01  6.37215E-01  6.47205E-01  6.61110E-01
   6.79012E-01  7.00900E-01  7.26648E-01  7.56002E-01  7.88563E-01  8.23778E-01  8.60942E-01  8.99206E-01  9.37592E-01  9.75032E-01
   1.01039E+00  1.04254E+00  1.07036E+00  1.09284E+00  1.10911E+00  1.11848E+00  1.12048E+00  1.11489E+00  1.10171E+00  1.08124E+00
   1.05395E+00  1.02056E+00  9.81899E-01  9.38942E-01  8.92706E-01  8.44227E-01  7.94507E-01  7.44480E-01  6.94978E-01  6.46714E-01
   6.00270E-01  5.56094E-01  5.14505E-01  4.75703E-01  4.39783E-01  4.06750E-01  3.76542E-01  3.49042E-01  3.24097E-01  3.01529E-01
   2.81150E-01  2.62769E-01  2.46199E-01  2.31265E-01  2.17803E-01  2.05664E-01  1.94713E-01  1.84830E-01  1.75910E-01  1.67863E-01
   1.60607E-01  1.54072E-01  1.48197E-01  1.42930E-01  1.38225E-01  1.34042E-01  1.30346E-01  1.27106E-01  1.24294E-01  1.21888E-01
   1.19867E-01  1.18211E-01  1.16904E-01  1.15929E-01  1.15271E-01  1.14912E-01  1.14839E-01  1.15039E-01  1.15498E-01  1.16203E-01
   1.17144E-01  1.18311E-01  1.19693E-01  1.21281E-01  1.23065E-01  1.25035E-01  1.27184E-01  1.29504E-01  1.31986E-01  1.34622E-01
   1.37404E-01  1.40325E-01  1.43377E-01  1.46555E-01  1.49850E-01  1.53256E-01  1.56766E-01  1.60374E-01  1.64073E-01  1.67857E-01
   1.71720E-01  1.75655E-01  1.79656E-01  1.83716E-01  1.87831E-01  1.91993E-01  1.96197E-01  2.00437E-01  2.04706E-01  2.08999E-01
   2.13310E-01  2.17633E-01  2.21961E-01  2.26288E-01  2.30608E-01  2.34916E-01  2.39205E-01  2.43468E-01
 NY background values follow
     1.151E+01    1.140E+01    1.130E+01    1.119E+01    1.108E+01    1.098E+01    1.087E+01    1.076E+01    1.066E+01    1.055E+01
     1.045E+01    1.034E+01    1.024E+01    1.013E+01    1.002E+01    9.919E+00    9.814E+00    9.709E+00    9.604E+00    9.500E+00
     9.396E+00    9.293E+00    9.189E+00    9.086E+00    8.984E+00    8.882E+00    8.780E+00    8.679E+00    8.578E+00    8.477E+00
     8.378E+00    8.278E+00    8.179E+00    8.081E+00    7.984E+00    7.887E+00    7.790E+00    7.694E+00    7.599E+00    7.505E+00
     7.411E+00    7.318E+00    7.226E+00    7.135E+00    7.044E+00    6.954E+00    6.865E+00    6.777E+00    6.690E+00    6.604E+00
     6.518E+00    6.433E+00    6.350E+00    6.267E+00    6.185E+00    6.104E+00    6.023E+00    5.944E+00    5.866E+00    5.788E+00
     5.712E+00    5.636E+00    5.562E+00    5.488E+00    5.416E+00    5.344E+00    5.274E+00    5.204E+00    5.135E+00    5.068E+00
     5.001E+00    4.936E+00    4.871E+00    4.808E+00    4.745E+00    4.684E+00    4.623E+00    4.564E+00    4.506E+00    4.449E+00
     4.393E+00    4.338E+00    4.284E+00    4.232E+00    4.180E+00    4.130E+00    4.081E+00    4.033E+00    3.986E+00    3.940E+00
     3.895E+00    3.852E+00    3.810E+00    3.769E+00    3.729E+00    3.690E+00    3.652E+00    3.616E+00    3.580E+00    3.546E+00
     3.512E+00    3.480E+00    3.449E+00    3.418E+00    3.389E+00    3.361E+00    3.333E+00    3.307E+00    3.281E+00    3.257E+00
     3.233E+00    3.210E+00    3.188E+00    3.167E+00    3.147E+00    3.128E+00    3.109E+00    3.091E+00    3.074E+00    3.058E+00
     3.043E+00    3.028E+00    3.014E+00    3.000E+00    2.988E+00    2.976E+00    2.965E+00    2.954E+00    2.944E+00    2.935E+00
     2.926E+00    2.918E+00    2.910E+00    2.903E+00    2.897E+00    2.891E+00    2.885E+00    2.880E+00    2.876E+00    2.872E+00
     2.868E+00    2.865E+00    2.863E+00    2.860E+00    2.859E+00    2.857E+00    2.856E+00    2.856E+00    2.855E+00    2.856E+00
     2.856E+00    2.857E+00    2.858E+00    2.859E+00    2.861E+00    2.863E+00    2.865E+00    2.868E+00    2.871E+00    2.874E+00
     2.877E+00    2.880E+00    2.884E+00    2.888E+00    2.892E+00    2.896E+00    2.900E+00    2.905E+00    2.909E+00    2.914E+00
     2.919E+00    2.924E+00    2.928E+00    2.933E+00    2.939E+00    2.944E+00    2.949E+00    2.954E+00    2.959E+00    2.964E+00
     2.969E+00    2.974E+00    2.980E+00    2.985E+00    2.990E+00    2.994E+00    2.999E+00    3.004E+00    3.009E+00    3.013E+00
     3.018E+00    3.022E+00    3.026E+00    3.030E+00    3.034E+00    3.038E+00    3.042E+00    3.046E+00    3.049E+00    3.052E+00
     3.055E+00    3.058E+00    3.061E+00    3.063E+00    3.066E+00    3.068E+00    3.070E+00    3.072E+00    3.073E+00    3.074E+00
     3.075E+00    3.076E+00    3.076E+00    3.077E+00    3.077E+00    3.076E+00    3.076E+00    3.075E+00    3.074E+00    3.072E+00
     3.070E+00    3.068E+00    3.066E+00    3.063E+00    3.060E+00    3.056E+00    3.052E+00    3.048E+00    3.044E+00    3.039E+00
     3.034E+00    3.028E+00    3.022E+00    3.016E+00    3.009E+00    3.002E+00    2.995E+00    2.987E+00    2.979E+00    2.971E+00
     2.962E+00    2.954E+00    2.944E+00    2.935E+00    2.925E+00    2.915E+00    2.904E+00    2.894E+00    2.883E+00    2.871E+00
     2.860E+00    2.848E+00    2.836E+00    2.824E+00    2.811E+00    2.798E+00    2.785E+00    2.771E+00    2.758E+00    2.744E+00
     2.729E+00    2.715E+00    2.700E+00    2.685E+00    2.670E+00    2.655E+00    2.639E+00    2.623E+00    2.607E+00    2.591E+00
     2.574E+00    2.557E+00    2.540E+00    2.523E+00    2.506E+00    2.488E+00    2.470E+00    2.452E+00    2.434E+00    2.416E+00
     2.397E+00    2.379E+00    2.360E+00    2.341E+00    2.322E+00    2.302E+00    2.283E+00    2.263E+00    2.244E+00    2.224E+00
     2.204E+00    2.184E+00    2.163E+00    2.143E+00    2.123E+00    2.102E+00    2.081E+00    2.061E+00    2.040E+00    2.019E+00
     1.998E+00    1.977E+00    1.955E+00    1.934E+00    1.913E+00    1.891E+00    1.870E+00    1.848E+00    1.827E+00    1.805E+00
     1.784E+00    1.762E+00    1.740E+00    1.719E+00    1.697E+00    1.675E+00    1.653E+00    1.632E+00    1.610E+00    1.588E+00
     1.566E+00    1.544E+00    1.523E+00    1.501E+00    1.479E+00    1.458E+00    1.436E+00    1.414E+00    1.393E+00    1.371E+00
     1.350E+00    1.328E+00    1.307E+00    1.286E+00    1.264E+00    1.243E+00    1.222E+00    1.201E+00    1.180E+00    1.159E+00
     1.138E+00    1.118E+00    1.097E+00    1.077E+00    1.056E+00    1.036E+00    1.016E+00    9.957E-01    9.758E-01    9.560E-01
     9.363E-01    9.168E-01    8.974E-01    8.782E-01    8.591E-01    8.401E-01    8.213E-01    8.027E-01    7.842E-01    7.659E-01
     7.478E-01    7.299E-01    7.121E-01    6.945E-01    6.771E-01    6.599E-01    6.429E-01    6.261E-01    6.094E-01    5.930E-01
     5.767E-01    5.606E-01    5.448E-01    5.291E-01    5.136E-01    4.984E-01    4.833E-01    4.684E-01    4.538E-01    4.393E-01
     4.251E-01    4.110E-01    3.972E-01    3.836E-01    3.702E-01    3.570E-01    3.440E-01    3.313E-01    3.187E-01    3.064E-01
     2.943E-01    2.824E-01    2.708E-01    2.593E-01    2.481E-01    2.372E-01    2.264E-01    2.159E-01    2.056E-01    1.956E-01
     1.858E-01    1.762E-01    1.669E-01    1.578E-01    1.489E-01    1.403E-01    1.319E-01    1.238E-01    1.159E-01    1.082E-01
     1.008E-01    9.367E-02    8.675E-02    8.007E-02    7.362E-02    6.741E-02    6.143E-02    5.568E-02    5.017E-02    4.489E-02
     3.983E-02    3.500E-02    3.040E-02    2.602E-02    2.187E-02    1.794E-02    1.422E-02    1.073E-02    7.458E-03    4.400E-03
     1.557E-03   -1.072E-03   -3.488E-03   -5.693E-03   -7.688E-03   -9.475E-03   -1.105E-02   -1.243E-02   -1.360E-02   -1.456E-02
    -1.533E-02   -1.589E-02   -1.625E-02   -1.642E-02   -1.639E-02   -1.616E-02   -1.575E-02   -1.513E-02   -1.433E-02   -1.334E-02
    -1.216E-02   -1.079E-02   -9.232E-03   -7.494E-03   -5.577E-03   -3.485E-03   -1.224E-03    1.202E-03    3.787E-03    6.528E-03
     9.419E-03    1.246E-02    1.563E-02    1.894E-02    2.239E-02    2.596E-02    2.965E-02    3.346E-02    3.738E-02    4.140E-02
     4.553E-02    4.976E-02    5.408E-02    5.848E-02    6.297E-02    6.754E-02    7.218E-02    7.690E-02    8.167E-02    8.650E-02
     9.139E-02    9.633E-02    1.013E-01    1.063E-01    1.114E-01    1.165E-01    1.216E-01    1.267E-01    1.319E-01    1.370E-01
     1.422E-01    1.474E-01    1.526E-01    1.577E-01    1.629E-01    1.680E-01    1.731E-01    1.782E-01
 Asp      Conc. = 7.44E+00
