 LCModel (Version 6.3-1L) Copyright: S.W. Provencher.          Ref.: Magn. Reson. Med. 30:672-679 (1993).                
 Slice#3 Row#12 Col#8  K_02_press_1_raw_act
 36 lines in following concentration table = NCONC+1
    Conc.  %SD /Cr+PCr  Metabolite                                         
    0.000 999%   0.000 Ala                                                 
    0.000 999%   0.000 Asp                                                 
    0.000 999%   0.000 Cr                                                  
 1.64E+03   3%   1.000 PCr                                                 
   17.025 804% 1.0E-02 GABA                                                
    0.000 999%   0.000 Glc                                                 
 1.01E+03  27%   0.618 Gln                                                 
 1.04E+03  30%   0.632 Glu                                                 
  313.065   5%   0.191 GPC                                                 
    0.000 999%   0.000 PCh                                                 
  429.403  15%   0.262 GSH                                                 
  178.651 117%   0.109 Ins                                                 
    0.000 999%   0.000 Lac                                                 
 1.71E+03   8%   1.045 NAA                                                 
  412.558  35%   0.252 NAAG                                                
    0.000 999%   0.000 Scyllo                                              
    0.000 999%   0.000 Tau                                                 
    0.000 999%   0.000 -CrCH2                                              
  313.065   5%   0.191 GPC+PCh                                             
 2.12E+03   3%   1.297 NAA+NAAG                                            
 1.64E+03   3%   1.000 Cr+PCr                                              
 2.05E+03  24%   1.250 Glu+Gln                                             
    1.070 999% 6.5E-04 Lip13a                                              
   32.610 423% 2.0E-02 Lip13b                                              
    0.000 999%   0.000 Lip09                                               
  841.796  18%   0.514 MM09                                                
   15.574 301% 9.5E-03 Lip20                                               
 2.00E+03  14%   1.219 MM20                                                
  249.221  36%   0.152 MM12                                                
 1.07E+03  21%   0.656 MM14                                                
  700.036  25%   0.427 MM17                                                
   33.680 513% 2.1E-02 Lip13a+Lip13b                                       
 1.36E+03  22%   0.829 MM14+Lip13a+Lip13b+MM12                             
  841.796  18%   0.514 MM09+Lip09                                          
 2.01E+03  14%   1.228 MM20+Lip20                                          
   6 lines in following misc. output table
  FWHM = 0.069 ppm    S/N =  11                                            
  Data shift = 0.038 ppm                                                   
  Ph: -19 deg      -7.9 deg/ppm                                            
  alphaB,S = 6.7E-01,   1.0E+02                                            
   14 spline knots.   Ns = 9(1)                                            
  (14) 3 infls.   (11) 1 extrs.                                            
  498 points on ppm-axis = NY
      4.000000     3.992357     3.984714     3.977070     3.969427     3.961784     3.954141     3.946497     3.938854     3.931211
      3.923568     3.915925     3.908281     3.900638     3.892995     3.885352     3.877708     3.870065     3.862422     3.854779
      3.847136     3.839492     3.831849     3.824206     3.816563     3.808919     3.801276     3.793633     3.785990     3.778347
      3.770703     3.763060     3.755417     3.747774     3.740130     3.732487     3.724844     3.717201     3.709558     3.701914
      3.694271     3.686628     3.678985     3.671341     3.663698     3.656055     3.648412     3.640769     3.633125     3.625482
      3.617839     3.610196     3.602552     3.594909     3.587266     3.579623     3.571980     3.564336     3.556693     3.549050
      3.541407     3.533763     3.526120     3.518477     3.510834     3.503191     3.495547     3.487904     3.480261     3.472618
      3.464974     3.457331     3.449688     3.442045     3.434402     3.426758     3.419115     3.411472     3.403829     3.396185
      3.388542     3.380899     3.373256     3.365613     3.357969     3.350326     3.342683     3.335040     3.327396     3.319753
      3.312110     3.304467     3.296824     3.289180     3.281537     3.273894     3.266251     3.258607     3.250964     3.243321
      3.235678     3.228034     3.220391     3.212748     3.205105     3.197462     3.189818     3.182175     3.174532     3.166889
      3.159245     3.151602     3.143959     3.136316     3.128673     3.121029     3.113386     3.105743     3.098100     3.090456
      3.082813     3.075170     3.067527     3.059884     3.052240     3.044597     3.036954     3.029311     3.021667     3.014024
      3.006381     2.998738     2.991095     2.983451     2.975808     2.968165     2.960522     2.952878     2.945235     2.937592
      2.929949     2.922306     2.914662     2.907019     2.899376     2.891733     2.884089     2.876446     2.868803     2.861160
      2.853517     2.845873     2.838230     2.830587     2.822944     2.815300     2.807657     2.800014     2.792371     2.784728
      2.777084     2.769441     2.761798     2.754155     2.746511     2.738868     2.731225     2.723582     2.715939     2.708295
      2.700652     2.693009     2.685366     2.677722     2.670079     2.662436     2.654793     2.647150     2.639506     2.631863
      2.624220     2.616577     2.608933     2.601290     2.593647     2.586004     2.578361     2.570717     2.563074     2.555431
      2.547788     2.540144     2.532501     2.524858     2.517215     2.509572     2.501928     2.494285     2.486642     2.478999
      2.471355     2.463712     2.456069     2.448426     2.440783     2.433139     2.425496     2.417853     2.410210     2.402566
      2.394923     2.387280     2.379637     2.371994     2.364350     2.356707     2.349064     2.341421     2.333777     2.326134
      2.318491     2.310848     2.303205     2.295561     2.287918     2.280275     2.272632     2.264988     2.257345     2.249702
      2.242059     2.234416     2.226772     2.219129     2.211486     2.203843     2.196199     2.188556     2.180913     2.173270
      2.165627     2.157983     2.150340     2.142697     2.135054     2.127410     2.119767     2.112124     2.104481     2.096838
      2.089194     2.081551     2.073908     2.066265     2.058621     2.050978     2.043335     2.035692     2.028049     2.020405
      2.012762     2.005119     1.997476     1.989833     1.982190     1.974546     1.966903     1.959260     1.951617     1.943974
      1.936331     1.928688     1.921045     1.913402     1.905759     1.898115     1.890472     1.882829     1.875186     1.867543
      1.859900     1.852257     1.844614     1.836971     1.829327     1.821684     1.814041     1.806398     1.798755     1.791112
      1.783469     1.775826     1.768183     1.760540     1.752896     1.745253     1.737610     1.729967     1.722324     1.714681
      1.707038     1.699395     1.691752     1.684108     1.676465     1.668822     1.661179     1.653536     1.645893     1.638250
      1.630607     1.622964     1.615321     1.607677     1.600034     1.592391     1.584748     1.577105     1.569462     1.561819
      1.554176     1.546533     1.538890     1.531246     1.523603     1.515960     1.508317     1.500674     1.493031     1.485388
      1.477745     1.470102     1.462458     1.454815     1.447172     1.439529     1.431886     1.424243     1.416600     1.408957
      1.401314     1.393671     1.386027     1.378384     1.370741     1.363098     1.355455     1.347812     1.340169     1.332526
      1.324883     1.317240     1.309596     1.301953     1.294310     1.286667     1.279024     1.271381     1.263738     1.256095
      1.248452     1.240808     1.233165     1.225522     1.217879     1.210236     1.202593     1.194950     1.187307     1.179664
      1.172021     1.164377     1.156734     1.149091     1.141448     1.133805     1.126162     1.118519     1.110876     1.103233
      1.095590     1.087946     1.080303     1.072660     1.065017     1.057374     1.049731     1.042088     1.034445     1.026802
      1.019158     1.011515     1.003872     0.996229     0.988586     0.980943     0.973300     0.965657     0.958014     0.950371
      0.942727     0.935084     0.927441     0.919798     0.912155     0.904512     0.896869     0.889226     0.881583     0.873940
      0.866296     0.858653     0.851010     0.843367     0.835724     0.828081     0.820438     0.812795     0.805152     0.797508
      0.789865     0.782222     0.774579     0.766936     0.759293     0.751650     0.744007     0.736364     0.728721     0.721077
      0.713434     0.705791     0.698148     0.690505     0.682862     0.675219     0.667576     0.659933     0.652290     0.644646
      0.637003     0.629360     0.621717     0.614074     0.606431     0.598788     0.591145     0.583502     0.575858     0.568215
      0.560572     0.552929     0.545286     0.537643     0.530000     0.522357     0.514714     0.507071     0.499427     0.491784
      0.484141     0.476498     0.468855     0.461212     0.453569     0.445925     0.438282     0.430639     0.422996     0.415353
      0.407710     0.400067     0.392424     0.384780     0.377137     0.369494     0.361851     0.354208     0.346565     0.338922
      0.331278     0.323635     0.315992     0.308349     0.300706     0.293063     0.285420     0.277777     0.270133     0.262490
      0.254847     0.247204     0.239561     0.231918     0.224275     0.216631     0.208988     0.201345
 NY phased data points follow
   4.43390E+01  4.52669E+01  4.85269E+01  4.94721E+01  5.37580E+01  5.88589E+01  6.01831E+01  6.36512E+01  6.86288E+01  6.41993E+01
   6.65459E+01  6.61405E+01  6.16679E+01  5.68245E+01  5.74259E+01  4.86756E+01  4.46065E+01  4.42340E+01  3.86371E+01  3.73497E+01
   3.54717E+01  3.74214E+01  3.62981E+01  3.76042E+01  3.78840E+01  3.78497E+01  3.85188E+01  3.81822E+01  3.83156E+01  3.94072E+01
   3.82405E+01  4.18474E+01  4.20519E+01  3.73872E+01  3.75374E+01  3.45804E+01  3.35715E+01  3.24431E+01  3.24025E+01  3.24035E+01
   2.98371E+01  3.06339E+01  3.43133E+01  3.15379E+01  3.32222E+01  3.10936E+01  3.58079E+01  3.28643E+01  3.22128E+01  3.32544E+01
   2.99644E+01  3.01916E+01  2.71689E+01  2.50631E+01  2.99041E+01  2.84191E+01  2.66363E+01  2.83371E+01  2.69730E+01  2.56869E+01
   2.57494E+01  2.37624E+01  2.33422E+01  1.98672E+01  2.16203E+01  1.98730E+01  1.74724E+01  1.61689E+01  1.82807E+01  1.38645E+01
   1.38820E+01  1.78449E+01  1.93536E+01  1.56225E+01  1.87731E+01  2.01594E+01  1.82840E+01  1.82138E+01  1.88734E+01  1.87817E+01
   1.85248E+01  1.54710E+01  1.76627E+01  1.52885E+01  1.64416E+01  2.08723E+01  1.55994E+01  1.57206E+01  1.53094E+01  1.63528E+01
   1.68108E+01  1.84294E+01  1.92721E+01  1.84996E+01  2.35311E+01  1.98740E+01  2.20096E+01  2.43387E+01  2.40420E+01  2.77239E+01
   3.39072E+01  3.57288E+01  3.59591E+01  3.88343E+01  3.73781E+01  3.53000E+01  3.09902E+01  2.93643E+01  2.69371E+01  2.22654E+01
   2.11012E+01  1.76425E+01  1.89090E+01  1.74778E+01  1.57752E+01  1.66471E+01  1.87488E+01  1.73523E+01  2.38979E+01  2.39965E+01
   2.57036E+01  2.57466E+01  2.99413E+01  3.60966E+01  4.39549E+01  4.89792E+01  4.68717E+01  5.14124E+01  5.34907E+01  5.13425E+01
   4.52542E+01  3.89544E+01  3.55429E+01  2.69672E+01  2.34185E+01  2.08099E+01  1.80279E+01  1.63245E+01  1.97040E+01  1.41608E+01
   1.63593E+01  1.77301E+01  1.69451E+01  1.21897E+01  1.28017E+01  8.47257E+00  1.30727E+01  1.48314E+01  1.04190E+01  1.31412E+01
   1.05144E+01  1.24459E+01  1.30531E+01  1.44851E+01  9.61082E+00  1.40520E+01  1.07504E+01  8.28911E+00  9.69882E+00  1.00166E+01
   7.87574E+00  5.36171E+00  1.02581E+01  1.06227E+01  2.32647E+00  9.75547E+00  6.20607E+00  7.35261E+00  7.35692E+00  6.70911E+00
   3.57411E+00  8.63012E-01  7.02931E-01  2.55793E-01  1.17975E+00  4.43973E+00  2.67790E+00  3.99499E+00 -1.67191E+00 -1.51371E+00
   3.75804E-01  1.32385E+00  2.50509E+00  3.23966E+00  4.14911E+00  1.53273E+00  2.23231E+00  5.44186E+00  5.99882E+00  9.55710E+00
   1.05539E+01  1.03612E+01  1.09798E+01  7.61999E+00  9.22481E+00  9.06960E+00  1.49851E+01  1.20040E+01  1.09448E+01  9.70170E+00
   9.38992E+00  8.43927E+00  9.75688E+00  9.12994E+00  1.22986E+01  8.73020E+00  4.67795E+00  9.35840E+00  1.00984E+01  5.49626E+00
   7.23760E+00  9.33797E+00  6.30115E+00  1.16015E+01  1.04242E+01  1.36752E+01  1.30424E+01  1.51430E+01  1.25436E+01  1.34729E+01
   9.99585E+00  1.08941E+01  9.93145E+00  1.06354E+01  1.41180E+01  9.83357E+00  1.19239E+01  1.48931E+01  1.45441E+01  1.68270E+01
   1.41446E+01  1.48007E+01  1.26342E+01  1.32515E+01  1.03118E+01  1.10562E+01  1.26861E+01  1.21951E+01  1.05150E+01  1.33321E+01
   1.37541E+01  1.06467E+01  1.36968E+01  1.17687E+01  1.44793E+01  1.63966E+01  1.65272E+01  2.11404E+01  2.24143E+01  2.27228E+01
   2.52646E+01  2.57474E+01  3.12959E+01  3.71833E+01  3.94290E+01  4.17384E+01  4.56148E+01  5.55811E+01  6.14555E+01  6.16982E+01
   6.38898E+01  6.65539E+01  6.07787E+01  5.23556E+01  4.47411E+01  3.42838E+01  2.81959E+01  2.28130E+01  1.88757E+01  1.52779E+01
   1.54911E+01  1.41377E+01  1.40681E+01  1.33071E+01  1.29713E+01  1.45141E+01  1.35248E+01  1.46977E+01  1.52155E+01  1.34441E+01
   1.20003E+01  1.10339E+01  1.05697E+01  1.09103E+01  1.47255E+01  1.48500E+01  7.72327E+00  1.15824E+01  1.20670E+01  9.41171E+00
   1.18851E+01  8.07059E+00  1.13034E+01  1.09129E+01  1.09481E+01  1.26849E+01  1.32082E+01  1.00216E+01  1.38900E+01  1.09292E+01
   6.86032E+00  1.20788E+01  1.43631E+01  1.11908E+01  1.14175E+01  1.59607E+01  1.32482E+01  1.05838E+01  1.24351E+01  1.44143E+01
   1.38346E+01  1.33726E+01  1.69407E+01  1.39404E+01  1.45483E+01  1.43238E+01  1.21223E+01  9.27916E+00  1.27349E+01  1.04332E+01
   1.43885E+01  1.32597E+01  1.27688E+01  1.41016E+01  1.41291E+01  1.31013E+01  1.54044E+01  1.35634E+01  1.22170E+01  1.17029E+01
   1.70980E+01  1.38014E+01  1.18003E+01  1.15614E+01  1.31406E+01  1.12617E+01  1.32403E+01  1.37260E+01  1.21928E+01  1.28275E+01
   1.20811E+01  1.04287E+01  9.54697E+00  1.02056E+01  7.95105E+00  1.21556E+01  1.09432E+01  9.86961E+00  8.00964E+00  8.93628E+00
   9.59845E+00  1.18271E+01  9.33630E+00  8.13718E+00  8.44047E+00  8.44563E+00  8.71400E+00  1.06964E+01  8.49897E+00  5.58498E+00
   9.08235E+00  1.02756E+01  8.51684E+00  1.04177E+01  8.63659E+00  8.98296E+00  7.38907E+00  1.02790E+01  6.90417E+00  7.34173E+00
   1.08543E+01  6.53986E+00  1.08333E+01  5.96752E+00  6.89788E+00  8.09379E+00  5.91856E+00  6.53761E+00  6.56162E+00  7.80644E+00
   7.74171E+00  7.40865E+00  4.51498E+00  8.02954E+00  8.10057E+00  3.27391E+00  5.41043E+00  4.62403E+00  6.03817E+00  2.73068E+00
   4.32262E+00  7.09715E+00  1.05242E+01  1.41504E+01  8.55452E+00  9.03172E+00  1.06116E+01  1.06886E+01  1.10521E+01  1.01784E+01
   8.96174E+00  7.66482E+00  9.00852E+00  1.05645E+01  1.30203E+01  1.23502E+01  7.10871E+00  1.10823E+01  1.00922E+01  9.79558E+00
   1.26927E+01  1.02761E+01  7.85194E+00  6.64604E+00  7.39639E+00  8.30594E+00  1.09382E+01  7.66634E+00  5.49254E+00  9.91683E+00
   5.00912E+00  8.89532E+00  6.24829E+00  6.97929E+00  3.25522E+00  9.52943E+00  6.16438E+00  4.36283E+00  5.64519E+00  3.36223E+00
   5.15968E+00  8.10256E+00  4.83445E+00  1.23734E+01  7.35663E+00  4.31614E+00  6.66436E+00  8.03320E+00  7.62191E+00  7.83358E+00
   7.10291E+00  5.04525E+00  5.53270E+00  1.89315E+00  2.47998E+00  3.26045E+00  7.34108E+00  3.67791E+00  5.41027E+00  5.00542E+00
   3.76854E+00  3.14576E+00  4.78971E+00  5.71728E+00  6.04484E+00  6.17068E+00  2.16433E+00  3.13753E+00  5.63557E+00  5.61805E+00
   2.89919E+00  6.43632E+00  2.10588E+00  3.49727E+00  6.94828E+00  5.84401E+00  3.99161E+00  2.72886E+00  5.14720E+00  5.04624E+00
   4.32426E+00  4.66883E+00  7.13563E+00  6.97364E+00  3.44461E+00  7.73791E+00  3.95772E+00  3.96453E+00  5.23771E+00  4.80201E+00
   3.02225E+00  3.51194E+00  4.35385E+00  3.80565E+00  4.93931E+00  3.75269E+00  3.96375E+00  4.08914E+00  3.93893E+00  4.61437E+00
   5.59235E+00  5.15720E+00  2.96487E+00  4.81821E+00  1.42720E+00  4.09758E+00  2.89327E+00  3.43737E+00
 NY points of the fit to the data follow
   4.32354E+01  4.58529E+01  4.73734E+01  4.84385E+01  5.03940E+01  5.38250E+01  5.79396E+01  6.13599E+01  6.36265E+01  6.50467E+01
   6.53526E+01  6.37947E+01  6.04339E+01  5.62209E+01  5.19269E+01  4.79418E+01  4.46753E+01  4.21664E+01  4.00791E+01  3.82071E+01
   3.71855E+01  3.72474E+01  3.74785E+01  3.74671E+01  3.72356E+01  3.72171E+01  3.76476E+01  3.83659E+01  3.91210E+01  3.98902E+01
   4.06955E+01  4.11838E+01  4.08119E+01  3.95727E+01  3.78773E+01  3.60051E+01  3.41903E+01  3.27498E+01  3.18229E+01  3.12901E+01
   3.10038E+01  3.09539E+01  3.09808E+01  3.10125E+01  3.09439E+01  3.07515E+01  3.04937E+01  3.01963E+01  2.98022E+01  2.92887E+01
   2.87458E+01  2.82322E+01  2.77037E+01  2.71619E+01  2.66494E+01  2.61785E+01  2.57433E+01  2.53535E+01  2.50053E+01  2.46765E+01
   2.43505E+01  2.40258E+01  2.36968E+01  2.33743E+01  2.30543E+01  2.27383E+01  2.24418E+01  2.21788E+01  2.19506E+01  2.17419E+01
   2.15374E+01  2.13301E+01  2.11186E+01  2.09008E+01  2.06705E+01  2.04292E+01  2.01839E+01  1.99351E+01  1.96762E+01  1.94140E+01
   1.91576E+01  1.89122E+01  1.86708E+01  1.84261E+01  1.81765E+01  1.79314E+01  1.76978E+01  1.74839E+01  1.72937E+01  1.71315E+01
   1.70146E+01  1.69687E+01  1.70748E+01  1.78642E+01  2.01962E+01  2.23770E+01  2.34564E+01  2.43080E+01  2.61340E+01  2.92566E+01
   3.27227E+01  3.53550E+01  3.70212E+01  3.80630E+01  3.80613E+01  3.63411E+01  3.31557E+01  2.94188E+01  2.57455E+01  2.24869E+01
   1.99912E+01  1.82029E+01  1.67866E+01  1.56641E+01  1.51901E+01  1.51493E+01  1.54302E+01  1.68041E+01  2.07058E+01  2.46712E+01
   2.69091E+01  2.86992E+01  3.20503E+01  3.76224E+01  4.39848E+01  4.90637E+01  5.22922E+01  5.42259E+01  5.44087E+01  5.17859E+01
   4.66656E+01  4.04118E+01  3.40594E+01  2.82586E+01  2.35797E+01  2.00232E+01  1.71287E+01  1.48154E+01  1.36674E+01  1.33288E+01
   1.32876E+01  1.33591E+01  1.34089E+01  1.33449E+01  1.31608E+01  1.28760E+01  1.25093E+01  1.21337E+01  1.17850E+01  1.14574E+01
   1.11443E+01  1.07910E+01  1.03616E+01  9.99868E+00  9.77280E+00  9.65908E+00  9.59614E+00  9.40106E+00  9.07688E+00  8.77144E+00
   8.54613E+00  8.33971E+00  8.12812E+00  7.94345E+00  7.79475E+00  7.62991E+00  7.34668E+00  6.89879E+00  6.44924E+00  6.16626E+00
   5.96220E+00  5.69822E+00  5.29780E+00  4.92829E+00  4.73098E+00  4.67691E+00  4.60796E+00  4.46206E+00  4.32413E+00  4.39493E+00
   4.66684E+00  4.97304E+00  5.24370E+00  5.52530E+00  5.84445E+00  6.25102E+00  6.76937E+00  7.32768E+00  7.90663E+00  8.40158E+00
   8.84794E+00  9.24186E+00  9.49176E+00  9.47048E+00  9.19883E+00  8.99709E+00  9.04002E+00  9.28470E+00  9.60483E+00  1.00293E+01
   1.04017E+01  1.07077E+01  1.11406E+01  1.13710E+01  1.09921E+01  1.00630E+01  8.93592E+00  8.04331E+00  7.26491E+00  6.53438E+00
   6.18802E+00  6.64619E+00  7.79643E+00  9.00154E+00  9.99711E+00  1.09879E+01  1.17897E+01  1.19356E+01  1.13711E+01  1.04697E+01
   9.61623E+00  8.97394E+00  8.58218E+00  8.58032E+00  9.12934E+00  1.00687E+01  1.09624E+01  1.16955E+01  1.23712E+01  1.29203E+01
   1.31742E+01  1.31719E+01  1.31361E+01  1.30673E+01  1.30947E+01  1.33227E+01  1.37175E+01  1.41614E+01  1.44305E+01  1.43712E+01
   1.40755E+01  1.37643E+01  1.34585E+01  1.32028E+01  1.32462E+01  1.37060E+01  1.46525E+01  1.63545E+01  1.81623E+01  1.95626E+01
   2.14102E+01  2.62726E+01  3.28855E+01  3.75330E+01  4.04008E+01  4.38354E+01  4.94020E+01  5.59482E+01  6.07795E+01  6.29685E+01
   6.36067E+01  6.28071E+01  5.92838E+01  5.29217E+01  4.52444E+01  3.75351E+01  3.04336E+01  2.47959E+01  2.08055E+01  1.77694E+01
   1.51956E+01  1.36059E+01  1.29874E+01  1.26319E+01  1.23694E+01  1.21567E+01  1.19349E+01  1.16914E+01  1.14479E+01  1.12239E+01
   1.10312E+01  1.08687E+01  1.07362E+01  1.06432E+01  1.05826E+01  1.05406E+01  1.05114E+01  1.04976E+01  1.05026E+01  1.05303E+01
   1.05800E+01  1.06550E+01  1.07585E+01  1.08872E+01  1.10328E+01  1.11862E+01  1.13437E+01  1.15071E+01  1.16744E+01  1.18433E+01
   1.20135E+01  1.21833E+01  1.23473E+01  1.25019E+01  1.26419E+01  1.27620E+01  1.28584E+01  1.29298E+01  1.29773E+01  1.30021E+01
   1.30052E+01  1.29901E+01  1.29615E+01  1.29237E+01  1.28814E+01  1.28387E+01  1.27996E+01  1.27678E+01  1.27461E+01  1.27365E+01
   1.27398E+01  1.27557E+01  1.27829E+01  1.28195E+01  1.28626E+01  1.29085E+01  1.29531E+01  1.29919E+01  1.30206E+01  1.30352E+01
   1.30321E+01  1.30077E+01  1.29597E+01  1.28861E+01  1.27863E+01  1.26605E+01  1.25096E+01  1.23352E+01  1.21399E+01  1.19269E+01
   1.16999E+01  1.14634E+01  1.12216E+01  1.09790E+01  1.07403E+01  1.05099E+01  1.02918E+01  1.00896E+01  9.90543E+00  9.74056E+00
   9.59490E+00  9.46704E+00  9.35431E+00  9.25299E+00  9.15884E+00  9.06780E+00  8.97660E+00  8.88310E+00  8.78641E+00  8.68678E+00
   8.58538E+00  8.48399E+00  8.38454E+00  8.28865E+00  8.19730E+00  8.11078E+00  8.02892E+00  7.95127E+00  7.87730E+00  7.80651E+00
   7.73855E+00  7.67328E+00  7.61097E+00  7.55228E+00  7.49813E+00  7.44957E+00  7.40773E+00  7.37384E+00  7.34927E+00  7.33547E+00
   7.33389E+00  7.34585E+00  7.37262E+00  7.41544E+00  7.47553E+00  7.55404E+00  7.65185E+00  7.76954E+00  7.90738E+00  8.06530E+00
   8.24283E+00  8.43890E+00  8.65175E+00  8.87885E+00  9.11698E+00  9.36227E+00  9.61019E+00  9.85554E+00  1.00926E+01  1.03153E+01
   1.05176E+01  1.06936E+01  1.08380E+01  1.09458E+01  1.10132E+01  1.10372E+01  1.10164E+01  1.09504E+01  1.08406E+01  1.06891E+01
   1.04994E+01  1.02761E+01  1.00243E+01  9.74980E+00  9.45866E+00  9.15672E+00  8.84962E+00  8.54263E+00  8.24049E+00  7.94721E+00
   7.66599E+00  7.39924E+00  7.14867E+00  6.91538E+00  6.69990E+00  6.50221E+00  6.32181E+00  6.15788E+00  6.00944E+00  5.87544E+00
   5.75472E+00  5.64605E+00  5.54816E+00  5.45989E+00  5.38020E+00  5.30817E+00  5.24293E+00  5.18363E+00  5.12951E+00  5.07994E+00
   5.03443E+00  4.99254E+00  4.95384E+00  4.91790E+00  4.88438E+00  4.85302E+00  4.82362E+00  4.79601E+00  4.76997E+00  4.74526E+00
   4.72172E+00  4.69929E+00  4.67789E+00  4.65741E+00  4.63774E+00  4.61875E+00  4.60039E+00  4.58267E+00  4.56556E+00  4.54898E+00
   4.53284E+00  4.51709E+00  4.50172E+00  4.48677E+00  4.47220E+00  4.45796E+00  4.44396E+00  4.43019E+00  4.41669E+00  4.40348E+00
   4.39052E+00  4.37774E+00  4.36510E+00  4.35263E+00  4.34036E+00  4.32831E+00  4.31642E+00  4.30463E+00  4.29293E+00  4.28137E+00
   4.26998E+00  4.25874E+00  4.24760E+00  4.23653E+00  4.22553E+00  4.21466E+00  4.20395E+00  4.19336E+00  4.18282E+00  4.17234E+00
   4.16196E+00  4.15172E+00  4.14163E+00  4.13164E+00  4.12171E+00  4.11188E+00  4.10219E+00  4.09270E+00
 NY background values follow
     3.846E+01    3.820E+01    3.794E+01    3.767E+01    3.741E+01    3.714E+01    3.688E+01    3.661E+01    3.635E+01    3.608E+01
     3.582E+01    3.555E+01    3.529E+01    3.502E+01    3.476E+01    3.449E+01    3.423E+01    3.397E+01    3.370E+01    3.344E+01
     3.318E+01    3.291E+01    3.265E+01    3.239E+01    3.213E+01    3.187E+01    3.161E+01    3.135E+01    3.109E+01    3.083E+01
     3.057E+01    3.031E+01    3.006E+01    2.980E+01    2.954E+01    2.929E+01    2.904E+01    2.878E+01    2.853E+01    2.828E+01
     2.803E+01    2.778E+01    2.753E+01    2.728E+01    2.703E+01    2.678E+01    2.654E+01    2.629E+01    2.605E+01    2.581E+01
     2.557E+01    2.533E+01    2.509E+01    2.485E+01    2.461E+01    2.438E+01    2.414E+01    2.391E+01    2.368E+01    2.345E+01
     2.322E+01    2.299E+01    2.277E+01    2.254E+01    2.232E+01    2.210E+01    2.187E+01    2.166E+01    2.144E+01    2.122E+01
     2.101E+01    2.079E+01    2.058E+01    2.037E+01    2.016E+01    1.996E+01    1.975E+01    1.955E+01    1.935E+01    1.915E+01
     1.895E+01    1.876E+01    1.856E+01    1.837E+01    1.818E+01    1.799E+01    1.781E+01    1.762E+01    1.744E+01    1.726E+01
     1.708E+01    1.690E+01    1.673E+01    1.656E+01    1.639E+01    1.622E+01    1.605E+01    1.589E+01    1.573E+01    1.557E+01
     1.541E+01    1.525E+01    1.510E+01    1.494E+01    1.479E+01    1.465E+01    1.450E+01    1.435E+01    1.421E+01    1.407E+01
     1.393E+01    1.379E+01    1.366E+01    1.352E+01    1.339E+01    1.326E+01    1.313E+01    1.300E+01    1.288E+01    1.275E+01
     1.263E+01    1.251E+01    1.239E+01    1.228E+01    1.216E+01    1.205E+01    1.193E+01    1.182E+01    1.171E+01    1.161E+01
     1.150E+01    1.140E+01    1.129E+01    1.119E+01    1.109E+01    1.099E+01    1.090E+01    1.080E+01    1.071E+01    1.061E+01
     1.052E+01    1.043E+01    1.034E+01    1.026E+01    1.017E+01    1.009E+01    1.001E+01    9.925E+00    9.846E+00    9.768E+00
     9.691E+00    9.616E+00    9.543E+00    9.471E+00    9.400E+00    9.331E+00    9.264E+00    9.197E+00    9.133E+00    9.070E+00
     9.008E+00    8.948E+00    8.889E+00    8.832E+00    8.776E+00    8.722E+00    8.670E+00    8.618E+00    8.569E+00    8.521E+00
     8.474E+00    8.429E+00    8.385E+00    8.343E+00    8.303E+00    8.263E+00    8.226E+00    8.190E+00    8.155E+00    8.122E+00
     8.091E+00    8.061E+00    8.032E+00    8.005E+00    7.980E+00    7.956E+00    7.933E+00    7.912E+00    7.891E+00    7.873E+00
     7.855E+00    7.839E+00    7.824E+00    7.810E+00    7.797E+00    7.785E+00    7.774E+00    7.764E+00    7.755E+00    7.747E+00
     7.740E+00    7.734E+00    7.729E+00    7.724E+00    7.721E+00    7.718E+00    7.716E+00    7.714E+00    7.713E+00    7.713E+00
     7.713E+00    7.714E+00    7.715E+00    7.717E+00    7.719E+00    7.721E+00    7.724E+00    7.727E+00    7.731E+00    7.735E+00
     7.739E+00    7.743E+00    7.747E+00    7.752E+00    7.756E+00    7.761E+00    7.766E+00    7.770E+00    7.775E+00    7.780E+00
     7.784E+00    7.789E+00    7.793E+00    7.798E+00    7.802E+00    7.806E+00    7.811E+00    7.815E+00    7.819E+00    7.823E+00
     7.826E+00    7.830E+00    7.833E+00    7.837E+00    7.840E+00    7.843E+00    7.846E+00    7.848E+00    7.851E+00    7.853E+00
     7.855E+00    7.856E+00    7.858E+00    7.859E+00    7.860E+00    7.860E+00    7.861E+00    7.861E+00    7.861E+00    7.860E+00
     7.859E+00    7.858E+00    7.856E+00    7.855E+00    7.852E+00    7.850E+00    7.847E+00    7.843E+00    7.840E+00    7.835E+00
     7.831E+00    7.826E+00    7.820E+00    7.814E+00    7.808E+00    7.801E+00    7.794E+00    7.786E+00    7.778E+00    7.770E+00
     7.761E+00    7.751E+00    7.742E+00    7.731E+00    7.721E+00    7.710E+00    7.698E+00    7.686E+00    7.674E+00    7.661E+00
     7.648E+00    7.634E+00    7.620E+00    7.605E+00    7.590E+00    7.575E+00    7.559E+00    7.543E+00    7.526E+00    7.509E+00
     7.492E+00    7.474E+00    7.456E+00    7.437E+00    7.418E+00    7.398E+00    7.378E+00    7.358E+00    7.337E+00    7.316E+00
     7.294E+00    7.272E+00    7.249E+00    7.226E+00    7.203E+00    7.179E+00    7.155E+00    7.131E+00    7.106E+00    7.080E+00
     7.055E+00    7.029E+00    7.002E+00    6.976E+00    6.948E+00    6.921E+00    6.893E+00    6.865E+00    6.837E+00    6.809E+00
     6.780E+00    6.751E+00    6.722E+00    6.692E+00    6.663E+00    6.633E+00    6.603E+00    6.573E+00    6.543E+00    6.512E+00
     6.482E+00    6.451E+00    6.420E+00    6.390E+00    6.359E+00    6.328E+00    6.297E+00    6.266E+00    6.235E+00    6.204E+00
     6.173E+00    6.142E+00    6.111E+00    6.080E+00    6.050E+00    6.019E+00    5.988E+00    5.958E+00    5.927E+00    5.897E+00
     5.867E+00    5.837E+00    5.807E+00    5.778E+00    5.748E+00    5.719E+00    5.690E+00    5.661E+00    5.632E+00    5.604E+00
     5.576E+00    5.548E+00    5.520E+00    5.493E+00    5.465E+00    5.438E+00    5.411E+00    5.385E+00    5.359E+00    5.333E+00
     5.307E+00    5.282E+00    5.257E+00    5.232E+00    5.207E+00    5.183E+00    5.159E+00    5.136E+00    5.112E+00    5.090E+00
     5.067E+00    5.045E+00    5.023E+00    5.001E+00    4.980E+00    4.960E+00    4.939E+00    4.919E+00    4.900E+00    4.880E+00
     4.862E+00    4.843E+00    4.825E+00    4.808E+00    4.791E+00    4.774E+00    4.758E+00    4.742E+00    4.726E+00    4.712E+00
     4.697E+00    4.683E+00    4.669E+00    4.656E+00    4.643E+00    4.630E+00    4.618E+00    4.606E+00    4.595E+00    4.584E+00
     4.573E+00    4.562E+00    4.552E+00    4.542E+00    4.532E+00    4.523E+00    4.513E+00    4.505E+00    4.496E+00    4.487E+00
     4.479E+00    4.471E+00    4.463E+00    4.455E+00    4.447E+00    4.440E+00    4.433E+00    4.425E+00    4.418E+00    4.411E+00
     4.404E+00    4.398E+00    4.391E+00    4.384E+00    4.378E+00    4.371E+00    4.364E+00    4.358E+00    4.351E+00    4.345E+00
     4.338E+00    4.332E+00    4.325E+00    4.319E+00    4.312E+00    4.305E+00    4.298E+00    4.292E+00    4.285E+00    4.278E+00
     4.271E+00    4.264E+00    4.257E+00    4.250E+00    4.243E+00    4.236E+00    4.229E+00    4.222E+00    4.214E+00    4.207E+00
     4.200E+00    4.193E+00    4.185E+00    4.178E+00    4.170E+00    4.163E+00    4.155E+00    4.148E+00    4.140E+00    4.133E+00
     4.125E+00    4.118E+00    4.110E+00    4.102E+00    4.095E+00    4.087E+00    4.079E+00    4.071E+00    4.063E+00    4.056E+00
     4.048E+00    4.040E+00    4.032E+00    4.024E+00    4.016E+00    4.008E+00    4.000E+00    3.992E+00
 PCr      Conc. = 1.64E+03
