 LCModel (Version 6.3-1L) Copyright: S.W. Provencher.          Ref.: Magn. Reson. Med. 30:672-679 (1993).                
 Slice#3 Row#2 Col#5  K_02_press_1_raw_act
 36 lines in following concentration table = NCONC+1
    Conc.  %SD /Cr+PCr  Metabolite                                         
  272.329  87%   0.448 Ala                                                 
   97.791  82%   0.161 Asp                                                 
    0.000 999%   0.000 Cr                                                  
  608.095  10%   1.000 PCr                                                 
   39.209 125% 6.4E-02 GABA                                                
   56.541  86% 9.3E-02 Glc                                                 
 2.69E+03  20%   4.426 Gln                                                 
 3.39E+03  18%   5.574 Glu                                                 
  160.725  54%   0.264 GPC                                                 
   30.741 280% 5.1E-02 PCh                                                 
    0.000 999%   0.000 GSH                                                 
  886.818  31%   1.458 Ins                                                 
 1.16E+03  26%   1.913 Lac                                                 
  527.626  12%   0.868 NAA                                                 
    0.000 999%   0.000 NAAG                                                
   15.052  99% 2.5E-02 Scyllo                                              
   69.443 113%   0.114 Tau                                                 
    0.000 999%   0.000 -CrCH2                                              
  191.465  13%   0.315 GPC+PCh                                             
  527.626  12%   0.868 NAA+NAAG                                            
  608.095  10%   1.000 Cr+PCr                                              
 6.08E+03  17%  10.000 Glu+Gln                                             
 7.97E+03  12%  13.102 Lip13a                                              
    0.000 999%   0.000 Lip13b                                              
 1.12E+03  25%   1.846 Lip09                                               
    0.000 999%   0.000 MM09                                                
  475.349  62%   0.782 Lip20                                               
    0.000 999%   0.000 MM20                                                
   19.321 543% 3.2E-02 MM12                                                
  810.700  42%   1.333 MM14                                                
  706.813  30%   1.162 MM17                                                
 7.97E+03  12%  13.102 Lip13a+Lip13b                                       
 8.80E+03  10%  14.467 MM14+Lip13a+Lip13b+MM12                             
 1.12E+03  25%   1.846 MM09+Lip09                                          
  475.349  62%   0.782 MM20+Lip20                                          
   6 lines in following misc. output table
  FWHM = 0.092 ppm    S/N =   5                                            
  Data shift =-0.008 ppm                                                   
  Ph: -28 deg     -28.8 deg/ppm                                            
  alphaB,S = 6.5E-01,   7.9E+01                                            
   14 spline knots.   Ns = 6(2)                                            
  ( 7) 4 infls.   ( 4) 1 extrs.                                            
  498 points on ppm-axis = NY
      4.000000     3.992357     3.984714     3.977070     3.969427     3.961784     3.954141     3.946497     3.938854     3.931211
      3.923568     3.915925     3.908281     3.900638     3.892995     3.885352     3.877708     3.870065     3.862422     3.854779
      3.847136     3.839492     3.831849     3.824206     3.816563     3.808919     3.801276     3.793633     3.785990     3.778347
      3.770703     3.763060     3.755417     3.747774     3.740130     3.732487     3.724844     3.717201     3.709558     3.701914
      3.694271     3.686628     3.678985     3.671341     3.663698     3.656055     3.648412     3.640769     3.633125     3.625482
      3.617839     3.610196     3.602552     3.594909     3.587266     3.579623     3.571980     3.564336     3.556693     3.549050
      3.541407     3.533763     3.526120     3.518477     3.510834     3.503191     3.495547     3.487904     3.480261     3.472618
      3.464974     3.457331     3.449688     3.442045     3.434402     3.426758     3.419115     3.411472     3.403829     3.396185
      3.388542     3.380899     3.373256     3.365613     3.357969     3.350326     3.342683     3.335040     3.327396     3.319753
      3.312110     3.304467     3.296824     3.289180     3.281537     3.273894     3.266251     3.258607     3.250964     3.243321
      3.235678     3.228034     3.220391     3.212748     3.205105     3.197462     3.189818     3.182175     3.174532     3.166889
      3.159245     3.151602     3.143959     3.136316     3.128673     3.121029     3.113386     3.105743     3.098100     3.090456
      3.082813     3.075170     3.067527     3.059884     3.052240     3.044597     3.036954     3.029311     3.021667     3.014024
      3.006381     2.998738     2.991095     2.983451     2.975808     2.968165     2.960522     2.952878     2.945235     2.937592
      2.929949     2.922306     2.914662     2.907019     2.899376     2.891733     2.884089     2.876446     2.868803     2.861160
      2.853517     2.845873     2.838230     2.830587     2.822944     2.815300     2.807657     2.800014     2.792371     2.784728
      2.777084     2.769441     2.761798     2.754155     2.746511     2.738868     2.731225     2.723582     2.715939     2.708295
      2.700652     2.693009     2.685366     2.677722     2.670079     2.662436     2.654793     2.647150     2.639506     2.631863
      2.624220     2.616577     2.608933     2.601290     2.593647     2.586004     2.578361     2.570717     2.563074     2.555431
      2.547788     2.540144     2.532501     2.524858     2.517215     2.509572     2.501928     2.494285     2.486642     2.478999
      2.471355     2.463712     2.456069     2.448426     2.440783     2.433139     2.425496     2.417853     2.410210     2.402566
      2.394923     2.387280     2.379637     2.371994     2.364350     2.356707     2.349064     2.341421     2.333777     2.326134
      2.318491     2.310848     2.303205     2.295561     2.287918     2.280275     2.272632     2.264988     2.257345     2.249702
      2.242059     2.234416     2.226772     2.219129     2.211486     2.203843     2.196199     2.188556     2.180913     2.173270
      2.165627     2.157983     2.150340     2.142697     2.135054     2.127410     2.119767     2.112124     2.104481     2.096838
      2.089194     2.081551     2.073908     2.066265     2.058621     2.050978     2.043335     2.035692     2.028049     2.020405
      2.012762     2.005119     1.997476     1.989833     1.982190     1.974546     1.966903     1.959260     1.951617     1.943974
      1.936331     1.928688     1.921045     1.913402     1.905759     1.898115     1.890472     1.882829     1.875186     1.867543
      1.859900     1.852257     1.844614     1.836971     1.829327     1.821684     1.814041     1.806398     1.798755     1.791112
      1.783469     1.775826     1.768183     1.760540     1.752896     1.745253     1.737610     1.729967     1.722324     1.714681
      1.707038     1.699395     1.691752     1.684108     1.676465     1.668822     1.661179     1.653536     1.645893     1.638250
      1.630607     1.622964     1.615321     1.607677     1.600034     1.592391     1.584748     1.577105     1.569462     1.561819
      1.554176     1.546533     1.538890     1.531246     1.523603     1.515960     1.508317     1.500674     1.493031     1.485388
      1.477745     1.470102     1.462458     1.454815     1.447172     1.439529     1.431886     1.424243     1.416600     1.408957
      1.401314     1.393671     1.386027     1.378384     1.370741     1.363098     1.355455     1.347812     1.340169     1.332526
      1.324883     1.317240     1.309596     1.301953     1.294310     1.286667     1.279024     1.271381     1.263738     1.256095
      1.248452     1.240808     1.233165     1.225522     1.217879     1.210236     1.202593     1.194950     1.187307     1.179664
      1.172021     1.164377     1.156734     1.149091     1.141448     1.133805     1.126162     1.118519     1.110876     1.103233
      1.095590     1.087946     1.080303     1.072660     1.065017     1.057374     1.049731     1.042088     1.034445     1.026802
      1.019158     1.011515     1.003872     0.996229     0.988586     0.980943     0.973300     0.965657     0.958014     0.950371
      0.942727     0.935084     0.927441     0.919798     0.912155     0.904512     0.896869     0.889226     0.881583     0.873940
      0.866296     0.858653     0.851010     0.843367     0.835724     0.828081     0.820438     0.812795     0.805152     0.797508
      0.789865     0.782222     0.774579     0.766936     0.759293     0.751650     0.744007     0.736364     0.728721     0.721077
      0.713434     0.705791     0.698148     0.690505     0.682862     0.675219     0.667576     0.659933     0.652290     0.644646
      0.637003     0.629360     0.621717     0.614074     0.606431     0.598788     0.591145     0.583502     0.575858     0.568215
      0.560572     0.552929     0.545286     0.537643     0.530000     0.522357     0.514714     0.507071     0.499427     0.491784
      0.484141     0.476498     0.468855     0.461212     0.453569     0.445925     0.438282     0.430639     0.422996     0.415353
      0.407710     0.400067     0.392424     0.384780     0.377137     0.369494     0.361851     0.354208     0.346565     0.338922
      0.331278     0.323635     0.315992     0.308349     0.300706     0.293063     0.285420     0.277777     0.270133     0.262490
      0.254847     0.247204     0.239561     0.231918     0.224275     0.216631     0.208988     0.201345
 NY phased data points follow
   3.69244E+00  2.02564E+00  5.95884E+00  7.92444E+00  2.51077E+00  1.69327E+00  7.43717E+00  1.06285E+01  7.37974E+00  6.71892E+00
   7.32251E+00  1.16829E+01  1.14407E+01  1.26006E+01  4.94787E+00  4.91357E+00  5.68400E+00  2.75861E+00  4.93135E+00  8.99373E+00
   3.20769E+00  9.04606E-01  5.26876E-01  4.42600E+00  5.22075E+00  4.02596E+00  8.98525E+00  3.14499E+00  7.69528E-01  4.51530E+00
   3.08419E+00  5.09060E+00  5.15542E+00  4.89723E+00  3.20773E+00  5.28895E+00  6.07897E+00  2.31710E+00  3.91248E+00  2.23413E+00
   3.36500E+00  6.31726E+00  7.24209E+00  8.49200E+00  7.12010E+00  5.78012E+00  7.25592E+00  6.78446E+00  5.68485E+00  5.45726E+00
   3.73625E+00  5.68444E+00  5.68624E+00  8.03869E+00  5.12139E+00  5.25366E+00  5.81621E+00  5.27294E+00  4.21507E+00  4.76855E+00
   1.32360E+00  3.64253E+00  7.92262E+00  7.06747E+00  2.14050E+00  1.96428E+00  8.43383E-01  3.76959E+00  1.22951E+00  3.87674E+00
   5.83920E+00  3.49212E+00 -8.12615E-01  2.12770E+00  5.73207E+00  6.90298E+00  7.90361E+00  6.83403E+00 -3.00733E-01  4.99610E+00
   4.59441E+00  4.08923E+00  4.66975E+00  4.38211E+00  2.44762E+00  7.54375E+00  4.26838E+00  5.06552E+00  3.46146E+00  1.82530E+00
   1.68913E+00  9.40159E-01  2.67516E+00  7.53794E+00  1.78197E+00 -2.06786E-01  8.62684E+00  3.00190E+00  1.05210E+01  5.63982E+00
   7.13234E+00  7.99581E+00  1.11003E+01  1.60248E+01  1.57114E+01  1.38123E+01  1.73963E+01  1.49618E+01  1.15545E+01  8.26178E+00
   1.27938E+01  7.52705E+00  8.91534E+00  9.04487E+00  7.12121E+00  8.74676E+00  4.95698E+00  8.80572E+00  9.44765E+00  2.77095E+00
   8.73878E+00  5.66851E+00  7.57227E+00  9.63170E+00  6.25444E+00  1.18119E+01  1.15821E+01  1.49659E+01  1.54676E+01  2.28299E+01
   1.87029E+01  1.54732E+01  1.43631E+01  1.54661E+01  9.82897E+00  1.52210E+01  9.71071E+00  1.01597E+01  1.13296E+01  8.16793E+00
   1.04633E+01  1.05089E+01  1.51681E+01  1.05198E+01  8.98669E+00  6.12855E+00  9.39321E+00  8.75675E+00  8.27988E+00  9.27915E+00
   7.01492E+00  5.39076E+00  8.67086E+00  6.32993E+00  2.18445E+00  8.00158E+00  7.42696E+00  8.17304E+00  1.29607E+01  8.29423E+00
   7.74893E+00  7.53251E+00  5.63250E+00  2.45974E+00  6.01313E+00  8.04666E+00  5.05136E+00  8.22534E+00  1.10267E+01  7.66519E+00
   2.98790E+00  5.09454E+00  7.50856E+00  7.49780E+00  7.95526E+00  1.01089E+01  9.05080E+00  1.05165E+01  7.52369E+00  8.97707E+00
   4.43076E+00  3.35100E+00  6.58460E+00  9.90851E+00  6.80002E+00  7.49150E+00  6.75859E+00  6.80058E+00  9.70965E+00  6.27899E+00
   9.76990E+00  1.09486E+01  5.99258E+00  6.68336E+00  1.07139E+01  8.72814E+00  8.45874E+00  9.08135E+00  9.62769E+00  9.83039E+00
   1.19285E+01  1.16440E+01  1.03875E+01  1.16252E+01  1.09270E+01  1.24945E+01  1.46509E+01  1.38576E+01  1.32970E+01  1.17765E+01
   8.20308E+00  9.04774E+00  1.25260E+01  1.61160E+01  1.44465E+01  1.43322E+01  1.54900E+01  1.63076E+01  1.77085E+01  1.66572E+01
   1.70734E+01  1.48777E+01  1.26774E+01  1.66490E+01  1.50930E+01  1.34008E+01  9.10515E+00  1.53681E+01  1.42296E+01  1.30621E+01
   1.58363E+01  1.31375E+01  1.42114E+01  1.30829E+01  1.51426E+01  1.23581E+01  1.50708E+01  1.46312E+01  1.64153E+01  1.80124E+01
   1.63075E+01  1.62385E+01  1.43796E+01  1.35289E+01  1.96686E+01  1.17869E+01  1.47623E+01  1.24895E+01  1.39716E+01  1.79391E+01
   1.48339E+01  8.91392E+00  1.13427E+01  1.62615E+01  1.83965E+01  2.00819E+01  1.67219E+01  2.06994E+01  1.95808E+01  1.69452E+01
   2.00039E+01  2.56653E+01  2.72208E+01  3.46855E+01  3.68835E+01  2.88719E+01  3.21186E+01  3.14397E+01  2.16042E+01  2.20232E+01
   2.25290E+01  2.71547E+01  2.59984E+01  2.68856E+01  2.38564E+01  2.63540E+01  2.86049E+01  2.46850E+01  2.63555E+01  2.24632E+01
   2.13238E+01  2.28888E+01  2.15629E+01  1.99952E+01  2.03369E+01  2.48093E+01  2.13046E+01  2.49929E+01  2.02763E+01  2.43412E+01
   2.15862E+01  2.02466E+01  2.13820E+01  2.07161E+01  1.69975E+01  2.44443E+01  2.55691E+01  2.42136E+01  2.27577E+01  2.09518E+01
   2.57038E+01  1.77862E+01  2.32398E+01  2.38680E+01  2.66948E+01  2.64164E+01  2.27686E+01  2.57484E+01  2.73643E+01  2.91630E+01
   2.93886E+01  2.71397E+01  2.69935E+01  2.92135E+01  2.40788E+01  2.53206E+01  2.68801E+01  2.57494E+01  2.98278E+01  2.67211E+01
   2.99822E+01  2.46724E+01  2.94106E+01  2.73407E+01  2.96930E+01  3.32404E+01  2.73346E+01  3.08666E+01  3.05852E+01  3.05553E+01
   3.10090E+01  3.07933E+01  3.40591E+01  3.64740E+01  3.47653E+01  3.17093E+01  3.76705E+01  3.64164E+01  3.83418E+01  3.23480E+01
   3.61123E+01  3.56377E+01  4.08244E+01  4.26160E+01  3.92427E+01  3.85054E+01  4.28597E+01  4.17224E+01  4.36005E+01  4.46303E+01
   4.55954E+01  4.36129E+01  3.82053E+01  4.07804E+01  4.09476E+01  3.78584E+01  3.59484E+01  3.31079E+01  3.45670E+01  3.55598E+01
   3.55323E+01  3.80196E+01  3.30991E+01  3.77312E+01  3.81307E+01  3.89580E+01  3.96983E+01  3.71748E+01  3.54911E+01  3.88257E+01
   3.27074E+01  3.50928E+01  3.56809E+01  3.78314E+01  3.23587E+01  3.05519E+01  2.66105E+01  3.02136E+01  2.60513E+01  2.91287E+01
   2.89560E+01  2.82193E+01  2.52772E+01  2.82707E+01  2.74603E+01  2.80304E+01  2.50171E+01  2.50712E+01  1.96283E+01  2.25245E+01
   2.37078E+01  2.01460E+01  2.62653E+01  2.57236E+01  2.52803E+01  2.34942E+01  2.12984E+01  2.61465E+01  2.56363E+01  2.17495E+01
   2.35703E+01  2.60833E+01  2.13327E+01  2.12268E+01  1.93890E+01  1.97309E+01  1.95304E+01  2.14550E+01  2.15791E+01  2.03456E+01
   1.93280E+01  2.07203E+01  1.76888E+01  1.45510E+01  1.76787E+01  1.32477E+01  1.32896E+01  1.75688E+01  1.34357E+01  1.57729E+01
   1.74414E+01  1.37342E+01  1.28474E+01  1.38035E+01  1.70704E+01  1.26330E+01  1.20756E+01  1.29777E+01  1.45811E+01  9.68532E+00
   1.52133E+01  1.64071E+01  1.21248E+01  1.40158E+01  1.29789E+01  1.56554E+01  1.29835E+01  1.23811E+01  9.46555E+00  1.23411E+01
   1.01823E+01  6.63394E+00  6.70788E+00  8.57900E+00  1.09507E+01  1.14869E+01  8.99426E+00  8.08903E+00  6.94381E+00  1.12524E+01
   8.77808E+00  7.51676E+00  9.26279E+00  1.13228E+01  1.34148E+01  8.93596E+00  1.17068E+01  1.12618E+01  6.13089E+00  1.12279E+01
   6.96957E+00  9.89367E+00  9.17104E+00  7.70854E+00  1.27724E+01  8.78208E+00  1.17647E+01  8.25284E+00  3.66743E+00  8.48524E+00
   8.68465E+00  7.45508E+00  5.52381E+00  6.68535E+00  7.90678E+00  6.67392E+00  8.15971E+00  8.35652E+00  5.28353E+00  7.11219E+00
   6.27231E+00  7.06738E+00  8.33758E+00  1.03243E+01  8.78340E+00  8.08921E+00  1.23489E+01  4.86617E+00  1.09926E+01  1.10070E+01
   7.46590E+00  5.47227E+00  4.19160E+00  6.35674E+00  5.32435E+00  8.12951E+00  8.16368E+00  6.33722E+00
 NY points of the fit to the data follow
   2.35623E+00  2.54019E+00  2.81836E+00  3.30004E+00  3.25415E+00  3.99211E+00  3.78718E+00  4.91927E+00  4.91800E+00  6.93839E+00
   6.39291E+00  8.61019E+00  7.36355E+00  9.00753E+00  7.42573E+00  8.40652E+00  6.87728E+00  7.51906E+00  6.10063E+00  6.58659E+00
   5.11920E+00  5.26268E+00  4.08655E+00  4.02473E+00  3.71371E+00  4.29907E+00  3.50519E+00  4.11180E+00  2.70985E+00  3.79029E+00
   2.55356E+00  4.34889E+00  3.97297E+00  5.94079E+00  5.68247E+00  6.72460E+00  5.89434E+00  5.98525E+00  5.11284E+00  5.08642E+00
   5.41431E+00  5.50482E+00  6.41637E+00  6.33233E+00  6.45389E+00  5.74283E+00  5.62098E+00  5.62906E+00  6.06000E+00  6.47209E+00
   7.19705E+00  7.47519E+00  7.22257E+00  6.93179E+00  6.33227E+00  5.76916E+00  5.36984E+00  5.01554E+00  4.80422E+00  4.47082E+00
   4.25650E+00  3.88834E+00  3.78478E+00  3.61698E+00  3.86485E+00  3.75909E+00  3.93790E+00  3.81755E+00  3.98285E+00  3.90401E+00
   4.12214E+00  4.00846E+00  4.24841E+00  4.06126E+00  4.23615E+00  4.10441E+00  4.28715E+00  4.21032E+00  4.38094E+00  4.22732E+00
   4.32258E+00  4.06926E+00  4.11293E+00  3.83448E+00  3.86623E+00  3.57443E+00  3.55886E+00  3.20668E+00  3.23696E+00  2.91571E+00
   3.17666E+00  3.05394E+00  3.57980E+00  3.64246E+00  4.46241E+00  4.64554E+00  5.67170E+00  5.88853E+00  7.03881E+00  7.38356E+00
   9.05613E+00  9.59596E+00  1.18421E+01  1.21186E+01  1.40240E+01  1.35524E+01  1.42800E+01  1.31656E+01  1.31350E+01  1.18623E+01
   1.16524E+01  1.04732E+01  1.01610E+01  9.03429E+00  8.34041E+00  7.41457E+00  6.35305E+00  6.16069E+00  6.35360E+00  7.00566E+00
   7.35297E+00  8.38676E+00  8.67444E+00  1.00904E+01  1.06191E+01  1.26968E+01  1.31915E+01  1.58227E+01  1.53988E+01  1.78644E+01
   1.59270E+01  1.75154E+01  1.50024E+01  1.59348E+01  1.36194E+01  1.42094E+01  1.21281E+01  1.23421E+01  1.01438E+01  9.69889E+00
   7.76031E+00  6.99715E+00  6.85292E+00  6.83672E+00  6.85954E+00  6.90694E+00  6.98087E+00  7.05178E+00  7.13073E+00  7.20039E+00
   7.25459E+00  7.32048E+00  7.36720E+00  7.43070E+00  7.47454E+00  7.54181E+00  7.57789E+00  7.64328E+00  7.64566E+00  7.70047E+00
   7.67755E+00  7.73784E+00  7.70999E+00  7.79204E+00  7.76924E+00  7.86819E+00  7.88208E+00  7.96214E+00  7.99406E+00  8.02155E+00
   8.04698E+00  8.05436E+00  8.08930E+00  8.10485E+00  8.15780E+00  8.15839E+00  8.21955E+00  8.19508E+00  8.24573E+00  8.25955E+00
   8.30677E+00  8.39200E+00  8.42845E+00  8.51412E+00  8.50779E+00  8.58287E+00  8.54892E+00  8.60086E+00  8.59146E+00  8.71179E+00
   8.73371E+00  8.83513E+00  8.95391E+00  8.91137E+00  9.14699E+00  9.03001E+00  9.30291E+00  9.19424E+00  9.66267E+00  9.99780E+00
   1.07933E+01  1.12904E+01  1.22503E+01  1.25798E+01  1.34043E+01  1.32902E+01  1.33730E+01  1.26573E+01  1.19301E+01  1.09669E+01
   9.99402E+00  9.69012E+00  9.25489E+00  1.04269E+01  1.08647E+01  1.25422E+01  1.34040E+01  1.50720E+01  1.51211E+01  1.60301E+01
   1.49143E+01  1.54689E+01  1.39372E+01  1.41457E+01  1.27189E+01  1.25029E+01  1.18602E+01  1.27485E+01  1.21563E+01  1.29902E+01
   1.24661E+01  1.34197E+01  1.42264E+01  1.51115E+01  1.61111E+01  1.68864E+01  1.79353E+01  1.83007E+01  1.85421E+01  1.80795E+01
   1.80983E+01  1.75605E+01  1.69386E+01  1.60881E+01  1.52321E+01  1.46085E+01  1.43222E+01  1.43337E+01  1.46272E+01  1.53611E+01
   1.54034E+01  1.57596E+01  1.57570E+01  1.68347E+01  1.71411E+01  1.93391E+01  1.99350E+01  2.24421E+01  2.22232E+01  2.51485E+01
   2.44713E+01  2.79962E+01  2.69111E+01  3.01466E+01  2.82347E+01  3.02606E+01  2.77730E+01  2.87911E+01  2.62189E+01  2.70297E+01
   2.49669E+01  2.53951E+01  2.35874E+01  2.32012E+01  2.14130E+01  2.04613E+01  1.98456E+01  2.00797E+01  1.98759E+01  2.00724E+01
   2.01671E+01  2.02109E+01  2.03293E+01  2.04078E+01  2.06002E+01  2.06773E+01  2.08614E+01  2.09008E+01  2.10020E+01  2.10648E+01
   2.12429E+01  2.13875E+01  2.16231E+01  2.18426E+01  2.21142E+01  2.23938E+01  2.26648E+01  2.29412E+01  2.32179E+01  2.34951E+01
   2.37675E+01  2.40362E+01  2.42945E+01  2.45432E+01  2.47720E+01  2.49865E+01  2.51827E+01  2.53591E+01  2.55196E+01  2.56634E+01
   2.57977E+01  2.59247E+01  2.60534E+01  2.61893E+01  2.63463E+01  2.65399E+01  2.67340E+01  2.69470E+01  2.71962E+01  2.74473E+01
   2.77619E+01  2.80255E+01  2.83977E+01  2.86764E+01  2.91885E+01  2.95025E+01  3.01134E+01  3.03248E+01  3.09874E+01  3.09129E+01
   3.16193E+01  3.12701E+01  3.21025E+01  3.18562E+01  3.30233E+01  3.30950E+01  3.47851E+01  3.49619E+01  3.67551E+01  3.68652E+01
   3.84608E+01  3.86188E+01  3.99006E+01  4.03388E+01  4.14080E+01  4.18688E+01  4.28396E+01  4.30703E+01  4.33775E+01  4.30288E+01
   4.18684E+01  4.11341E+01  3.89815E+01  3.83830E+01  3.68488E+01  3.69073E+01  3.67144E+01  3.74395E+01  3.77357E+01  3.85810E+01
   3.79794E+01  3.85141E+01  3.77009E+01  3.83704E+01  3.87577E+01  3.89134E+01  3.86565E+01  3.84143E+01  3.72897E+01  3.64459E+01
   3.44052E+01  3.29883E+01  3.19308E+01  3.10368E+01  3.02430E+01  2.95226E+01  2.88629E+01  2.82571E+01  2.77016E+01  2.71943E+01
   2.67337E+01  2.63185E+01  2.59474E+01  2.56189E+01  2.53313E+01  2.50825E+01  2.48697E+01  2.46895E+01  2.45383E+01  2.44115E+01
   2.43046E+01  2.42122E+01  2.41287E+01  2.40480E+01  2.39644E+01  2.38721E+01  2.37654E+01  2.36394E+01  2.34895E+01  2.33121E+01
   2.31044E+01  2.28647E+01  2.25926E+01  2.22882E+01  2.19532E+01  2.15898E+01  2.12012E+01  2.07914E+01  2.03647E+01  1.99255E+01
   1.94785E+01  1.90283E+01  1.85792E+01  1.81353E+01  1.77000E+01  1.72762E+01  1.68665E+01  1.64725E+01  1.60957E+01  1.57369E+01
   1.53965E+01  1.50742E+01  1.47699E+01  1.44829E+01  1.42125E+01  1.39577E+01  1.37175E+01  1.34908E+01  1.32766E+01  1.30739E+01
   1.28818E+01  1.26992E+01  1.25253E+01  1.23593E+01  1.22004E+01  1.20481E+01  1.19017E+01  1.17607E+01  1.16245E+01  1.14928E+01
   1.13651E+01  1.12413E+01  1.11208E+01  1.10035E+01  1.08891E+01  1.07774E+01  1.06682E+01  1.05613E+01  1.04565E+01  1.03538E+01
   1.02529E+01  1.01538E+01  1.00564E+01  9.96058E+00  9.86621E+00  9.77321E+00  9.68151E+00  9.59106E+00  9.50179E+00  9.41363E+00
   9.32648E+00  9.24031E+00  9.15508E+00  9.07079E+00  8.98734E+00  8.90471E+00  8.82281E+00  8.74167E+00  8.66123E+00  8.58149E+00
   8.50239E+00  8.42390E+00  8.34597E+00  8.26862E+00  8.19184E+00  8.11560E+00  8.03986E+00  7.96459E+00  7.88978E+00  7.81544E+00
   7.74156E+00  7.66812E+00  7.59508E+00  7.52242E+00  7.45016E+00  7.37831E+00  7.30684E+00  7.23575E+00  7.16501E+00  7.09462E+00
   7.02459E+00  6.95496E+00  6.88569E+00  6.81679E+00  6.74824E+00  6.68009E+00  6.61235E+00  6.54505E+00
 NY background values follow
    -2.152E+00   -2.106E+00   -2.060E+00   -2.014E+00   -1.967E+00   -1.921E+00   -1.875E+00   -1.829E+00   -1.782E+00   -1.736E+00
    -1.689E+00   -1.643E+00   -1.596E+00   -1.549E+00   -1.502E+00   -1.456E+00   -1.409E+00   -1.361E+00   -1.314E+00   -1.267E+00
    -1.219E+00   -1.172E+00   -1.124E+00   -1.076E+00   -1.028E+00   -9.800E-01   -9.316E-01   -8.830E-01   -8.343E-01   -7.854E-01
    -7.363E-01   -6.870E-01   -6.374E-01   -5.877E-01   -5.377E-01   -4.875E-01   -4.371E-01   -3.864E-01   -3.355E-01   -2.844E-01
    -2.329E-01   -1.812E-01   -1.292E-01   -7.694E-02   -2.438E-02    2.848E-02    8.164E-02    1.351E-01    1.889E-01    2.430E-01
     2.973E-01    3.520E-01    4.070E-01    4.623E-01    5.179E-01    5.737E-01    6.299E-01    6.864E-01    7.432E-01    8.002E-01
     8.576E-01    9.153E-01    9.732E-01    1.031E+00    1.090E+00    1.149E+00    1.208E+00    1.267E+00    1.327E+00    1.387E+00
     1.447E+00    1.508E+00    1.569E+00    1.630E+00    1.691E+00    1.753E+00    1.815E+00    1.877E+00    1.940E+00    2.003E+00
     2.066E+00    2.129E+00    2.193E+00    2.257E+00    2.321E+00    2.386E+00    2.451E+00    2.516E+00    2.581E+00    2.647E+00
     2.713E+00    2.779E+00    2.845E+00    2.912E+00    2.979E+00    3.046E+00    3.114E+00    3.182E+00    3.250E+00    3.318E+00
     3.387E+00    3.455E+00    3.524E+00    3.593E+00    3.663E+00    3.733E+00    3.802E+00    3.873E+00    3.943E+00    4.013E+00
     4.084E+00    4.155E+00    4.226E+00    4.298E+00    4.369E+00    4.441E+00    4.513E+00    4.585E+00    4.657E+00    4.730E+00
     4.802E+00    4.875E+00    4.948E+00    5.021E+00    5.094E+00    5.168E+00    5.241E+00    5.315E+00    5.389E+00    5.463E+00
     5.537E+00    5.611E+00    5.686E+00    5.760E+00    5.835E+00    5.910E+00    5.984E+00    6.059E+00    6.134E+00    6.210E+00
     6.285E+00    6.360E+00    6.436E+00    6.511E+00    6.587E+00    6.663E+00    6.739E+00    6.815E+00    6.891E+00    6.967E+00
     7.043E+00    7.119E+00    7.195E+00    7.272E+00    7.348E+00    7.425E+00    7.501E+00    7.578E+00    7.655E+00    7.731E+00
     7.808E+00    7.885E+00    7.962E+00    8.039E+00    8.115E+00    8.192E+00    8.269E+00    8.346E+00    8.424E+00    8.501E+00
     8.578E+00    8.655E+00    8.732E+00    8.809E+00    8.886E+00    8.963E+00    9.040E+00    9.118E+00    9.195E+00    9.272E+00
     9.349E+00    9.426E+00    9.503E+00    9.580E+00    9.657E+00    9.735E+00    9.811E+00    9.888E+00    9.965E+00    1.004E+01
     1.012E+01    1.020E+01    1.027E+01    1.035E+01    1.042E+01    1.050E+01    1.058E+01    1.065E+01    1.073E+01    1.080E+01
     1.088E+01    1.095E+01    1.103E+01    1.110E+01    1.118E+01    1.125E+01    1.133E+01    1.140E+01    1.148E+01    1.155E+01
     1.162E+01    1.170E+01    1.177E+01    1.184E+01    1.191E+01    1.199E+01    1.206E+01    1.213E+01    1.220E+01    1.227E+01
     1.234E+01    1.241E+01    1.248E+01    1.255E+01    1.262E+01    1.269E+01    1.276E+01    1.282E+01    1.289E+01    1.296E+01
     1.302E+01    1.309E+01    1.316E+01    1.322E+01    1.329E+01    1.335E+01    1.341E+01    1.348E+01    1.354E+01    1.360E+01
     1.366E+01    1.372E+01    1.378E+01    1.384E+01    1.390E+01    1.396E+01    1.402E+01    1.408E+01    1.413E+01    1.419E+01
     1.425E+01    1.430E+01    1.435E+01    1.441E+01    1.446E+01    1.451E+01    1.456E+01    1.461E+01    1.466E+01    1.471E+01
     1.476E+01    1.481E+01    1.485E+01    1.490E+01    1.494E+01    1.499E+01    1.503E+01    1.507E+01    1.512E+01    1.516E+01
     1.520E+01    1.523E+01    1.527E+01    1.531E+01    1.534E+01    1.538E+01    1.541E+01    1.545E+01    1.548E+01    1.551E+01
     1.554E+01    1.557E+01    1.560E+01    1.562E+01    1.565E+01    1.567E+01    1.570E+01    1.572E+01    1.574E+01    1.577E+01
     1.579E+01    1.581E+01    1.582E+01    1.584E+01    1.586E+01    1.587E+01    1.589E+01    1.590E+01    1.591E+01    1.593E+01
     1.594E+01    1.595E+01    1.596E+01    1.596E+01    1.597E+01    1.598E+01    1.598E+01    1.598E+01    1.599E+01    1.599E+01
     1.599E+01    1.599E+01    1.599E+01    1.598E+01    1.598E+01    1.598E+01    1.597E+01    1.597E+01    1.596E+01    1.595E+01
     1.594E+01    1.593E+01    1.592E+01    1.591E+01    1.589E+01    1.588E+01    1.586E+01    1.585E+01    1.583E+01    1.581E+01
     1.579E+01    1.577E+01    1.575E+01    1.573E+01    1.571E+01    1.568E+01    1.566E+01    1.563E+01    1.561E+01    1.558E+01
     1.555E+01    1.552E+01    1.549E+01    1.546E+01    1.543E+01    1.540E+01    1.537E+01    1.534E+01    1.530E+01    1.527E+01
     1.523E+01    1.519E+01    1.516E+01    1.512E+01    1.508E+01    1.504E+01    1.500E+01    1.496E+01    1.492E+01    1.488E+01
     1.483E+01    1.479E+01    1.475E+01    1.470E+01    1.466E+01    1.461E+01    1.456E+01    1.451E+01    1.447E+01    1.442E+01
     1.437E+01    1.432E+01    1.427E+01    1.422E+01    1.417E+01    1.411E+01    1.406E+01    1.401E+01    1.396E+01    1.390E+01
     1.385E+01    1.379E+01    1.374E+01    1.368E+01    1.363E+01    1.357E+01    1.351E+01    1.345E+01    1.340E+01    1.334E+01
     1.328E+01    1.322E+01    1.316E+01    1.310E+01    1.304E+01    1.298E+01    1.292E+01    1.286E+01    1.280E+01    1.274E+01
     1.267E+01    1.261E+01    1.255E+01    1.249E+01    1.242E+01    1.236E+01    1.230E+01    1.223E+01    1.217E+01    1.211E+01
     1.204E+01    1.198E+01    1.191E+01    1.185E+01    1.178E+01    1.172E+01    1.165E+01    1.159E+01    1.152E+01    1.146E+01
     1.139E+01    1.133E+01    1.126E+01    1.119E+01    1.113E+01    1.106E+01    1.100E+01    1.093E+01    1.086E+01    1.080E+01
     1.073E+01    1.067E+01    1.060E+01    1.053E+01    1.047E+01    1.040E+01    1.033E+01    1.027E+01    1.020E+01    1.013E+01
     1.007E+01    1.000E+01    9.934E+00    9.868E+00    9.802E+00    9.736E+00    9.670E+00    9.604E+00    9.538E+00    9.472E+00
     9.406E+00    9.340E+00    9.275E+00    9.209E+00    9.144E+00    9.079E+00    9.013E+00    8.948E+00    8.884E+00    8.819E+00
     8.754E+00    8.689E+00    8.625E+00    8.560E+00    8.496E+00    8.432E+00    8.367E+00    8.303E+00    8.239E+00    8.175E+00
     8.111E+00    8.047E+00    7.983E+00    7.920E+00    7.856E+00    7.792E+00    7.729E+00    7.665E+00    7.602E+00    7.538E+00
     7.475E+00    7.411E+00    7.348E+00    7.285E+00    7.221E+00    7.158E+00    7.095E+00    7.032E+00    6.968E+00    6.905E+00
     6.842E+00    6.779E+00    6.716E+00    6.652E+00    6.589E+00    6.526E+00    6.463E+00    6.400E+00
 Ala      Conc. = 2.72E+02
