 LCModel (Version 6.3-1L) Copyright: S.W. Provencher.          Ref.: Magn. Reson. Med. 30:672-679 (1993).                
 Slice#2 Row#2 Col#9  K_02_press_1_raw_act
 36 lines in following concentration table = NCONC+1
    Conc.  %SD /Cr+PCr  Metabolite                                         
   89.026  76%   0.137 Ala                                                 
    0.000 999%   0.000 Asp                                                 
  394.287  32%   0.608 Cr                                                  
  254.667  51%   0.392 PCr                                                 
   45.336 143% 7.0E-02 GABA                                                
   21.192 319% 3.3E-02 Glc                                                 
    0.000 999%   0.000 Gln                                                 
  340.707  43%   0.525 Glu                                                 
   75.895 101%   0.117 GPC                                                 
   93.265  81%   0.144 PCh                                                 
   90.643  53%   0.140 GSH                                                 
  573.612  27%   0.884 Ins                                                 
    0.000 999%   0.000 Lac                                                 
  908.558   7%   1.400 NAA                                                 
  149.785  39%   0.231 NAAG                                                
   37.389  42% 5.8E-02 Scyllo                                              
  112.283  88%   0.173 Tau                                                 
  160.290  47%   0.247 -CrCH2                                              
  169.161   9%   0.261 GPC+PCh                                             
 1.06E+03   6%   1.631 NAA+NAAG                                            
  648.954   7%   1.000 Cr+PCr                                              
  340.707  43%   0.525 Glu+Gln                                             
 4.73E+03  17%   7.291 Lip13a                                              
    0.000 999%   0.000 Lip13b                                              
  466.445  77%   0.719 Lip09                                               
 1.45E+03  23%   2.231 MM09                                                
  117.057 261%   0.180 Lip20                                               
 1.86E+03  20%   2.872 MM20                                                
  605.819  36%   0.934 MM12                                                
  822.034  52%   1.267 MM14                                                
 1.57E+03  17%   2.412 MM17                                                
 4.73E+03  17%   7.291 Lip13a+Lip13b                                       
 6.16E+03   8%   9.491 MM14+Lip13a+Lip13b+MM12                             
 1.91E+03  12%   2.949 MM09+Lip09                                          
 1.98E+03  16%   3.053 MM20+Lip20                                          
   6 lines in following misc. output table
  FWHM = 0.038 ppm    S/N =   8                                            
  Data shift = 0.031 ppm                                                   
  Ph:  54 deg      18.6 deg/ppm                                            
  alphaB,S = 8.5E+01,   5.0E+01                                            
   14 spline knots.   Ns = 5(1)                                            
   2 inflections.     1 extrema                                            
  498 points on ppm-axis = NY
      4.000000     3.992357     3.984714     3.977070     3.969427     3.961784     3.954141     3.946497     3.938854     3.931211
      3.923568     3.915925     3.908281     3.900638     3.892995     3.885352     3.877708     3.870065     3.862422     3.854779
      3.847136     3.839492     3.831849     3.824206     3.816563     3.808919     3.801276     3.793633     3.785990     3.778347
      3.770703     3.763060     3.755417     3.747774     3.740130     3.732487     3.724844     3.717201     3.709558     3.701914
      3.694271     3.686628     3.678985     3.671341     3.663698     3.656055     3.648412     3.640769     3.633125     3.625482
      3.617839     3.610196     3.602552     3.594909     3.587266     3.579623     3.571980     3.564336     3.556693     3.549050
      3.541407     3.533763     3.526120     3.518477     3.510834     3.503191     3.495547     3.487904     3.480261     3.472618
      3.464974     3.457331     3.449688     3.442045     3.434402     3.426758     3.419115     3.411472     3.403829     3.396185
      3.388542     3.380899     3.373256     3.365613     3.357969     3.350326     3.342683     3.335040     3.327396     3.319753
      3.312110     3.304467     3.296824     3.289180     3.281537     3.273894     3.266251     3.258607     3.250964     3.243321
      3.235678     3.228034     3.220391     3.212748     3.205105     3.197462     3.189818     3.182175     3.174532     3.166889
      3.159245     3.151602     3.143959     3.136316     3.128673     3.121029     3.113386     3.105743     3.098100     3.090456
      3.082813     3.075170     3.067527     3.059884     3.052240     3.044597     3.036954     3.029311     3.021667     3.014024
      3.006381     2.998738     2.991095     2.983451     2.975808     2.968165     2.960522     2.952878     2.945235     2.937592
      2.929949     2.922306     2.914662     2.907019     2.899376     2.891733     2.884089     2.876446     2.868803     2.861160
      2.853517     2.845873     2.838230     2.830587     2.822944     2.815300     2.807657     2.800014     2.792371     2.784728
      2.777084     2.769441     2.761798     2.754155     2.746511     2.738868     2.731225     2.723582     2.715939     2.708295
      2.700652     2.693009     2.685366     2.677722     2.670079     2.662436     2.654793     2.647150     2.639506     2.631863
      2.624220     2.616577     2.608933     2.601290     2.593647     2.586004     2.578361     2.570717     2.563074     2.555431
      2.547788     2.540144     2.532501     2.524858     2.517215     2.509572     2.501928     2.494285     2.486642     2.478999
      2.471355     2.463712     2.456069     2.448426     2.440783     2.433139     2.425496     2.417853     2.410210     2.402566
      2.394923     2.387280     2.379637     2.371994     2.364350     2.356707     2.349064     2.341421     2.333777     2.326134
      2.318491     2.310848     2.303205     2.295561     2.287918     2.280275     2.272632     2.264988     2.257345     2.249702
      2.242059     2.234416     2.226772     2.219129     2.211486     2.203843     2.196199     2.188556     2.180913     2.173270
      2.165627     2.157983     2.150340     2.142697     2.135054     2.127410     2.119767     2.112124     2.104481     2.096838
      2.089194     2.081551     2.073908     2.066265     2.058621     2.050978     2.043335     2.035692     2.028049     2.020405
      2.012762     2.005119     1.997476     1.989833     1.982190     1.974546     1.966903     1.959260     1.951617     1.943974
      1.936331     1.928688     1.921045     1.913402     1.905759     1.898115     1.890472     1.882829     1.875186     1.867543
      1.859900     1.852257     1.844614     1.836971     1.829327     1.821684     1.814041     1.806398     1.798755     1.791112
      1.783469     1.775826     1.768183     1.760540     1.752896     1.745253     1.737610     1.729967     1.722324     1.714681
      1.707038     1.699395     1.691752     1.684108     1.676465     1.668822     1.661179     1.653536     1.645893     1.638250
      1.630607     1.622964     1.615321     1.607677     1.600034     1.592391     1.584748     1.577105     1.569462     1.561819
      1.554176     1.546533     1.538890     1.531246     1.523603     1.515960     1.508317     1.500674     1.493031     1.485388
      1.477745     1.470102     1.462458     1.454815     1.447172     1.439529     1.431886     1.424243     1.416600     1.408957
      1.401314     1.393671     1.386027     1.378384     1.370741     1.363098     1.355455     1.347812     1.340169     1.332526
      1.324883     1.317240     1.309596     1.301953     1.294310     1.286667     1.279024     1.271381     1.263738     1.256095
      1.248452     1.240808     1.233165     1.225522     1.217879     1.210236     1.202593     1.194950     1.187307     1.179664
      1.172021     1.164377     1.156734     1.149091     1.141448     1.133805     1.126162     1.118519     1.110876     1.103233
      1.095590     1.087946     1.080303     1.072660     1.065017     1.057374     1.049731     1.042088     1.034445     1.026802
      1.019158     1.011515     1.003872     0.996229     0.988586     0.980943     0.973300     0.965657     0.958014     0.950371
      0.942727     0.935084     0.927441     0.919798     0.912155     0.904512     0.896869     0.889226     0.881583     0.873940
      0.866296     0.858653     0.851010     0.843367     0.835724     0.828081     0.820438     0.812795     0.805152     0.797508
      0.789865     0.782222     0.774579     0.766936     0.759293     0.751650     0.744007     0.736364     0.728721     0.721077
      0.713434     0.705791     0.698148     0.690505     0.682862     0.675219     0.667576     0.659933     0.652290     0.644646
      0.637003     0.629360     0.621717     0.614074     0.606431     0.598788     0.591145     0.583502     0.575858     0.568215
      0.560572     0.552929     0.545286     0.537643     0.530000     0.522357     0.514714     0.507071     0.499427     0.491784
      0.484141     0.476498     0.468855     0.461212     0.453569     0.445925     0.438282     0.430639     0.422996     0.415353
      0.407710     0.400067     0.392424     0.384780     0.377137     0.369494     0.361851     0.354208     0.346565     0.338922
      0.331278     0.323635     0.315992     0.308349     0.300706     0.293063     0.285420     0.277777     0.270133     0.262490
      0.254847     0.247204     0.239561     0.231918     0.224275     0.216631     0.208988     0.201345
 NY phased data points follow
  -3.53257E-01 -4.07384E+00 -5.30848E+00  5.34558E+00  3.13368E+00  1.38516E+00 -1.67766E+00 -5.01130E-01  9.96275E+00  1.29320E+01
   1.24415E+01  1.20231E+01  1.18381E+01  8.77989E+00  2.22942E+00  1.58348E+00  5.55333E+00  1.40349E+00  1.81324E+00 -2.64123E-01
  -1.21737E+00 -5.16400E+00  2.67702E+00  2.76547E+00 -2.99731E+00  1.03687E+00  2.00246E+00  1.29671E+00  3.90991E+00 -6.73619E-01
  -1.00684E+00  2.38330E+00  3.70489E+00 -1.77571E+00  5.64426E-01 -1.79968E+00 -6.51077E-01  2.93345E+00  4.78545E+00  3.60331E+00
   3.09214E+00  7.70430E-01  2.77207E+00 -5.00841E+00  2.67366E+00  5.32210E+00  3.56868E+00  7.09280E+00  8.42247E+00  1.42426E+00
   3.76710E+00  1.47248E+00  7.70267E-01  3.60382E-01  1.20190E+00 -1.78916E+00 -1.70930E+00 -1.10100E+00  3.44657E+00  1.01440E+00
   2.43520E+00  1.81339E+00 -8.09820E-02  1.13894E+00  3.09140E-01 -7.01178E+00 -4.15442E+00 -3.12271E+00 -2.18399E+00 -2.32303E+00
  -3.28310E-01  2.55049E+00 -2.35464E+00  7.89893E-01 -1.06713E+00 -2.46361E+00  4.37959E-01  1.76934E-01 -4.96768E-01 -2.80547E+00
  -1.85381E+00 -1.20744E+00  3.19807E+00  1.12584E+00  4.06796E+00  1.31405E+00  2.34821E-01  2.23442E+00 -2.08710E+00  2.65784E-01
   1.82608E+00  3.45079E+00  1.84607E+00  1.56865E+00  4.08088E+00  4.50852E+00  1.15068E+00  3.40241E+00  3.09150E+00  3.87890E+00
   3.37049E+00  1.79657E+01  1.96971E+01  1.24101E+01  2.06878E+01  1.15327E+01  1.16042E+01  6.82663E+00  4.30303E+00  6.39004E+00
  -5.98681E-02  2.43633E+00  2.33177E+00  2.58553E+00  2.42521E+00  2.72631E+00 -1.97419E+00  3.03429E+00 -4.04285E-01  3.32891E+00
   3.24370E+00 -3.89060E+00  5.62477E+00  4.40821E+00  1.25191E+01  1.93535E+01  2.94337E+01  2.69411E+01  2.33461E+01  2.25111E+01
   1.16107E+01  7.80532E+00  8.31110E+00  5.95715E+00  1.42000E+00  3.72709E+00  1.71697E+00  2.64953E+00 -2.01374E+00  3.29888E+00
  -1.90456E+00 -1.00063E+00 -4.95405E+00  4.67218E-01  2.78342E+00  1.09315E+00 -2.28591E-01  4.54177E+00  1.39309E+00 -3.36937E+00
  -2.37101E+00 -3.72606E+00  1.67463E+00  6.55419E-01  1.40025E+00  6.36800E-01  2.49119E-01  4.48349E-01 -1.01935E+00 -9.04756E-01
   2.98067E-01 -9.91444E-01 -4.14589E+00  2.23482E+00 -1.94978E+00  3.27719E-01 -3.39101E+00 -1.73646E+00 -4.40681E+00 -2.29557E-01
  -5.75139E+00 -6.63155E+00 -2.64074E+00 -3.54208E+00 -8.07238E+00 -3.62976E+00 -6.70985E+00 -6.14653E+00 -5.58240E+00 -4.60323E+00
  -7.69731E+00 -5.70454E+00 -5.81830E+00 -3.88272E+00 -4.73713E+00 -9.09507E+00 -6.59525E+00 -7.48866E+00 -6.42293E+00 -4.06783E+00
   2.81316E+00  2.17513E+00 -1.46696E+00  6.11918E-01  7.86330E-02  3.91901E-01 -6.37075E+00 -6.85436E+00 -1.60432E+00 -9.76965E+00
   2.73328E-01 -2.86695E+00  2.21040E+00 -4.36005E+00 -7.30035E-01 -3.57635E+00 -6.38330E+00  2.53955E+00 -1.99195E+00 -1.40456E+00
  -1.52350E+00 -2.53044E+00 -7.72638E+00  2.97408E-01  2.41590E+00  4.02756E+00  3.64729E+00  1.12403E+00 -2.60460E+00  2.45859E+00
  -3.27579E+00 -5.18028E-01 -7.10593E+00 -2.26636E+00  1.34549E+00  6.52211E-01  4.67555E+00  5.15148E+00 -9.19203E-01 -2.18006E-01
   1.99865E+00  1.79229E+00  3.28620E+00  2.06635E+00 -4.73629E-02  4.29653E+00  3.98166E+00  4.12018E+00  5.39312E+00  1.53227E+00
  -1.27617E+00  3.31259E+00  3.18677E+00  8.49923E+00  6.81880E+00  8.57389E+00  3.90764E+00  5.12589E+00  7.38226E+00  7.25986E+00
   9.53124E+00  8.49757E+00  9.67971E+00  1.46392E+01  1.47586E+01  1.47416E+01  1.84534E+01  2.50609E+01  3.83640E+01  4.98152E+01
   5.44897E+01  3.75869E+01  2.70750E+01  1.92240E+01  6.93275E+00  1.22093E+01  2.44449E+00  6.46392E+00  8.41161E-01  4.90101E+00
  -2.07366E-01  1.38412E+00 -7.03634E+00 -1.34188E+00 -1.80477E+00 -2.21684E+00 -1.05575E+00  3.78138E-01  3.60479E+00  3.15613E+00
  -1.16133E-01  8.08509E-01 -3.23229E+00 -2.90830E-01 -3.29849E-01  3.18553E+00  5.57833E-01  9.04210E-01  3.71335E+00  4.05643E-01
   2.38346E+00 -2.85339E+00  5.44935E-01  4.18697E+00  5.78485E+00  5.09891E-01  2.40782E+00  4.15572E+00  6.22493E+00  7.67761E+00
   2.87264E+00  5.33105E+00  9.67227E+00  4.91475E+00  1.18841E+01  9.03796E+00  7.11860E+00  7.09853E+00  9.30856E+00  6.92973E+00
   5.64772E+00  1.40277E+01  1.26712E+01  7.39767E+00  8.48526E+00  1.38531E+01  1.03882E+01  1.18696E+01  7.85989E+00  6.09059E+00
   1.33198E+01  8.56511E+00  1.07357E+01  9.19760E+00  1.18535E+01  1.00422E+01  9.95724E+00  7.23679E+00  5.57885E+00  2.82624E+00
   4.39377E+00  7.69948E+00  7.79634E+00  7.71489E+00  9.69975E+00  8.62953E+00  9.78941E+00  1.10809E+01  7.10159E+00  4.55090E+00
   7.42129E+00  7.27697E+00  1.11117E+01  1.57039E+01  6.99454E+00  1.57959E+01  1.43396E+01  1.65484E+01  1.31818E+01  1.72218E+01
   2.00348E+01  1.75089E+01  1.24413E+01  1.60011E+01  2.03220E+01  1.70729E+01  1.41545E+01  1.82764E+01  2.02243E+01  1.68426E+01
   1.87675E+01  1.39247E+01  1.93312E+01  1.68596E+01  2.10785E+01  1.89020E+01  1.50903E+01  1.90326E+01  1.58156E+01  1.81073E+01
   1.76135E+01  1.92238E+01  1.55965E+01  2.01303E+01  1.61626E+01  1.07130E+01  1.55431E+01  1.51902E+01  1.17703E+01  9.83683E+00
   1.36266E+01  1.03989E+01  1.69029E+01  1.33332E+01  7.11943E+00  1.68650E+01  8.97302E+00  9.06131E+00  1.16390E+01  1.55732E+01
   1.72200E+01  3.58005E+00  8.71287E+00  1.03248E+01  9.87029E+00  1.55060E+01  2.02521E+01  1.58253E+01  7.44052E+00  1.52393E+01
   1.33547E+01  1.60130E+01  1.26889E+01  8.74403E+00  1.16865E+01  1.23637E+01  7.45563E+00  7.26786E+00  1.02044E+01  7.58590E+00
   7.31257E+00  2.72769E+00  6.36696E+00  1.43463E+01  8.80867E+00  6.58584E+00  1.11491E+01  4.16379E+00  6.27297E+00  4.48622E+00
   2.80664E+00  6.96261E+00  1.15296E+00  3.93546E+00 -7.24678E-01  3.33075E+00 -1.23000E+00  1.77409E+00  3.75696E+00  7.48058E-01
  -1.74710E-01  5.16742E+00 -4.69611E+00  5.56595E-01 -2.05265E+00  1.78641E+00 -6.37063E-01  9.40125E-01 -2.88872E+00 -1.29787E+00
   1.82404E+00 -1.87869E+00  2.78113E-01  2.47604E+00  6.68767E-01 -1.60150E+00  4.03161E+00  2.39260E+00  4.80751E-01 -2.17311E+00
   2.43495E+00 -2.26022E+00 -1.71767E+00  3.58117E+00 -5.37227E+00 -3.32592E+00 -1.24635E+00 -1.04715E+00 -4.09148E+00  1.74699E+00
   2.47333E+00  9.83457E-01 -1.56417E+00  2.46247E+00 -5.95477E-01 -1.69661E+00  2.64541E+00 -1.21596E+00 -1.43821E+00  1.47604E+00
  -3.62713E+00  1.77695E+00  1.06712E+00 -3.95888E+00 -1.91254E+00  2.65218E+00 -1.07519E+00 -1.62210E+00 -1.76687E-01  3.17985E+00
  -8.55504E-01 -4.67709E+00 -3.51533E-01 -4.88190E+00 -2.98452E-01 -3.76026E-01 -2.23239E+00 -1.86913E+00  8.13803E-01 -2.36358E+00
  -1.11599E+00 -2.28548E+00  4.68545E-01 -2.34928E+00 -4.58926E+00 -4.00397E+00 -2.21615E+00 -2.50723E+00
 NY points of the fit to the data follow
   1.88104E-01  2.95701E-02 -4.13210E-02 -3.14277E-02  4.81897E-02  3.37120E-01  1.27155E+00  3.45499E+00  6.96304E+00  1.08490E+01
   1.34709E+01  1.36306E+01  1.14617E+01  8.21379E+00  5.22515E+00  3.07110E+00  1.68749E+00  7.79712E-01  1.85511E-01  3.34416E-02
   5.48393E-02  1.00981E-01  1.30570E-01  1.06168E-01 -4.69528E-03 -1.27189E-01 -4.38342E-02  4.19300E-01  1.16869E+00  1.90066E+00
   2.36653E+00  2.50232E+00  2.36203E+00  2.04506E+00  1.65676E+00  1.20649E+00  7.29785E-01  3.31309E-01 -1.11157E-02 -3.11448E-01
  -4.98986E-01 -5.25597E-01 -3.51902E-01  1.75513E-01  1.28276E+00  2.91506E+00  4.49179E+00  5.20755E+00  4.65350E+00  3.14628E+00
   1.42515E+00  1.13536E-01 -5.90446E-01 -8.67750E-01 -9.18393E-01 -7.50952E-01 -3.43743E-01  2.74147E-01  9.73452E-01  1.52684E+00
   1.71310E+00  1.45455E+00  8.78172E-01  2.55440E-01 -1.69311E-01 -3.29483E-01 -2.74820E-01 -8.80122E-02  1.50213E-01  4.28163E-01
   7.28457E-01  1.00904E+00  1.22136E+00  1.32430E+00  1.27061E+00  1.02972E+00  6.56456E-01  2.48552E-01 -8.84709E-02 -2.26891E-01
  -1.46915E-01  1.22407E-01  6.24506E-01  1.31730E+00  1.89366E+00  1.94596E+00  1.32754E+00  3.19575E-01 -5.88340E-01 -1.05844E+00
  -1.08843E+00 -9.39396E-01 -8.21621E-01 -6.77319E-01 -4.52910E-01 -2.10870E-01 -2.04908E-03  2.52140E-01  1.06448E+00  3.41332E+00
   7.91202E+00  1.37121E+01  1.84600E+01  1.99035E+01  1.76333E+01  1.31579E+01  8.56303E+00  5.15013E+00  2.97103E+00  1.42435E+00
   3.73921E-01 -7.09358E-02 -1.83888E-01 -2.06534E-01 -2.02164E-01 -1.81955E-01 -1.60393E-01 -1.40077E-01 -1.03509E-01 -1.54876E-02
   1.78572E-01  6.38713E-01  2.06250E+00  5.78342E+00  1.25388E+01  2.09045E+01  2.73304E+01  2.87239E+01  2.49528E+01  1.85254E+01
   1.23471E+01  8.02958E+00  5.28867E+00  2.97553E+00  1.16458E+00  2.84740E-01 -1.26656E-01 -2.15246E-01 -6.41806E-02  1.79797E-01
   3.84959E-01  4.73935E-01  4.19058E-01  2.70806E-01  9.61232E-02 -6.97547E-02 -2.06648E-01 -3.20666E-01 -4.27654E-01 -5.31809E-01
  -6.49735E-01 -7.83416E-01 -9.10568E-01 -9.90599E-01 -9.91595E-01 -9.27622E-01 -8.94310E-01 -1.02921E+00 -1.39036E+00 -1.84310E+00
  -2.10898E+00 -2.00859E+00 -1.62870E+00 -1.26872E+00 -1.21585E+00 -1.52102E+00 -1.97928E+00 -2.36772E+00 -2.60818E+00 -2.69863E+00
  -2.74286E+00 -2.86470E+00 -3.11437E+00 -3.47601E+00 -3.76344E+00 -3.75032E+00 -3.44545E+00 -3.11368E+00 -3.00815E+00 -3.13806E+00
  -3.29637E+00 -3.28232E+00 -3.13168E+00 -3.05739E+00 -3.10640E+00 -3.06023E+00 -2.67969E+00 -1.93214E+00 -1.06265E+00 -3.47204E-01
   5.22615E-02  1.36881E-01  5.43976E-02 -6.94460E-02 -2.41225E-01 -4.69592E-01 -7.37489E-01 -9.91674E-01 -1.13946E+00 -1.08954E+00
  -8.00530E-01 -3.25728E-01  1.55765E-01  4.57217E-01  4.77890E-01  1.86359E-01 -2.92872E-01 -8.05896E-01 -1.29766E+00 -1.77414E+00
  -2.13404E+00 -2.12209E+00 -1.55389E+00 -5.01759E-01  6.05246E-01  1.25824E+00  1.20748E+00  5.31889E-01 -4.73359E-01 -1.51673E+00
  -2.33191E+00 -2.61853E+00 -2.22184E+00 -1.24303E+00 -8.33484E-02  8.62164E-01  1.41836E+00  1.60394E+00  1.54109E+00  1.35626E+00
   1.21279E+00  1.30684E+00  1.70742E+00  2.30360E+00  2.92735E+00  3.40697E+00  3.63341E+00  3.58714E+00  3.32046E+00  2.98838E+00
   2.80394E+00  2.93563E+00  3.43909E+00  4.21619E+00  5.06724E+00  5.79301E+00  6.25890E+00  6.42778E+00  6.38141E+00  6.28542E+00
   6.35709E+00  6.94428E+00  8.33161E+00  1.03984E+01  1.26017E+01  1.52579E+01  2.02208E+01  2.89625E+01  3.96800E+01  4.72895E+01
   4.75385E+01  4.05237E+01  3.01226E+01  2.07223E+01  1.44477E+01  1.04961E+01  7.17786E+00  4.91561E+00  3.97028E+00  3.40459E+00
   3.01195E+00  2.76612E+00  2.61579E+00  2.48619E+00  2.32873E+00  2.12430E+00  1.88264E+00  1.62622E+00  1.38184E+00  1.16625E+00
   9.91150E-01  8.65165E-01  7.85412E-01  7.41141E-01  7.21159E-01  7.18183E-01  7.32264E-01  7.70028E-01  8.39882E-01  9.54189E-01
   1.12233E+00  1.34019E+00  1.59825E+00  1.89375E+00  2.22691E+00  2.59939E+00  3.01530E+00  3.47759E+00  3.98772E+00  4.54549E+00
   5.14302E+00  5.76572E+00  6.39740E+00  7.02258E+00  7.62775E+00  8.19905E+00  8.72178E+00  9.18443E+00  9.57712E+00  9.89123E+00
   1.01208E+01  1.02627E+01  1.03180E+01  1.02913E+01  1.01907E+01  1.00270E+01  9.81318E+00  9.56410E+00  9.29689E+00  9.03073E+00
   8.78850E+00  8.60410E+00  8.53020E+00  8.57875E+00  8.64626E+00  8.52950E+00  8.08349E+00  7.37429E+00  6.63167E+00  6.05956E+00
   5.76171E+00  5.79585E+00  6.19841E+00  6.96680E+00  7.96773E+00  8.89338E+00  9.53431E+00  9.90304E+00  1.01330E+01  1.03713E+01
   1.06663E+01  1.09794E+01  1.13331E+01  1.17564E+01  1.22286E+01  1.27365E+01  1.32723E+01  1.38294E+01  1.44010E+01  1.49793E+01
   1.55561E+01  1.61226E+01  1.66696E+01  1.71875E+01  1.76665E+01  1.80968E+01  1.84693E+01  1.87758E+01  1.90096E+01  1.91652E+01
   1.92385E+01  1.92271E+01  1.91310E+01  1.89521E+01  1.86943E+01  1.83631E+01  1.79654E+01  1.75097E+01  1.70059E+01  1.64648E+01
   1.58979E+01  1.53165E+01  1.47321E+01  1.41559E+01  1.35991E+01  1.30719E+01  1.25838E+01  1.21426E+01  1.17554E+01  1.14280E+01
   1.11650E+01  1.09692E+01  1.08420E+01  1.07829E+01  1.07896E+01  1.08588E+01  1.09850E+01  1.11614E+01  1.13791E+01  1.16282E+01
   1.18978E+01  1.21762E+01  1.24512E+01  1.27107E+01  1.29425E+01  1.31354E+01  1.32798E+01  1.33674E+01  1.33919E+01  1.33487E+01
   1.32355E+01  1.30522E+01  1.28010E+01  1.24859E+01  1.21123E+01  1.16868E+01  1.12171E+01  1.07114E+01  1.01784E+01  9.62654E+00
   9.06374E+00  8.49727E+00  7.93383E+00  7.37936E+00  6.83895E+00  6.31658E+00  5.81527E+00  5.33722E+00  4.88406E+00  4.45681E+00
   4.05590E+00  3.68108E+00  3.33172E+00  3.00692E+00  2.70577E+00  2.42715E+00  2.16976E+00  1.93207E+00  1.71259E+00  1.50995E+00
   1.32296E+00  1.15038E+00  9.90939E-01  8.43337E-01  7.06475E-01  5.79429E-01  4.61450E-01  3.51705E-01  2.49364E-01  1.53610E-01
   6.38762E-02 -2.02929E-02 -9.92714E-02 -1.73575E-01 -2.43699E-01 -3.10095E-01 -3.72981E-01 -4.32548E-01 -4.88992E-01 -5.42672E-01
  -5.93880E-01 -6.42841E-01 -6.89585E-01 -7.34200E-01 -7.76823E-01 -8.17731E-01 -8.57089E-01 -8.94979E-01 -9.31350E-01 -9.66274E-01
  -9.99882E-01 -1.03240E+00 -1.06388E+00 -1.09432E+00 -1.12365E+00 -1.15196E+00 -1.17940E+00 -1.20611E+00 -1.23208E+00 -1.25726E+00
  -1.28159E+00 -1.30522E+00 -1.32825E+00 -1.35079E+00 -1.37274E+00 -1.39406E+00 -1.41474E+00 -1.43494E+00 -1.45474E+00 -1.47417E+00
  -1.49311E+00 -1.51154E+00 -1.52950E+00 -1.54715E+00 -1.56451E+00 -1.58158E+00 -1.59822E+00 -1.61445E+00 -1.63036E+00 -1.64609E+00
  -1.66161E+00 -1.67685E+00 -1.69173E+00 -1.70632E+00 -1.72071E+00 -1.73500E+00 -1.74912E+00 -1.76299E+00
 NY background values follow
    -1.325E+00   -1.328E+00   -1.330E+00   -1.333E+00   -1.336E+00   -1.339E+00   -1.342E+00   -1.345E+00   -1.348E+00   -1.351E+00
    -1.354E+00   -1.357E+00   -1.360E+00   -1.363E+00   -1.365E+00   -1.368E+00   -1.371E+00   -1.374E+00   -1.377E+00   -1.380E+00
    -1.383E+00   -1.386E+00   -1.389E+00   -1.392E+00   -1.395E+00   -1.397E+00   -1.400E+00   -1.403E+00   -1.406E+00   -1.409E+00
    -1.412E+00   -1.415E+00   -1.418E+00   -1.421E+00   -1.424E+00   -1.427E+00   -1.429E+00   -1.432E+00   -1.435E+00   -1.438E+00
    -1.441E+00   -1.444E+00   -1.447E+00   -1.450E+00   -1.453E+00   -1.456E+00   -1.459E+00   -1.461E+00   -1.464E+00   -1.467E+00
    -1.470E+00   -1.473E+00   -1.476E+00   -1.479E+00   -1.482E+00   -1.485E+00   -1.488E+00   -1.491E+00   -1.493E+00   -1.496E+00
    -1.499E+00   -1.502E+00   -1.505E+00   -1.508E+00   -1.511E+00   -1.514E+00   -1.517E+00   -1.520E+00   -1.523E+00   -1.525E+00
    -1.528E+00   -1.531E+00   -1.534E+00   -1.537E+00   -1.540E+00   -1.543E+00   -1.546E+00   -1.549E+00   -1.552E+00   -1.555E+00
    -1.557E+00   -1.560E+00   -1.563E+00   -1.566E+00   -1.569E+00   -1.572E+00   -1.575E+00   -1.578E+00   -1.581E+00   -1.584E+00
    -1.586E+00   -1.589E+00   -1.592E+00   -1.595E+00   -1.598E+00   -1.601E+00   -1.604E+00   -1.607E+00   -1.610E+00   -1.613E+00
    -1.616E+00   -1.618E+00   -1.621E+00   -1.624E+00   -1.627E+00   -1.630E+00   -1.633E+00   -1.636E+00   -1.639E+00   -1.642E+00
    -1.645E+00   -1.647E+00   -1.650E+00   -1.653E+00   -1.656E+00   -1.659E+00   -1.662E+00   -1.665E+00   -1.668E+00   -1.671E+00
    -1.674E+00   -1.676E+00   -1.679E+00   -1.682E+00   -1.685E+00   -1.688E+00   -1.691E+00   -1.694E+00   -1.697E+00   -1.700E+00
    -1.703E+00   -1.705E+00   -1.708E+00   -1.711E+00   -1.714E+00   -1.717E+00   -1.720E+00   -1.723E+00   -1.726E+00   -1.729E+00
    -1.731E+00   -1.734E+00   -1.737E+00   -1.740E+00   -1.743E+00   -1.746E+00   -1.749E+00   -1.752E+00   -1.755E+00   -1.758E+00
    -1.760E+00   -1.763E+00   -1.766E+00   -1.769E+00   -1.772E+00   -1.775E+00   -1.778E+00   -1.781E+00   -1.784E+00   -1.786E+00
    -1.789E+00   -1.792E+00   -1.795E+00   -1.798E+00   -1.801E+00   -1.804E+00   -1.807E+00   -1.810E+00   -1.813E+00   -1.815E+00
    -1.818E+00   -1.821E+00   -1.824E+00   -1.827E+00   -1.830E+00   -1.833E+00   -1.836E+00   -1.839E+00   -1.841E+00   -1.844E+00
    -1.847E+00   -1.850E+00   -1.853E+00   -1.856E+00   -1.859E+00   -1.862E+00   -1.865E+00   -1.867E+00   -1.870E+00   -1.873E+00
    -1.876E+00   -1.879E+00   -1.882E+00   -1.885E+00   -1.888E+00   -1.890E+00   -1.893E+00   -1.896E+00   -1.899E+00   -1.902E+00
    -1.905E+00   -1.908E+00   -1.911E+00   -1.914E+00   -1.916E+00   -1.919E+00   -1.922E+00   -1.925E+00   -1.928E+00   -1.931E+00
    -1.934E+00   -1.937E+00   -1.939E+00   -1.942E+00   -1.945E+00   -1.948E+00   -1.951E+00   -1.954E+00   -1.957E+00   -1.960E+00
    -1.962E+00   -1.965E+00   -1.968E+00   -1.971E+00   -1.974E+00   -1.977E+00   -1.980E+00   -1.983E+00   -1.986E+00   -1.988E+00
    -1.991E+00   -1.994E+00   -1.997E+00   -2.000E+00   -2.003E+00   -2.006E+00   -2.009E+00   -2.011E+00   -2.014E+00   -2.017E+00
    -2.020E+00   -2.023E+00   -2.026E+00   -2.029E+00   -2.031E+00   -2.034E+00   -2.037E+00   -2.040E+00   -2.043E+00   -2.046E+00
    -2.049E+00   -2.052E+00   -2.054E+00   -2.057E+00   -2.060E+00   -2.063E+00   -2.066E+00   -2.069E+00   -2.072E+00   -2.075E+00
    -2.077E+00   -2.080E+00   -2.083E+00   -2.086E+00   -2.089E+00   -2.092E+00   -2.095E+00   -2.097E+00   -2.100E+00   -2.103E+00
    -2.106E+00   -2.109E+00   -2.112E+00   -2.115E+00   -2.117E+00   -2.120E+00   -2.123E+00   -2.126E+00   -2.129E+00   -2.132E+00
    -2.135E+00   -2.138E+00   -2.140E+00   -2.143E+00   -2.146E+00   -2.149E+00   -2.152E+00   -2.155E+00   -2.158E+00   -2.160E+00
    -2.163E+00   -2.166E+00   -2.169E+00   -2.172E+00   -2.175E+00   -2.178E+00   -2.180E+00   -2.183E+00   -2.186E+00   -2.189E+00
    -2.192E+00   -2.195E+00   -2.198E+00   -2.200E+00   -2.203E+00   -2.206E+00   -2.209E+00   -2.212E+00   -2.215E+00   -2.217E+00
    -2.220E+00   -2.223E+00   -2.226E+00   -2.229E+00   -2.232E+00   -2.235E+00   -2.237E+00   -2.240E+00   -2.243E+00   -2.246E+00
    -2.249E+00   -2.252E+00   -2.255E+00   -2.257E+00   -2.260E+00   -2.263E+00   -2.266E+00   -2.269E+00   -2.272E+00   -2.274E+00
    -2.277E+00   -2.280E+00   -2.283E+00   -2.286E+00   -2.289E+00   -2.291E+00   -2.294E+00   -2.297E+00   -2.300E+00   -2.303E+00
    -2.306E+00   -2.309E+00   -2.311E+00   -2.314E+00   -2.317E+00   -2.320E+00   -2.323E+00   -2.326E+00   -2.328E+00   -2.331E+00
    -2.334E+00   -2.337E+00   -2.340E+00   -2.343E+00   -2.345E+00   -2.348E+00   -2.351E+00   -2.354E+00   -2.357E+00   -2.360E+00
    -2.362E+00   -2.365E+00   -2.368E+00   -2.371E+00   -2.374E+00   -2.377E+00   -2.379E+00   -2.382E+00   -2.385E+00   -2.388E+00
    -2.391E+00   -2.394E+00   -2.396E+00   -2.399E+00   -2.402E+00   -2.405E+00   -2.408E+00   -2.411E+00   -2.413E+00   -2.416E+00
    -2.419E+00   -2.422E+00   -2.425E+00   -2.428E+00   -2.430E+00   -2.433E+00   -2.436E+00   -2.439E+00   -2.442E+00   -2.444E+00
    -2.447E+00   -2.450E+00   -2.453E+00   -2.456E+00   -2.459E+00   -2.461E+00   -2.464E+00   -2.467E+00   -2.470E+00   -2.473E+00
    -2.476E+00   -2.478E+00   -2.481E+00   -2.484E+00   -2.487E+00   -2.490E+00   -2.492E+00   -2.495E+00   -2.498E+00   -2.501E+00
    -2.504E+00   -2.506E+00   -2.509E+00   -2.512E+00   -2.515E+00   -2.518E+00   -2.521E+00   -2.523E+00   -2.526E+00   -2.529E+00
    -2.532E+00   -2.535E+00   -2.537E+00   -2.540E+00   -2.543E+00   -2.546E+00   -2.549E+00   -2.551E+00   -2.554E+00   -2.557E+00
    -2.560E+00   -2.563E+00   -2.566E+00   -2.568E+00   -2.571E+00   -2.574E+00   -2.577E+00   -2.580E+00   -2.582E+00   -2.585E+00
    -2.588E+00   -2.591E+00   -2.594E+00   -2.596E+00   -2.599E+00   -2.602E+00   -2.605E+00   -2.608E+00   -2.610E+00   -2.613E+00
    -2.616E+00   -2.619E+00   -2.622E+00   -2.624E+00   -2.627E+00   -2.630E+00   -2.633E+00   -2.636E+00   -2.638E+00   -2.641E+00
    -2.644E+00   -2.647E+00   -2.650E+00   -2.652E+00   -2.655E+00   -2.658E+00   -2.661E+00   -2.664E+00   -2.666E+00   -2.669E+00
    -2.672E+00   -2.675E+00   -2.677E+00   -2.680E+00   -2.683E+00   -2.686E+00   -2.689E+00   -2.691E+00   -2.694E+00   -2.697E+00
    -2.700E+00   -2.703E+00   -2.705E+00   -2.708E+00   -2.711E+00   -2.714E+00   -2.716E+00   -2.719E+00   -2.722E+00   -2.725E+00
    -2.728E+00   -2.730E+00   -2.733E+00   -2.736E+00   -2.739E+00   -2.742E+00   -2.744E+00   -2.747E+00
 Ala      Conc. = 8.90E+01
