 LCModel (Version 6.3-1L) Copyright: S.W. Provencher.          Ref.: Magn. Reson. Med. 30:672-679 (1993).                
 Slice#2 Row#5 Col#7  K_02_press_1_raw_act
 36 lines in following concentration table = NCONC+1
    Conc.  %SD /Cr+PCr  Metabolite                                         
  267.410  61% 9.8E-02 Ala                                                 
    0.000 999%   0.000 Asp                                                 
 2.47E+03  13%   0.902 Cr                                                  
  267.783 116% 9.8E-02 PCr                                                 
   67.296 359% 2.5E-02 GABA                                                
    0.000 999%   0.000 Glc                                                 
  994.980  34%   0.363 Gln                                                 
 3.13E+03  14%   1.142 Glu                                                 
  865.699   4%   0.316 GPC                                                 
    0.000 999%   0.000 PCh                                                 
  932.947  12%   0.341 GSH                                                 
 2.97E+03  13%   1.084 Ins                                                 
  215.174  84% 7.9E-02 Lac                                                 
 3.17E+03   6%   1.157 NAA                                                 
  263.244  79% 9.6E-02 NAAG                                                
    0.000 999%   0.000 Scyllo                                              
    0.000 999%   0.000 Tau                                                 
    0.000 999%   0.000 -CrCH2                                              
  865.699   4%   0.316 GPC+PCh                                             
 3.43E+03   4%   1.253 NAA+NAAG                                            
 2.74E+03   3%   1.000 Cr+PCr                                              
 4.12E+03  14%   1.505 Glu+Gln                                             
 1.38E+04  15%   5.039 Lip13a                                              
    0.000 999%   0.000 Lip13b                                              
 3.92E+03  22%   1.431 Lip09                                               
 1.10E+03  80%   0.400 MM09                                                
 2.54E+03  22%   0.926 Lip20                                               
 3.34E+03  23%   1.221 MM20                                                
  134.795 490% 4.9E-02 MM12                                                
 1.85E+03  54%   0.675 MM14                                                
 1.02E+03  39%   0.373 MM17                                                
 1.38E+04  15%   5.039 Lip13a+Lip13b                                       
 1.58E+04   8%   5.764 MM14+Lip13a+Lip13b+MM12                             
 5.02E+03  11%   1.832 MM09+Lip09                                          
 5.88E+03  11%   2.146 MM20+Lip20                                          
   6 lines in following misc. output table
  FWHM = 0.054 ppm    S/N =  12                                            
  Data shift = 0.008 ppm                                                   
  Ph:  23 deg       8.8 deg/ppm                                            
  alphaB,S = 1.9E+00,   8.7E+01                                            
   14 spline knots.   Ns = 7(1)                                            
  ( 8) 2 infls.   ( 3) 1 extrs.                                            
  498 points on ppm-axis = NY
      4.000000     3.992357     3.984714     3.977070     3.969427     3.961784     3.954141     3.946497     3.938854     3.931211
      3.923568     3.915925     3.908281     3.900638     3.892995     3.885352     3.877708     3.870065     3.862422     3.854779
      3.847136     3.839492     3.831849     3.824206     3.816563     3.808919     3.801276     3.793633     3.785990     3.778347
      3.770703     3.763060     3.755417     3.747774     3.740130     3.732487     3.724844     3.717201     3.709558     3.701914
      3.694271     3.686628     3.678985     3.671341     3.663698     3.656055     3.648412     3.640769     3.633125     3.625482
      3.617839     3.610196     3.602552     3.594909     3.587266     3.579623     3.571980     3.564336     3.556693     3.549050
      3.541407     3.533763     3.526120     3.518477     3.510834     3.503191     3.495547     3.487904     3.480261     3.472618
      3.464974     3.457331     3.449688     3.442045     3.434402     3.426758     3.419115     3.411472     3.403829     3.396185
      3.388542     3.380899     3.373256     3.365613     3.357969     3.350326     3.342683     3.335040     3.327396     3.319753
      3.312110     3.304467     3.296824     3.289180     3.281537     3.273894     3.266251     3.258607     3.250964     3.243321
      3.235678     3.228034     3.220391     3.212748     3.205105     3.197462     3.189818     3.182175     3.174532     3.166889
      3.159245     3.151602     3.143959     3.136316     3.128673     3.121029     3.113386     3.105743     3.098100     3.090456
      3.082813     3.075170     3.067527     3.059884     3.052240     3.044597     3.036954     3.029311     3.021667     3.014024
      3.006381     2.998738     2.991095     2.983451     2.975808     2.968165     2.960522     2.952878     2.945235     2.937592
      2.929949     2.922306     2.914662     2.907019     2.899376     2.891733     2.884089     2.876446     2.868803     2.861160
      2.853517     2.845873     2.838230     2.830587     2.822944     2.815300     2.807657     2.800014     2.792371     2.784728
      2.777084     2.769441     2.761798     2.754155     2.746511     2.738868     2.731225     2.723582     2.715939     2.708295
      2.700652     2.693009     2.685366     2.677722     2.670079     2.662436     2.654793     2.647150     2.639506     2.631863
      2.624220     2.616577     2.608933     2.601290     2.593647     2.586004     2.578361     2.570717     2.563074     2.555431
      2.547788     2.540144     2.532501     2.524858     2.517215     2.509572     2.501928     2.494285     2.486642     2.478999
      2.471355     2.463712     2.456069     2.448426     2.440783     2.433139     2.425496     2.417853     2.410210     2.402566
      2.394923     2.387280     2.379637     2.371994     2.364350     2.356707     2.349064     2.341421     2.333777     2.326134
      2.318491     2.310848     2.303205     2.295561     2.287918     2.280275     2.272632     2.264988     2.257345     2.249702
      2.242059     2.234416     2.226772     2.219129     2.211486     2.203843     2.196199     2.188556     2.180913     2.173270
      2.165627     2.157983     2.150340     2.142697     2.135054     2.127410     2.119767     2.112124     2.104481     2.096838
      2.089194     2.081551     2.073908     2.066265     2.058621     2.050978     2.043335     2.035692     2.028049     2.020405
      2.012762     2.005119     1.997476     1.989833     1.982190     1.974546     1.966903     1.959260     1.951617     1.943974
      1.936331     1.928688     1.921045     1.913402     1.905759     1.898115     1.890472     1.882829     1.875186     1.867543
      1.859900     1.852257     1.844614     1.836971     1.829327     1.821684     1.814041     1.806398     1.798755     1.791112
      1.783469     1.775826     1.768183     1.760540     1.752896     1.745253     1.737610     1.729967     1.722324     1.714681
      1.707038     1.699395     1.691752     1.684108     1.676465     1.668822     1.661179     1.653536     1.645893     1.638250
      1.630607     1.622964     1.615321     1.607677     1.600034     1.592391     1.584748     1.577105     1.569462     1.561819
      1.554176     1.546533     1.538890     1.531246     1.523603     1.515960     1.508317     1.500674     1.493031     1.485388
      1.477745     1.470102     1.462458     1.454815     1.447172     1.439529     1.431886     1.424243     1.416600     1.408957
      1.401314     1.393671     1.386027     1.378384     1.370741     1.363098     1.355455     1.347812     1.340169     1.332526
      1.324883     1.317240     1.309596     1.301953     1.294310     1.286667     1.279024     1.271381     1.263738     1.256095
      1.248452     1.240808     1.233165     1.225522     1.217879     1.210236     1.202593     1.194950     1.187307     1.179664
      1.172021     1.164377     1.156734     1.149091     1.141448     1.133805     1.126162     1.118519     1.110876     1.103233
      1.095590     1.087946     1.080303     1.072660     1.065017     1.057374     1.049731     1.042088     1.034445     1.026802
      1.019158     1.011515     1.003872     0.996229     0.988586     0.980943     0.973300     0.965657     0.958014     0.950371
      0.942727     0.935084     0.927441     0.919798     0.912155     0.904512     0.896869     0.889226     0.881583     0.873940
      0.866296     0.858653     0.851010     0.843367     0.835724     0.828081     0.820438     0.812795     0.805152     0.797508
      0.789865     0.782222     0.774579     0.766936     0.759293     0.751650     0.744007     0.736364     0.728721     0.721077
      0.713434     0.705791     0.698148     0.690505     0.682862     0.675219     0.667576     0.659933     0.652290     0.644646
      0.637003     0.629360     0.621717     0.614074     0.606431     0.598788     0.591145     0.583502     0.575858     0.568215
      0.560572     0.552929     0.545286     0.537643     0.530000     0.522357     0.514714     0.507071     0.499427     0.491784
      0.484141     0.476498     0.468855     0.461212     0.453569     0.445925     0.438282     0.430639     0.422996     0.415353
      0.407710     0.400067     0.392424     0.384780     0.377137     0.369494     0.361851     0.354208     0.346565     0.338922
      0.331278     0.323635     0.315992     0.308349     0.300706     0.293063     0.285420     0.277777     0.270133     0.262490
      0.254847     0.247204     0.239561     0.231918     0.224275     0.216631     0.208988     0.201345
 NY phased data points follow
   5.81668E+01  6.33596E+01  6.00614E+01  6.07958E+01  6.42173E+01  6.75667E+01  7.69876E+01  8.67615E+01  9.58374E+01  1.13974E+02
   1.12428E+02  1.14622E+02  1.05370E+02  1.09325E+02  1.01159E+02  8.73441E+01  8.11463E+01  7.39839E+01  6.71468E+01  5.61712E+01
   5.87016E+01  5.64626E+01  5.50180E+01  5.58510E+01  5.61511E+01  6.29024E+01  5.92797E+01  5.84972E+01  6.58812E+01  7.49573E+01
   7.56422E+01  6.09818E+01  7.35132E+01  6.16033E+01  6.24165E+01  5.51692E+01  6.14291E+01  5.34389E+01  6.02199E+01  5.11858E+01
   5.80060E+01  6.25691E+01  6.38714E+01  5.85421E+01  6.33660E+01  6.37066E+01  6.67691E+01  7.12085E+01  6.21492E+01  6.50950E+01
   5.91219E+01  5.14487E+01  5.26611E+01  4.50437E+01  4.98318E+01  4.85463E+01  5.37544E+01  4.49122E+01  4.87500E+01  4.90572E+01
   4.03603E+01  4.01766E+01  3.46173E+01  3.53522E+01  3.31856E+01  3.15993E+01  2.92998E+01  2.55677E+01  3.32054E+01  3.02424E+01
   3.40342E+01  3.27212E+01  2.73412E+01  2.86943E+01  3.21717E+01  2.84525E+01  3.06068E+01  3.18482E+01  2.06712E+01  2.53093E+01
   1.76821E+01  2.42730E+01  1.90207E+01  2.51891E+01  2.12767E+01  2.25391E+01  2.23227E+01  2.12862E+01  2.04596E+01  1.79275E+01
   2.43826E+01  2.58894E+01  2.49709E+01  2.47664E+01  2.72728E+01  2.55975E+01  2.53588E+01  3.34928E+01  4.27303E+01  4.64811E+01
   6.64720E+01  8.16378E+01  9.36638E+01  1.11298E+02  1.00336E+02  8.39465E+01  7.12804E+01  5.27324E+01  4.84817E+01  4.16250E+01
   3.60283E+01  2.61917E+01  2.62836E+01  2.70218E+01  2.10705E+01  2.00117E+01  2.71248E+01  2.56250E+01  2.36830E+01  3.23840E+01
   2.91635E+01  3.49792E+01  3.28445E+01  5.72476E+01  6.79573E+01  8.84590E+01  9.66611E+01  9.87763E+01  1.03430E+02  9.80891E+01
   8.16224E+01  6.59126E+01  4.41149E+01  3.58847E+01  2.96549E+01  2.92717E+01  2.17992E+01  1.38454E+01  2.08095E+01  2.27904E+01
   1.38002E+01  2.42608E+01  1.94367E+01  1.88632E+01  1.39393E+01  1.98308E+01  1.45450E+01  1.49709E+01  1.20539E+01  2.16149E+01
   2.10111E+01  1.40191E+01  1.01050E+01  1.25190E+01  1.44948E+01  1.67967E+01  1.38175E+01  1.46291E+01  1.73346E+01  1.54664E+01
   1.44138E+01  1.33980E+01  5.34373E+00  1.01790E+01  1.47642E+01  1.48187E+01  1.25053E+01  1.41987E+01  9.36711E+00  4.02470E+00
   2.25001E-01  4.07498E+00 -3.04466E+00 -9.51501E+00 -5.82813E+00 -8.97114E+00 -2.30729E+00 -4.76741E+00 -8.79769E+00 -4.98634E+00
  -3.74566E+00 -5.75192E+00 -1.02853E+01 -1.19080E+01 -9.60466E+00 -1.14529E+01 -5.73046E+00 -6.07674E+00 -4.36633E+00  5.86714E+00
   8.61717E+00  9.95550E-02  3.33739E+00  1.23056E+01  4.46265E+00  1.21531E+01  3.58068E+00  7.78724E-01  1.48023E+00  5.51679E+00
   6.20372E-01 -1.50685E+00  5.39435E+00  7.10882E+00  8.84019E+00  9.04325E+00  5.11630E+00  4.87021E+00 -7.57693E+00 -2.51145E+00
  -4.24084E+00  9.67865E-01  3.03651E-01  1.84896E+01  1.78376E+01  2.60878E+01  2.79678E+01  1.46408E+01  1.65571E+01  2.41225E+00
  -3.68497E+00 -5.50818E+00  2.65751E+00 -2.35328E+00  2.30920E+00  3.26948E+00  1.48484E+01  1.01962E+01  1.38937E+01  1.03679E+01
   1.42097E+01  2.05389E+01  9.27057E+00  1.20911E+01  1.11251E+01  1.69451E+01  6.53004E+00  1.26463E+01  8.45265E+00  1.33100E+01
   5.58202E+00  8.65651E+00  1.42867E+01  8.75733E+00  9.66411E+00  1.08698E+01  2.27846E+01  2.38259E+01  2.17172E+01  1.77546E+01
   3.26515E+01  3.27577E+01  3.94472E+01  3.75448E+01  3.96528E+01  5.07944E+01  8.30263E+01  1.00515E+02  1.13319E+02  1.21399E+02
   1.28829E+02  1.23302E+02  1.05783E+02  7.68098E+01  6.24956E+01  4.07612E+01  2.25615E+01  1.07897E+01  8.57007E+00  3.95605E+00
   6.30018E+00  4.96940E+00  8.62090E+00  5.91156E+00  8.03065E+00  1.43489E+01  1.04310E+01  8.85428E+00  4.98534E+00  3.63994E+00
   5.24413E+00  7.04265E-01  7.65038E+00 -3.80772E-01  5.04947E+00 -6.99000E+00  3.04863E-01  4.50015E+00  4.98116E+00  1.06394E+00
   2.05423E+00  2.08001E+00  2.31262E-01  4.09000E-01  1.96388E+00 -5.76874E-01  3.74584E+00  5.07988E+00 -2.75361E-01  3.18387E+00
   5.18396E+00  5.06142E+00 -2.62833E+00  5.22060E-01  4.31795E+00  8.00418E+00  1.31931E+01  1.40009E+01  1.19254E+01  1.70113E+01
   1.37079E+01  5.30690E+00  1.01413E+01  6.21360E+00  2.89571E+00  1.13178E+00  5.74183E+00  1.38435E+01  6.51355E+00  6.22775E+00
   8.08104E+00  8.95028E+00  1.59842E+01  1.30849E+01  1.48657E+01  1.43741E+01  1.20020E+01  1.75645E+01  7.41436E+00  1.29465E+01
   1.32820E+01  1.71218E+01  2.03491E+01  1.90539E+01  2.06782E+01  2.77293E+01  2.28627E+01  2.48759E+01  2.33496E+01  3.50620E+01
   2.97316E+01  4.00579E+01  4.06812E+01  4.53317E+01  4.71346E+01  4.59881E+01  3.90702E+01  4.80639E+01  3.84206E+01  4.77861E+01
   3.36772E+01  4.55295E+01  4.33604E+01  4.17458E+01  3.76415E+01  3.94876E+01  3.89113E+01  3.43263E+01  3.75021E+01  4.36157E+01
   3.87126E+01  4.02029E+01  4.24043E+01  3.98440E+01  3.20585E+01  3.47998E+01  2.74825E+01  3.28040E+01  3.51095E+01  3.29483E+01
   3.75427E+01  3.10010E+01  3.29623E+01  2.55242E+01  2.53618E+01  2.50019E+01  2.22619E+01  2.00964E+01  2.01578E+01  2.13383E+01
   2.60359E+01  2.51908E+01  1.86373E+01  1.70469E+01  3.10345E+01  2.34711E+01  2.44753E+01  2.56684E+01  1.84155E+01  2.28218E+01
   2.41274E+01  2.28127E+01  2.82762E+01  2.72528E+01  3.09491E+01  2.43541E+01  2.42568E+01  2.49136E+01  2.40654E+01  2.90855E+01
   2.81297E+01  2.59675E+01  3.60515E+01  2.81908E+01  2.90096E+01  3.21656E+01  3.14226E+01  2.80055E+01  3.09879E+01  2.42506E+01
   2.75772E+01  2.75245E+01  2.34072E+01  2.04672E+01  1.85613E+01  2.10403E+01  2.14291E+01  2.32045E+01  1.07568E+01  1.14668E+01
   1.20366E+01  1.20183E+01  1.57155E+01  1.33939E+01  1.18052E+01  6.90579E+00  8.26173E+00  4.59225E+00  1.29661E+01  5.90870E+00
   4.93762E+00  9.43155E+00  4.86898E+00  3.55820E-01  5.43693E+00  7.33531E-01  4.89663E+00  8.44752E-01  9.34890E+00  4.79928E+00
   7.03799E+00  7.90766E+00  2.52666E+00  1.18970E+01  3.50721E+00  1.56496E+00  6.40375E+00  3.29780E+00  2.21679E+00  1.70027E+00
   4.29450E+00  6.65066E+00  4.76664E+00  7.38034E+00  1.84113E+00  2.83474E+00  2.39064E+00  1.99549E+00  6.21802E+00  8.84422E+00
   3.28347E+00  3.44620E-01 -4.12495E+00  5.74757E+00  7.02669E+00  4.12793E+00  4.85317E-01  2.51942E+00  6.20599E-01  1.25803E+00
   4.18668E+00  2.90214E+00  9.14723E-01  7.45679E+00  3.99870E+00  1.43010E+00  3.79581E+00 -1.44979E+00  3.37504E+00 -2.46684E+00
  -3.67016E-01 -2.18684E+00  1.58880E-01  2.14452E+00  2.07237E+00  6.31401E+00 -4.25995E+00 -5.29029E+00  2.77012E+00  5.83206E+00
   1.60910E+00  1.59280E+00 -2.20447E+00 -1.34670E+00 -2.30453E+00 -3.39394E+00  1.74222E+00  3.98959E+00
 NY points of the fit to the data follow
   6.00613E+01  5.93826E+01  5.96100E+01  6.06854E+01  6.32541E+01  6.82556E+01  7.51791E+01  8.42380E+01  9.47167E+01  1.04209E+02
   1.10774E+02  1.13639E+02  1.12104E+02  1.05905E+02  9.62220E+01  8.56415E+01  7.65352E+01  6.95417E+01  6.43582E+01  6.03864E+01
   5.75182E+01  5.58837E+01  5.49560E+01  5.46458E+01  5.48052E+01  5.61008E+01  5.88255E+01  6.23487E+01  6.60973E+01  6.96504E+01
   7.22611E+01  7.28478E+01  7.09491E+01  6.72923E+01  6.27655E+01  5.79103E+01  5.34323E+01  4.97797E+01  4.72854E+01  4.65803E+01
   4.76469E+01  5.00655E+01  5.35676E+01  5.77857E+01  6.17789E+01  6.44433E+01  6.53940E+01  6.43986E+01  6.12385E+01  5.64096E+01
   5.11081E+01  4.66500E+01  4.36823E+01  4.20395E+01  4.14617E+01  4.18386E+01  4.29695E+01  4.42733E+01  4.50973E+01  4.51161E+01
   4.42877E+01  4.26671E+01  4.06083E+01  3.85990E+01  3.71368E+01  3.64436E+01  3.64346E+01  3.69454E+01  3.77132E+01  3.83872E+01
   3.87726E+01  3.87890E+01  3.83943E+01  3.76211E+01  3.65956E+01  3.55269E+01  3.45738E+01  3.37540E+01  3.30245E+01  3.22457E+01
   3.13426E+01  3.01954E+01  2.86813E+01  2.68123E+01  2.47635E+01  2.28094E+01  2.12442E+01  2.03332E+01  2.02714E+01  2.10962E+01
   2.24982E+01  2.40769E+01  2.54628E+01  2.64073E+01  2.68785E+01  2.71952E+01  2.88801E+01  3.36406E+01  4.15904E+01  5.41302E+01
   6.97231E+01  8.43658E+01  9.53407E+01  1.01109E+02  9.96845E+01  9.04043E+01  7.56874E+01  6.01376E+01  4.72513E+01  3.75756E+01
   3.04261E+01  2.51560E+01  2.19147E+01  2.08315E+01  2.04863E+01  2.03010E+01  2.01943E+01  2.02164E+01  2.04951E+01  2.14034E+01
   2.42955E+01  3.06834E+01  4.05555E+01  5.47401E+01  7.16354E+01  8.73942E+01  9.92859E+01  1.05723E+02  1.04792E+02  9.58485E+01
   8.10615E+01  6.46605E+01  5.01832E+01  3.84761E+01  2.91460E+01  2.19611E+01  1.74150E+01  1.59455E+01  1.62505E+01  1.72882E+01
   1.84688E+01  1.93980E+01  1.98779E+01  1.98770E+01  1.94721E+01  1.88632E+01  1.82097E+01  1.75534E+01  1.69344E+01  1.63690E+01
   1.58561E+01  1.54284E+01  1.50998E+01  1.48407E+01  1.45490E+01  1.42090E+01  1.37200E+01  1.30697E+01  1.24060E+01  1.17688E+01
   1.12554E+01  1.09013E+01  1.06391E+01  1.03772E+01  9.97605E+00  9.25806E+00  8.20415E+00  6.99095E+00  5.82794E+00  4.74653E+00
   3.67879E+00  2.60731E+00  1.54011E+00  6.40430E-01 -2.53051E-02 -5.09734E-01 -8.61038E-01 -1.05244E+00 -1.13011E+00 -1.26255E+00
  -1.65388E+00 -2.15474E+00 -2.52634E+00 -2.54405E+00 -2.05539E+00 -1.06066E+00  4.43554E-01  2.44753E+00  4.70661E+00  6.69283E+00
   7.85695E+00  7.90940E+00  7.01908E+00  5.43068E+00  3.60451E+00  2.12884E+00  1.40903E+00  1.64375E+00  2.84382E+00  4.89530E+00
   7.38541E+00  9.66336E+00  1.11283E+01  1.12472E+01  1.00274E+01  7.51399E+00  3.96712E+00  2.22910E-01 -2.80558E+00 -4.25855E+00
  -3.55240E+00 -6.17514E-01  4.17554E+00  9.57906E+00  1.41082E+01  1.67155E+01  1.66466E+01  1.35916E+01  8.09411E+00  1.52757E+00
  -3.94905E+00 -7.00848E+00 -7.48918E+00 -5.43455E+00 -1.29908E+00  3.92272E+00  8.79766E+00  1.20925E+01  1.37044E+01  1.41773E+01
   1.41145E+01  1.38233E+01  1.36565E+01  1.40768E+01  1.50139E+01  1.58576E+01  1.61137E+01  1.57111E+01  1.46044E+01  1.29211E+01
   1.11424E+01  1.00069E+01  9.92092E+00  1.08800E+01  1.27103E+01  1.50197E+01  1.73208E+01  1.91491E+01  2.04870E+01  2.18051E+01
   2.33935E+01  2.55267E+01  2.88187E+01  3.56039E+01  4.58981E+01  6.02019E+01  7.90899E+01  9.86302E+01  1.14285E+02  1.24235E+02
   1.26844E+02  1.19694E+02  1.03089E+02  8.15763E+01  6.11783E+01  4.48230E+01  3.21920E+01  2.23237E+01  1.47805E+01  1.04575E+01
   8.52320E+00  7.35980E+00  6.59185E+00  6.09339E+00  5.73234E+00  5.34789E+00  4.86884E+00  4.28545E+00  3.65733E+00  3.05589E+00
   2.52055E+00  2.06590E+00  1.71378E+00  1.47977E+00  1.34234E+00  1.26584E+00  1.23122E+00  1.23704E+00  1.28900E+00  1.39027E+00
   1.53777E+00  1.73452E+00  1.97872E+00  2.26253E+00  2.57552E+00  2.91171E+00  3.26947E+00  3.64635E+00  4.03723E+00  4.43786E+00
   4.84238E+00  5.24315E+00  5.62958E+00  5.99051E+00  6.31784E+00  6.60666E+00  6.85515E+00  7.06439E+00  7.23763E+00  7.38132E+00
   7.50361E+00  7.61387E+00  7.72324E+00  7.84408E+00  7.98943E+00  8.17354E+00  8.41182E+00  8.72155E+00  9.12451E+00  9.65669E+00
   1.03781E+01  1.12564E+01  1.22386E+01  1.32677E+01  1.41476E+01  1.47399E+01  1.50440E+01  1.50754E+01  1.49384E+01  1.48848E+01
   1.51948E+01  1.61795E+01  1.78692E+01  2.00340E+01  2.24646E+01  2.50155E+01  2.75012E+01  2.96699E+01  3.13924E+01  3.28055E+01
   3.41360E+01  3.54759E+01  3.67911E+01  3.80480E+01  3.91270E+01  3.99281E+01  4.03879E+01  4.04928E+01  4.03134E+01  4.00094E+01
   3.98156E+01  4.00054E+01  4.06086E+01  4.14334E+01  4.23089E+01  4.31064E+01  4.36744E+01  4.38441E+01  4.35300E+01  4.28507E+01
   4.19588E+01  4.09352E+01  3.98109E+01  3.85991E+01  3.73529E+01  3.61142E+01  3.48687E+01  3.36153E+01  3.23619E+01  3.11200E+01
   2.99016E+01  2.87192E+01  2.75844E+01  2.65085E+01  2.55015E+01  2.45724E+01  2.37293E+01  2.29792E+01  2.23284E+01  2.17817E+01
   2.13431E+01  2.10159E+01  2.08021E+01  2.07030E+01  2.07185E+01  2.08472E+01  2.10864E+01  2.14315E+01  2.18764E+01  2.24127E+01
   2.30300E+01  2.37153E+01  2.44536E+01  2.52276E+01  2.60180E+01  2.68041E+01  2.75639E+01  2.82749E+01  2.89148E+01  2.94624E+01
   2.98983E+01  3.02057E+01  3.03708E+01  3.03837E+01  3.02388E+01  2.99349E+01  2.94750E+01  2.88666E+01  2.81204E+01  2.72509E+01
   2.62747E+01  2.52104E+01  2.40772E+01  2.28949E+01  2.16823E+01  2.04575E+01  1.92369E+01  1.80348E+01  1.68635E+01  1.57330E+01
   1.46510E+01  1.36232E+01  1.26534E+01  1.17436E+01  1.08943E+01  1.01050E+01  9.37400E+00  8.69910E+00  8.07753E+00  7.50618E+00
   6.98174E+00  6.50084E+00  6.06019E+00  5.65663E+00  5.28707E+00  4.94863E+00  4.63858E+00  4.35444E+00  4.09396E+00  3.85508E+00
   3.63589E+00  3.43465E+00  3.24977E+00  3.07987E+00  2.92369E+00  2.78010E+00  2.64801E+00  2.52647E+00  2.41463E+00  2.31172E+00
   2.21709E+00  2.13008E+00  2.05011E+00  1.97664E+00  1.90920E+00  1.84741E+00  1.79087E+00  1.73922E+00  1.69210E+00  1.64920E+00
   1.61027E+00  1.57508E+00  1.54339E+00  1.51497E+00  1.48962E+00  1.46714E+00  1.44739E+00  1.43022E+00  1.41549E+00  1.40303E+00
   1.39271E+00  1.38444E+00  1.37813E+00  1.37368E+00  1.37098E+00  1.36993E+00  1.37043E+00  1.37244E+00  1.37589E+00  1.38071E+00
   1.38682E+00  1.39413E+00  1.40262E+00  1.41224E+00  1.42296E+00  1.43471E+00  1.44744E+00  1.46109E+00  1.47564E+00  1.49108E+00
   1.50737E+00  1.52446E+00  1.54230E+00  1.56087E+00  1.58017E+00  1.60018E+00  1.62088E+00  1.64222E+00
 NY background values follow
     5.132E+01    5.100E+01    5.068E+01    5.036E+01    5.003E+01    4.971E+01    4.939E+01    4.906E+01    4.874E+01    4.842E+01
     4.810E+01    4.777E+01    4.745E+01    4.713E+01    4.680E+01    4.648E+01    4.616E+01    4.584E+01    4.551E+01    4.519E+01
     4.487E+01    4.454E+01    4.422E+01    4.390E+01    4.358E+01    4.326E+01    4.293E+01    4.261E+01    4.229E+01    4.197E+01
     4.165E+01    4.133E+01    4.101E+01    4.068E+01    4.036E+01    4.004E+01    3.972E+01    3.940E+01    3.908E+01    3.876E+01
     3.845E+01    3.813E+01    3.781E+01    3.749E+01    3.717E+01    3.685E+01    3.654E+01    3.622E+01    3.590E+01    3.559E+01
     3.527E+01    3.495E+01    3.464E+01    3.432E+01    3.401E+01    3.370E+01    3.338E+01    3.307E+01    3.276E+01    3.245E+01
     3.214E+01    3.183E+01    3.152E+01    3.121E+01    3.090E+01    3.059E+01    3.028E+01    2.998E+01    2.967E+01    2.937E+01
     2.906E+01    2.876E+01    2.846E+01    2.816E+01    2.786E+01    2.756E+01    2.726E+01    2.696E+01    2.667E+01    2.637E+01
     2.607E+01    2.578E+01    2.549E+01    2.520E+01    2.491E+01    2.462E+01    2.433E+01    2.404E+01    2.375E+01    2.347E+01
     2.319E+01    2.290E+01    2.262E+01    2.234E+01    2.206E+01    2.179E+01    2.151E+01    2.123E+01    2.096E+01    2.069E+01
     2.042E+01    2.015E+01    1.988E+01    1.961E+01    1.934E+01    1.908E+01    1.881E+01    1.855E+01    1.829E+01    1.803E+01
     1.777E+01    1.751E+01    1.725E+01    1.700E+01    1.674E+01    1.649E+01    1.624E+01    1.599E+01    1.574E+01    1.549E+01
     1.524E+01    1.500E+01    1.475E+01    1.451E+01    1.427E+01    1.403E+01    1.379E+01    1.355E+01    1.331E+01    1.308E+01
     1.284E+01    1.261E+01    1.238E+01    1.214E+01    1.191E+01    1.169E+01    1.146E+01    1.123E+01    1.101E+01    1.078E+01
     1.056E+01    1.034E+01    1.012E+01    9.902E+00    9.685E+00    9.469E+00    9.254E+00    9.041E+00    8.829E+00    8.618E+00
     8.409E+00    8.201E+00    7.995E+00    7.790E+00    7.586E+00    7.383E+00    7.182E+00    6.983E+00    6.785E+00    6.588E+00
     6.393E+00    6.199E+00    6.006E+00    5.816E+00    5.626E+00    5.438E+00    5.252E+00    5.067E+00    4.884E+00    4.702E+00
     4.521E+00    4.343E+00    4.165E+00    3.990E+00    3.816E+00    3.643E+00    3.472E+00    3.303E+00    3.135E+00    2.969E+00
     2.805E+00    2.642E+00    2.481E+00    2.321E+00    2.163E+00    2.007E+00    1.852E+00    1.699E+00    1.548E+00    1.398E+00
     1.250E+00    1.103E+00    9.576E-01    8.139E-01    6.718E-01    5.312E-01    3.921E-01    2.546E-01    1.186E-01   -1.597E-02
    -1.490E-01   -2.806E-01   -4.107E-01   -5.393E-01   -6.665E-01   -7.922E-01   -9.165E-01   -1.039E+00   -1.161E+00   -1.281E+00
    -1.399E+00   -1.517E+00   -1.632E+00   -1.747E+00   -1.860E+00   -1.972E+00   -2.082E+00   -2.191E+00   -2.299E+00   -2.405E+00
    -2.510E+00   -2.614E+00   -2.716E+00   -2.818E+00   -2.917E+00   -3.016E+00   -3.113E+00   -3.209E+00   -3.304E+00   -3.398E+00
    -3.490E+00   -3.581E+00   -3.671E+00   -3.759E+00   -3.847E+00   -3.933E+00   -4.018E+00   -4.101E+00   -4.184E+00   -4.265E+00
    -4.345E+00   -4.424E+00   -4.501E+00   -4.578E+00   -4.653E+00   -4.727E+00   -4.800E+00   -4.871E+00   -4.942E+00   -5.011E+00
    -5.079E+00   -5.146E+00   -5.212E+00   -5.276E+00   -5.340E+00   -5.402E+00   -5.463E+00   -5.523E+00   -5.582E+00   -5.639E+00
    -5.696E+00   -5.751E+00   -5.806E+00   -5.859E+00   -5.911E+00   -5.961E+00   -6.011E+00   -6.060E+00   -6.107E+00   -6.154E+00
    -6.199E+00   -6.243E+00   -6.286E+00   -6.328E+00   -6.369E+00   -6.409E+00   -6.448E+00   -6.486E+00   -6.522E+00   -6.558E+00
    -6.592E+00   -6.626E+00   -6.658E+00   -6.690E+00   -6.720E+00   -6.750E+00   -6.778E+00   -6.805E+00   -6.832E+00   -6.857E+00
    -6.882E+00   -6.905E+00   -6.927E+00   -6.949E+00   -6.969E+00   -6.989E+00   -7.007E+00   -7.025E+00   -7.042E+00   -7.057E+00
    -7.072E+00   -7.086E+00   -7.099E+00   -7.111E+00   -7.122E+00   -7.132E+00   -7.142E+00   -7.150E+00   -7.158E+00   -7.164E+00
    -7.170E+00   -7.175E+00   -7.179E+00   -7.182E+00   -7.185E+00   -7.186E+00   -7.187E+00   -7.187E+00   -7.186E+00   -7.184E+00
    -7.181E+00   -7.178E+00   -7.174E+00   -7.169E+00   -7.163E+00   -7.156E+00   -7.149E+00   -7.141E+00   -7.132E+00   -7.122E+00
    -7.112E+00   -7.101E+00   -7.089E+00   -7.077E+00   -7.063E+00   -7.050E+00   -7.035E+00   -7.020E+00   -7.004E+00   -6.987E+00
    -6.970E+00   -6.952E+00   -6.933E+00   -6.914E+00   -6.894E+00   -6.873E+00   -6.852E+00   -6.831E+00   -6.808E+00   -6.785E+00
    -6.762E+00   -6.737E+00   -6.713E+00   -6.687E+00   -6.661E+00   -6.635E+00   -6.608E+00   -6.581E+00   -6.552E+00   -6.524E+00
    -6.495E+00   -6.465E+00   -6.435E+00   -6.404E+00   -6.373E+00   -6.342E+00   -6.309E+00   -6.277E+00   -6.244E+00   -6.210E+00
    -6.176E+00   -6.142E+00   -6.107E+00   -6.072E+00   -6.036E+00   -6.000E+00   -5.963E+00   -5.926E+00   -5.889E+00   -5.851E+00
    -5.813E+00   -5.775E+00   -5.736E+00   -5.696E+00   -5.657E+00   -5.617E+00   -5.576E+00   -5.535E+00   -5.494E+00   -5.453E+00
    -5.411E+00   -5.369E+00   -5.327E+00   -5.284E+00   -5.241E+00   -5.198E+00   -5.154E+00   -5.110E+00   -5.066E+00   -5.022E+00
    -4.977E+00   -4.932E+00   -4.887E+00   -4.842E+00   -4.796E+00   -4.750E+00   -4.704E+00   -4.658E+00   -4.611E+00   -4.564E+00
    -4.517E+00   -4.470E+00   -4.423E+00   -4.375E+00   -4.328E+00   -4.280E+00   -4.232E+00   -4.183E+00   -4.135E+00   -4.087E+00
    -4.038E+00   -3.989E+00   -3.940E+00   -3.891E+00   -3.842E+00   -3.793E+00   -3.744E+00   -3.695E+00   -3.645E+00   -3.596E+00
    -3.546E+00   -3.496E+00   -3.447E+00   -3.397E+00   -3.347E+00   -3.297E+00   -3.248E+00   -3.198E+00   -3.148E+00   -3.098E+00
    -3.048E+00   -2.998E+00   -2.948E+00   -2.899E+00   -2.849E+00   -2.799E+00   -2.749E+00   -2.700E+00   -2.650E+00   -2.600E+00
    -2.551E+00   -2.501E+00   -2.452E+00   -2.403E+00   -2.354E+00   -2.305E+00   -2.255E+00   -2.207E+00   -2.158E+00   -2.109E+00
    -2.060E+00   -2.012E+00   -1.963E+00   -1.914E+00   -1.866E+00   -1.818E+00   -1.769E+00   -1.721E+00   -1.673E+00   -1.625E+00
    -1.577E+00   -1.529E+00   -1.481E+00   -1.433E+00   -1.385E+00   -1.337E+00   -1.289E+00   -1.241E+00   -1.194E+00   -1.146E+00
    -1.098E+00   -1.051E+00   -1.003E+00   -9.557E-01   -9.082E-01   -8.608E-01   -8.133E-01   -7.659E-01   -7.185E-01   -6.712E-01
    -6.238E-01   -5.765E-01   -5.292E-01   -4.819E-01   -4.346E-01   -3.873E-01   -3.400E-01   -2.928E-01
 Ala      Conc. = 2.67E+02
