 LCModel (Version 6.3-1L) Copyright: S.W. Provencher.          Ref.: Magn. Reson. Med. 30:672-679 (1993).                
 Slice#2 Row#2 Col#12  K_02_press_1_raw_act
 36 lines in following concentration table = NCONC+1
    Conc.  %SD /Cr+PCr  Metabolite                                         
 4.29E+03  41%   0.000 Ala                                                 
   16.138  54%   0.000 Asp                                                 
    0.000 999%   0.000 Cr                                                  
    0.000 999%   0.000 PCr                                                 
    9.683  54%   0.000 GABA                                                
    9.683  54%   0.000 Glc                                                 
    0.000 999%   0.000 Gln                                                 
 3.37E+03  41%   0.000 Glu                                                 
    0.000 999%   0.000 GPC                                                 
    0.000 999%   0.000 PCh                                                 
    0.000 999%   0.000 GSH                                                 
  197.911 238%   0.000 Ins                                                 
 1.20E+03 127%   0.000 Lac                                                 
  322.771  54%   0.000 NAA                                                 
    0.000 999%   0.000 NAAG                                                
    3.228  54%   0.000 Scyllo                                              
   16.138  54%   0.000 Tau                                                 
    0.000 999%   0.000 -CrCH2                                              
    0.000 999%   0.000 GPC+PCh                                             
  322.771  54%   0.000 NAA+NAAG                                            
    0.000 999%   0.000 Cr+PCr                                              
 3.37E+03  41%   0.000 Glu+Gln                                             
 6.98E+04  20%   0.000 Lip13a                                              
    0.000 999%   0.000 Lip13b                                              
 1.21E+04  27%   0.000 Lip09                                               
 1.03E+04  28%   0.000 MM09                                                
    0.000 999%   0.000 Lip20                                               
    0.000 999%   0.000 MM20                                                
 6.17E+03  35%   0.000 MM12                                                
 1.43E+05   7%   0.000+MM14                                                
 6.86E+04  12%   0.000+MM17                                                
 6.98E+04  20%   0.000 Lip13a+Lip13b                                       
 2.19E+05   7%   0.000 MM14+Lip13a+Lip13b+MM12                             
 2.23E+04  17%   0.000 MM09+Lip09                                          
    0.000 999%   0.000 MM20+Lip20                                          
   6 lines in following misc. output table
  FWHM = 0.138 ppm    S/N =  56                                            
  Data shift = 0.252 ppm                                                   
  Ph: -23 deg     -22.8 deg/ppm                                            
  alphaB,S = 8.5E+01,   1.0E+02                                            
    6 spline knots.   Ns = 9(2)                                            
   2 inflections.     2 extrema                                            
  498 points on ppm-axis = NY
      4.000000     3.992357     3.984714     3.977070     3.969427     3.961784     3.954141     3.946497     3.938854     3.931211
      3.923568     3.915925     3.908281     3.900638     3.892995     3.885352     3.877708     3.870065     3.862422     3.854779
      3.847136     3.839492     3.831849     3.824206     3.816563     3.808919     3.801276     3.793633     3.785990     3.778347
      3.770703     3.763060     3.755417     3.747774     3.740130     3.732487     3.724844     3.717201     3.709558     3.701914
      3.694271     3.686628     3.678985     3.671341     3.663698     3.656055     3.648412     3.640769     3.633125     3.625482
      3.617839     3.610196     3.602552     3.594909     3.587266     3.579623     3.571980     3.564336     3.556693     3.549050
      3.541407     3.533763     3.526120     3.518477     3.510834     3.503191     3.495547     3.487904     3.480261     3.472618
      3.464974     3.457331     3.449688     3.442045     3.434402     3.426758     3.419115     3.411472     3.403829     3.396185
      3.388542     3.380899     3.373256     3.365613     3.357969     3.350326     3.342683     3.335040     3.327396     3.319753
      3.312110     3.304467     3.296824     3.289180     3.281537     3.273894     3.266251     3.258607     3.250964     3.243321
      3.235678     3.228034     3.220391     3.212748     3.205105     3.197462     3.189818     3.182175     3.174532     3.166889
      3.159245     3.151602     3.143959     3.136316     3.128673     3.121029     3.113386     3.105743     3.098100     3.090456
      3.082813     3.075170     3.067527     3.059884     3.052240     3.044597     3.036954     3.029311     3.021667     3.014024
      3.006381     2.998738     2.991095     2.983451     2.975808     2.968165     2.960522     2.952878     2.945235     2.937592
      2.929949     2.922306     2.914662     2.907019     2.899376     2.891733     2.884089     2.876446     2.868803     2.861160
      2.853517     2.845873     2.838230     2.830587     2.822944     2.815300     2.807657     2.800014     2.792371     2.784728
      2.777084     2.769441     2.761798     2.754155     2.746511     2.738868     2.731225     2.723582     2.715939     2.708295
      2.700652     2.693009     2.685366     2.677722     2.670079     2.662436     2.654793     2.647150     2.639506     2.631863
      2.624220     2.616577     2.608933     2.601290     2.593647     2.586004     2.578361     2.570717     2.563074     2.555431
      2.547788     2.540144     2.532501     2.524858     2.517215     2.509572     2.501928     2.494285     2.486642     2.478999
      2.471355     2.463712     2.456069     2.448426     2.440783     2.433139     2.425496     2.417853     2.410210     2.402566
      2.394923     2.387280     2.379637     2.371994     2.364350     2.356707     2.349064     2.341421     2.333777     2.326134
      2.318491     2.310848     2.303205     2.295561     2.287918     2.280275     2.272632     2.264988     2.257345     2.249702
      2.242059     2.234416     2.226772     2.219129     2.211486     2.203843     2.196199     2.188556     2.180913     2.173270
      2.165627     2.157983     2.150340     2.142697     2.135054     2.127410     2.119767     2.112124     2.104481     2.096838
      2.089194     2.081551     2.073908     2.066265     2.058621     2.050978     2.043335     2.035692     2.028049     2.020405
      2.012762     2.005119     1.997476     1.989833     1.982190     1.974546     1.966903     1.959260     1.951617     1.943974
      1.936331     1.928688     1.921045     1.913402     1.905759     1.898115     1.890472     1.882829     1.875186     1.867543
      1.859900     1.852257     1.844614     1.836971     1.829327     1.821684     1.814041     1.806398     1.798755     1.791112
      1.783469     1.775826     1.768183     1.760540     1.752896     1.745253     1.737610     1.729967     1.722324     1.714681
      1.707038     1.699395     1.691752     1.684108     1.676465     1.668822     1.661179     1.653536     1.645893     1.638250
      1.630607     1.622964     1.615321     1.607677     1.600034     1.592391     1.584748     1.577105     1.569462     1.561819
      1.554176     1.546533     1.538890     1.531246     1.523603     1.515960     1.508317     1.500674     1.493031     1.485388
      1.477745     1.470102     1.462458     1.454815     1.447172     1.439529     1.431886     1.424243     1.416600     1.408957
      1.401314     1.393671     1.386027     1.378384     1.370741     1.363098     1.355455     1.347812     1.340169     1.332526
      1.324883     1.317240     1.309596     1.301953     1.294310     1.286667     1.279024     1.271381     1.263738     1.256095
      1.248452     1.240808     1.233165     1.225522     1.217879     1.210236     1.202593     1.194950     1.187307     1.179664
      1.172021     1.164377     1.156734     1.149091     1.141448     1.133805     1.126162     1.118519     1.110876     1.103233
      1.095590     1.087946     1.080303     1.072660     1.065017     1.057374     1.049731     1.042088     1.034445     1.026802
      1.019158     1.011515     1.003872     0.996229     0.988586     0.980943     0.973300     0.965657     0.958014     0.950371
      0.942727     0.935084     0.927441     0.919798     0.912155     0.904512     0.896869     0.889226     0.881583     0.873940
      0.866296     0.858653     0.851010     0.843367     0.835724     0.828081     0.820438     0.812795     0.805152     0.797508
      0.789865     0.782222     0.774579     0.766936     0.759293     0.751650     0.744007     0.736364     0.728721     0.721077
      0.713434     0.705791     0.698148     0.690505     0.682862     0.675219     0.667576     0.659933     0.652290     0.644646
      0.637003     0.629360     0.621717     0.614074     0.606431     0.598788     0.591145     0.583502     0.575858     0.568215
      0.560572     0.552929     0.545286     0.537643     0.530000     0.522357     0.514714     0.507071     0.499427     0.491784
      0.484141     0.476498     0.468855     0.461212     0.453569     0.445925     0.438282     0.430639     0.422996     0.415353
      0.407710     0.400067     0.392424     0.384780     0.377137     0.369494     0.361851     0.354208     0.346565     0.338922
      0.331278     0.323635     0.315992     0.308349     0.300706     0.293063     0.285420     0.277777     0.270133     0.262490
      0.254847     0.247204     0.239561     0.231918     0.224275     0.216631     0.208988     0.201345
 NY phased data points follow
   5.19620E+01  5.55570E+01  5.64136E+01  5.58296E+01  5.77655E+01  5.65913E+01  5.43127E+01  5.57739E+01  5.30841E+01  5.38868E+01
   5.78270E+01  5.52791E+01  5.43148E+01  5.27329E+01  5.51570E+01  5.37621E+01  5.85680E+01  5.64365E+01  5.52487E+01  5.53949E+01
   5.58070E+01  5.53312E+01  5.70951E+01  5.73611E+01  5.80046E+01  5.47915E+01  5.34817E+01  5.67929E+01  5.83820E+01  5.65438E+01
   5.73880E+01  5.40851E+01  5.51758E+01  5.99564E+01  5.31956E+01  5.69844E+01  5.81074E+01  5.82644E+01  5.24787E+01  5.48643E+01
   5.44208E+01  5.88514E+01  5.22982E+01  5.68945E+01  5.82928E+01  5.58747E+01  5.34145E+01  5.97398E+01  5.62768E+01  5.60703E+01
   5.47284E+01  5.68224E+01  5.51835E+01  5.28362E+01  5.86307E+01  5.64800E+01  5.58467E+01  5.87628E+01  5.74341E+01  5.42526E+01
   5.75514E+01  5.58412E+01  5.38176E+01  5.98240E+01  5.43160E+01  5.53087E+01  5.43302E+01  5.69308E+01  5.69257E+01  5.56471E+01
   5.57099E+01  5.65679E+01  5.78556E+01  5.77052E+01  5.53549E+01  5.68755E+01  5.71785E+01  5.63595E+01  5.79010E+01  6.13509E+01
   6.06769E+01  5.62385E+01  5.64007E+01  5.72340E+01  5.77360E+01  6.07122E+01  5.75400E+01  5.78723E+01  5.71311E+01  5.96757E+01
   5.94200E+01  5.69545E+01  6.14128E+01  6.06171E+01  5.72625E+01  5.71169E+01  5.88894E+01  5.77701E+01  5.88252E+01  5.75553E+01
   5.89339E+01  5.78804E+01  5.64952E+01  5.68284E+01  6.36007E+01  6.01118E+01  6.06544E+01  5.89551E+01  6.15395E+01  5.91973E+01
   5.97847E+01  6.03743E+01  5.80734E+01  6.02993E+01  6.23889E+01  5.99704E+01  6.13046E+01  6.05661E+01  6.19560E+01  5.82738E+01
   6.04214E+01  5.84110E+01  5.89795E+01  6.11378E+01  5.89204E+01  6.04470E+01  5.85140E+01  6.11918E+01  6.10931E+01  6.07019E+01
   5.86647E+01  5.81004E+01  6.00298E+01  6.40657E+01  5.64455E+01  5.97069E+01  6.32282E+01  6.20866E+01  5.62731E+01  6.09498E+01
   6.16500E+01  6.13891E+01  6.06834E+01  6.13387E+01  5.94548E+01  6.24503E+01  6.04919E+01  6.32722E+01  6.27563E+01  6.24200E+01
   6.22070E+01  6.19014E+01  6.53443E+01  6.58602E+01  6.66887E+01  6.41558E+01  6.75401E+01  6.57443E+01  7.04992E+01  6.66916E+01
   6.89941E+01  7.20092E+01  7.22430E+01  7.35529E+01  7.31900E+01  7.21999E+01  7.53688E+01  7.30385E+01  7.11817E+01  7.40643E+01
   7.53405E+01  7.25811E+01  7.51183E+01  7.53941E+01  7.68215E+01  7.70871E+01  8.14230E+01  8.02110E+01  7.76975E+01  8.07249E+01
   8.11026E+01  8.04494E+01  7.81806E+01  8.08241E+01  8.38255E+01  8.16551E+01  8.41178E+01  8.21197E+01  7.86768E+01  8.31990E+01
   8.20051E+01  8.34082E+01  8.29290E+01  8.52677E+01  8.44953E+01  8.14465E+01  8.45106E+01  8.74806E+01  8.80329E+01  8.72121E+01
   9.00755E+01  8.88075E+01  8.85588E+01  8.18298E+01  8.74624E+01  8.98710E+01  8.77189E+01  8.85284E+01  8.71575E+01  8.76470E+01
   8.80980E+01  8.62000E+01  8.62470E+01  8.74477E+01  9.11140E+01  8.92148E+01  8.58805E+01  8.75331E+01  8.91826E+01  8.84724E+01
   9.03866E+01  8.93877E+01  8.71815E+01  9.12368E+01  8.79239E+01  8.96044E+01  8.94617E+01  9.01973E+01  8.94834E+01  9.03827E+01
   9.02051E+01  9.32543E+01  9.28504E+01  8.88221E+01  8.88390E+01  9.02045E+01  9.18428E+01  9.24278E+01  9.35316E+01  9.68577E+01
   9.97679E+01  1.01450E+02  1.04532E+02  1.03855E+02  1.01367E+02  1.05486E+02  1.09530E+02  1.09267E+02  1.10884E+02  1.12373E+02
   1.14806E+02  1.18621E+02  1.20608E+02  1.20396E+02  1.23333E+02  1.24709E+02  1.32757E+02  1.29929E+02  1.35539E+02  1.39713E+02
   1.40888E+02  1.49377E+02  1.50455E+02  1.58332E+02  1.61042E+02  1.65098E+02  1.72419E+02  1.76625E+02  1.79905E+02  1.90859E+02
   1.99011E+02  2.07914E+02  2.15544E+02  2.23607E+02  2.35285E+02  2.43745E+02  2.54098E+02  2.62341E+02  2.77377E+02  2.89052E+02
   3.04796E+02  3.19484E+02  3.34923E+02  3.52408E+02  3.71968E+02  3.87961E+02  4.07390E+02  4.30020E+02  4.51402E+02  4.78312E+02
   4.99416E+02  5.34366E+02  5.56564E+02  5.84844E+02  6.16160E+02  6.48911E+02  6.80040E+02  7.15000E+02  7.46408E+02  7.79688E+02
   8.09779E+02  8.31746E+02  8.51376E+02  8.68777E+02  8.77202E+02  8.84004E+02  8.81607E+02  8.79252E+02  8.72041E+02  8.64544E+02
   8.55782E+02  8.46368E+02  8.36384E+02  8.21379E+02  8.10418E+02  7.94716E+02  7.80091E+02  7.60944E+02  7.39615E+02  7.15530E+02
   6.97366E+02  6.64379E+02  6.39172E+02  6.11651E+02  5.86261E+02  5.58484E+02  5.36780E+02  5.12659E+02  4.93730E+02  4.74283E+02
   4.56731E+02  4.44787E+02  4.33796E+02  4.18751E+02  4.04082E+02  3.94413E+02  3.89029E+02  3.85238E+02  3.71716E+02  3.63345E+02
   3.61136E+02  3.52335E+02  3.47210E+02  3.43093E+02  3.40287E+02  3.35971E+02  3.31670E+02  3.25386E+02  3.26476E+02  3.22966E+02
   3.22333E+02  3.17505E+02  3.17952E+02  3.14141E+02  3.12096E+02  3.08902E+02  3.10119E+02  3.06390E+02  3.05673E+02  3.02434E+02
   2.99344E+02  2.97342E+02  2.99346E+02  2.95742E+02  2.90616E+02  2.90662E+02  2.89613E+02  2.89428E+02  2.84667E+02  2.87659E+02
   2.84989E+02  2.75842E+02  2.78859E+02  2.74855E+02  2.71246E+02  2.67276E+02  2.62906E+02  2.62671E+02  2.57498E+02  2.54879E+02
   2.49792E+02  2.47256E+02  2.44234E+02  2.40208E+02  2.38933E+02  2.32073E+02  2.36049E+02  2.28976E+02  2.25710E+02  2.20969E+02
   2.16413E+02  2.12405E+02  2.12236E+02  2.09402E+02  2.08571E+02  2.01838E+02  2.01234E+02  2.00335E+02  1.98273E+02  1.93996E+02
   1.93046E+02  1.87291E+02  1.83425E+02  1.85356E+02  1.84059E+02  1.79753E+02  1.77755E+02  1.74825E+02  1.72570E+02  1.67928E+02
   1.67838E+02  1.68510E+02  1.62967E+02  1.61718E+02  1.59985E+02  1.56746E+02  1.54842E+02  1.58654E+02  1.51753E+02  1.52117E+02
   1.47920E+02  1.47112E+02  1.44510E+02  1.44149E+02  1.44068E+02  1.40480E+02  1.39197E+02  1.37688E+02  1.35669E+02  1.34501E+02
   1.30657E+02  1.35626E+02  1.29796E+02  1.29209E+02  1.26515E+02  1.28713E+02  1.28145E+02  1.26769E+02  1.21719E+02  1.25479E+02
   1.18602E+02  1.17989E+02  1.17343E+02  1.22497E+02  1.15465E+02  1.15814E+02  1.14779E+02  1.14931E+02  1.14898E+02  1.14924E+02
   1.12135E+02  1.13187E+02  1.10058E+02  1.10162E+02  1.04577E+02  1.06852E+02  1.08366E+02  1.05681E+02  1.04880E+02  1.03941E+02
   1.03704E+02  1.03204E+02  1.03162E+02  9.86030E+01  1.00783E+02  9.98179E+01  9.35846E+01  9.73516E+01  9.69814E+01  9.82308E+01
   9.88353E+01  9.55143E+01  9.45721E+01  9.36292E+01  9.39553E+01  9.27052E+01  9.12076E+01  8.92904E+01  9.28581E+01  8.90936E+01
   9.61940E+01  8.79812E+01  9.17708E+01  9.07682E+01  8.57821E+01  8.78027E+01  8.73851E+01  8.94946E+01  8.71562E+01  8.54750E+01
   8.24682E+01  8.78189E+01  8.50159E+01  8.40797E+01  8.49157E+01  8.60842E+01  8.08138E+01  8.15275E+01
 NY points of the fit to the data follow
   5.25082E+01  5.30260E+01  5.29722E+01  5.32723E+01  5.32454E+01  5.33331E+01  5.28035E+01  5.22557E+01  5.17269E+01  5.11070E+01
   5.12302E+01  5.10467E+01  5.19463E+01  5.27872E+01  5.41019E+01  5.48793E+01  5.53843E+01  5.56637E+01  5.52112E+01  5.52150E+01
   5.40302E+01  5.44276E+01  5.30407E+01  5.41454E+01  5.27325E+01  5.45405E+01  5.30735E+01  5.53397E+01  5.38059E+01  5.61842E+01
   5.45653E+01  5.67122E+01  5.50053E+01  5.68775E+01  5.53230E+01  5.68861E+01  5.55780E+01  5.67567E+01  5.58245E+01  5.65502E+01
   5.57826E+01  5.62830E+01  5.59244E+01  5.62147E+01  5.64114E+01  5.65409E+01  5.75305E+01  5.79942E+01  5.89227E+01  5.88920E+01
   5.92189E+01  5.84593E+01  5.82920E+01  5.69696E+01  5.66092E+01  5.62481E+01  5.67478E+01  5.68479E+01  5.73124E+01  5.74746E+01
   5.76371E+01  5.76549E+01  5.76207E+01  5.75814E+01  5.75751E+01  5.75497E+01  5.75710E+01  5.75567E+01  5.76173E+01  5.76838E+01
   5.78271E+01  5.79205E+01  5.80621E+01  5.81447E+01  5.82737E+01  5.83352E+01  5.84447E+01  5.84809E+01  5.85744E+01  5.85890E+01
   5.86731E+01  5.86947E+01  5.88023E+01  5.88313E+01  5.89573E+01  5.89795E+01  5.91114E+01  5.91223E+01  5.92488E+01  5.92597E+01
   5.93757E+01  5.93953E+01  5.94959E+01  5.95270E+01  5.96296E+01  5.96692E+01  5.97705E+01  5.98244E+01  5.99324E+01  5.99993E+01
   6.01140E+01  6.01944E+01  6.03143E+01  6.04076E+01  6.05331E+01  6.06431E+01  6.07730E+01  6.09014E+01  6.10374E+01  6.11588E+01
   6.12798E+01  6.13920E+01  6.15112E+01  6.16255E+01  6.17508E+01  6.18720E+01  6.20095E+01  6.21370E+01  6.22899E+01  6.24224E+01
   6.25772E+01  6.27121E+01  6.28621E+01  6.29973E+01  6.31434E+01  6.32759E+01  6.34166E+01  6.35525E+01  6.36924E+01  6.38305E+01
   6.39727E+01  6.41131E+01  6.42584E+01  6.44020E+01  6.45515E+01  6.46989E+01  6.48526E+01  6.50030E+01  6.51599E+01  6.53129E+01
   6.54719E+01  6.56268E+01  6.57882E+01  6.59563E+01  6.61259E+01  6.62996E+01  6.64719E+01  6.66356E+01  6.68095E+01  6.69680E+01
   6.71436E+01  6.73047E+01  6.74831E+01  6.76554E+01  6.78352E+01  6.80179E+01  6.81982E+01  6.83909E+01  6.85801E+01  6.87849E+01
   6.89656E+01  6.91734E+01  6.93400E+01  6.95544E+01  6.97112E+01  6.99202E+01  7.00778E+01  7.02738E+01  7.04460E+01  7.06348E+01
   7.08206E+01  7.09893E+01  7.11892E+01  7.13401E+01  7.15551E+01  7.16932E+01  7.19193E+01  7.20589E+01  7.22988E+01  7.24524E+01
   7.27088E+01  7.28846E+01  7.31579E+01  7.33523E+01  7.36375E+01  7.38712E+01  7.41504E+01  7.44172E+01  7.46535E+01  7.49863E+01
   7.52965E+01  7.56688E+01  7.63081E+01  7.67430E+01  7.77037E+01  7.81202E+01  7.90378E+01  7.91818E+01  7.93148E+01  7.91501E+01
   7.89422E+01  7.88553E+01  7.89161E+01  7.94310E+01  8.04964E+01  8.20537E+01  8.36753E+01  8.55545E+01  8.69692E+01  8.84982E+01
   8.90662E+01  8.99495E+01  8.94902E+01  8.99475E+01  8.87336E+01  8.91298E+01  8.76133E+01  8.82183E+01  8.66954E+01  8.76955E+01
   8.64113E+01  8.77696E+01  8.67961E+01  8.84641E+01  8.77652E+01  8.98212E+01  8.92877E+01  9.14347E+01  9.09430E+01  9.29421E+01
   9.24773E+01  9.43583E+01  9.38570E+01  9.56149E+01  9.54922E+01  9.72081E+01  9.78586E+01  9.97512E+01  1.01922E+02  1.03928E+02
   1.06432E+02  1.08181E+02  1.10345E+02  1.11086E+02  1.12388E+02  1.11886E+02  1.13374E+02  1.13106E+02  1.15270E+02  1.15598E+02
   1.18544E+02  1.19594E+02  1.23102E+02  1.24847E+02  1.28548E+02  1.31059E+02  1.34677E+02  1.37853E+02  1.41250E+02  1.45113E+02
   1.48278E+02  1.52876E+02  1.55810E+02  1.60971E+02  1.63942E+02  1.69572E+02  1.72913E+02  1.79401E+02  1.83427E+02  1.90689E+02
   1.95665E+02  2.03812E+02  2.09621E+02  2.18469E+02  2.25495E+02  2.35568E+02  2.44350E+02  2.55928E+02  2.66785E+02  2.80073E+02
   2.93245E+02  3.08577E+02  3.25072E+02  3.43440E+02  3.62969E+02  3.84161E+02  4.06813E+02  4.30812E+02  4.56257E+02  4.82932E+02
   5.10832E+02  5.39625E+02  5.69263E+02  5.99313E+02  6.29632E+02  6.59811E+02  6.89613E+02  7.18541E+02  7.46286E+02  7.72380E+02
   7.96482E+02  8.18192E+02  8.37170E+02  8.53117E+02  8.65796E+02  8.74994E+02  8.80558E+02  8.82322E+02  8.79997E+02  8.73533E+02
   8.65633E+02  8.53579E+02  8.41920E+02  8.26574E+02  8.12256E+02  7.95448E+02  7.78692E+02  7.58799E+02  7.37567E+02  7.14775E+02
   6.89157E+02  6.64860E+02  6.36258E+02  6.12378E+02  5.83474E+02  5.61517E+02  5.34738E+02  5.15670E+02  4.92025E+02  4.75583E+02
   4.56139E+02  4.42714E+02  4.27414E+02  4.16632E+02  4.04746E+02  3.96370E+02  3.87456E+02  3.79885E+02  3.72619E+02  3.64965E+02
   3.59379E+02  3.52036E+02  3.47922E+02  3.40882E+02  3.38236E+02  3.31771E+02  3.31329E+02  3.26042E+02  3.28241E+02  3.25943E+02
   3.26916E+02  3.23553E+02  3.23412E+02  3.18851E+02  3.16999E+02  3.11110E+02  3.07302E+02  3.04043E+02  3.02142E+02  2.99782E+02
   2.98604E+02  2.96764E+02  2.95887E+02  2.94202E+02  2.93303E+02  2.91538E+02  2.90508E+02  2.88586E+02  2.87439E+02  2.85927E+02
   2.83927E+02  2.81286E+02  2.78479E+02  2.74829E+02  2.71298E+02  2.66800E+02  2.62750E+02  2.58992E+02  2.55415E+02  2.51994E+02
   2.48725E+02  2.45602E+02  2.42615E+02  2.39750E+02  2.36982E+02  2.34287E+02  2.31635E+02  2.28997E+02  2.26347E+02  2.23662E+02
   2.20926E+02  2.18127E+02  2.15261E+02  2.12331E+02  2.09345E+02  2.06317E+02  2.03263E+02  2.00204E+02  1.97161E+02  1.94155E+02
   1.91206E+02  1.88333E+02  1.85549E+02  1.82868E+02  1.80297E+02  1.77841E+02  1.75501E+02  1.73275E+02  1.71159E+02  1.69145E+02
   1.67224E+02  1.65386E+02  1.63621E+02  1.61916E+02  1.60261E+02  1.58645E+02  1.57057E+02  1.55490E+02  1.53934E+02  1.52384E+02
   1.50834E+02  1.49279E+02  1.47718E+02  1.46149E+02  1.44571E+02  1.42986E+02  1.41393E+02  1.39797E+02  1.38199E+02  1.36602E+02
   1.35011E+02  1.33428E+02  1.31858E+02  1.30304E+02  1.28770E+02  1.27259E+02  1.25774E+02  1.24318E+02  1.22893E+02  1.21502E+02
   1.20147E+02  1.18828E+02  1.17547E+02  1.16304E+02  1.15100E+02  1.13936E+02  1.12810E+02  1.11723E+02  1.10675E+02  1.09664E+02
   1.08690E+02  1.07752E+02  1.06849E+02  1.05980E+02  1.05144E+02  1.04340E+02  1.03566E+02  1.02821E+02  1.02105E+02  1.01416E+02
   1.00754E+02  1.00116E+02  9.95017E+01  9.89106E+01  9.83412E+01  9.77928E+01  9.72643E+01  9.67549E+01  9.62637E+01  9.57898E+01
   9.53327E+01  9.48914E+01  9.44652E+01  9.40536E+01  9.36558E+01  9.32713E+01  9.28995E+01  9.25398E+01  9.21916E+01  9.18546E+01
   9.15282E+01  9.12120E+01  9.09056E+01  9.06085E+01  9.03203E+01  9.00408E+01  8.97695E+01  8.95061E+01  8.92504E+01  8.90019E+01
   8.87604E+01  8.85257E+01  8.82974E+01  8.80753E+01  8.78592E+01  8.76488E+01  8.74438E+01  8.72440E+01
 NY background values follow
     4.892E+01    4.896E+01    4.900E+01    4.904E+01    4.909E+01    4.913E+01    4.918E+01    4.922E+01    4.927E+01    4.931E+01
     4.936E+01    4.940E+01    4.945E+01    4.950E+01    4.955E+01    4.959E+01    4.964E+01    4.969E+01    4.974E+01    4.979E+01
     4.984E+01    4.989E+01    4.994E+01    4.999E+01    5.005E+01    5.010E+01    5.015E+01    5.020E+01    5.026E+01    5.031E+01
     5.037E+01    5.042E+01    5.048E+01    5.053E+01    5.059E+01    5.064E+01    5.070E+01    5.076E+01    5.081E+01    5.087E+01
     5.093E+01    5.099E+01    5.105E+01    5.110E+01    5.116E+01    5.122E+01    5.128E+01    5.134E+01    5.140E+01    5.146E+01
     5.153E+01    5.159E+01    5.165E+01    5.171E+01    5.177E+01    5.183E+01    5.190E+01    5.196E+01    5.202E+01    5.209E+01
     5.215E+01    5.222E+01    5.228E+01    5.235E+01    5.241E+01    5.248E+01    5.254E+01    5.261E+01    5.267E+01    5.274E+01
     5.281E+01    5.287E+01    5.294E+01    5.301E+01    5.307E+01    5.314E+01    5.321E+01    5.328E+01    5.335E+01    5.341E+01
     5.348E+01    5.355E+01    5.362E+01    5.369E+01    5.376E+01    5.383E+01    5.390E+01    5.397E+01    5.404E+01    5.411E+01
     5.418E+01    5.425E+01    5.432E+01    5.439E+01    5.446E+01    5.454E+01    5.461E+01    5.468E+01    5.475E+01    5.482E+01
     5.489E+01    5.497E+01    5.504E+01    5.511E+01    5.518E+01    5.526E+01    5.533E+01    5.540E+01    5.548E+01    5.555E+01
     5.562E+01    5.569E+01    5.577E+01    5.584E+01    5.592E+01    5.599E+01    5.606E+01    5.614E+01    5.621E+01    5.628E+01
     5.636E+01    5.643E+01    5.651E+01    5.658E+01    5.666E+01    5.673E+01    5.680E+01    5.688E+01    5.695E+01    5.703E+01
     5.710E+01    5.718E+01    5.725E+01    5.733E+01    5.740E+01    5.748E+01    5.755E+01    5.762E+01    5.770E+01    5.777E+01
     5.785E+01    5.792E+01    5.800E+01    5.807E+01    5.815E+01    5.822E+01    5.830E+01    5.837E+01    5.845E+01    5.852E+01
     5.859E+01    5.867E+01    5.874E+01    5.882E+01    5.889E+01    5.897E+01    5.904E+01    5.911E+01    5.919E+01    5.926E+01
     5.934E+01    5.941E+01    5.948E+01    5.956E+01    5.963E+01    5.971E+01    5.978E+01    5.985E+01    5.993E+01    6.000E+01
     6.007E+01    6.014E+01    6.022E+01    6.029E+01    6.036E+01    6.044E+01    6.051E+01    6.058E+01    6.065E+01    6.072E+01
     6.080E+01    6.087E+01    6.094E+01    6.101E+01    6.108E+01    6.116E+01    6.123E+01    6.130E+01    6.137E+01    6.144E+01
     6.151E+01    6.158E+01    6.165E+01    6.172E+01    6.179E+01    6.186E+01    6.193E+01    6.200E+01    6.207E+01    6.214E+01
     6.221E+01    6.228E+01    6.235E+01    6.242E+01    6.249E+01    6.256E+01    6.263E+01    6.270E+01    6.277E+01    6.283E+01
     6.290E+01    6.297E+01    6.304E+01    6.311E+01    6.317E+01    6.324E+01    6.331E+01    6.338E+01    6.344E+01    6.351E+01
     6.358E+01    6.364E+01    6.371E+01    6.378E+01    6.384E+01    6.391E+01    6.397E+01    6.404E+01    6.411E+01    6.417E+01
     6.424E+01    6.430E+01    6.437E+01    6.443E+01    6.450E+01    6.456E+01    6.462E+01    6.469E+01    6.475E+01    6.482E+01
     6.488E+01    6.494E+01    6.501E+01    6.507E+01    6.513E+01    6.519E+01    6.526E+01    6.532E+01    6.538E+01    6.544E+01
     6.550E+01    6.556E+01    6.563E+01    6.569E+01    6.575E+01    6.581E+01    6.587E+01    6.593E+01    6.599E+01    6.605E+01
     6.611E+01    6.617E+01    6.623E+01    6.629E+01    6.635E+01    6.640E+01    6.646E+01    6.652E+01    6.658E+01    6.664E+01
     6.669E+01    6.675E+01    6.681E+01    6.687E+01    6.692E+01    6.698E+01    6.704E+01    6.709E+01    6.715E+01    6.720E+01
     6.726E+01    6.731E+01    6.737E+01    6.742E+01    6.748E+01    6.753E+01    6.759E+01    6.764E+01    6.769E+01    6.775E+01
     6.780E+01    6.785E+01    6.791E+01    6.796E+01    6.801E+01    6.806E+01    6.812E+01    6.817E+01    6.822E+01    6.827E+01
     6.832E+01    6.837E+01    6.842E+01    6.847E+01    6.852E+01    6.857E+01    6.862E+01    6.867E+01    6.872E+01    6.877E+01
     6.881E+01    6.886E+01    6.891E+01    6.896E+01    6.900E+01    6.905E+01    6.910E+01    6.914E+01    6.919E+01    6.924E+01
     6.928E+01    6.933E+01    6.937E+01    6.942E+01    6.946E+01    6.951E+01    6.955E+01    6.959E+01    6.964E+01    6.968E+01
     6.972E+01    6.977E+01    6.981E+01    6.985E+01    6.989E+01    6.993E+01    6.997E+01    7.001E+01    7.006E+01    7.010E+01
     7.014E+01    7.018E+01    7.021E+01    7.025E+01    7.029E+01    7.033E+01    7.037E+01    7.041E+01    7.045E+01    7.048E+01
     7.052E+01    7.056E+01    7.060E+01    7.063E+01    7.067E+01    7.070E+01    7.074E+01    7.078E+01    7.081E+01    7.085E+01
     7.088E+01    7.092E+01    7.095E+01    7.098E+01    7.102E+01    7.105E+01    7.108E+01    7.112E+01    7.115E+01    7.118E+01
     7.122E+01    7.125E+01    7.128E+01    7.131E+01    7.134E+01    7.137E+01    7.140E+01    7.144E+01    7.147E+01    7.150E+01
     7.153E+01    7.156E+01    7.159E+01    7.161E+01    7.164E+01    7.167E+01    7.170E+01    7.173E+01    7.176E+01    7.179E+01
     7.181E+01    7.184E+01    7.187E+01    7.190E+01    7.192E+01    7.195E+01    7.198E+01    7.200E+01    7.203E+01    7.205E+01
     7.208E+01    7.211E+01    7.213E+01    7.216E+01    7.218E+01    7.221E+01    7.223E+01    7.225E+01    7.228E+01    7.230E+01
     7.233E+01    7.235E+01    7.237E+01    7.240E+01    7.242E+01    7.244E+01    7.246E+01    7.249E+01    7.251E+01    7.253E+01
     7.255E+01    7.257E+01    7.259E+01    7.262E+01    7.264E+01    7.266E+01    7.268E+01    7.270E+01    7.272E+01    7.274E+01
     7.276E+01    7.278E+01    7.280E+01    7.282E+01    7.284E+01    7.286E+01    7.288E+01    7.289E+01    7.291E+01    7.293E+01
     7.295E+01    7.297E+01    7.299E+01    7.300E+01    7.302E+01    7.304E+01    7.306E+01    7.307E+01    7.309E+01    7.311E+01
     7.312E+01    7.314E+01    7.316E+01    7.317E+01    7.319E+01    7.321E+01    7.322E+01    7.324E+01    7.325E+01    7.327E+01
     7.328E+01    7.330E+01    7.331E+01    7.333E+01    7.334E+01    7.336E+01    7.337E+01    7.339E+01    7.340E+01    7.342E+01
     7.343E+01    7.344E+01    7.346E+01    7.347E+01    7.348E+01    7.350E+01    7.351E+01    7.352E+01    7.354E+01    7.355E+01
     7.356E+01    7.357E+01    7.359E+01    7.360E+01    7.361E+01    7.362E+01    7.364E+01    7.365E+01    7.366E+01    7.367E+01
     7.368E+01    7.369E+01    7.371E+01    7.372E+01    7.373E+01    7.374E+01    7.375E+01    7.376E+01
 Ala      Conc. = 4.29E+03
