 LCModel (Version 6.3-1L) Copyright: S.W. Provencher.          Ref.: Magn. Reson. Med. 30:672-679 (1993).                
 Slice#1 Row#4 Col#1  K_02_press_1_raw_act
 36 lines in following concentration table = NCONC+1
    Conc.  %SD /Cr+PCr  Metabolite                                         
    0.000 999%   0.000 Ala                                                 
    7.533  73%   0.559 Asp                                                 
   13.470 160%   1.000 Cr                                                  
    0.000 999%   0.000 PCr                                                 
    4.511  73%   0.335 GABA                                                
    4.577  72%   0.340 Glc                                                 
  208.180  49%  15.455 Gln                                                 
  219.470  50%  16.293 Glu                                                 
   14.278  63%   1.060 GPC                                                 
    0.000 999%   0.000 PCh                                                 
   64.755  55%   4.807 GSH                                                 
  463.252  23%  34.391 Ins                                                 
    0.000 999%   0.000 Lac                                                 
   91.600  29%   6.800 NAA                                                 
    0.000 999%   0.000 NAAG                                                
    1.483  74%   0.110 Scyllo                                              
    7.353  75%   0.546 Tau                                                 
    0.000 999%   0.000 -CrCH2                                              
   14.278  63%   1.060 GPC+PCh                                             
   91.600  29%   6.800 NAA+NAAG                                            
   13.470 160%   1.000 Cr+PCr                                              
  427.650  36%  31.748 Glu+Gln                                             
    0.000 999%   0.000 Lip13a                                              
    0.000 999%   0.000 Lip13b                                              
    0.000 999%   0.000 Lip09                                               
   14.417 327%   1.070 MM09                                                
 5.86E-03 999% 4.3E-04 Lip20                                               
   33.659 245%   2.499 MM20                                                
    3.679 572%   0.273 MM12                                                
    0.000 999%   0.000 MM14                                                
    0.000 999%   0.000 MM17                                                
    0.000 999%   0.000 Lip13a+Lip13b                                       
    3.679 572%   0.273 MM14+Lip13a+Lip13b+MM12                             
   14.417 327%   1.070 MM09+Lip09                                          
   33.665 247%   2.499 MM20+Lip20                                          
   6 lines in following misc. output table
  FWHM = 0.046 ppm    S/N =   1                                            
  Data shift = 0.008 ppm                                                   
  Ph:-156 deg       9.4 deg/ppm                                            
  alphaB,S = 2.1E+01,   3.6E+01                                            
   14 spline knots.   Ns = 5(1)                                            
   2 inflections.     1 extrema                                            
  498 points on ppm-axis = NY
      4.000000     3.992357     3.984714     3.977070     3.969427     3.961784     3.954141     3.946497     3.938854     3.931211
      3.923568     3.915925     3.908281     3.900638     3.892995     3.885352     3.877708     3.870065     3.862422     3.854779
      3.847136     3.839492     3.831849     3.824206     3.816563     3.808919     3.801276     3.793633     3.785990     3.778347
      3.770703     3.763060     3.755417     3.747774     3.740130     3.732487     3.724844     3.717201     3.709558     3.701914
      3.694271     3.686628     3.678985     3.671341     3.663698     3.656055     3.648412     3.640769     3.633125     3.625482
      3.617839     3.610196     3.602552     3.594909     3.587266     3.579623     3.571980     3.564336     3.556693     3.549050
      3.541407     3.533763     3.526120     3.518477     3.510834     3.503191     3.495547     3.487904     3.480261     3.472618
      3.464974     3.457331     3.449688     3.442045     3.434402     3.426758     3.419115     3.411472     3.403829     3.396185
      3.388542     3.380899     3.373256     3.365613     3.357969     3.350326     3.342683     3.335040     3.327396     3.319753
      3.312110     3.304467     3.296824     3.289180     3.281537     3.273894     3.266251     3.258607     3.250964     3.243321
      3.235678     3.228034     3.220391     3.212748     3.205105     3.197462     3.189818     3.182175     3.174532     3.166889
      3.159245     3.151602     3.143959     3.136316     3.128673     3.121029     3.113386     3.105743     3.098100     3.090456
      3.082813     3.075170     3.067527     3.059884     3.052240     3.044597     3.036954     3.029311     3.021667     3.014024
      3.006381     2.998738     2.991095     2.983451     2.975808     2.968165     2.960522     2.952878     2.945235     2.937592
      2.929949     2.922306     2.914662     2.907019     2.899376     2.891733     2.884089     2.876446     2.868803     2.861160
      2.853517     2.845873     2.838230     2.830587     2.822944     2.815300     2.807657     2.800014     2.792371     2.784728
      2.777084     2.769441     2.761798     2.754155     2.746511     2.738868     2.731225     2.723582     2.715939     2.708295
      2.700652     2.693009     2.685366     2.677722     2.670079     2.662436     2.654793     2.647150     2.639506     2.631863
      2.624220     2.616577     2.608933     2.601290     2.593647     2.586004     2.578361     2.570717     2.563074     2.555431
      2.547788     2.540144     2.532501     2.524858     2.517215     2.509572     2.501928     2.494285     2.486642     2.478999
      2.471355     2.463712     2.456069     2.448426     2.440783     2.433139     2.425496     2.417853     2.410210     2.402566
      2.394923     2.387280     2.379637     2.371994     2.364350     2.356707     2.349064     2.341421     2.333777     2.326134
      2.318491     2.310848     2.303205     2.295561     2.287918     2.280275     2.272632     2.264988     2.257345     2.249702
      2.242059     2.234416     2.226772     2.219129     2.211486     2.203843     2.196199     2.188556     2.180913     2.173270
      2.165627     2.157983     2.150340     2.142697     2.135054     2.127410     2.119767     2.112124     2.104481     2.096838
      2.089194     2.081551     2.073908     2.066265     2.058621     2.050978     2.043335     2.035692     2.028049     2.020405
      2.012762     2.005119     1.997476     1.989833     1.982190     1.974546     1.966903     1.959260     1.951617     1.943974
      1.936331     1.928688     1.921045     1.913402     1.905759     1.898115     1.890472     1.882829     1.875186     1.867543
      1.859900     1.852257     1.844614     1.836971     1.829327     1.821684     1.814041     1.806398     1.798755     1.791112
      1.783469     1.775826     1.768183     1.760540     1.752896     1.745253     1.737610     1.729967     1.722324     1.714681
      1.707038     1.699395     1.691752     1.684108     1.676465     1.668822     1.661179     1.653536     1.645893     1.638250
      1.630607     1.622964     1.615321     1.607677     1.600034     1.592391     1.584748     1.577105     1.569462     1.561819
      1.554176     1.546533     1.538890     1.531246     1.523603     1.515960     1.508317     1.500674     1.493031     1.485388
      1.477745     1.470102     1.462458     1.454815     1.447172     1.439529     1.431886     1.424243     1.416600     1.408957
      1.401314     1.393671     1.386027     1.378384     1.370741     1.363098     1.355455     1.347812     1.340169     1.332526
      1.324883     1.317240     1.309596     1.301953     1.294310     1.286667     1.279024     1.271381     1.263738     1.256095
      1.248452     1.240808     1.233165     1.225522     1.217879     1.210236     1.202593     1.194950     1.187307     1.179664
      1.172021     1.164377     1.156734     1.149091     1.141448     1.133805     1.126162     1.118519     1.110876     1.103233
      1.095590     1.087946     1.080303     1.072660     1.065017     1.057374     1.049731     1.042088     1.034445     1.026802
      1.019158     1.011515     1.003872     0.996229     0.988586     0.980943     0.973300     0.965657     0.958014     0.950371
      0.942727     0.935084     0.927441     0.919798     0.912155     0.904512     0.896869     0.889226     0.881583     0.873940
      0.866296     0.858653     0.851010     0.843367     0.835724     0.828081     0.820438     0.812795     0.805152     0.797508
      0.789865     0.782222     0.774579     0.766936     0.759293     0.751650     0.744007     0.736364     0.728721     0.721077
      0.713434     0.705791     0.698148     0.690505     0.682862     0.675219     0.667576     0.659933     0.652290     0.644646
      0.637003     0.629360     0.621717     0.614074     0.606431     0.598788     0.591145     0.583502     0.575858     0.568215
      0.560572     0.552929     0.545286     0.537643     0.530000     0.522357     0.514714     0.507071     0.499427     0.491784
      0.484141     0.476498     0.468855     0.461212     0.453569     0.445925     0.438282     0.430639     0.422996     0.415353
      0.407710     0.400067     0.392424     0.384780     0.377137     0.369494     0.361851     0.354208     0.346565     0.338922
      0.331278     0.323635     0.315992     0.308349     0.300706     0.293063     0.285420     0.277777     0.270133     0.262490
      0.254847     0.247204     0.239561     0.231918     0.224275     0.216631     0.208988     0.201345
 NY phased data points follow
   5.44817E+00  7.31972E+00  7.12668E+00  4.19233E+00  6.04428E+00  4.90323E+00  7.05699E+00  3.02299E+00  5.80510E+00  6.50266E+00
   6.69213E+00  7.90122E+00  7.15154E+00  8.75914E+00  8.38230E+00  6.89967E+00  6.17356E+00  4.33851E+00  9.30850E+00  2.43405E+00
   5.55418E+00  6.32130E+00  6.15257E+00  7.88388E+00  7.60677E+00  7.65763E+00  7.24680E+00  4.50148E+00  5.37969E+00  6.45373E+00
   4.57197E+00  3.67243E+00  1.00114E+01  9.09280E+00  1.03368E+01  6.20406E+00  8.77170E+00  6.24378E+00  3.35960E+00  4.48194E+00
   5.12272E+00  6.20003E+00  5.96706E+00  4.35490E+00  1.76817E+00  5.67976E+00  5.44850E+00  4.14546E+00  7.69204E+00  5.27809E+00
   7.52652E+00  6.50901E+00  5.98455E+00  4.34214E+00  2.36807E+00  2.57661E+00  5.08297E+00  6.04605E+00  4.01103E+00  2.64019E+00
   4.36791E+00  8.44431E+00  6.82729E+00  6.37321E+00  5.38446E+00  4.83160E+00  4.02311E+00  5.07053E+00  7.38710E+00  4.21097E+00
   5.79153E+00  3.85876E+00  1.34933E+00  4.81297E+00  7.00357E+00  3.56551E+00  5.99357E+00  6.58631E+00  6.82739E+00  7.87629E+00
   2.66684E+00  7.89404E+00  4.32107E+00  2.25832E+00  5.05288E+00  4.65809E+00  3.10323E+00  2.45532E+00  1.29673E+00  4.42547E+00
   3.63490E+00  4.14290E+00  5.27915E+00  1.52535E+00  5.61709E+00  4.05288E+00  7.23792E-01  4.06371E+00  3.22602E+00 -1.02457E+00
   3.13861E+00  2.16299E+00  7.12136E+00  3.44139E+00  4.70551E+00  5.13041E+00  4.51653E+00  7.02221E-01  6.01819E+00  3.10344E+00
   3.02681E+00  4.44830E+00  2.93262E+00  4.33739E+00  4.93575E-01  6.68039E+00  5.37636E-02 -4.99035E-01  3.85748E+00  9.48595E-01
   4.21340E-01  6.92576E-01 -1.22394E+00  8.27560E-02  1.30215E+00  1.97418E-01  1.86164E+00  1.43332E+00  4.57800E+00  3.71017E+00
   2.11787E+00  1.46927E+00  3.33150E+00  7.55210E-01  2.37752E+00  3.03204E+00  1.31971E+00 -1.18564E-01  2.95494E+00  3.66978E+00
   5.62573E+00  1.84491E+00  3.30661E+00  2.61763E+00  4.41331E+00 -1.39286E+00  7.32308E-01  2.79804E+00  1.04809E+00  5.03785E+00
   2.23774E+00  3.78937E+00  4.45693E+00  5.36885E+00  2.86744E+00  1.83927E+00 -7.34036E-01  2.84262E+00  2.90552E+00  1.95498E+00
   3.13094E+00  4.93723E+00 -6.77606E-01  5.54275E+00  4.54122E+00  7.00313E-01  1.95854E+00  3.38608E+00  2.62521E+00  3.12573E+00
   4.91610E+00  1.29575E+00  3.27763E+00  2.06238E+00  1.96478E+00  2.37918E+00  3.69545E+00  5.17389E+00  2.29975E+00  3.15716E+00
   3.81057E+00  2.86544E+00  3.39415E+00  2.87149E+00  2.15672E+00  3.01679E+00  4.44791E+00  5.57173E-01  5.24387E+00  4.12494E+00
   5.73143E+00  6.05152E-01  5.58522E+00  5.09665E-01  2.63229E-01  5.29252E+00  2.81643E+00  4.26625E+00  5.41102E+00  2.29627E+00
   3.77175E+00  1.24772E+00  3.13082E+00  3.88284E+00  5.95474E+00  2.22390E+00  5.73778E+00 -4.16843E-01  4.62467E+00  2.33665E+00
   1.06428E+00  1.52994E+00  3.66532E+00  2.77058E+00  2.01726E-01 -1.74720E+00  2.84475E+00  5.20785E+00  2.90679E+00  1.35793E+00
   4.18452E+00  2.38944E+00  2.64427E+00  3.51685E-02  1.97680E+00  4.58389E+00  1.31144E+00  1.54436E+00  6.21032E+00  4.02862E+00
   4.31461E+00  3.96792E+00  4.31973E+00  2.65747E+00  4.67083E+00  4.57080E+00  2.67481E+00  3.53293E+00  4.48938E+00  4.65154E+00
   6.93350E+00  5.99937E+00  3.63085E+00  3.29568E+00  3.24697E+00  3.80716E+00  4.05548E+00  3.51945E+00  2.16769E+00  2.04886E+00
   5.84136E+00  2.91246E+00  3.63186E+00  5.45575E+00  2.64307E+00  5.39032E+00  4.80740E+00  1.99999E-01  1.90277E+00 -2.46557E-01
   5.65684E+00  7.57955E+00  7.69238E+00  7.26650E+00  6.49451E+00  4.25564E+00  4.40031E+00  5.09770E+00  2.52470E+00  4.72445E+00
   7.11618E+00  4.30638E+00  6.55883E+00  1.02018E+00  4.52259E+00  4.33931E+00  4.69262E+00  2.49381E+00  2.80735E+00  2.66110E+00
   3.36039E+00  1.08257E+00  2.99004E+00  1.89699E+00  4.02481E+00  2.44050E+00  1.85711E+00  2.28920E+00  3.96191E+00  7.92086E+00
   3.72420E+00  4.56610E+00  1.85215E+00  7.40476E+00  2.87730E+00  3.96433E+00  3.23963E+00  4.15721E+00  5.59870E+00  2.58133E-01
   1.04174E+00  1.64501E+00  7.04342E-01  3.61131E+00  5.17040E-01  1.27693E+00  4.75534E-01  3.55912E+00  1.54058E-01  1.29195E+00
   8.08825E-01  1.29389E+00  1.79792E+00  2.56362E+00  3.49964E+00  1.03795E+00  1.05535E+00  1.09159E+00  5.66854E+00  2.41710E+00
   5.33310E+00 -7.37554E-01  3.83158E+00  4.11320E+00  1.94427E+00  2.66087E+00  3.85345E+00  2.96261E+00  9.75736E-01  5.16842E+00
   3.96925E+00  4.40181E+00  3.09565E+00  2.15005E+00  4.19489E+00  5.26648E+00  4.92094E-01  3.01064E+00  1.98153E+00  1.50168E+00
  -1.19517E+00  8.29569E-01  4.30643E-02  2.66318E-01 -2.26391E+00  3.62372E-01 -5.51972E-01  2.64432E+00  4.56514E+00  1.92807E+00
   2.62686E+00  5.54956E+00  4.21244E+00  4.99932E+00  1.11267E+00 -8.95412E-01  9.46058E-01 -2.09011E+00  4.03951E+00  4.76871E+00
   2.92634E+00  4.89330E-01  1.42159E+00  4.75171E+00  6.50978E+00  4.80154E+00  4.88919E+00  4.85406E+00  3.82129E+00  1.24459E+00
   2.95875E+00  1.68915E+00  1.18883E+00 -1.88337E+00  6.26717E-02 -2.12339E-01  3.75799E+00  1.96743E+00  2.17281E+00  2.01160E+00
   2.65814E+00  1.20841E+00  8.36206E-01  4.26196E+00 -1.74974E-01  4.73542E+00  4.02660E+00  4.17077E+00  2.50714E+00  2.05373E+00
   2.00138E+00  5.45583E+00 -2.10782E+00  3.36550E+00  1.96551E+00  4.71824E+00  3.90336E+00  3.82071E+00  1.95831E+00  4.70305E-02
   4.06593E+00  5.32364E+00  2.30486E+00  1.79052E+00  1.63985E+00 -2.76488E+00  2.32400E+00 -7.59660E-01  2.40339E+00  5.24549E+00
   2.77959E+00 -5.44945E-01  3.67267E+00  4.29770E+00  6.96032E-01  1.28436E+00  1.93370E+00  5.37394E+00  3.78385E+00  2.05259E+00
   4.70053E-01  4.28804E+00  5.05651E+00 -1.29649E-01  3.92911E+00  2.85117E+00 -7.17990E-01  9.15714E-01 -1.07822E-01  7.49562E-01
   2.98187E+00  1.82963E+00  2.69090E+00  3.03679E+00  1.28836E+00  1.01898E+00  6.83407E-01  2.14236E+00  3.32511E+00  3.78312E+00
   3.07864E+00  2.77480E+00  4.89868E+00  2.86923E+00  5.51883E+00  3.49868E+00  3.39372E+00  3.61059E+00  1.00468E-01  4.95539E+00
   6.10292E+00  2.02922E+00  2.50478E+00  4.51943E+00  1.12017E+00  2.95958E+00  2.71769E+00  4.71867E+00  6.13687E+00 -5.70714E-01
  -3.29141E-01  1.48174E+00  1.58964E+00  3.78218E-01  3.67041E+00  5.47225E+00  1.84384E+00  1.15371E+00  2.83576E+00  2.73763E+00
   9.42180E-02  9.45662E-01 -5.65151E-01  1.05413E+00  4.21868E+00  3.74524E+00  7.14667E-01  6.41748E-01  2.48250E+00  3.07304E+00
   2.25935E+00  1.18441E+00  1.93888E+00 -8.62392E-01 -4.50852E-01  1.56095E+00  3.68962E+00  2.41777E+00  3.15229E+00 -7.31435E-01
   4.50811E+00  4.95432E-01  4.10091E+00  1.41803E+00  1.66434E+00  3.85530E+00  4.92209E+00  1.88430E+00
 NY points of the fit to the data follow
   5.55530E+00  5.17598E+00  4.83603E+00  4.63533E+00  4.54352E+00  4.50099E+00  4.49372E+00  4.51128E+00  4.54084E+00  4.58388E+00
   4.64438E+00  4.71470E+00  4.77500E+00  4.80443E+00  4.79237E+00  4.74261E+00  4.67000E+00  4.60144E+00  4.57806E+00  4.59930E+00
   4.64067E+00  4.68851E+00  4.72622E+00  4.74230E+00  4.74091E+00  4.74097E+00  4.72202E+00  4.69605E+00  4.76094E+00  5.02113E+00
   5.52132E+00  6.18302E+00  6.85430E+00  7.30933E+00  7.32747E+00  6.84378E+00  6.03860E+00  5.24564E+00  4.64015E+00  4.27697E+00
   4.15909E+00  4.20360E+00  4.38124E+00  4.67406E+00  5.05487E+00  5.54164E+00  6.19584E+00  6.99494E+00  7.73615E+00  8.12734E+00
   7.96039E+00  7.20799E+00  6.02617E+00  4.74113E+00  3.83112E+00  3.57868E+00  3.78822E+00  4.15995E+00  4.56211E+00  4.97931E+00
   5.37232E+00  5.66069E+00  5.76861E+00  5.66046E+00  5.34166E+00  4.87567E+00  4.44323E+00  4.22844E+00  4.24896E+00  4.45753E+00
   4.74366E+00  5.02613E+00  5.24523E+00  5.35643E+00  5.36049E+00  5.27795E+00  5.13145E+00  4.94459E+00  4.75135E+00  4.62828E+00
   4.56297E+00  4.51489E+00  4.45028E+00  4.35702E+00  4.22626E+00  4.04699E+00  3.79996E+00  3.48100E+00  3.13259E+00  2.84071E+00
   2.68765E+00  2.73193E+00  2.98421E+00  3.37326E+00  3.75819E+00  4.03768E+00  4.16465E+00  4.16268E+00  4.08816E+00  3.95614E+00
   3.82945E+00  3.81840E+00  3.96782E+00  4.24099E+00  4.51880E+00  4.65114E+00  4.58421E+00  4.33648E+00  3.98773E+00  3.68689E+00
   3.57869E+00  3.56571E+00  3.56452E+00  3.57495E+00  3.58465E+00  3.58817E+00  3.58146E+00  3.56527E+00  3.54065E+00  3.51141E+00
   3.48413E+00  3.46809E+00  3.47997E+00  3.51987E+00  3.58555E+00  3.68547E+00  3.81867E+00  3.96002E+00  4.07757E+00  4.14592E+00
   4.14270E+00  4.07412E+00  3.97435E+00  3.87692E+00  3.80872E+00  3.73262E+00  3.59962E+00  3.43194E+00  3.27326E+00  3.18117E+00
   3.21025E+00  3.36597E+00  3.56404E+00  3.72019E+00  3.79904E+00  3.78960E+00  3.71509E+00  3.62251E+00  3.53678E+00  3.48440E+00
   3.44938E+00  3.41912E+00  3.39087E+00  3.36385E+00  3.33797E+00  3.31602E+00  3.30203E+00  3.29563E+00  3.29241E+00  3.28638E+00
   3.27380E+00  3.25190E+00  3.22554E+00  3.20918E+00  3.21173E+00  3.22779E+00  3.24594E+00  3.25315E+00  3.23840E+00  3.20702E+00
   3.17206E+00  3.14227E+00  3.12513E+00  3.11416E+00  3.09732E+00  3.07218E+00  3.04078E+00  3.01285E+00  2.99718E+00  2.99421E+00
   2.99655E+00  2.99640E+00  2.98853E+00  2.96952E+00  2.94647E+00  2.93671E+00  2.94575E+00  2.97700E+00  3.03120E+00  3.11221E+00
   3.22692E+00  3.35028E+00  3.42545E+00  3.39902E+00  3.26089E+00  3.03791E+00  2.78487E+00  2.57750E+00  2.49232E+00  2.58154E+00
   2.85994E+00  3.27398E+00  3.73884E+00  4.14553E+00  4.37862E+00  4.33573E+00  4.04498E+00  3.57358E+00  2.96520E+00  2.31826E+00
   1.77925E+00  1.53448E+00  1.69408E+00  2.23976E+00  3.04871E+00  3.94853E+00  4.65759E+00  4.87051E+00  4.63149E+00  4.13118E+00
   3.44435E+00  2.68558E+00  2.06885E+00  1.81316E+00  1.90107E+00  2.25273E+00  2.77368E+00  3.33107E+00  3.77102E+00  3.94997E+00
   3.86751E+00  3.64707E+00  3.41324E+00  3.21900E+00  3.08836E+00  3.02540E+00  3.05912E+00  3.19451E+00  3.35238E+00  3.48912E+00
   3.59269E+00  3.62018E+00  3.48599E+00  3.15653E+00  2.77532E+00  2.49547E+00  2.35195E+00  2.34644E+00  2.48641E+00  2.69382E+00
   2.83589E+00  2.94932E+00  3.06804E+00  3.18929E+00  3.31026E+00  3.49517E+00  3.74521E+00  3.96877E+00  4.25577E+00  4.73881E+00
   5.41717E+00  6.10237E+00  6.54399E+00  6.56143E+00  6.10391E+00  5.24449E+00  4.23403E+00  3.50906E+00  3.23658E+00  3.11525E+00
   3.03881E+00  2.99801E+00  2.97693E+00  2.97102E+00  2.99111E+00  3.02609E+00  3.06061E+00  3.08238E+00  3.08175E+00  3.05551E+00
   3.01661E+00  2.97978E+00  2.94938E+00  2.92657E+00  2.91238E+00  2.90597E+00  2.90428E+00  2.90234E+00  2.89717E+00  2.89028E+00
   2.88233E+00  2.87347E+00  2.86438E+00  2.85584E+00  2.84785E+00  2.83984E+00  2.83195E+00  2.82474E+00  2.81795E+00  2.81129E+00
   2.80495E+00  2.79886E+00  2.79302E+00  2.78741E+00  2.78199E+00  2.77665E+00  2.77131E+00  2.76585E+00  2.76020E+00  2.75439E+00
   2.74866E+00  2.74305E+00  2.73746E+00  2.73195E+00  2.72647E+00  2.72103E+00  2.71565E+00  2.71031E+00  2.70503E+00  2.69977E+00
   2.69454E+00  2.68935E+00  2.68418E+00  2.67906E+00  2.67396E+00  2.66889E+00  2.66383E+00  2.65881E+00  2.65382E+00  2.64886E+00
   2.64393E+00  2.63902E+00  2.63413E+00  2.62928E+00  2.62446E+00  2.61969E+00  2.61494E+00  2.61022E+00  2.60553E+00  2.60090E+00
   2.59631E+00  2.59176E+00  2.58725E+00  2.58279E+00  2.57838E+00  2.57403E+00  2.56973E+00  2.56548E+00  2.56128E+00  2.55713E+00
   2.55303E+00  2.54898E+00  2.54497E+00  2.54099E+00  2.53702E+00  2.53307E+00  2.52913E+00  2.52519E+00  2.52122E+00  2.51721E+00
   2.51315E+00  2.50905E+00  2.50489E+00  2.50066E+00  2.49635E+00  2.49196E+00  2.48750E+00  2.48297E+00  2.47838E+00  2.47374E+00
   2.46906E+00  2.46436E+00  2.45966E+00  2.45500E+00  2.45038E+00  2.44582E+00  2.44137E+00  2.43704E+00  2.43289E+00  2.42893E+00
   2.42519E+00  2.42170E+00  2.41851E+00  2.41564E+00  2.41313E+00  2.41101E+00  2.40929E+00  2.40799E+00  2.40713E+00  2.40670E+00
   2.40669E+00  2.40705E+00  2.40775E+00  2.40871E+00  2.40985E+00  2.41107E+00  2.41224E+00  2.41323E+00  2.41390E+00  2.41409E+00
   2.41369E+00  2.41256E+00  2.41059E+00  2.40768E+00  2.40378E+00  2.39888E+00  2.39296E+00  2.38609E+00  2.37830E+00  2.36971E+00
   2.36043E+00  2.35059E+00  2.34034E+00  2.32981E+00  2.31913E+00  2.30844E+00  2.29784E+00  2.28744E+00  2.27731E+00  2.26750E+00
   2.25806E+00  2.24900E+00  2.24034E+00  2.23209E+00  2.22421E+00  2.21669E+00  2.20949E+00  2.20260E+00  2.19599E+00  2.18963E+00
   2.18348E+00  2.17752E+00  2.17171E+00  2.16606E+00  2.16054E+00  2.15512E+00  2.14980E+00  2.14455E+00  2.13937E+00  2.13426E+00
   2.12920E+00  2.12419E+00  2.11921E+00  2.11427E+00  2.10936E+00  2.10449E+00  2.09964E+00  2.09481E+00  2.09000E+00  2.08521E+00
   2.08043E+00  2.07567E+00  2.07093E+00  2.06619E+00  2.06146E+00  2.05675E+00  2.05204E+00  2.04735E+00  2.04267E+00  2.03799E+00
   2.03332E+00  2.02865E+00  2.02400E+00  2.01935E+00  2.01470E+00  2.01006E+00  2.00542E+00  2.00079E+00  1.99617E+00  1.99155E+00
   1.98694E+00  1.98232E+00  1.97770E+00  1.97310E+00  1.96850E+00  1.96390E+00  1.95930E+00  1.95471E+00  1.95012E+00  1.94554E+00
   1.94096E+00  1.93638E+00  1.93180E+00  1.92722E+00  1.92265E+00  1.91809E+00  1.91353E+00  1.90896E+00  1.90440E+00  1.89985E+00
   1.89530E+00  1.89076E+00  1.88622E+00  1.88168E+00  1.87715E+00  1.87262E+00  1.86811E+00  1.86360E+00
 NY background values follow
     4.090E+00    4.086E+00    4.081E+00    4.077E+00    4.072E+00    4.067E+00    4.063E+00    4.058E+00    4.054E+00    4.049E+00
     4.045E+00    4.040E+00    4.036E+00    4.031E+00    4.027E+00    4.022E+00    4.017E+00    4.013E+00    4.008E+00    4.004E+00
     3.999E+00    3.995E+00    3.990E+00    3.986E+00    3.981E+00    3.977E+00    3.972E+00    3.968E+00    3.963E+00    3.958E+00
     3.954E+00    3.949E+00    3.945E+00    3.940E+00    3.936E+00    3.931E+00    3.927E+00    3.922E+00    3.918E+00    3.913E+00
     3.909E+00    3.904E+00    3.899E+00    3.895E+00    3.890E+00    3.886E+00    3.881E+00    3.877E+00    3.872E+00    3.868E+00
     3.863E+00    3.859E+00    3.854E+00    3.849E+00    3.845E+00    3.840E+00    3.836E+00    3.831E+00    3.827E+00    3.822E+00
     3.818E+00    3.813E+00    3.809E+00    3.804E+00    3.800E+00    3.795E+00    3.790E+00    3.786E+00    3.781E+00    3.777E+00
     3.772E+00    3.768E+00    3.763E+00    3.759E+00    3.754E+00    3.750E+00    3.745E+00    3.741E+00    3.736E+00    3.731E+00
     3.727E+00    3.722E+00    3.718E+00    3.713E+00    3.709E+00    3.704E+00    3.700E+00    3.695E+00    3.691E+00    3.686E+00
     3.682E+00    3.677E+00    3.673E+00    3.668E+00    3.663E+00    3.659E+00    3.654E+00    3.650E+00    3.645E+00    3.641E+00
     3.636E+00    3.632E+00    3.627E+00    3.623E+00    3.618E+00    3.614E+00    3.609E+00    3.605E+00    3.600E+00    3.595E+00
     3.591E+00    3.586E+00    3.582E+00    3.577E+00    3.573E+00    3.568E+00    3.564E+00    3.559E+00    3.555E+00    3.550E+00
     3.546E+00    3.541E+00    3.537E+00    3.532E+00    3.528E+00    3.523E+00    3.519E+00    3.514E+00    3.509E+00    3.505E+00
     3.500E+00    3.496E+00    3.491E+00    3.487E+00    3.482E+00    3.478E+00    3.473E+00    3.469E+00    3.464E+00    3.460E+00
     3.455E+00    3.451E+00    3.446E+00    3.442E+00    3.437E+00    3.433E+00    3.428E+00    3.424E+00    3.419E+00    3.415E+00
     3.410E+00    3.406E+00    3.401E+00    3.396E+00    3.392E+00    3.387E+00    3.383E+00    3.378E+00    3.374E+00    3.369E+00
     3.365E+00    3.360E+00    3.356E+00    3.351E+00    3.347E+00    3.342E+00    3.338E+00    3.333E+00    3.329E+00    3.324E+00
     3.320E+00    3.315E+00    3.311E+00    3.306E+00    3.302E+00    3.297E+00    3.293E+00    3.288E+00    3.284E+00    3.279E+00
     3.275E+00    3.270E+00    3.266E+00    3.261E+00    3.257E+00    3.252E+00    3.248E+00    3.243E+00    3.239E+00    3.234E+00
     3.230E+00    3.225E+00    3.221E+00    3.216E+00    3.212E+00    3.207E+00    3.203E+00    3.198E+00    3.194E+00    3.189E+00
     3.185E+00    3.180E+00    3.175E+00    3.171E+00    3.166E+00    3.162E+00    3.157E+00    3.153E+00    3.148E+00    3.144E+00
     3.139E+00    3.135E+00    3.130E+00    3.126E+00    3.121E+00    3.117E+00    3.112E+00    3.108E+00    3.103E+00    3.099E+00
     3.094E+00    3.090E+00    3.085E+00    3.081E+00    3.076E+00    3.072E+00    3.067E+00    3.063E+00    3.058E+00    3.054E+00
     3.049E+00    3.045E+00    3.040E+00    3.036E+00    3.031E+00    3.027E+00    3.023E+00    3.018E+00    3.014E+00    3.009E+00
     3.005E+00    3.000E+00    2.996E+00    2.991E+00    2.987E+00    2.982E+00    2.978E+00    2.973E+00    2.969E+00    2.964E+00
     2.960E+00    2.955E+00    2.951E+00    2.946E+00    2.942E+00    2.937E+00    2.933E+00    2.928E+00    2.924E+00    2.919E+00
     2.915E+00    2.910E+00    2.906E+00    2.901E+00    2.897E+00    2.892E+00    2.888E+00    2.883E+00    2.879E+00    2.874E+00
     2.870E+00    2.865E+00    2.861E+00    2.856E+00    2.852E+00    2.847E+00    2.843E+00    2.838E+00    2.834E+00    2.829E+00
     2.825E+00    2.820E+00    2.816E+00    2.811E+00    2.807E+00    2.802E+00    2.798E+00    2.793E+00    2.789E+00    2.784E+00
     2.780E+00    2.775E+00    2.771E+00    2.767E+00    2.762E+00    2.758E+00    2.753E+00    2.749E+00    2.744E+00    2.740E+00
     2.735E+00    2.731E+00    2.726E+00    2.722E+00    2.717E+00    2.713E+00    2.708E+00    2.704E+00    2.699E+00    2.695E+00
     2.690E+00    2.686E+00    2.681E+00    2.677E+00    2.672E+00    2.668E+00    2.663E+00    2.659E+00    2.654E+00    2.650E+00
     2.645E+00    2.641E+00    2.636E+00    2.632E+00    2.627E+00    2.623E+00    2.619E+00    2.614E+00    2.610E+00    2.605E+00
     2.601E+00    2.596E+00    2.592E+00    2.587E+00    2.583E+00    2.578E+00    2.574E+00    2.569E+00    2.565E+00    2.560E+00
     2.556E+00    2.551E+00    2.547E+00    2.542E+00    2.538E+00    2.533E+00    2.529E+00    2.524E+00    2.520E+00    2.515E+00
     2.511E+00    2.507E+00    2.502E+00    2.498E+00    2.493E+00    2.489E+00    2.484E+00    2.480E+00    2.475E+00    2.471E+00
     2.466E+00    2.462E+00    2.457E+00    2.453E+00    2.448E+00    2.444E+00    2.439E+00    2.435E+00    2.430E+00    2.426E+00
     2.421E+00    2.417E+00    2.413E+00    2.408E+00    2.404E+00    2.399E+00    2.395E+00    2.390E+00    2.386E+00    2.381E+00
     2.377E+00    2.372E+00    2.368E+00    2.363E+00    2.359E+00    2.354E+00    2.350E+00    2.345E+00    2.341E+00    2.336E+00
     2.332E+00    2.328E+00    2.323E+00    2.319E+00    2.314E+00    2.310E+00    2.305E+00    2.301E+00    2.296E+00    2.292E+00
     2.287E+00    2.283E+00    2.278E+00    2.274E+00    2.269E+00    2.265E+00    2.260E+00    2.256E+00    2.251E+00    2.247E+00
     2.243E+00    2.238E+00    2.234E+00    2.229E+00    2.225E+00    2.220E+00    2.216E+00    2.211E+00    2.207E+00    2.202E+00
     2.198E+00    2.193E+00    2.189E+00    2.184E+00    2.180E+00    2.175E+00    2.171E+00    2.166E+00    2.162E+00    2.158E+00
     2.153E+00    2.149E+00    2.144E+00    2.140E+00    2.135E+00    2.131E+00    2.126E+00    2.122E+00    2.117E+00    2.113E+00
     2.108E+00    2.104E+00    2.099E+00    2.095E+00    2.090E+00    2.086E+00    2.082E+00    2.077E+00    2.073E+00    2.068E+00
     2.064E+00    2.059E+00    2.055E+00    2.050E+00    2.046E+00    2.041E+00    2.037E+00    2.032E+00    2.028E+00    2.023E+00
     2.019E+00    2.014E+00    2.010E+00    2.006E+00    2.001E+00    1.997E+00    1.992E+00    1.988E+00    1.983E+00    1.979E+00
     1.974E+00    1.970E+00    1.965E+00    1.961E+00    1.956E+00    1.952E+00    1.947E+00    1.943E+00    1.938E+00    1.934E+00
     1.930E+00    1.925E+00    1.921E+00    1.916E+00    1.912E+00    1.907E+00    1.903E+00    1.898E+00    1.894E+00    1.889E+00
     1.885E+00    1.880E+00    1.876E+00    1.871E+00    1.867E+00    1.862E+00    1.858E+00    1.853E+00
 Asp      Conc. = 7.53E+00
