 LCModel (Version 6.3-1L) Copyright: S.W. Provencher.          Ref.: Magn. Reson. Med. 30:672-679 (1993).                
 Slice#1 Row#14 Col#1  K_02_press_1_raw_act
 36 lines in following concentration table = NCONC+1
    Conc.  %SD /Cr+PCr  Metabolite                                         
  273.222  39%   7.224 Ala                                                 
    1.572 309% 4.2E-02 Asp                                                 
    0.000 999%   0.000 Cr                                                  
   37.822  63%   1.000 PCr                                                 
    1.295 225% 3.4E-02 GABA                                                
    1.254 233% 3.3E-02 Glc                                                 
 1.32E+03  19%  34.882 Gln                                                 
 1.16E+03  23%  30.683 Glu                                                 
    1.025 931% 2.7E-02 GPC                                                 
    0.000 999%   0.000 PCh                                                 
   47.519  99%   1.256 GSH                                                 
  474.888  25%  12.556 Ins                                                 
  162.527  68%   4.297 Lac                                                 
    0.000 999%   0.000 NAA                                                 
    0.000 999%   0.000 NAAG                                                
    0.568 172% 1.5E-02 Scyllo                                              
    2.140 226% 5.7E-02 Tau                                                 
    0.000 999%   0.000 -CrCH2                                              
    1.025 931% 2.7E-02 GPC+PCh                                             
    0.000 999%   0.000 NAA+NAAG                                            
   37.822  63%   1.000 Cr+PCr                                              
 2.48E+03  18%  65.564 Glu+Gln                                             
    0.000 999%   0.000 Lip13a                                              
    0.000 999%   0.000 Lip13b                                              
    0.000 999%   0.000 Lip09                                               
  113.146  38%   2.992 MM09                                                
 2.84E-04 999% 7.5E-06 Lip20                                               
  173.270  37%   4.581 MM20                                                
   33.896  40%   0.896 MM12                                                
   96.033  38%   2.539 MM14                                                
   46.941  44%   1.241 MM17                                                
    0.000 999%   0.000 Lip13a+Lip13b                                       
  129.929  37%   3.435 MM14+Lip13a+Lip13b+MM12                             
  113.146  38%   2.992 MM09+Lip09                                          
  173.271  37%   4.581 MM20+Lip20                                          
   6 lines in following misc. output table
  FWHM = 0.107 ppm    S/N =   1                                            
  Data shift = 0.015 ppm                                                   
  Ph:-104 deg      12.6 deg/ppm                                            
  alphaB,S = 8.5E+01,   5.6E+02                                            
   14 spline knots.   Ns =11(1)                                            
  ( 4) 2 infls.   ( 1) 1 extrs.                                            
  498 points on ppm-axis = NY
      4.000000     3.992357     3.984714     3.977070     3.969427     3.961784     3.954141     3.946497     3.938854     3.931211
      3.923568     3.915925     3.908281     3.900638     3.892995     3.885352     3.877708     3.870065     3.862422     3.854779
      3.847136     3.839492     3.831849     3.824206     3.816563     3.808919     3.801276     3.793633     3.785990     3.778347
      3.770703     3.763060     3.755417     3.747774     3.740130     3.732487     3.724844     3.717201     3.709558     3.701914
      3.694271     3.686628     3.678985     3.671341     3.663698     3.656055     3.648412     3.640769     3.633125     3.625482
      3.617839     3.610196     3.602552     3.594909     3.587266     3.579623     3.571980     3.564336     3.556693     3.549050
      3.541407     3.533763     3.526120     3.518477     3.510834     3.503191     3.495547     3.487904     3.480261     3.472618
      3.464974     3.457331     3.449688     3.442045     3.434402     3.426758     3.419115     3.411472     3.403829     3.396185
      3.388542     3.380899     3.373256     3.365613     3.357969     3.350326     3.342683     3.335040     3.327396     3.319753
      3.312110     3.304467     3.296824     3.289180     3.281537     3.273894     3.266251     3.258607     3.250964     3.243321
      3.235678     3.228034     3.220391     3.212748     3.205105     3.197462     3.189818     3.182175     3.174532     3.166889
      3.159245     3.151602     3.143959     3.136316     3.128673     3.121029     3.113386     3.105743     3.098100     3.090456
      3.082813     3.075170     3.067527     3.059884     3.052240     3.044597     3.036954     3.029311     3.021667     3.014024
      3.006381     2.998738     2.991095     2.983451     2.975808     2.968165     2.960522     2.952878     2.945235     2.937592
      2.929949     2.922306     2.914662     2.907019     2.899376     2.891733     2.884089     2.876446     2.868803     2.861160
      2.853517     2.845873     2.838230     2.830587     2.822944     2.815300     2.807657     2.800014     2.792371     2.784728
      2.777084     2.769441     2.761798     2.754155     2.746511     2.738868     2.731225     2.723582     2.715939     2.708295
      2.700652     2.693009     2.685366     2.677722     2.670079     2.662436     2.654793     2.647150     2.639506     2.631863
      2.624220     2.616577     2.608933     2.601290     2.593647     2.586004     2.578361     2.570717     2.563074     2.555431
      2.547788     2.540144     2.532501     2.524858     2.517215     2.509572     2.501928     2.494285     2.486642     2.478999
      2.471355     2.463712     2.456069     2.448426     2.440783     2.433139     2.425496     2.417853     2.410210     2.402566
      2.394923     2.387280     2.379637     2.371994     2.364350     2.356707     2.349064     2.341421     2.333777     2.326134
      2.318491     2.310848     2.303205     2.295561     2.287918     2.280275     2.272632     2.264988     2.257345     2.249702
      2.242059     2.234416     2.226772     2.219129     2.211486     2.203843     2.196199     2.188556     2.180913     2.173270
      2.165627     2.157983     2.150340     2.142697     2.135054     2.127410     2.119767     2.112124     2.104481     2.096838
      2.089194     2.081551     2.073908     2.066265     2.058621     2.050978     2.043335     2.035692     2.028049     2.020405
      2.012762     2.005119     1.997476     1.989833     1.982190     1.974546     1.966903     1.959260     1.951617     1.943974
      1.936331     1.928688     1.921045     1.913402     1.905759     1.898115     1.890472     1.882829     1.875186     1.867543
      1.859900     1.852257     1.844614     1.836971     1.829327     1.821684     1.814041     1.806398     1.798755     1.791112
      1.783469     1.775826     1.768183     1.760540     1.752896     1.745253     1.737610     1.729967     1.722324     1.714681
      1.707038     1.699395     1.691752     1.684108     1.676465     1.668822     1.661179     1.653536     1.645893     1.638250
      1.630607     1.622964     1.615321     1.607677     1.600034     1.592391     1.584748     1.577105     1.569462     1.561819
      1.554176     1.546533     1.538890     1.531246     1.523603     1.515960     1.508317     1.500674     1.493031     1.485388
      1.477745     1.470102     1.462458     1.454815     1.447172     1.439529     1.431886     1.424243     1.416600     1.408957
      1.401314     1.393671     1.386027     1.378384     1.370741     1.363098     1.355455     1.347812     1.340169     1.332526
      1.324883     1.317240     1.309596     1.301953     1.294310     1.286667     1.279024     1.271381     1.263738     1.256095
      1.248452     1.240808     1.233165     1.225522     1.217879     1.210236     1.202593     1.194950     1.187307     1.179664
      1.172021     1.164377     1.156734     1.149091     1.141448     1.133805     1.126162     1.118519     1.110876     1.103233
      1.095590     1.087946     1.080303     1.072660     1.065017     1.057374     1.049731     1.042088     1.034445     1.026802
      1.019158     1.011515     1.003872     0.996229     0.988586     0.980943     0.973300     0.965657     0.958014     0.950371
      0.942727     0.935084     0.927441     0.919798     0.912155     0.904512     0.896869     0.889226     0.881583     0.873940
      0.866296     0.858653     0.851010     0.843367     0.835724     0.828081     0.820438     0.812795     0.805152     0.797508
      0.789865     0.782222     0.774579     0.766936     0.759293     0.751650     0.744007     0.736364     0.728721     0.721077
      0.713434     0.705791     0.698148     0.690505     0.682862     0.675219     0.667576     0.659933     0.652290     0.644646
      0.637003     0.629360     0.621717     0.614074     0.606431     0.598788     0.591145     0.583502     0.575858     0.568215
      0.560572     0.552929     0.545286     0.537643     0.530000     0.522357     0.514714     0.507071     0.499427     0.491784
      0.484141     0.476498     0.468855     0.461212     0.453569     0.445925     0.438282     0.430639     0.422996     0.415353
      0.407710     0.400067     0.392424     0.384780     0.377137     0.369494     0.361851     0.354208     0.346565     0.338922
      0.331278     0.323635     0.315992     0.308349     0.300706     0.293063     0.285420     0.277777     0.270133     0.262490
      0.254847     0.247204     0.239561     0.231918     0.224275     0.216631     0.208988     0.201345
 NY phased data points follow
   4.97056E+00  3.89304E+00  4.04958E+00  4.86800E+00  4.66566E+00  4.46729E+00  4.30893E+00  3.92660E+00  2.95551E+00  4.21980E+00
   5.43495E+00  3.25912E+00  3.86822E+00  3.66835E+00  5.43207E+00  4.24055E+00  2.73210E+00  3.73872E+00  6.48108E+00  3.00128E+00
   2.29052E+00  2.95645E+00  5.63334E+00  2.93756E+00  4.92928E+00  5.93111E+00  3.50314E+00  1.43274E+00  1.67798E+00  3.94515E+00
   4.95017E+00  1.26544E+00  3.96473E+00  4.44285E+00  2.11551E+00  4.49019E+00  5.51624E+00  4.12989E+00  3.64170E+00  5.20060E+00
   1.19241E+00  1.08379E+00  3.64340E+00  1.81939E+00  1.63285E+00  2.35603E+00  3.28913E+00  1.93297E+00  3.44290E+00  3.40239E+00
   2.88214E+00  5.33901E+00  2.73402E+00  2.01725E+00  3.30209E+00  1.51802E+00  2.68118E+00  3.03165E+00  2.63223E+00  3.99487E+00
   8.81506E-01  2.05817E+00  3.54855E+00  2.69158E+00  3.90820E+00  2.47122E+00  2.23897E+00  1.21032E+00  1.27807E+00  1.09222E+00
   3.66406E+00  2.69002E+00  1.62819E+00  1.94613E+00  2.66292E+00  2.46268E+00  2.18018E+00  1.56109E+00  2.92571E+00  1.14666E+00
   2.47965E+00  1.69726E+00  1.15734E+00  2.17554E+00  1.49107E+00  2.57369E+00  1.80442E+00  2.37227E+00  2.89053E+00  2.77478E+00
   6.71811E-01  2.14270E+00  1.25969E+00  1.31258E+00  1.67717E+00  1.93870E+00  1.54647E+00  4.48089E-01  7.54940E-01 -4.75031E-01
  -4.74995E-01  4.76298E-01 -2.30380E-01  3.18931E-01  1.34426E+00  4.05668E-01 -2.11906E-01  2.43008E+00  1.13596E+00  7.09920E-02
  -2.32575E-01 -5.61404E-01 -4.51106E-02 -5.30546E-01  1.12502E+00  1.51354E+00 -1.34456E+00  1.58890E-01 -1.13573E+00  3.73375E-04
  -1.17751E+00 -8.61844E-01  4.55277E-01 -5.49938E-01  1.01123E+00  2.11759E-01  7.04989E-01 -6.26922E-02 -1.33514E+00  1.30551E+00
   4.64263E-01  1.59819E+00  1.59111E+00  1.44063E+00  1.47866E+00 -2.96028E-01  1.13429E+00  3.09348E+00  7.09195E-01 -1.71883E+00
  -1.15590E+00  2.61473E+00 -1.62891E+00  1.50020E+00  3.07621E+00  3.47938E+00  6.64181E-01  1.49482E+00  9.79692E-01  1.13319E+00
   1.44141E+00  7.85218E-01  1.76129E+00  2.83707E+00  2.12742E+00  2.70991E+00  1.20938E+00  2.58006E+00  8.54567E-01  4.79935E-01
   2.23998E+00  8.62260E-01  1.42021E+00  1.09021E+00 -4.00165E-01  2.92863E+00  2.39681E-01 -8.18338E-01  1.33984E+00  1.13305E+00
   1.14277E+00 -3.60625E-01 -4.66511E-01  1.89542E+00 -2.68978E-01 -3.80480E+00 -2.27746E+00 -2.45530E+00 -2.22132E+00 -2.56425E+00
  -2.50231E+00 -3.82373E-01 -1.49726E+00 -3.28377E+00 -6.69714E-01 -1.63753E+00 -1.93621E+00 -1.10246E+00 -1.81628E+00 -8.48319E-01
  -1.11743E+00 -1.82749E+00 -1.12615E+00 -3.44156E+00 -4.10268E-01 -1.50618E+00 -1.27044E+00 -1.93702E-01  7.38641E-01  1.59461E+00
   6.78672E-01  5.28407E-02  4.32758E-01 -6.58106E-01  1.27770E+00  4.85179E-02  5.05662E-01  3.30118E-01  2.18674E+00  7.72992E-01
   3.20437E-01  2.05937E-01  2.62454E+00  7.60356E-01 -2.14149E-01  2.34677E+00  1.26033E+00  1.49122E+00 -8.28756E-01  6.39726E-01
   2.18872E+00  3.40254E+00  3.03416E+00  5.20338E-01  1.25530E+00  1.83180E+00  8.06934E-01  1.76787E-01  1.46090E+00  2.06681E+00
   1.26911E+00  2.49762E+00  1.36711E+00  2.61575E+00  4.82040E-02  9.59932E-01  3.19081E+00  1.46097E+00  3.58431E+00  1.47957E+00
   1.98671E+00  1.14492E+00  1.81765E+00  1.79217E+00  3.24282E+00  7.17068E-01  1.87838E+00  1.89581E+00  3.67003E+00  1.94070E+00
   2.36194E+00  2.20339E+00  2.77410E+00  1.77688E-01  2.06346E+00 -2.70034E-01 -1.52378E+00  1.54868E+00  1.35342E-01  1.74811E+00
  -1.42309E+00  1.00264E+00 -3.16894E-01  6.30701E-01  2.63009E+00  5.54921E-02  2.04790E+00  7.61126E-01  3.63225E+00  2.53414E+00
   1.54965E+00  2.28727E+00  1.62417E+00  1.92598E+00  8.99028E-01  2.40971E+00  2.88608E+00  2.16007E+00  1.04234E+00  6.77198E-01
   2.41161E+00  2.53177E+00  2.58884E+00  1.49610E+00  1.42880E+00  1.84365E+00  1.15376E+00  1.15086E+00  1.48174E+00  1.94412E+00
   3.06543E-01  1.32636E+00  2.14933E+00  2.19790E+00 -4.31429E-01  9.15373E-01  3.02681E-01  1.10061E+00 -6.20929E-01  3.27311E+00
  -5.38354E-01  3.90805E-01  1.03420E+00  2.96946E-01  2.05103E+00  7.31315E-01  3.18189E+00  2.03423E+00  3.79421E+00  1.27110E+00
   9.99793E-01  3.66108E+00  3.96190E+00  6.65186E-01  3.33406E+00  1.22610E+00  3.10589E+00  3.19880E+00  2.86983E+00  3.15426E+00
   2.53527E+00  4.63453E+00  3.19964E+00  4.08844E+00  1.57119E+00  4.38260E+00  1.72542E+00  6.74460E-01  2.41469E+00  2.65398E+00
   1.91169E+00  9.12129E-01  3.14677E+00  2.07852E+00  2.53781E+00  1.96247E+00  2.41164E+00  3.31842E+00  3.00964E+00  2.74590E+00
   2.50783E+00  3.03592E+00  2.06077E+00  1.16192E+00  2.26520E+00  1.91667E-01 -3.82330E-01  2.27021E+00  2.72436E+00  4.38991E-01
   1.13566E+00  2.00393E+00 -3.25679E-01  1.74532E+00  7.07289E-01  1.36741E+00  1.95526E-01  1.64993E+00  6.80764E-02 -7.75413E-01
   2.63727E+00  8.87074E-01  1.10142E-03  5.58033E-01  7.27059E-01  3.22236E+00  2.28490E+00  1.66986E+00  1.57854E+00  1.01014E+00
   2.10272E+00  1.47711E+00  7.11944E-01  9.46512E-01  3.28822E-01  7.25764E-01  1.40271E+00  3.89633E-01  2.13307E+00  4.51690E+00
   2.99303E-01  2.19628E+00  1.49868E+00  6.06519E-01 -7.65667E-01  1.57283E+00  6.88940E-01  3.48095E+00  1.08851E-01 -7.10860E-01
   7.33398E-01  9.57388E-01  8.07884E-01  1.17706E+00 -1.04177E+00 -1.38391E+00  1.81886E+00  3.40622E-01  8.53948E-01 -2.08583E-02
  -1.47976E-01 -9.29402E-01 -1.02226E+00  2.09944E+00  1.36410E+00  1.29138E+00  7.36407E-01  1.29564E+00  7.82534E-01  1.36002E+00
   4.44108E-02  6.69611E-01  2.09881E+00  7.82977E-01  5.91432E-01 -1.11468E+00 -1.33363E-01 -1.49964E+00  2.20250E+00 -1.76163E+00
   7.38838E-02  1.34993E+00  1.64616E+00  1.36855E+00  8.79255E-01  1.89145E+00  2.29530E-02  1.82393E+00 -1.19106E+00  9.86874E-01
   1.07004E+00  1.40221E+00  9.85427E-02 -7.17399E-01  9.97411E-01  8.12462E-01  7.81494E-01  2.41353E-01  1.14879E+00 -8.48248E-01
   1.99552E+00  5.87627E-02  6.19851E-02  1.25089E+00 -5.98495E-01  1.29716E+00  1.27741E+00  3.16234E-01 -4.47161E-01  1.18043E+00
  -8.89195E-01  2.60723E-01 -9.79237E-01 -4.54207E-01  8.00416E-01  1.36103E+00 -1.64396E+00  1.88575E+00  1.24587E-01  1.37341E+00
   1.50402E+00  8.75905E-01 -6.39157E-01  5.08116E-01 -1.87365E+00  3.02521E+00 -7.68901E-01  1.63916E-01  1.20438E-01 -1.17009E-01
   1.84042E+00  3.33291E+00  5.07603E-01  3.07423E+00 -3.61538E-01  8.59861E-01  8.72883E-01  1.55192E+00  1.40501E+00  6.12845E-02
   3.84737E-01  1.70402E+00  2.55140E+00  1.94097E+00 -5.48776E-01 -4.07554E-01  2.46869E-01  3.76197E+00  8.45585E-01 -3.58263E-01
   3.13605E-01  1.87204E-01 -5.59419E-01  1.37323E+00 -3.52321E-02 -4.91510E-01  3.02813E+00 -3.92571E-01
 NY points of the fit to the data follow
   3.08940E+00  2.94305E+00  2.79077E+00  2.64859E+00  2.53019E+00  2.43842E+00  2.38100E+00  2.35187E+00  2.33774E+00  2.34313E+00
   2.36938E+00  2.41117E+00  2.47402E+00  2.57053E+00  2.71535E+00  2.87565E+00  2.99552E+00  3.02643E+00  2.96200E+00  2.83282E+00
   2.68965E+00  2.63171E+00  2.71440E+00  2.91653E+00  3.18031E+00  3.44301E+00  3.65376E+00  3.78411E+00  3.85649E+00  3.90208E+00
   3.92665E+00  3.92916E+00  3.91240E+00  3.87896E+00  3.83445E+00  3.78993E+00  3.76544E+00  3.79212E+00  3.86873E+00  3.92247E+00
   3.89377E+00  3.77552E+00  3.61464E+00  3.47443E+00  3.41668E+00  3.49049E+00  3.64863E+00  3.80761E+00  3.89986E+00  3.89140E+00
   3.78412E+00  3.61187E+00  3.43151E+00  3.25950E+00  3.08462E+00  2.90399E+00  2.71963E+00  2.53854E+00  2.37050E+00  2.23258E+00
   2.14783E+00  2.13557E+00  2.18067E+00  2.24034E+00  2.28627E+00  2.31226E+00  2.31907E+00  2.30946E+00  2.28744E+00  2.25759E+00
   2.22379E+00  2.18834E+00  2.15768E+00  2.14088E+00  2.13620E+00  2.13535E+00  2.12350E+00  2.08213E+00  2.00201E+00  1.88421E+00
   1.73933E+00  1.58130E+00  1.42028E+00  1.26544E+00  1.12451E+00  1.00608E+00  9.16108E-01  8.48073E-01  7.94181E-01  7.49653E-01
   7.13329E-01  6.85691E-01  6.67426E-01  6.57557E-01  6.53976E-01  6.56131E-01  6.63806E-01  6.75771E-01  6.89897E-01  7.01660E-01
   7.02981E-01  6.88284E-01  6.60512E-01  6.27744E-01  5.98694E-01  5.78804E-01  5.71458E-01  5.78961E-01  6.01373E-01  6.35520E-01
   6.77849E-01  7.19856E-01  7.55587E-01  7.84499E-01  8.09325E-01  8.36296E-01  8.80123E-01  9.42865E-01  1.01703E+00  1.09729E+00
   1.17951E+00  1.26117E+00  1.34240E+00  1.42234E+00  1.49512E+00  1.55408E+00  1.59508E+00  1.61570E+00  1.61612E+00  1.59844E+00
   1.56493E+00  1.51798E+00  1.45819E+00  1.38679E+00  1.30642E+00  1.22038E+00  1.13237E+00  1.04718E+00  9.72163E-01  9.16962E-01
   8.87885E-01  8.72580E-01  8.60135E-01  8.48394E-01  8.37185E-01  8.27463E-01  8.19948E-01  8.12219E-01  7.99291E-01  7.79486E-01
   7.53894E-01  7.24650E-01  6.95488E-01  6.69451E-01  6.47766E-01  6.30561E-01  6.15848E-01  6.02750E-01  5.91043E-01  5.80575E-01
   5.71074E-01  5.62632E-01  5.55511E-01  5.49477E-01  5.44153E-01  5.39131E-01  5.33965E-01  5.28099E-01  5.21359E-01  5.14223E-01
   5.06878E-01  4.99417E-01  4.92009E-01  4.85105E-01  4.78360E-01  4.71252E-01  4.64484E-01  4.59017E-01  4.55115E-01  4.54136E-01
   4.58051E-01  4.67886E-01  4.78831E-01  4.74561E-01  4.47140E-01  3.80637E-01  2.65210E-01  1.07245E-01 -7.87238E-02 -2.72308E-01
  -4.31910E-01 -5.11501E-01 -4.92143E-01 -3.81172E-01 -1.71177E-01  1.28526E-01  4.73367E-01  8.10990E-01  1.06343E+00  1.11253E+00
   9.69949E-01  7.30533E-01  4.60167E-01  2.06944E-01  1.67958E-02 -4.62952E-02  3.84991E-03  1.14517E-01  2.49932E-01  3.71860E-01
   4.54197E-01  4.62159E-01  3.88540E-01  2.99814E-01  2.88860E-01  3.87230E-01  5.77900E-01  8.32465E-01  1.13624E+00  1.44118E+00
   1.67384E+00  1.77022E+00  1.68213E+00  1.42303E+00  1.12607E+00  8.49714E-01  6.32728E-01  5.51142E-01  6.64461E-01  9.81930E-01
   1.42251E+00  1.88948E+00  2.27174E+00  2.51241E+00  2.57485E+00  2.44120E+00  2.17058E+00  1.86463E+00  1.56504E+00  1.27187E+00
   1.00754E+00  7.88453E-01  6.24817E-01  5.16297E-01  4.51052E-01  4.16038E-01  4.02867E-01  3.84608E-01  3.24335E-01  2.31462E-01
   1.90549E-01  2.50093E-01  4.15480E-01  6.79220E-01  1.00504E+00  1.30967E+00  1.53584E+00  1.70501E+00  1.81968E+00  1.87468E+00
   1.88051E+00  1.85195E+00  1.79487E+00  1.72749E+00  1.67501E+00  1.65055E+00  1.65835E+00  1.69065E+00  1.73215E+00  1.76216E+00
   1.76446E+00  1.73118E+00  1.67476E+00  1.62129E+00  1.58256E+00  1.55791E+00  1.54640E+00  1.54551E+00  1.54343E+00  1.53589E+00
   1.52707E+00  1.51396E+00  1.49425E+00  1.46687E+00  1.43186E+00  1.39245E+00  1.35682E+00  1.33026E+00  1.31195E+00  1.30003E+00
   1.29334E+00  1.29069E+00  1.29056E+00  1.29111E+00  1.29193E+00  1.29439E+00  1.29902E+00  1.30587E+00  1.31486E+00  1.32575E+00
   1.33818E+00  1.35161E+00  1.36582E+00  1.38079E+00  1.39624E+00  1.41205E+00  1.42841E+00  1.44556E+00  1.46395E+00  1.48435E+00
   1.50788E+00  1.53615E+00  1.57163E+00  1.61824E+00  1.68325E+00  1.78322E+00  1.94148E+00  2.12449E+00  2.27953E+00  2.38053E+00
   2.41794E+00  2.38801E+00  2.28379E+00  2.09661E+00  1.86569E+00  1.64661E+00  1.45740E+00  1.29872E+00  1.16800E+00  1.06649E+00
   9.99645E-01  9.73019E-01  9.89802E-01  1.05190E+00  1.16219E+00  1.32771E+00  1.56194E+00  1.85031E+00  2.16234E+00  2.47796E+00
   2.76140E+00  2.93830E+00  2.97553E+00  2.88225E+00  2.69549E+00  2.44675E+00  2.15448E+00  1.85220E+00  1.60106E+00  1.41996E+00
   1.28577E+00  1.18771E+00  1.12061E+00  1.08150E+00  1.06868E+00  1.08039E+00  1.11483E+00  1.17195E+00  1.25431E+00  1.36269E+00
   1.48421E+00  1.57743E+00  1.61837E+00  1.61231E+00  1.56406E+00  1.47770E+00  1.36281E+00  1.24352E+00  1.15525E+00  1.09747E+00
   1.05504E+00  1.02145E+00  9.93786E-01  9.70473E-01  9.50617E-01  9.33700E-01  9.19437E-01  9.07683E-01  8.98380E-01  8.91534E-01
   8.87201E-01  8.85475E-01  8.86472E-01  8.90310E-01  8.97103E-01  9.06948E-01  9.19924E-01  9.36077E-01  9.55403E-01  9.77827E-01
   1.00319E+00  1.03124E+00  1.06163E+00  1.09391E+00  1.12750E+00  1.16174E+00  1.19586E+00  1.22899E+00  1.26027E+00  1.28878E+00
   1.31364E+00  1.33401E+00  1.34916E+00  1.35849E+00  1.36158E+00  1.35817E+00  1.34821E+00  1.33186E+00  1.30944E+00  1.28149E+00
   1.24865E+00  1.21171E+00  1.17150E+00  1.12889E+00  1.08476E+00  1.03995E+00  9.95212E-01  9.51231E-01  9.08571E-01  8.67689E-01
   8.28931E-01  7.92537E-01  7.58647E-01  7.27310E-01  6.98505E-01  6.72152E-01  6.48133E-01  6.26298E-01  6.06480E-01  5.88497E-01
   5.72168E-01  5.57321E-01  5.43794E-01  5.31438E-01  5.20112E-01  5.09691E-01  5.00063E-01  4.91134E-01  4.82819E-01  4.75046E-01
   4.67747E-01  4.60865E-01  4.54353E-01  4.48169E-01  4.42280E-01  4.36652E-01  4.31259E-01  4.26074E-01  4.21079E-01  4.16257E-01
   4.11592E-01  4.07068E-01  4.02672E-01  3.98391E-01  3.94218E-01  3.90146E-01  3.86168E-01  3.82275E-01  3.78460E-01  3.74718E-01
   3.71046E-01  3.67439E-01  3.63893E-01  3.60403E-01  3.56963E-01  3.53573E-01  3.50231E-01  3.46934E-01  3.43679E-01  3.40463E-01
   3.37284E-01  3.34141E-01  3.31033E-01  3.27958E-01  3.24913E-01  3.21896E-01  3.18907E-01  3.15946E-01  3.13012E-01  3.10105E-01
   3.07222E-01  3.04362E-01  3.01527E-01  2.98715E-01  2.95927E-01  2.93161E-01  2.90417E-01  2.87696E-01  2.84998E-01  2.82325E-01
   2.79677E-01  2.77054E-01  2.74458E-01  2.71890E-01  2.69354E-01  2.66851E-01  2.64386E-01  2.61963E-01
 NY background values follow
     1.231E+00    1.229E+00    1.227E+00    1.225E+00    1.223E+00    1.221E+00    1.219E+00    1.217E+00    1.215E+00    1.213E+00
     1.211E+00    1.208E+00    1.206E+00    1.204E+00    1.202E+00    1.200E+00    1.198E+00    1.196E+00    1.194E+00    1.192E+00
     1.190E+00    1.188E+00    1.186E+00    1.184E+00    1.182E+00    1.180E+00    1.178E+00    1.176E+00    1.174E+00    1.171E+00
     1.169E+00    1.167E+00    1.165E+00    1.163E+00    1.161E+00    1.159E+00    1.157E+00    1.155E+00    1.153E+00    1.151E+00
     1.149E+00    1.147E+00    1.145E+00    1.143E+00    1.141E+00    1.139E+00    1.137E+00    1.134E+00    1.132E+00    1.130E+00
     1.128E+00    1.126E+00    1.124E+00    1.122E+00    1.120E+00    1.118E+00    1.116E+00    1.114E+00    1.112E+00    1.110E+00
     1.108E+00    1.106E+00    1.104E+00    1.102E+00    1.100E+00    1.097E+00    1.095E+00    1.093E+00    1.091E+00    1.089E+00
     1.087E+00    1.085E+00    1.083E+00    1.081E+00    1.079E+00    1.077E+00    1.075E+00    1.073E+00    1.071E+00    1.069E+00
     1.067E+00    1.065E+00    1.063E+00    1.060E+00    1.058E+00    1.056E+00    1.054E+00    1.052E+00    1.050E+00    1.048E+00
     1.046E+00    1.044E+00    1.042E+00    1.040E+00    1.038E+00    1.036E+00    1.034E+00    1.032E+00    1.030E+00    1.028E+00
     1.026E+00    1.023E+00    1.021E+00    1.019E+00    1.017E+00    1.015E+00    1.013E+00    1.011E+00    1.009E+00    1.007E+00
     1.005E+00    1.003E+00    1.001E+00    9.988E-01    9.967E-01    9.947E-01    9.926E-01    9.906E-01    9.885E-01    9.865E-01
     9.844E-01    9.824E-01    9.803E-01    9.783E-01    9.762E-01    9.741E-01    9.721E-01    9.700E-01    9.680E-01    9.659E-01
     9.639E-01    9.618E-01    9.598E-01    9.577E-01    9.556E-01    9.536E-01    9.515E-01    9.495E-01    9.474E-01    9.454E-01
     9.433E-01    9.413E-01    9.392E-01    9.371E-01    9.351E-01    9.330E-01    9.310E-01    9.289E-01    9.269E-01    9.248E-01
     9.228E-01    9.207E-01    9.186E-01    9.166E-01    9.145E-01    9.125E-01    9.104E-01    9.084E-01    9.063E-01    9.043E-01
     9.022E-01    9.001E-01    8.981E-01    8.960E-01    8.940E-01    8.919E-01    8.899E-01    8.878E-01    8.858E-01    8.837E-01
     8.817E-01    8.796E-01    8.775E-01    8.755E-01    8.734E-01    8.714E-01    8.693E-01    8.673E-01    8.652E-01    8.632E-01
     8.611E-01    8.590E-01    8.570E-01    8.549E-01    8.529E-01    8.508E-01    8.488E-01    8.467E-01    8.447E-01    8.426E-01
     8.405E-01    8.385E-01    8.364E-01    8.344E-01    8.323E-01    8.303E-01    8.282E-01    8.262E-01    8.241E-01    8.221E-01
     8.200E-01    8.179E-01    8.159E-01    8.138E-01    8.118E-01    8.097E-01    8.077E-01    8.056E-01    8.036E-01    8.015E-01
     7.994E-01    7.974E-01    7.953E-01    7.933E-01    7.912E-01    7.892E-01    7.871E-01    7.851E-01    7.830E-01    7.810E-01
     7.789E-01    7.768E-01    7.748E-01    7.727E-01    7.707E-01    7.686E-01    7.666E-01    7.645E-01    7.625E-01    7.604E-01
     7.584E-01    7.563E-01    7.542E-01    7.522E-01    7.501E-01    7.481E-01    7.460E-01    7.440E-01    7.419E-01    7.399E-01
     7.378E-01    7.357E-01    7.337E-01    7.316E-01    7.296E-01    7.275E-01    7.255E-01    7.234E-01    7.214E-01    7.193E-01
     7.173E-01    7.152E-01    7.131E-01    7.111E-01    7.090E-01    7.070E-01    7.049E-01    7.029E-01    7.008E-01    6.988E-01
     6.967E-01    6.947E-01    6.926E-01    6.905E-01    6.885E-01    6.864E-01    6.844E-01    6.823E-01    6.803E-01    6.782E-01
     6.762E-01    6.741E-01    6.721E-01    6.700E-01    6.679E-01    6.659E-01    6.638E-01    6.618E-01    6.597E-01    6.577E-01
     6.556E-01    6.536E-01    6.515E-01    6.495E-01    6.474E-01    6.453E-01    6.433E-01    6.412E-01    6.392E-01    6.371E-01
     6.351E-01    6.330E-01    6.310E-01    6.289E-01    6.269E-01    6.248E-01    6.227E-01    6.207E-01    6.186E-01    6.166E-01
     6.145E-01    6.125E-01    6.104E-01    6.084E-01    6.063E-01    6.043E-01    6.022E-01    6.001E-01    5.981E-01    5.960E-01
     5.940E-01    5.919E-01    5.899E-01    5.878E-01    5.858E-01    5.837E-01    5.817E-01    5.796E-01    5.775E-01    5.755E-01
     5.734E-01    5.714E-01    5.693E-01    5.673E-01    5.652E-01    5.632E-01    5.611E-01    5.591E-01    5.570E-01    5.549E-01
     5.529E-01    5.508E-01    5.488E-01    5.467E-01    5.447E-01    5.426E-01    5.406E-01    5.385E-01    5.365E-01    5.344E-01
     5.323E-01    5.303E-01    5.282E-01    5.262E-01    5.241E-01    5.221E-01    5.200E-01    5.180E-01    5.159E-01    5.139E-01
     5.118E-01    5.097E-01    5.077E-01    5.056E-01    5.036E-01    5.015E-01    4.995E-01    4.974E-01    4.954E-01    4.933E-01
     4.913E-01    4.892E-01    4.871E-01    4.851E-01    4.830E-01    4.810E-01    4.789E-01    4.769E-01    4.748E-01    4.728E-01
     4.707E-01    4.687E-01    4.666E-01    4.645E-01    4.625E-01    4.604E-01    4.584E-01    4.563E-01    4.543E-01    4.522E-01
     4.502E-01    4.481E-01    4.461E-01    4.440E-01    4.419E-01    4.399E-01    4.378E-01    4.358E-01    4.337E-01    4.317E-01
     4.296E-01    4.276E-01    4.255E-01    4.235E-01    4.214E-01    4.194E-01    4.173E-01    4.152E-01    4.132E-01    4.111E-01
     4.091E-01    4.070E-01    4.050E-01    4.029E-01    4.009E-01    3.988E-01    3.968E-01    3.947E-01    3.926E-01    3.906E-01
     3.885E-01    3.865E-01    3.844E-01    3.824E-01    3.803E-01    3.783E-01    3.762E-01    3.742E-01    3.721E-01    3.700E-01
     3.680E-01    3.659E-01    3.639E-01    3.618E-01    3.598E-01    3.577E-01    3.557E-01    3.536E-01    3.516E-01    3.495E-01
     3.475E-01    3.454E-01    3.433E-01    3.413E-01    3.392E-01    3.372E-01    3.351E-01    3.331E-01    3.310E-01    3.290E-01
     3.269E-01    3.249E-01    3.228E-01    3.207E-01    3.187E-01    3.166E-01    3.146E-01    3.125E-01    3.105E-01    3.084E-01
     3.064E-01    3.043E-01    3.023E-01    3.002E-01    2.981E-01    2.961E-01    2.940E-01    2.920E-01    2.899E-01    2.879E-01
     2.858E-01    2.838E-01    2.817E-01    2.797E-01    2.776E-01    2.756E-01    2.735E-01    2.714E-01    2.694E-01    2.673E-01
     2.653E-01    2.632E-01    2.612E-01    2.591E-01    2.571E-01    2.550E-01    2.530E-01    2.509E-01    2.488E-01    2.468E-01
     2.447E-01    2.427E-01    2.406E-01    2.386E-01    2.365E-01    2.345E-01    2.324E-01    2.304E-01    2.283E-01    2.263E-01
     2.242E-01    2.221E-01    2.201E-01    2.180E-01    2.160E-01    2.139E-01    2.119E-01    2.098E-01
 Ala      Conc. = 2.73E+02
