 LCModel (Version 6.3-1L) Copyright: S.W. Provencher.          Ref.: Magn. Reson. Med. 30:672-679 (1993).                
 Slice#1 Row#5 Col#13  K_02_press_1_raw_act
 36 lines in following concentration table = NCONC+1
    Conc.  %SD /Cr+PCr  Metabolite                                         
    0.000 999%   0.000 Ala                                                 
   50.957  79%   1.975 Asp                                                 
    0.000 999%   0.000 Cr                                                  
   25.796 160%   1.000 PCr                                                 
   23.554 104%   0.913 GABA                                                
   22.742 107%   0.882 Glc                                                 
    0.000 999%   0.000 Gln                                                 
    0.000 999%   0.000 Glu                                                 
    0.000 999%   0.000 GPC                                                 
    0.000 999%   0.000 PCh                                                 
    0.000 999%   0.000 GSH                                                 
    0.000 999%   0.000 Ins                                                 
    0.000 999%   0.000 Lac                                                 
  859.905   8%  33.335 NAA                                                 
    0.000 999%   0.000 NAAG                                                
    5.662 136%   0.219 Scyllo                                              
   30.080 131%   1.166 Tau                                                 
    6.876 242%   0.267 -CrCH2                                              
    0.000 999%   0.000 GPC+PCh                                             
  859.905   8%  33.335 NAA+NAAG                                            
   25.796 160%   1.000 Cr+PCr                                              
    0.000 999%   0.000 Glu+Gln                                             
 2.35E+04  10% 910.225 Lip13a                                              
  196.209  82%   7.606 Lip13b                                              
 7.21E+03   9% 279.658 Lip09                                               
 5.20E+03  10% 201.506 MM09                                                
 1.34E+03  28%  51.862 Lip20                                               
    0.000 999%   0.000 MM20                                                
 4.78E+03  15% 185.490 MM12                                                
 1.00E+04  11% 388.441 MM14                                                
 3.25E+03  14% 126.155 MM17                                                
 2.37E+04  10% 917.831 Lip13a+Lip13b                                       
 3.85E+04   4% 1.5E+03 MM14+Lip13a+Lip13b+MM12                             
 1.24E+04   6% 481.164 MM09+Lip09                                          
 1.34E+03  28%  51.862 MM20+Lip20                                          
   6 lines in following misc. output table
  FWHM = 0.107 ppm    S/N =  21                                            
  Data shift = 0.054 ppm                                                   
  Ph:  -3 deg      -6.6 deg/ppm                                            
  alphaB,S = 8.5E+01,   1.3E+02                                            
   10 spline knots.   Ns = 9(2)                                            
  (10) 5 infls.   (10) 3 extrs.                                            
  498 points on ppm-axis = NY
      4.000000     3.992357     3.984714     3.977070     3.969427     3.961784     3.954141     3.946497     3.938854     3.931211
      3.923568     3.915925     3.908281     3.900638     3.892995     3.885352     3.877708     3.870065     3.862422     3.854779
      3.847136     3.839492     3.831849     3.824206     3.816563     3.808919     3.801276     3.793633     3.785990     3.778347
      3.770703     3.763060     3.755417     3.747774     3.740130     3.732487     3.724844     3.717201     3.709558     3.701914
      3.694271     3.686628     3.678985     3.671341     3.663698     3.656055     3.648412     3.640769     3.633125     3.625482
      3.617839     3.610196     3.602552     3.594909     3.587266     3.579623     3.571980     3.564336     3.556693     3.549050
      3.541407     3.533763     3.526120     3.518477     3.510834     3.503191     3.495547     3.487904     3.480261     3.472618
      3.464974     3.457331     3.449688     3.442045     3.434402     3.426758     3.419115     3.411472     3.403829     3.396185
      3.388542     3.380899     3.373256     3.365613     3.357969     3.350326     3.342683     3.335040     3.327396     3.319753
      3.312110     3.304467     3.296824     3.289180     3.281537     3.273894     3.266251     3.258607     3.250964     3.243321
      3.235678     3.228034     3.220391     3.212748     3.205105     3.197462     3.189818     3.182175     3.174532     3.166889
      3.159245     3.151602     3.143959     3.136316     3.128673     3.121029     3.113386     3.105743     3.098100     3.090456
      3.082813     3.075170     3.067527     3.059884     3.052240     3.044597     3.036954     3.029311     3.021667     3.014024
      3.006381     2.998738     2.991095     2.983451     2.975808     2.968165     2.960522     2.952878     2.945235     2.937592
      2.929949     2.922306     2.914662     2.907019     2.899376     2.891733     2.884089     2.876446     2.868803     2.861160
      2.853517     2.845873     2.838230     2.830587     2.822944     2.815300     2.807657     2.800014     2.792371     2.784728
      2.777084     2.769441     2.761798     2.754155     2.746511     2.738868     2.731225     2.723582     2.715939     2.708295
      2.700652     2.693009     2.685366     2.677722     2.670079     2.662436     2.654793     2.647150     2.639506     2.631863
      2.624220     2.616577     2.608933     2.601290     2.593647     2.586004     2.578361     2.570717     2.563074     2.555431
      2.547788     2.540144     2.532501     2.524858     2.517215     2.509572     2.501928     2.494285     2.486642     2.478999
      2.471355     2.463712     2.456069     2.448426     2.440783     2.433139     2.425496     2.417853     2.410210     2.402566
      2.394923     2.387280     2.379637     2.371994     2.364350     2.356707     2.349064     2.341421     2.333777     2.326134
      2.318491     2.310848     2.303205     2.295561     2.287918     2.280275     2.272632     2.264988     2.257345     2.249702
      2.242059     2.234416     2.226772     2.219129     2.211486     2.203843     2.196199     2.188556     2.180913     2.173270
      2.165627     2.157983     2.150340     2.142697     2.135054     2.127410     2.119767     2.112124     2.104481     2.096838
      2.089194     2.081551     2.073908     2.066265     2.058621     2.050978     2.043335     2.035692     2.028049     2.020405
      2.012762     2.005119     1.997476     1.989833     1.982190     1.974546     1.966903     1.959260     1.951617     1.943974
      1.936331     1.928688     1.921045     1.913402     1.905759     1.898115     1.890472     1.882829     1.875186     1.867543
      1.859900     1.852257     1.844614     1.836971     1.829327     1.821684     1.814041     1.806398     1.798755     1.791112
      1.783469     1.775826     1.768183     1.760540     1.752896     1.745253     1.737610     1.729967     1.722324     1.714681
      1.707038     1.699395     1.691752     1.684108     1.676465     1.668822     1.661179     1.653536     1.645893     1.638250
      1.630607     1.622964     1.615321     1.607677     1.600034     1.592391     1.584748     1.577105     1.569462     1.561819
      1.554176     1.546533     1.538890     1.531246     1.523603     1.515960     1.508317     1.500674     1.493031     1.485388
      1.477745     1.470102     1.462458     1.454815     1.447172     1.439529     1.431886     1.424243     1.416600     1.408957
      1.401314     1.393671     1.386027     1.378384     1.370741     1.363098     1.355455     1.347812     1.340169     1.332526
      1.324883     1.317240     1.309596     1.301953     1.294310     1.286667     1.279024     1.271381     1.263738     1.256095
      1.248452     1.240808     1.233165     1.225522     1.217879     1.210236     1.202593     1.194950     1.187307     1.179664
      1.172021     1.164377     1.156734     1.149091     1.141448     1.133805     1.126162     1.118519     1.110876     1.103233
      1.095590     1.087946     1.080303     1.072660     1.065017     1.057374     1.049731     1.042088     1.034445     1.026802
      1.019158     1.011515     1.003872     0.996229     0.988586     0.980943     0.973300     0.965657     0.958014     0.950371
      0.942727     0.935084     0.927441     0.919798     0.912155     0.904512     0.896869     0.889226     0.881583     0.873940
      0.866296     0.858653     0.851010     0.843367     0.835724     0.828081     0.820438     0.812795     0.805152     0.797508
      0.789865     0.782222     0.774579     0.766936     0.759293     0.751650     0.744007     0.736364     0.728721     0.721077
      0.713434     0.705791     0.698148     0.690505     0.682862     0.675219     0.667576     0.659933     0.652290     0.644646
      0.637003     0.629360     0.621717     0.614074     0.606431     0.598788     0.591145     0.583502     0.575858     0.568215
      0.560572     0.552929     0.545286     0.537643     0.530000     0.522357     0.514714     0.507071     0.499427     0.491784
      0.484141     0.476498     0.468855     0.461212     0.453569     0.445925     0.438282     0.430639     0.422996     0.415353
      0.407710     0.400067     0.392424     0.384780     0.377137     0.369494     0.361851     0.354208     0.346565     0.338922
      0.331278     0.323635     0.315992     0.308349     0.300706     0.293063     0.285420     0.277777     0.270133     0.262490
      0.254847     0.247204     0.239561     0.231918     0.224275     0.216631     0.208988     0.201345
 NY phased data points follow
   1.13313E+01  1.09180E+01  1.29272E+01  1.36496E+01  8.97628E+00  1.43039E+01  9.48019E+00  1.13966E+01  8.85429E+00  9.07560E+00
   9.04520E+00  1.25494E+01  7.57843E+00  1.17897E+01  1.13256E+01  1.18659E+01  1.31257E+01  1.15638E+01  1.16507E+01  1.11432E+01
   1.29529E+01  1.36381E+01  1.02664E+01  1.22094E+01  1.15066E+01  1.16606E+01  1.06469E+01  9.47376E+00  1.44090E+01  1.30308E+01
   1.37512E+01  1.39862E+01  1.37541E+01  1.28915E+01  1.32793E+01  1.37097E+01  1.46003E+01  1.19379E+01  1.20398E+01  1.12986E+01
   1.00593E+01  1.13280E+01  1.04762E+01  9.21336E+00  6.62365E+00  1.12787E+01  1.41713E+01  1.05960E+01  1.09855E+01  1.36828E+01
   1.30110E+01  1.03843E+01  1.08352E+01  1.13940E+01  1.24030E+01  1.10014E+01  1.39208E+01  1.35154E+01  1.14637E+01  1.34931E+01
   6.93599E+00  1.32712E+01  1.77213E+01  1.14705E+01  1.59350E+01  1.22621E+01  1.39847E+01  1.19762E+01  1.65291E+01  1.22593E+01
   1.09082E+01  1.18834E+01  1.27858E+01  1.21975E+01  1.42651E+01  1.29246E+01  1.14365E+01  8.30505E+00  1.13710E+01  1.29116E+01
   1.63385E+01  1.10521E+01  1.26820E+01  1.27502E+01  1.39361E+01  1.26166E+01  1.48525E+01  1.28810E+01  1.19251E+01  1.16906E+01
   1.17713E+01  1.31353E+01  1.28117E+01  1.36531E+01  1.58635E+01  1.70925E+01  1.59670E+01  1.10896E+01  1.15543E+01  8.75259E+00
   1.21048E+01  1.17725E+01  1.42368E+01  1.56067E+01  1.40639E+01  1.33433E+01  1.12376E+01  1.38250E+01  1.47322E+01  1.44435E+01
   1.38570E+01  1.45913E+01  1.30970E+01  1.58243E+01  1.43222E+01  1.51132E+01  1.33396E+01  1.62538E+01  1.42940E+01  1.67076E+01
   1.60862E+01  1.73104E+01  1.33243E+01  1.27083E+01  1.22008E+01  1.41243E+01  1.43978E+01  1.24576E+01  1.27214E+01  1.69674E+01
   1.18325E+01  1.66275E+01  1.25888E+01  1.57826E+01  1.53364E+01  1.38084E+01  1.57717E+01  1.85838E+01  1.57162E+01  1.51185E+01
   1.29617E+01  1.59187E+01  1.50329E+01  1.60608E+01  1.38255E+01  1.17047E+01  1.52807E+01  1.57573E+01  1.51459E+01  1.54208E+01
   1.48822E+01  1.47026E+01  1.30927E+01  1.47423E+01  1.56614E+01  1.42921E+01  1.55261E+01  1.42056E+01  1.66696E+01  1.70385E+01
   1.57199E+01  1.61280E+01  1.85239E+01  1.36617E+01  1.33470E+01  1.27040E+01  1.35198E+01  1.44988E+01  1.29233E+01  1.66467E+01
   1.83932E+01  1.84673E+01  1.50408E+01  1.38772E+01  1.34946E+01  1.66019E+01  1.55702E+01  1.61643E+01  1.64384E+01  1.38760E+01
   1.55431E+01  1.61799E+01  1.72203E+01  1.16898E+01  1.65944E+01  1.45239E+01  1.45099E+01  1.36945E+01  1.44988E+01  1.17231E+01
   1.32305E+01  1.16025E+01  1.52020E+01  1.24055E+01  1.39865E+01  1.37112E+01  1.84030E+01  1.54991E+01  1.67263E+01  1.63834E+01
   1.69911E+01  1.83021E+01  1.87916E+01  1.68208E+01  1.63170E+01  1.61998E+01  1.72144E+01  1.66499E+01  1.76660E+01  1.76419E+01
   1.83178E+01  1.86945E+01  1.72723E+01  2.05459E+01  1.61713E+01  1.76653E+01  1.57464E+01  2.04120E+01  1.41400E+01  1.85331E+01
   1.94355E+01  1.64014E+01  1.57084E+01  1.97853E+01  1.75584E+01  1.74527E+01  1.79002E+01  1.92555E+01  1.60665E+01  1.93473E+01
   1.83905E+01  2.09995E+01  1.84651E+01  1.87370E+01  1.67813E+01  1.89945E+01  2.04546E+01  2.04203E+01  2.14931E+01  2.06167E+01
   2.15281E+01  1.96990E+01  2.13848E+01  2.15968E+01  1.66508E+01  2.17112E+01  2.50755E+01  2.23764E+01  2.38959E+01  2.45087E+01
   2.43567E+01  2.70507E+01  3.01078E+01  3.36620E+01  3.62412E+01  3.77043E+01  3.90377E+01  3.65513E+01  3.37471E+01  3.46275E+01
   3.34066E+01  3.69593E+01  3.46021E+01  3.44457E+01  3.11726E+01  2.85649E+01  2.44344E+01  2.31829E+01  2.44935E+01  2.06361E+01
   2.42696E+01  2.29369E+01  2.34582E+01  2.77022E+01  2.67040E+01  2.41513E+01  2.44165E+01  2.74970E+01  2.79263E+01  2.48657E+01
   2.97711E+01  2.55709E+01  2.63902E+01  2.45598E+01  2.92954E+01  2.78502E+01  3.04897E+01  3.18822E+01  3.24325E+01  3.23327E+01
   3.34029E+01  3.37013E+01  3.45765E+01  3.43826E+01  3.58978E+01  3.73578E+01  3.85437E+01  3.69317E+01  3.99099E+01  3.98226E+01
   4.16725E+01  4.38874E+01  4.14400E+01  4.53499E+01  4.76391E+01  4.84806E+01  4.75310E+01  4.74838E+01  5.00315E+01  5.04492E+01
   5.10925E+01  5.19989E+01  5.62594E+01  5.50109E+01  5.61669E+01  5.65309E+01  5.53554E+01  5.65554E+01  5.65771E+01  6.19172E+01
   6.71426E+01  6.41425E+01  7.18003E+01  7.34451E+01  7.76865E+01  7.95597E+01  8.14868E+01  8.26736E+01  8.39945E+01  8.81218E+01
   8.78751E+01  8.84207E+01  9.17814E+01  8.86683E+01  9.13447E+01  9.26516E+01  9.53579E+01  9.50227E+01  9.28295E+01  9.26277E+01
   9.48827E+01  9.63381E+01  9.61115E+01  9.65897E+01  9.98001E+01  9.75170E+01  9.56491E+01  1.01615E+02  9.98314E+01  9.82035E+01
   9.48310E+01  9.74913E+01  9.54876E+01  9.82728E+01  1.00544E+02  9.91650E+01  1.01422E+02  1.00718E+02  1.00547E+02  9.69965E+01
   9.85324E+01  1.04055E+02  9.96843E+01  9.94777E+01  9.64604E+01  9.56232E+01  9.56262E+01  9.86626E+01  9.84463E+01  9.75708E+01
   9.87003E+01  9.68235E+01  9.56903E+01  9.47513E+01  9.38379E+01  9.40352E+01  8.89941E+01  9.39413E+01  8.73139E+01  8.54960E+01
   8.54099E+01  8.36781E+01  8.26321E+01  7.83127E+01  8.11247E+01  7.69115E+01  7.58264E+01  7.81900E+01  7.41319E+01  7.34006E+01
   7.37724E+01  7.08710E+01  6.93323E+01  7.07613E+01  6.76506E+01  6.85193E+01  6.27755E+01  6.05349E+01  6.29337E+01  6.03078E+01
   6.09014E+01  5.96761E+01  5.44331E+01  5.55941E+01  5.58265E+01  5.21740E+01  5.18420E+01  4.96637E+01  4.93155E+01  4.74623E+01
   4.76023E+01  4.59997E+01  4.49741E+01  4.43802E+01  4.09136E+01  4.17414E+01  4.06323E+01  3.54728E+01  4.00344E+01  3.96780E+01
   3.66264E+01  3.21853E+01  3.45106E+01  3.10985E+01  3.19248E+01  3.31824E+01  2.98140E+01  2.65675E+01  2.68819E+01  3.02270E+01
   2.37473E+01  2.50461E+01  2.60050E+01  2.17964E+01  2.28519E+01  2.23251E+01  2.26939E+01  2.18618E+01  1.99640E+01  1.95623E+01
   2.10978E+01  1.94245E+01  1.80141E+01  1.89731E+01  1.77934E+01  1.65922E+01  1.65893E+01  1.62068E+01  1.34077E+01  1.45414E+01
   1.61051E+01  1.42360E+01  1.28519E+01  1.57982E+01  1.34037E+01  1.00250E+01  1.22254E+01  1.23236E+01  1.28268E+01  1.31107E+01
   1.41233E+01  1.23139E+01  9.57709E+00  9.40491E+00  1.40038E+01  9.54145E+00  9.39229E+00  1.04973E+01  8.61574E+00  9.14915E+00
   8.94999E+00  9.58740E+00  7.23826E+00  6.95273E+00  8.60373E+00  9.53561E+00  7.20362E+00  8.06893E+00  9.35248E+00  7.85722E+00
   3.26954E+00  8.35457E+00  8.11598E+00  1.00614E+01  5.21049E+00  5.57225E+00  6.08021E+00  8.11116E+00  4.71279E+00  3.00868E+00
   7.14911E+00  6.56426E+00  9.01736E+00  8.53742E+00  8.14823E+00  4.74942E+00  3.88172E+00  8.35245E+00
 NY points of the fit to the data follow
   1.20189E+01  1.20677E+01  1.20492E+01  1.20997E+01  1.20603E+01  1.21054E+01  1.20530E+01  1.20896E+01  1.20341E+01  1.20623E+01
   1.20103E+01  1.20333E+01  1.19915E+01  1.20130E+01  1.19881E+01  1.20112E+01  1.20046E+01  1.20310E+01  1.20354E+01  1.20655E+01
   1.20712E+01  1.21043E+01  1.21046E+01  1.21360E+01  1.21309E+01  1.21546E+01  1.21479E+01  1.21616E+01  1.21588E+01  1.21647E+01
   1.21693E+01  1.21761E+01  1.21814E+01  1.21903E+01  1.21980E+01  1.22081E+01  1.22191E+01  1.22306E+01  1.22451E+01  1.22545E+01
   1.22703E+01  1.22778E+01  1.22955E+01  1.23060E+01  1.23251E+01  1.23372E+01  1.23568E+01  1.23699E+01  1.23900E+01  1.24038E+01
   1.24240E+01  1.24380E+01  1.24589E+01  1.24724E+01  1.24929E+01  1.25070E+01  1.25260E+01  1.25409E+01  1.25586E+01  1.25779E+01
   1.25939E+01  1.26200E+01  1.26324E+01  1.26647E+01  1.26726E+01  1.27100E+01  1.27140E+01  1.27526E+01  1.27512E+01  1.27891E+01
   1.27865E+01  1.28230E+01  1.28259E+01  1.28583E+01  1.28722E+01  1.28994E+01  1.29265E+01  1.29421E+01  1.29781E+01  1.29740E+01
   1.30113E+01  1.29898E+01  1.30268E+01  1.29957E+01  1.30315E+01  1.29976E+01  1.30306E+01  1.29969E+01  1.30260E+01  1.29959E+01
   1.30194E+01  1.30018E+01  1.30198E+01  1.30190E+01  1.30363E+01  1.30512E+01  1.30708E+01  1.30992E+01  1.31189E+01  1.31491E+01
   1.31638E+01  1.31910E+01  1.32001E+01  1.32243E+01  1.32328E+01  1.32578E+01  1.32705E+01  1.33008E+01  1.33209E+01  1.33504E+01
   1.33816E+01  1.34173E+01  1.34637E+01  1.35136E+01  1.35699E+01  1.36368E+01  1.36981E+01  1.37869E+01  1.38433E+01  1.39520E+01
   1.39856E+01  1.41021E+01  1.40970E+01  1.42087E+01  1.41716E+01  1.42715E+01  1.42170E+01  1.43055E+01  1.42420E+01  1.43191E+01
   1.42595E+01  1.43261E+01  1.42883E+01  1.43524E+01  1.43496E+01  1.44208E+01  1.44521E+01  1.45324E+01  1.45839E+01  1.46665E+01
   1.47195E+01  1.47949E+01  1.48417E+01  1.49089E+01  1.49427E+01  1.49898E+01  1.50126E+01  1.50322E+01  1.50670E+01  1.50648E+01
   1.50942E+01  1.50627E+01  1.50838E+01  1.50268E+01  1.50430E+01  1.49771E+01  1.49826E+01  1.49238E+01  1.49004E+01  1.48420E+01
   1.47647E+01  1.47043E+01  1.45822E+01  1.45343E+01  1.43851E+01  1.43509E+01  1.41834E+01  1.41513E+01  1.39949E+01  1.39537E+01
   1.38431E+01  1.37783E+01  1.37499E+01  1.36622E+01  1.37330E+01  1.36440E+01  1.37974E+01  1.37257E+01  1.39432E+01  1.38950E+01
   1.41690E+01  1.41440E+01  1.44420E+01  1.44353E+01  1.47319E+01  1.47613E+01  1.50283E+01  1.51026E+01  1.53084E+01  1.54146E+01
   1.55601E+01  1.56784E+01  1.57629E+01  1.58763E+01  1.59242E+01  1.60244E+01  1.60550E+01  1.61206E+01  1.61386E+01  1.61661E+01
   1.62068E+01  1.61877E+01  1.62490E+01  1.61802E+01  1.62848E+01  1.61932E+01  1.63363E+01  1.62399E+01  1.64041E+01  1.63299E+01
   1.65286E+01  1.65157E+01  1.67375E+01  1.67824E+01  1.70261E+01  1.71187E+01  1.73803E+01  1.75059E+01  1.77627E+01  1.79005E+01
   1.81087E+01  1.82320E+01  1.83941E+01  1.85051E+01  1.86422E+01  1.87608E+01  1.89015E+01  1.90207E+01  1.91621E+01  1.92882E+01
   1.94304E+01  1.95683E+01  1.97092E+01  1.98564E+01  1.99916E+01  2.01370E+01  2.02860E+01  2.04461E+01  2.06107E+01  2.07862E+01
   2.09638E+01  2.11245E+01  2.11892E+01  2.14072E+01  2.16919E+01  2.21293E+01  2.29327E+01  2.36667E+01  2.49550E+01  2.60050E+01
   2.77422E+01  2.90646E+01  3.09702E+01  3.23627E+01  3.37837E+01  3.49685E+01  3.53654E+01  3.61774E+01  3.55013E+01  3.59442E+01
   3.44942E+01  3.46018E+01  3.25192E+01  3.23159E+01  2.98192E+01  2.94423E+01  2.70882E+01  2.67844E+01  2.51530E+01  2.51039E+01
   2.43249E+01  2.45342E+01  2.43169E+01  2.46531E+01  2.45551E+01  2.48864E+01  2.47049E+01  2.49863E+01  2.47380E+01  2.50314E+01
   2.49899E+01  2.54848E+01  2.61434E+01  2.68494E+01  2.75957E+01  2.83834E+01  2.92106E+01  3.00777E+01  3.09797E+01  3.19151E+01
   3.28763E+01  3.38595E+01  3.48560E+01  3.58614E+01  3.68651E+01  3.78629E+01  3.88439E+01  3.98048E+01  4.07371E+01  4.16386E+01
   4.25047E+01  4.33373E+01  4.41369E+01  4.49100E+01  4.56632E+01  4.64078E+01  4.71558E+01  4.79228E+01  4.87240E+01  4.95770E+01
   5.04981E+01  5.15045E+01  5.26105E+01  5.38297E+01  5.51720E+01  5.66446E+01  5.82505E+01  5.99889E+01  6.18543E+01  6.38372E+01
   6.59232E+01  6.80944E+01  7.03291E+01  7.26028E+01  7.48885E+01  7.71584E+01  7.93836E+01  8.15366E+01  8.35909E+01  8.55227E+01
   8.73116E+01  8.89414E+01  9.04001E+01  9.16812E+01  9.27825E+01  9.37074E+01  9.44635E+01  9.50630E+01  9.55212E+01  9.58572E+01
   9.60917E+01  9.62478E+01  9.63493E+01  9.64214E+01  9.64881E+01  9.65728E+01  9.66954E+01  9.68716E+01  9.71096E+01  9.74098E+01
   9.77621E+01  9.81481E+01  9.85415E+01  9.89138E+01  9.92373E+01  9.94914E+01  9.96652E+01  9.97601E+01  9.97871E+01  9.97647E+01
   9.97124E+01  9.96467E+01  9.95758E+01  9.94982E+01  9.94017E+01  9.92664E+01  9.90667E+01  9.87759E+01  9.83694E+01  9.78278E+01
   9.71383E+01  9.62971E+01  9.53082E+01  9.41839E+01  9.29429E+01  9.16097E+01  9.02113E+01  8.87769E+01  8.73341E+01  8.59081E+01
   8.45194E+01  8.31832E+01  8.19074E+01  8.06941E+01  7.95382E+01  7.84300E+01  7.73547E+01  7.62956E+01  7.52342E+01  7.41535E+01
   7.30377E+01  7.18750E+01  7.06573E+01  6.93815E+01  6.80486E+01  6.66642E+01  6.52371E+01  6.37795E+01  6.23042E+01  6.08258E+01
   5.93574E+01  5.79117E+01  5.64987E+01  5.51268E+01  5.38007E+01  5.25235E+01  5.12945E+01  5.01117E+01  4.89706E+01  4.78660E+01
   4.67908E+01  4.57386E+01  4.47023E+01  4.36757E+01  4.26531E+01  4.16302E+01  4.06033E+01  3.95705E+01  3.85305E+01  3.74837E+01
   3.64310E+01  3.53747E+01  3.43172E+01  3.32620E+01  3.22123E+01  3.11722E+01  3.01450E+01  2.91347E+01  2.81443E+01  2.71774E+01
   2.62361E+01  2.53233E+01  2.44404E+01  2.35892E+01  2.27705E+01  2.19852E+01  2.12333E+01  2.05151E+01  1.98300E+01  1.91776E+01
   1.85570E+01  1.79675E+01  1.74078E+01  1.68770E+01  1.63736E+01  1.58967E+01  1.54447E+01  1.50167E+01  1.46110E+01  1.42268E+01
   1.38626E+01  1.35175E+01  1.31901E+01  1.28797E+01  1.25849E+01  1.23052E+01  1.20393E+01  1.17867E+01  1.15463E+01  1.13176E+01
   1.10997E+01  1.08922E+01  1.06942E+01  1.05054E+01  1.03250E+01  1.01528E+01  9.98791E+00  9.83040E+00  9.67940E+00  9.53494E+00
   9.39626E+00  9.26343E+00  9.13573E+00  9.01327E+00  8.89538E+00  8.78221E+00  8.67311E+00  8.56826E+00  8.46703E+00  8.36965E+00
   8.27552E+00  8.18486E+00  8.09712E+00  8.01253E+00  7.93055E+00  7.85144E+00  7.77467E+00  7.70053E+00  7.62848E+00  7.55884E+00
   7.49108E+00  7.42552E+00  7.36165E+00  7.29981E+00  7.23948E+00  7.18102E+00  7.12392E+00  7.06853E+00
 NY background values follow
     1.041E+00    1.042E+00    1.043E+00    1.044E+00    1.045E+00    1.046E+00    1.047E+00    1.047E+00    1.048E+00    1.049E+00
     1.050E+00    1.051E+00    1.051E+00    1.052E+00    1.053E+00    1.054E+00    1.054E+00    1.055E+00    1.056E+00    1.057E+00
     1.057E+00    1.058E+00    1.059E+00    1.059E+00    1.060E+00    1.060E+00    1.061E+00    1.062E+00    1.062E+00    1.063E+00
     1.063E+00    1.064E+00    1.064E+00    1.065E+00    1.065E+00    1.066E+00    1.066E+00    1.067E+00    1.067E+00    1.068E+00
     1.068E+00    1.069E+00    1.069E+00    1.069E+00    1.070E+00    1.070E+00    1.071E+00    1.071E+00    1.071E+00    1.072E+00
     1.072E+00    1.072E+00    1.072E+00    1.073E+00    1.073E+00    1.073E+00    1.073E+00    1.074E+00    1.074E+00    1.074E+00
     1.074E+00    1.074E+00    1.075E+00    1.075E+00    1.075E+00    1.075E+00    1.075E+00    1.075E+00    1.075E+00    1.075E+00
     1.075E+00    1.076E+00    1.076E+00    1.076E+00    1.076E+00    1.076E+00    1.076E+00    1.076E+00    1.076E+00    1.075E+00
     1.075E+00    1.075E+00    1.075E+00    1.075E+00    1.075E+00    1.075E+00    1.075E+00    1.075E+00    1.075E+00    1.074E+00
     1.074E+00    1.074E+00    1.074E+00    1.074E+00    1.073E+00    1.073E+00    1.073E+00    1.073E+00    1.072E+00    1.072E+00
     1.072E+00    1.071E+00    1.071E+00    1.071E+00    1.070E+00    1.070E+00    1.070E+00    1.069E+00    1.069E+00    1.068E+00
     1.068E+00    1.068E+00    1.067E+00    1.067E+00    1.066E+00    1.066E+00    1.065E+00    1.065E+00    1.064E+00    1.064E+00
     1.063E+00    1.062E+00    1.062E+00    1.061E+00    1.061E+00    1.060E+00    1.059E+00    1.059E+00    1.058E+00    1.058E+00
     1.057E+00    1.056E+00    1.055E+00    1.055E+00    1.054E+00    1.053E+00    1.053E+00    1.052E+00    1.051E+00    1.050E+00
     1.049E+00    1.049E+00    1.048E+00    1.047E+00    1.046E+00    1.045E+00    1.044E+00    1.043E+00    1.043E+00    1.042E+00
     1.041E+00    1.040E+00    1.039E+00    1.038E+00    1.037E+00    1.036E+00    1.035E+00    1.034E+00    1.033E+00    1.032E+00
     1.031E+00    1.030E+00    1.029E+00    1.028E+00    1.027E+00    1.025E+00    1.024E+00    1.023E+00    1.022E+00    1.021E+00
     1.020E+00    1.019E+00    1.017E+00    1.016E+00    1.015E+00    1.014E+00    1.013E+00    1.011E+00    1.010E+00    1.009E+00
     1.008E+00    1.006E+00    1.005E+00    1.004E+00    1.002E+00    1.001E+00    9.996E-01    9.982E-01    9.969E-01    9.955E-01
     9.941E-01    9.927E-01    9.913E-01    9.898E-01    9.884E-01    9.870E-01    9.855E-01    9.840E-01    9.825E-01    9.811E-01
     9.796E-01    9.780E-01    9.765E-01    9.750E-01    9.734E-01    9.719E-01    9.703E-01    9.687E-01    9.671E-01    9.655E-01
     9.639E-01    9.623E-01    9.607E-01    9.590E-01    9.574E-01    9.557E-01    9.540E-01    9.523E-01    9.506E-01    9.489E-01
     9.472E-01    9.455E-01    9.438E-01    9.420E-01    9.403E-01    9.385E-01    9.367E-01    9.349E-01    9.331E-01    9.313E-01
     9.295E-01    9.277E-01    9.258E-01    9.240E-01    9.221E-01    9.203E-01    9.184E-01    9.165E-01    9.146E-01    9.127E-01
     9.108E-01    9.088E-01    9.069E-01    9.050E-01    9.030E-01    9.010E-01    8.991E-01    8.971E-01    8.951E-01    8.931E-01
     8.911E-01    8.890E-01    8.870E-01    8.850E-01    8.829E-01    8.809E-01    8.788E-01    8.767E-01    8.746E-01    8.725E-01
     8.704E-01    8.683E-01    8.662E-01    8.640E-01    8.619E-01    8.598E-01    8.576E-01    8.554E-01    8.532E-01    8.511E-01
     8.489E-01    8.467E-01    8.445E-01    8.422E-01    8.400E-01    8.378E-01    8.355E-01    8.333E-01    8.310E-01    8.287E-01
     8.264E-01    8.242E-01    8.219E-01    8.196E-01    8.172E-01    8.149E-01    8.126E-01    8.103E-01    8.079E-01    8.056E-01
     8.032E-01    8.008E-01    7.984E-01    7.961E-01    7.937E-01    7.913E-01    7.889E-01    7.864E-01    7.840E-01    7.816E-01
     7.791E-01    7.767E-01    7.742E-01    7.718E-01    7.693E-01    7.668E-01    7.643E-01    7.618E-01    7.593E-01    7.568E-01
     7.543E-01    7.518E-01    7.493E-01    7.467E-01    7.442E-01    7.416E-01    7.391E-01    7.365E-01    7.339E-01    7.314E-01
     7.288E-01    7.262E-01    7.236E-01    7.210E-01    7.184E-01    7.157E-01    7.131E-01    7.105E-01    7.078E-01    7.052E-01
     7.025E-01    6.999E-01    6.972E-01    6.945E-01    6.919E-01    6.892E-01    6.865E-01    6.838E-01    6.811E-01    6.784E-01
     6.756E-01    6.729E-01    6.702E-01    6.675E-01    6.647E-01    6.620E-01    6.592E-01    6.565E-01    6.537E-01    6.509E-01
     6.481E-01    6.454E-01    6.426E-01    6.398E-01    6.370E-01    6.342E-01    6.314E-01    6.285E-01    6.257E-01    6.229E-01
     6.201E-01    6.172E-01    6.144E-01    6.115E-01    6.087E-01    6.058E-01    6.029E-01    6.001E-01    5.972E-01    5.943E-01
     5.914E-01    5.886E-01    5.857E-01    5.828E-01    5.799E-01    5.769E-01    5.740E-01    5.711E-01    5.682E-01    5.653E-01
     5.623E-01    5.594E-01    5.565E-01    5.535E-01    5.506E-01    5.476E-01    5.446E-01    5.417E-01    5.387E-01    5.357E-01
     5.328E-01    5.298E-01    5.268E-01    5.238E-01    5.208E-01    5.178E-01    5.148E-01    5.118E-01    5.088E-01    5.058E-01
     5.028E-01    4.998E-01    4.967E-01    4.937E-01    4.907E-01    4.877E-01    4.846E-01    4.816E-01    4.785E-01    4.755E-01
     4.724E-01    4.694E-01    4.663E-01    4.633E-01    4.602E-01    4.571E-01    4.541E-01    4.510E-01    4.479E-01    4.448E-01
     4.418E-01    4.387E-01    4.356E-01    4.325E-01    4.294E-01    4.263E-01    4.232E-01    4.201E-01    4.170E-01    4.139E-01
     4.108E-01    4.077E-01    4.046E-01    4.014E-01    3.983E-01    3.952E-01    3.921E-01    3.890E-01    3.858E-01    3.827E-01
     3.796E-01    3.764E-01    3.733E-01    3.702E-01    3.670E-01    3.639E-01    3.608E-01    3.576E-01    3.545E-01    3.513E-01
     3.482E-01    3.450E-01    3.419E-01    3.387E-01    3.356E-01    3.324E-01    3.293E-01    3.261E-01    3.230E-01    3.198E-01
     3.166E-01    3.135E-01    3.103E-01    3.072E-01    3.040E-01    3.008E-01    2.977E-01    2.945E-01    2.914E-01    2.882E-01
     2.850E-01    2.819E-01    2.787E-01    2.755E-01    2.724E-01    2.692E-01    2.660E-01    2.629E-01    2.597E-01    2.565E-01
     2.534E-01    2.502E-01    2.471E-01    2.439E-01    2.407E-01    2.376E-01    2.344E-01    2.312E-01    2.281E-01    2.249E-01
     2.218E-01    2.186E-01    2.154E-01    2.123E-01    2.091E-01    2.060E-01    2.028E-01    1.997E-01
 Asp      Conc. = 5.10E+01
