 LCModel (Version 6.3-1L) Copyright: S.W. Provencher.          Ref.: Magn. Reson. Med. 30:672-679 (1993).                
 Slice#2 Row#5 Col#11  K_02_press_1_raw_act
 36 lines in following concentration table = NCONC+1
    Conc.  %SD /Cr+PCr  Metabolite                                         
  209.744 102%   0.101 Ala                                                 
    0.000 999%   0.000 Asp                                                 
  914.934  37%   0.442 Cr                                                  
 1.15E+03  30%   0.558 PCr                                                 
    0.000 999%   0.000 GABA                                                
    0.000 999%   0.000 Glc                                                 
 1.58E+03  27%   0.765 Gln                                                 
 1.91E+03  24%   0.922 Glu                                                 
  820.194   4%   0.396 GPC                                                 
    0.000 999%   0.000 PCh                                                 
  818.585  14%   0.395 GSH                                                 
 3.06E+03  12%   1.477 Ins                                                 
   20.893 999% 1.0E-02 Lac                                                 
 3.62E+03   3%   1.747 NAA                                                 
    0.000 999%   0.000 NAAG                                                
  276.455  14%   0.134 Scyllo                                              
    0.000 999%   0.000 Tau                                                 
  685.206  23%   0.331 -CrCH2                                              
  820.194   4%   0.396 GPC+PCh                                             
 3.62E+03   3%   1.747 NAA+NAAG                                            
 2.07E+03   4%   1.000 Cr+PCr                                              
 3.49E+03  20%   1.686 Glu+Gln                                             
  242.901 242%   0.117 Lip13a                                              
   76.813 337% 3.7E-02 Lip13b                                              
    0.000 999%   0.000 Lip09                                               
 2.12E+03  11%   1.024 MM09                                                
   71.010 187% 3.4E-02 Lip20                                               
 4.11E+03  11%   1.983 MM20                                                
  845.256  26%   0.408 MM12                                                
 2.72E+03  19%   1.313 MM14                                                
 1.30E+03  33%   0.627 MM17                                                
  319.714 128%   0.154 Lip13a+Lip13b                                       
 3.88E+03  14%   1.875 MM14+Lip13a+Lip13b+MM12                             
 2.12E+03  11%   1.024 MM09+Lip09                                          
 4.18E+03  11%   2.018 MM20+Lip20                                          
   6 lines in following misc. output table
  FWHM = 0.061 ppm    S/N =  13                                            
  Data shift = 0.015 ppm                                                   
  Ph: -15 deg     -10.1 deg/ppm                                            
  alphaB,S = 3.1E+00,   9.3E+01                                            
   14 spline knots.   Ns = 9(1)                                            
  (16) 5 infls.   (15) 1 extrs.                                            
  498 points on ppm-axis = NY
      4.000000     3.992357     3.984714     3.977070     3.969427     3.961784     3.954141     3.946497     3.938854     3.931211
      3.923568     3.915925     3.908281     3.900638     3.892995     3.885352     3.877708     3.870065     3.862422     3.854779
      3.847136     3.839492     3.831849     3.824206     3.816563     3.808919     3.801276     3.793633     3.785990     3.778347
      3.770703     3.763060     3.755417     3.747774     3.740130     3.732487     3.724844     3.717201     3.709558     3.701914
      3.694271     3.686628     3.678985     3.671341     3.663698     3.656055     3.648412     3.640769     3.633125     3.625482
      3.617839     3.610196     3.602552     3.594909     3.587266     3.579623     3.571980     3.564336     3.556693     3.549050
      3.541407     3.533763     3.526120     3.518477     3.510834     3.503191     3.495547     3.487904     3.480261     3.472618
      3.464974     3.457331     3.449688     3.442045     3.434402     3.426758     3.419115     3.411472     3.403829     3.396185
      3.388542     3.380899     3.373256     3.365613     3.357969     3.350326     3.342683     3.335040     3.327396     3.319753
      3.312110     3.304467     3.296824     3.289180     3.281537     3.273894     3.266251     3.258607     3.250964     3.243321
      3.235678     3.228034     3.220391     3.212748     3.205105     3.197462     3.189818     3.182175     3.174532     3.166889
      3.159245     3.151602     3.143959     3.136316     3.128673     3.121029     3.113386     3.105743     3.098100     3.090456
      3.082813     3.075170     3.067527     3.059884     3.052240     3.044597     3.036954     3.029311     3.021667     3.014024
      3.006381     2.998738     2.991095     2.983451     2.975808     2.968165     2.960522     2.952878     2.945235     2.937592
      2.929949     2.922306     2.914662     2.907019     2.899376     2.891733     2.884089     2.876446     2.868803     2.861160
      2.853517     2.845873     2.838230     2.830587     2.822944     2.815300     2.807657     2.800014     2.792371     2.784728
      2.777084     2.769441     2.761798     2.754155     2.746511     2.738868     2.731225     2.723582     2.715939     2.708295
      2.700652     2.693009     2.685366     2.677722     2.670079     2.662436     2.654793     2.647150     2.639506     2.631863
      2.624220     2.616577     2.608933     2.601290     2.593647     2.586004     2.578361     2.570717     2.563074     2.555431
      2.547788     2.540144     2.532501     2.524858     2.517215     2.509572     2.501928     2.494285     2.486642     2.478999
      2.471355     2.463712     2.456069     2.448426     2.440783     2.433139     2.425496     2.417853     2.410210     2.402566
      2.394923     2.387280     2.379637     2.371994     2.364350     2.356707     2.349064     2.341421     2.333777     2.326134
      2.318491     2.310848     2.303205     2.295561     2.287918     2.280275     2.272632     2.264988     2.257345     2.249702
      2.242059     2.234416     2.226772     2.219129     2.211486     2.203843     2.196199     2.188556     2.180913     2.173270
      2.165627     2.157983     2.150340     2.142697     2.135054     2.127410     2.119767     2.112124     2.104481     2.096838
      2.089194     2.081551     2.073908     2.066265     2.058621     2.050978     2.043335     2.035692     2.028049     2.020405
      2.012762     2.005119     1.997476     1.989833     1.982190     1.974546     1.966903     1.959260     1.951617     1.943974
      1.936331     1.928688     1.921045     1.913402     1.905759     1.898115     1.890472     1.882829     1.875186     1.867543
      1.859900     1.852257     1.844614     1.836971     1.829327     1.821684     1.814041     1.806398     1.798755     1.791112
      1.783469     1.775826     1.768183     1.760540     1.752896     1.745253     1.737610     1.729967     1.722324     1.714681
      1.707038     1.699395     1.691752     1.684108     1.676465     1.668822     1.661179     1.653536     1.645893     1.638250
      1.630607     1.622964     1.615321     1.607677     1.600034     1.592391     1.584748     1.577105     1.569462     1.561819
      1.554176     1.546533     1.538890     1.531246     1.523603     1.515960     1.508317     1.500674     1.493031     1.485388
      1.477745     1.470102     1.462458     1.454815     1.447172     1.439529     1.431886     1.424243     1.416600     1.408957
      1.401314     1.393671     1.386027     1.378384     1.370741     1.363098     1.355455     1.347812     1.340169     1.332526
      1.324883     1.317240     1.309596     1.301953     1.294310     1.286667     1.279024     1.271381     1.263738     1.256095
      1.248452     1.240808     1.233165     1.225522     1.217879     1.210236     1.202593     1.194950     1.187307     1.179664
      1.172021     1.164377     1.156734     1.149091     1.141448     1.133805     1.126162     1.118519     1.110876     1.103233
      1.095590     1.087946     1.080303     1.072660     1.065017     1.057374     1.049731     1.042088     1.034445     1.026802
      1.019158     1.011515     1.003872     0.996229     0.988586     0.980943     0.973300     0.965657     0.958014     0.950371
      0.942727     0.935084     0.927441     0.919798     0.912155     0.904512     0.896869     0.889226     0.881583     0.873940
      0.866296     0.858653     0.851010     0.843367     0.835724     0.828081     0.820438     0.812795     0.805152     0.797508
      0.789865     0.782222     0.774579     0.766936     0.759293     0.751650     0.744007     0.736364     0.728721     0.721077
      0.713434     0.705791     0.698148     0.690505     0.682862     0.675219     0.667576     0.659933     0.652290     0.644646
      0.637003     0.629360     0.621717     0.614074     0.606431     0.598788     0.591145     0.583502     0.575858     0.568215
      0.560572     0.552929     0.545286     0.537643     0.530000     0.522357     0.514714     0.507071     0.499427     0.491784
      0.484141     0.476498     0.468855     0.461212     0.453569     0.445925     0.438282     0.430639     0.422996     0.415353
      0.407710     0.400067     0.392424     0.384780     0.377137     0.369494     0.361851     0.354208     0.346565     0.338922
      0.331278     0.323635     0.315992     0.308349     0.300706     0.293063     0.285420     0.277777     0.270133     0.262490
      0.254847     0.247204     0.239561     0.231918     0.224275     0.216631     0.208988     0.201345
 NY phased data points follow
   1.29622E+01  1.10749E+01  1.45322E+01  1.31900E+01  1.81439E+01  1.90269E+01  1.90551E+01  2.10859E+01  2.61428E+01  2.61713E+01
   2.76527E+01  2.91054E+01  3.21267E+01  2.51473E+01  2.56948E+01  2.12496E+01  1.78276E+01  1.84778E+01  1.30069E+01  1.48574E+01
   1.66771E+01  1.65297E+01  1.70166E+01  1.72032E+01  1.46347E+01  1.34151E+01  1.64388E+01  1.48952E+01  1.76798E+01  2.21590E+01
   1.65325E+01  1.79849E+01  2.01391E+01  1.33077E+01  1.18282E+01  1.89182E+01  1.68001E+01  1.71325E+01  1.86857E+01  1.74403E+01
   1.83680E+01  1.73312E+01  1.98784E+01  1.47259E+01  2.35481E+01  1.87512E+01  2.25434E+01  1.85338E+01  2.59292E+01  2.06616E+01
   2.21415E+01  1.88188E+01  1.89527E+01  1.64044E+01  1.62745E+01  2.09756E+01  1.80021E+01  9.67512E+00  1.36465E+01  9.99380E+00
   1.00726E+01  1.28237E+01  6.30433E+00  5.49123E+00  8.64830E+00  5.88376E+00  4.17822E+00  4.15290E+00  2.26528E+00  6.88012E+00
   5.71087E+00  4.23472E+00  6.96725E+00  7.32716E+00  9.94766E+00  7.05933E+00  7.10746E+00  2.63658E+00  6.28384E+00  3.41934E+00
   5.68660E+00  7.56328E+00  6.53562E+00  9.80589E+00  5.81199E+00  1.26982E+01  6.89731E+00  1.48597E+01  8.96505E+00  1.04554E+01
   8.88128E+00  1.11746E+01  1.43458E+01  1.85610E+01  1.89026E+01  1.85853E+01  2.34323E+01  2.56088E+01  2.89144E+01  2.65892E+01
   4.00262E+01  5.04953E+01  6.24165E+01  6.22893E+01  5.85259E+01  4.77561E+01  3.73533E+01  3.72012E+01  2.64180E+01  2.21388E+01
   1.79283E+01  1.35075E+01  1.29201E+01  1.64225E+01  1.12489E+01  5.87193E+00  9.44169E+00  1.46432E+01  1.06475E+01  1.74582E+01
   1.71046E+01  2.12264E+01  2.43235E+01  3.23161E+01  4.08664E+01  4.78088E+01  5.69418E+01  5.97412E+01  5.74083E+01  5.42556E+01
   4.41015E+01  3.66146E+01  3.45263E+01  2.53010E+01  1.89615E+01  1.59728E+01  1.18235E+01  1.03979E+01  6.93527E+00  5.62742E+00
   1.15472E+01  1.35403E+01  6.87591E+00  1.00160E+01  1.28623E+01  7.09264E+00  8.11979E+00  8.28115E+00  4.05498E+00  4.23195E+00
   5.12307E+00  9.95078E+00  8.21793E+00  2.26683E+00  6.71906E+00  8.16318E+00  5.86305E+00  5.44521E+00  6.08277E+00  9.10925E+00
   7.11524E+00  2.34582E+00  8.10635E-03  4.11431E+00  5.93717E+00  1.96150E+00 -1.68437E+00 -5.50287E+00 -4.78311E+00 -8.34897E+00
  -9.20888E+00 -1.21034E+01 -1.34514E+01 -1.69566E+01 -1.44837E+01 -1.58600E+01 -1.51090E+01 -1.65490E+01 -9.45970E+00 -1.00653E+01
  -1.22891E+01 -1.11279E+01 -7.54413E+00 -1.19288E+01 -1.00396E+01 -1.22133E+01 -7.97289E+00 -9.64017E+00 -2.55873E+00 -5.49339E+00
  -1.57729E+00  1.03316E+00  3.09160E+00 -1.48214E+00 -3.06554E+00 -3.75299E+00 -1.07939E+00 -2.00334E+00 -5.42371E+00 -5.19529E+00
  -4.02850E+00 -4.64000E+00 -2.07829E+00  1.42363E+00  3.29885E-01  6.56454E+00 -4.03874E+00  1.91937E+00  8.25131E-01  1.98984E+00
   5.13355E+00  8.78272E+00  1.12325E+01  7.82230E+00  8.25397E+00  1.72969E+01  1.49726E+01  1.25238E+01  1.09683E+01  1.12827E+01
   8.67228E+00  2.77166E+00  9.02841E-01  5.17854E+00  5.99050E+00  4.43591E+00  6.14317E+00  1.09985E+01  7.08503E+00  1.34254E+01
   1.31788E+01  1.32166E+01  1.35691E+01  9.36669E+00  1.10723E+01  9.76963E+00  1.57076E+01  1.01482E+01  1.13222E+01  8.81796E+00
   6.60612E+00  7.27203E+00  1.16173E+01  7.39882E+00  9.00323E+00  1.23973E+01  1.75123E+01  1.34193E+01  2.13170E+01  2.59710E+01
   2.42491E+01  3.03761E+01  2.97267E+01  3.16597E+01  4.32045E+01  5.77648E+01  6.51603E+01  8.25956E+01  9.30046E+01  1.04951E+02
   1.08223E+02  1.06518E+02  1.00931E+02  8.55353E+01  6.45632E+01  5.47563E+01  4.20594E+01  3.05608E+01  2.82014E+01  2.46313E+01
   1.72490E+01  1.47166E+01  1.41135E+01  6.93701E+00  1.00807E+01  9.32136E+00  9.58794E+00  6.28611E+00  6.95724E+00  4.89293E+00
   6.01344E+00  8.58451E+00  6.50220E+00  6.55070E+00  5.07430E+00  6.01293E+00 -9.65883E-01  7.15813E+00  3.65198E+00  5.43038E+00
   3.99557E+00  4.97726E+00  7.33845E+00  5.96313E+00  9.82575E+00  1.04165E+01  5.58236E+00  7.46530E+00  9.65937E+00  4.67702E+00
   7.16478E+00  8.79400E+00  1.57641E+01  1.27648E+01  1.25179E+01  9.53939E+00  1.21066E+01  1.24013E+01  8.47352E+00  1.17217E+01
   1.40782E+01  1.51638E+01  1.78508E+01  1.83239E+01  1.66012E+01  1.87671E+01  1.95372E+01  2.58047E+01  2.42124E+01  2.14995E+01
   1.99035E+01  2.15659E+01  2.29401E+01  2.11038E+01  2.39044E+01  2.26623E+01  2.38985E+01  2.16368E+01  1.81322E+01  2.12291E+01
   1.93006E+01  1.95518E+01  1.97283E+01  1.50108E+01  1.64635E+01  1.50607E+01  1.29416E+01  1.36698E+01  1.51485E+01  1.04800E+01
   1.08421E+01  5.53337E+00  1.13777E+01  1.42162E+01  1.08923E+01  1.02181E+01  1.06209E+01  7.12233E+00  7.76629E+00  8.00670E+00
   6.92422E+00  2.40441E+00  9.83180E+00  1.08854E+01  1.03299E+01  9.23828E+00  8.55218E+00  8.81273E+00  8.86791E+00  8.07067E+00
   9.96432E+00  8.81256E+00  8.20882E+00  1.11648E+01  1.26237E+01  8.76593E+00  1.42459E+01  9.00394E+00  5.21846E+00  8.03080E+00
   6.08291E+00  1.12270E+01  8.09607E+00  1.00944E+01  1.08435E+01  1.03386E+01  6.76056E+00  1.13181E+01  8.33536E+00  9.33809E+00
   8.10694E+00  8.12614E+00  8.89097E+00  9.48398E+00  5.97655E+00  7.44867E+00  9.32726E+00  9.08224E+00  3.79420E+00  1.26518E+01
   8.49809E+00  1.23248E+01  1.12359E+01  9.85329E+00  1.21986E+01  1.31874E+01  1.40562E+01  1.40737E+01  1.47818E+01  1.54260E+01
   1.36962E+01  1.56946E+01  1.35153E+01  1.60485E+01  1.21132E+01  1.32375E+01  1.85489E+01  1.46261E+01  1.78585E+01  1.73173E+01
   1.76432E+01  1.78744E+01  1.64510E+01  1.23118E+01  1.41190E+01  1.17096E+01  1.53696E+01  7.56390E+00  1.02103E+01  8.48044E+00
   7.69827E+00  8.25831E+00  9.61829E+00  9.77014E+00  7.25770E+00  8.67250E+00  8.29072E+00  4.66313E+00  1.84614E+00  9.04199E+00
   7.12555E+00  6.57985E+00  2.67327E+00  6.14880E+00  1.90120E+00  6.51209E+00  8.04487E+00  4.09798E+00  3.95528E+00  5.29485E+00
   6.67345E+00  7.20609E+00  6.63865E+00  3.75118E+00  5.74862E+00  7.09547E+00  3.74603E+00  2.07469E+00  5.27228E+00  1.05364E+00
   1.56719E+00  3.87873E+00  6.14035E+00  7.95216E+00  3.43092E+00  6.44826E+00  4.43849E+00  5.96190E+00  3.25106E+00  5.89372E+00
   1.27246E+00  6.93531E+00  4.41469E+00  2.39152E+00  6.32244E+00  2.18537E+00  3.94759E+00  3.36118E+00  2.88497E+00  5.47240E+00
   5.59455E+00  4.04975E+00  5.79739E+00  8.40916E-01  4.73407E+00  5.39658E+00  3.31255E+00  7.70583E+00  1.15117E+00 -1.05150E+00
   3.96772E+00  5.56566E+00  6.42433E+00  4.29540E+00  2.72858E+00  4.91915E+00  1.62050E+00  6.04695E+00  1.48913E+00  3.92604E+00
   5.71874E+00  5.00080E+00  7.33926E+00  2.26225E+00  4.90222E+00  6.30295E+00  9.06035E-01  3.15522E+00
 NY points of the fit to the data follow
   1.14870E+01  1.11197E+01  1.15341E+01  1.31570E+01  1.50163E+01  1.70550E+01  1.96537E+01  2.25926E+01  2.53573E+01  2.76545E+01
   2.92850E+01  2.98801E+01  2.92861E+01  2.76816E+01  2.51623E+01  2.22917E+01  1.97375E+01  1.74213E+01  1.50132E+01  1.31641E+01
   1.27318E+01  1.26532E+01  1.19612E+01  1.16090E+01  1.19957E+01  1.30099E+01  1.46169E+01  1.68345E+01  1.97358E+01  2.25497E+01
   2.40471E+01  2.40021E+01  2.27133E+01  2.06817E+01  1.86383E+01  1.66771E+01  1.48334E+01  1.37638E+01  1.37748E+01  1.37828E+01
   1.33742E+01  1.36269E+01  1.47744E+01  1.64064E+01  1.83643E+01  2.07207E+01  2.30289E+01  2.41853E+01  2.36130E+01  2.16076E+01
   1.88840E+01  1.60794E+01  1.36056E+01  1.17731E+01  1.07569E+01  1.04650E+01  1.04279E+01  1.02641E+01  1.02737E+01  1.06352E+01
   1.09721E+01  1.07944E+01  1.00764E+01  9.20604E+00  8.32794E+00  7.64085E+00  7.37729E+00  7.60681E+00  8.11936E+00  8.57749E+00
   8.93177E+00  9.14619E+00  9.16532E+00  9.02907E+00  8.71257E+00  8.30404E+00  7.91027E+00  7.52396E+00  7.56302E+00  8.06278E+00
   8.11935E+00  8.07603E+00  8.25045E+00  8.67981E+00  9.38235E+00  1.03770E+01  1.13124E+01  1.18319E+01  1.15852E+01  1.05848E+01
   9.20868E+00  7.99845E+00  7.54683E+00  9.27123E+00  1.40058E+01  1.75212E+01  2.01296E+01  2.34894E+01  2.80550E+01  3.46008E+01
   4.30338E+01  5.19926E+01  5.88647E+01  6.12126E+01  5.84350E+01  5.14480E+01  4.24616E+01  3.41447E+01  2.72145E+01  2.15105E+01
   1.76991E+01  1.52080E+01  1.16054E+01  7.10286E+00  5.06312E+00  4.55686E+00  4.69607E+00  6.40936E+00  1.03753E+01  1.43568E+01
   1.75477E+01  2.14997E+01  2.67521E+01  3.32922E+01  4.12339E+01  4.95319E+01  5.60819E+01  5.90215E+01  5.75459E+01  5.22252E+01
   4.49201E+01  3.75657E+01  3.10740E+01  2.53154E+01  2.06530E+01  1.71219E+01  1.33881E+01  9.37860E+00  7.16322E+00  6.85320E+00
   7.15854E+00  7.43120E+00  7.34555E+00  6.88156E+00  6.34840E+00  5.89055E+00  5.46998E+00  5.11588E+00  4.76439E+00  4.34975E+00
   3.92818E+00  3.38306E+00  2.74485E+00  2.29903E+00  2.03592E+00  1.88443E+00  1.82470E+00  1.53524E+00  1.05025E+00  5.37025E-01
   9.35169E-02 -1.68573E-01 -1.87709E-01 -5.57299E-02  1.39345E-02 -2.30245E-01 -8.33282E-01 -1.71255E+00 -2.53900E+00 -3.11293E+00
  -3.56519E+00 -3.98343E+00 -4.58122E+00 -5.16272E+00 -5.71181E+00 -6.18258E+00 -6.31562E+00 -6.24294E+00 -6.23718E+00 -6.11078E+00
  -5.89903E+00 -5.66114E+00 -5.29620E+00 -4.86082E+00 -4.45099E+00 -3.81476E+00 -2.84295E+00 -1.59569E+00 -3.11605E-01  8.30385E-01
   1.87407E+00  2.60227E+00  2.67280E+00  2.25659E+00  1.90040E+00  1.98882E+00  2.40676E+00  3.25964E+00  4.33416E+00  5.22901E+00
   5.90230E+00  6.63448E+00  7.04388E+00  6.67234E+00  5.42926E+00  3.73872E+00  1.74137E+00  9.26762E-02 -6.89652E-01 -1.01403E+00
  -6.23114E-01  6.63049E-01  2.50891E+00  4.29045E+00  5.83758E+00  7.38318E+00  8.42778E+00  8.36043E+00  7.44228E+00  5.90809E+00
   3.82999E+00  1.92124E+00  8.21159E-01  9.39360E-01  2.13725E+00  3.73645E+00  5.08459E+00  6.38826E+00  7.72349E+00  8.53670E+00
   8.88299E+00  9.17687E+00  9.51252E+00  1.01547E+01  1.09466E+01  1.17249E+01  1.26848E+01  1.35021E+01  1.35847E+01  1.28698E+01
   1.18504E+01  1.09447E+01  1.02199E+01  1.00642E+01  1.09793E+01  1.25978E+01  1.41268E+01  1.54859E+01  1.67550E+01  1.78757E+01
   2.02190E+01  2.81589E+01  3.63570E+01  4.15167E+01  4.77670E+01  5.60541E+01  6.59263E+01  7.81367E+01  9.19747E+01  1.03897E+02
   1.09653E+02  1.07297E+02  9.74680E+01  8.28776E+01  6.80681E+01  5.54984E+01  4.47576E+01  3.66415E+01  3.17695E+01  2.66718E+01
   1.86046E+01  1.29860E+01  1.11729E+01  1.02984E+01  9.67282E+00  9.17599E+00  8.77670E+00  8.34717E+00  7.90405E+00  7.48021E+00
   7.07909E+00  6.72276E+00  6.44049E+00  6.20773E+00  5.99682E+00  5.81791E+00  5.68901E+00  5.60733E+00  5.56606E+00  5.56341E+00
   5.61117E+00  5.71598E+00  5.86669E+00  6.06115E+00  6.30522E+00  6.60047E+00  6.94628E+00  7.33969E+00  7.78133E+00  8.26861E+00
   8.79664E+00  9.36063E+00  9.95800E+00  1.05813E+01  1.12243E+01  1.18802E+01  1.25439E+01  1.32100E+01  1.38756E+01  1.45365E+01
   1.51912E+01  1.58374E+01  1.64756E+01  1.71046E+01  1.77257E+01  1.83410E+01  1.89576E+01  1.95948E+01  2.02843E+01  2.08653E+01
   2.12740E+01  2.16534E+01  2.19891E+01  2.22134E+01  2.22935E+01  2.21615E+01  2.18461E+01  2.13533E+01  2.05495E+01  1.95660E+01
   1.85998E+01  1.77663E+01  1.71125E+01  1.66454E+01  1.63587E+01  1.61520E+01  1.58200E+01  1.52674E+01  1.46173E+01  1.39096E+01
   1.31304E+01  1.23422E+01  1.15880E+01  1.09476E+01  1.04258E+01  9.88933E+00  9.35801E+00  8.96180E+00  8.66993E+00  8.47048E+00
   8.36438E+00  8.34673E+00  8.40778E+00  8.52752E+00  8.68439E+00  8.84851E+00  8.98644E+00  9.07818E+00  9.13302E+00  9.15718E+00
   9.14891E+00  9.11265E+00  9.05870E+00  8.99741E+00  8.92748E+00  8.83766E+00  8.73926E+00  8.63999E+00  8.53717E+00  8.42874E+00
   8.31575E+00  8.19887E+00  8.08125E+00  7.96551E+00  7.85639E+00  7.75754E+00  7.67423E+00  7.61027E+00  7.57091E+00  7.55979E+00
   7.58176E+00  7.63982E+00  7.73796E+00  7.87830E+00  8.06398E+00  8.29619E+00  8.57690E+00  8.90578E+00  9.28307E+00  9.70655E+00
   1.01744E+01  1.06820E+01  1.12248E+01  1.17953E+01  1.23859E+01  1.29863E+01  1.35863E+01  1.41733E+01  1.47352E+01  1.52584E+01
   1.57307E+01  1.61391E+01  1.64733E+01  1.67233E+01  1.68823E+01  1.69445E+01  1.69084E+01  1.67737E+01  1.65444E+01  1.62255E+01
   1.58257E+01  1.53540E+01  1.48224E+01  1.42426E+01  1.36278E+01  1.29897E+01  1.23409E+01  1.16916E+01  1.10522E+01  1.04306E+01
   9.83400E+00  9.26712E+00  8.73433E+00  8.23736E+00  7.77813E+00  7.35614E+00  6.97134E+00  6.62161E+00  6.30577E+00  6.02098E+00
   5.76561E+00  5.53654E+00  5.33196E+00  5.14881E+00  4.98552E+00  4.83941E+00  4.70928E+00  4.59270E+00  4.48876E+00  4.39539E+00
   4.31204E+00  4.23703E+00  4.17008E+00  4.10966E+00  4.05566E+00  4.00676E+00  3.96310E+00  3.92358E+00  3.88839E+00  3.85646E+00
   3.82807E+00  3.80229E+00  3.77955E+00  3.75899E+00  3.74102E+00  3.72476E+00  3.71067E+00  3.69800E+00  3.68730E+00  3.67780E+00
   3.66998E+00  3.66308E+00  3.65765E+00  3.65303E+00  3.64979E+00  3.64721E+00  3.64582E+00  3.64491E+00  3.64509E+00  3.64572E+00
   3.64741E+00  3.64943E+00  3.65235E+00  3.65551E+00  3.65956E+00  3.66386E+00  3.66900E+00  3.67429E+00  3.68030E+00  3.68642E+00
   3.69330E+00  3.70030E+00  3.70802E+00  3.71576E+00  3.72414E+00  3.73257E+00  3.74169E+00  3.75088E+00  3.76069E+00  3.77049E+00
   3.78091E+00  3.79138E+00  3.80253E+00  3.81374E+00  3.82558E+00  3.83746E+00  3.85002E+00  3.86274E+00
 NY background values follow
     1.690E+00    1.680E+00    1.671E+00    1.662E+00    1.652E+00    1.643E+00    1.633E+00    1.624E+00    1.615E+00    1.605E+00
     1.596E+00    1.587E+00    1.577E+00    1.568E+00    1.559E+00    1.549E+00    1.540E+00    1.531E+00    1.521E+00    1.512E+00
     1.503E+00    1.493E+00    1.484E+00    1.474E+00    1.465E+00    1.456E+00    1.446E+00    1.437E+00    1.428E+00    1.418E+00
     1.409E+00    1.400E+00    1.391E+00    1.381E+00    1.372E+00    1.363E+00    1.353E+00    1.344E+00    1.335E+00    1.326E+00
     1.316E+00    1.307E+00    1.298E+00    1.288E+00    1.279E+00    1.270E+00    1.261E+00    1.252E+00    1.242E+00    1.233E+00
     1.224E+00    1.215E+00    1.206E+00    1.196E+00    1.187E+00    1.178E+00    1.169E+00    1.160E+00    1.151E+00    1.142E+00
     1.133E+00    1.123E+00    1.114E+00    1.105E+00    1.096E+00    1.087E+00    1.078E+00    1.069E+00    1.060E+00    1.052E+00
     1.043E+00    1.034E+00    1.025E+00    1.016E+00    1.007E+00    9.985E-01    9.897E-01    9.809E-01    9.722E-01    9.635E-01
     9.548E-01    9.462E-01    9.376E-01    9.290E-01    9.204E-01    9.119E-01    9.034E-01    8.949E-01    8.864E-01    8.780E-01
     8.696E-01    8.613E-01    8.529E-01    8.446E-01    8.364E-01    8.281E-01    8.199E-01    8.118E-01    8.036E-01    7.956E-01
     7.875E-01    7.795E-01    7.715E-01    7.635E-01    7.556E-01    7.478E-01    7.399E-01    7.321E-01    7.244E-01    7.166E-01
     7.090E-01    7.013E-01    6.937E-01    6.862E-01    6.787E-01    6.712E-01    6.638E-01    6.564E-01    6.490E-01    6.417E-01
     6.345E-01    6.273E-01    6.201E-01    6.130E-01    6.059E-01    5.989E-01    5.919E-01    5.850E-01    5.781E-01    5.712E-01
     5.645E-01    5.577E-01    5.510E-01    5.444E-01    5.378E-01    5.313E-01    5.248E-01    5.183E-01    5.120E-01    5.057E-01
     4.994E-01    4.932E-01    4.870E-01    4.810E-01    4.749E-01    4.690E-01    4.631E-01    4.573E-01    4.516E-01    4.459E-01
     4.403E-01    4.348E-01    4.294E-01    4.241E-01    4.188E-01    4.136E-01    4.085E-01    4.035E-01    3.986E-01    3.938E-01
     3.891E-01    3.845E-01    3.799E-01    3.755E-01    3.712E-01    3.669E-01    3.628E-01    3.588E-01    3.549E-01    3.511E-01
     3.474E-01    3.439E-01    3.404E-01    3.371E-01    3.339E-01    3.308E-01    3.278E-01    3.250E-01    3.222E-01    3.197E-01
     3.172E-01    3.149E-01    3.127E-01    3.106E-01    3.087E-01    3.069E-01    3.052E-01    3.037E-01    3.023E-01    3.010E-01
     2.998E-01    2.988E-01    2.979E-01    2.971E-01    2.965E-01    2.960E-01    2.956E-01    2.953E-01    2.952E-01    2.951E-01
     2.952E-01    2.954E-01    2.958E-01    2.962E-01    2.968E-01    2.975E-01    2.983E-01    2.992E-01    3.002E-01    3.014E-01
     3.026E-01    3.040E-01    3.055E-01    3.071E-01    3.088E-01    3.107E-01    3.126E-01    3.146E-01    3.168E-01    3.191E-01
     3.214E-01    3.239E-01    3.265E-01    3.292E-01    3.320E-01    3.349E-01    3.379E-01    3.410E-01    3.442E-01    3.475E-01
     3.509E-01    3.544E-01    3.581E-01    3.618E-01    3.656E-01    3.695E-01    3.736E-01    3.777E-01    3.819E-01    3.862E-01
     3.907E-01    3.952E-01    3.998E-01    4.046E-01    4.094E-01    4.143E-01    4.194E-01    4.245E-01    4.297E-01    4.350E-01
     4.405E-01    4.460E-01    4.516E-01    4.573E-01    4.632E-01    4.691E-01    4.751E-01    4.812E-01    4.874E-01    4.937E-01
     5.002E-01    5.067E-01    5.133E-01    5.200E-01    5.268E-01    5.336E-01    5.406E-01    5.477E-01    5.549E-01    5.622E-01
     5.696E-01    5.770E-01    5.846E-01    5.922E-01    6.000E-01    6.078E-01    6.158E-01    6.238E-01    6.319E-01    6.401E-01
     6.485E-01    6.569E-01    6.653E-01    6.739E-01    6.826E-01    6.913E-01    7.002E-01    7.091E-01    7.181E-01    7.272E-01
     7.364E-01    7.457E-01    7.551E-01    7.645E-01    7.740E-01    7.837E-01    7.933E-01    8.031E-01    8.130E-01    8.229E-01
     8.329E-01    8.430E-01    8.532E-01    8.635E-01    8.738E-01    8.843E-01    8.947E-01    9.053E-01    9.160E-01    9.267E-01
     9.375E-01    9.484E-01    9.593E-01    9.703E-01    9.814E-01    9.926E-01    1.004E+00    1.015E+00    1.027E+00    1.038E+00
     1.050E+00    1.061E+00    1.073E+00    1.085E+00    1.096E+00    1.108E+00    1.120E+00    1.132E+00    1.144E+00    1.156E+00
     1.169E+00    1.181E+00    1.193E+00    1.206E+00    1.218E+00    1.231E+00    1.243E+00    1.256E+00    1.268E+00    1.281E+00
     1.294E+00    1.307E+00    1.320E+00    1.333E+00    1.346E+00    1.359E+00    1.372E+00    1.385E+00    1.399E+00    1.412E+00
     1.425E+00    1.439E+00    1.452E+00    1.466E+00    1.480E+00    1.493E+00    1.507E+00    1.521E+00    1.534E+00    1.548E+00
     1.562E+00    1.576E+00    1.590E+00    1.604E+00    1.618E+00    1.632E+00    1.647E+00    1.661E+00    1.675E+00    1.689E+00
     1.704E+00    1.718E+00    1.733E+00    1.747E+00    1.762E+00    1.776E+00    1.791E+00    1.806E+00    1.820E+00    1.835E+00
     1.850E+00    1.865E+00    1.879E+00    1.894E+00    1.909E+00    1.924E+00    1.939E+00    1.954E+00    1.969E+00    1.985E+00
     2.000E+00    2.015E+00    2.030E+00    2.045E+00    2.061E+00    2.076E+00    2.091E+00    2.107E+00    2.122E+00    2.138E+00
     2.153E+00    2.169E+00    2.184E+00    2.200E+00    2.216E+00    2.231E+00    2.247E+00    2.263E+00    2.278E+00    2.294E+00
     2.310E+00    2.326E+00    2.342E+00    2.358E+00    2.373E+00    2.389E+00    2.405E+00    2.421E+00    2.437E+00    2.453E+00
     2.469E+00    2.485E+00    2.501E+00    2.518E+00    2.534E+00    2.550E+00    2.566E+00    2.582E+00    2.598E+00    2.615E+00
     2.631E+00    2.647E+00    2.663E+00    2.680E+00    2.696E+00    2.712E+00    2.729E+00    2.745E+00    2.761E+00    2.778E+00
     2.794E+00    2.810E+00    2.827E+00    2.843E+00    2.860E+00    2.876E+00    2.892E+00    2.909E+00    2.925E+00    2.942E+00
     2.958E+00    2.975E+00    2.991E+00    3.008E+00    3.024E+00    3.041E+00    3.057E+00    3.074E+00    3.090E+00    3.107E+00
     3.123E+00    3.140E+00    3.156E+00    3.173E+00    3.189E+00    3.206E+00    3.222E+00    3.239E+00    3.255E+00    3.272E+00
     3.288E+00    3.305E+00    3.321E+00    3.338E+00    3.354E+00    3.371E+00    3.387E+00    3.404E+00    3.420E+00    3.437E+00
     3.453E+00    3.470E+00    3.487E+00    3.503E+00    3.520E+00    3.536E+00    3.553E+00    3.569E+00    3.586E+00    3.602E+00
     3.619E+00    3.635E+00    3.652E+00    3.668E+00    3.685E+00    3.701E+00    3.718E+00    3.734E+00
 Ala      Conc. = 2.10E+02
