 LCModel (Version 6.3-1L) Copyright: S.W. Provencher.          Ref.: Magn. Reson. Med. 30:672-679 (1993).                
 Slice#1 Row#14 Col#8  K_02_press_1_raw_act
 36 lines in following concentration table = NCONC+1
    Conc.  %SD /Cr+PCr  Metabolite                                         
    8.178 302%   0.213 Ala                                                 
    6.327  71%   0.164 Asp                                                 
   17.382 214%   0.452 Cr                                                  
   21.090 180%   0.548 PCr                                                 
    3.776  71% 9.8E-02 GABA                                                
    3.970  68%   0.103 Glc                                                 
   11.654 417%   0.303 Gln                                                 
  130.466  47%   3.391 Glu                                                 
    6.431  85%   0.167 GPC                                                 
    0.000 999%   0.000 PCh                                                 
   20.319  96%   0.528 GSH                                                 
   79.751  75%   2.073 Ins                                                 
    6.050 437%   0.157 Lac                                                 
   73.020  25%   1.898 NAA                                                 
    0.000 999%   0.000 NAAG                                                
    1.301  69% 3.4E-02 Scyllo                                              
    6.442  69%   0.167 Tau                                                 
    3.463 149% 9.0E-02 -CrCH2                                              
    6.431  85%   0.167 GPC+PCh                                             
   73.020  25%   1.898 NAA+NAAG                                            
   38.472  40%   1.000 Cr+PCr                                              
  142.121  52%   3.694 Glu+Gln                                             
 1.38E+03  11%  35.844 Lip13a                                              
    0.000 999%   0.000 Lip13b                                              
  312.218  17%   8.115 Lip09                                               
 1.74E-03 999% 4.5E-05 MM09                                                
  153.666  28%   3.994 Lip20                                               
    0.000 999%   0.000 MM20                                                
 1.14E-03 999% 3.0E-05 MM12                                                
 5.07E-02 999% 1.3E-03 MM14                                                
 3.68E-02 999% 9.6E-04 MM17                                                
 1.38E+03  11%  35.844 Lip13a+Lip13b                                       
 1.38E+03  11%  35.845 MM14+Lip13a+Lip13b+MM12                             
  312.219  17%   8.116 MM09+Lip09                                          
  153.666  28%   3.994 MM20+Lip20                                          
   6 lines in following misc. output table
  FWHM = 0.046 ppm    S/N =   1                                            
  Data shift =-0.038 ppm                                                   
  Ph:  -9 deg     -32.9 deg/ppm                                            
  alphaB,S = 8.1E+00,   3.3E+01                                            
   14 spline knots.   Ns = 6(1)                                            
   2 inflections.     2 extrema                                            
  498 points on ppm-axis = NY
      4.000000     3.992357     3.984714     3.977070     3.969427     3.961784     3.954141     3.946497     3.938854     3.931211
      3.923568     3.915925     3.908281     3.900638     3.892995     3.885352     3.877708     3.870065     3.862422     3.854779
      3.847136     3.839492     3.831849     3.824206     3.816563     3.808919     3.801276     3.793633     3.785990     3.778347
      3.770703     3.763060     3.755417     3.747774     3.740130     3.732487     3.724844     3.717201     3.709558     3.701914
      3.694271     3.686628     3.678985     3.671341     3.663698     3.656055     3.648412     3.640769     3.633125     3.625482
      3.617839     3.610196     3.602552     3.594909     3.587266     3.579623     3.571980     3.564336     3.556693     3.549050
      3.541407     3.533763     3.526120     3.518477     3.510834     3.503191     3.495547     3.487904     3.480261     3.472618
      3.464974     3.457331     3.449688     3.442045     3.434402     3.426758     3.419115     3.411472     3.403829     3.396185
      3.388542     3.380899     3.373256     3.365613     3.357969     3.350326     3.342683     3.335040     3.327396     3.319753
      3.312110     3.304467     3.296824     3.289180     3.281537     3.273894     3.266251     3.258607     3.250964     3.243321
      3.235678     3.228034     3.220391     3.212748     3.205105     3.197462     3.189818     3.182175     3.174532     3.166889
      3.159245     3.151602     3.143959     3.136316     3.128673     3.121029     3.113386     3.105743     3.098100     3.090456
      3.082813     3.075170     3.067527     3.059884     3.052240     3.044597     3.036954     3.029311     3.021667     3.014024
      3.006381     2.998738     2.991095     2.983451     2.975808     2.968165     2.960522     2.952878     2.945235     2.937592
      2.929949     2.922306     2.914662     2.907019     2.899376     2.891733     2.884089     2.876446     2.868803     2.861160
      2.853517     2.845873     2.838230     2.830587     2.822944     2.815300     2.807657     2.800014     2.792371     2.784728
      2.777084     2.769441     2.761798     2.754155     2.746511     2.738868     2.731225     2.723582     2.715939     2.708295
      2.700652     2.693009     2.685366     2.677722     2.670079     2.662436     2.654793     2.647150     2.639506     2.631863
      2.624220     2.616577     2.608933     2.601290     2.593647     2.586004     2.578361     2.570717     2.563074     2.555431
      2.547788     2.540144     2.532501     2.524858     2.517215     2.509572     2.501928     2.494285     2.486642     2.478999
      2.471355     2.463712     2.456069     2.448426     2.440783     2.433139     2.425496     2.417853     2.410210     2.402566
      2.394923     2.387280     2.379637     2.371994     2.364350     2.356707     2.349064     2.341421     2.333777     2.326134
      2.318491     2.310848     2.303205     2.295561     2.287918     2.280275     2.272632     2.264988     2.257345     2.249702
      2.242059     2.234416     2.226772     2.219129     2.211486     2.203843     2.196199     2.188556     2.180913     2.173270
      2.165627     2.157983     2.150340     2.142697     2.135054     2.127410     2.119767     2.112124     2.104481     2.096838
      2.089194     2.081551     2.073908     2.066265     2.058621     2.050978     2.043335     2.035692     2.028049     2.020405
      2.012762     2.005119     1.997476     1.989833     1.982190     1.974546     1.966903     1.959260     1.951617     1.943974
      1.936331     1.928688     1.921045     1.913402     1.905759     1.898115     1.890472     1.882829     1.875186     1.867543
      1.859900     1.852257     1.844614     1.836971     1.829327     1.821684     1.814041     1.806398     1.798755     1.791112
      1.783469     1.775826     1.768183     1.760540     1.752896     1.745253     1.737610     1.729967     1.722324     1.714681
      1.707038     1.699395     1.691752     1.684108     1.676465     1.668822     1.661179     1.653536     1.645893     1.638250
      1.630607     1.622964     1.615321     1.607677     1.600034     1.592391     1.584748     1.577105     1.569462     1.561819
      1.554176     1.546533     1.538890     1.531246     1.523603     1.515960     1.508317     1.500674     1.493031     1.485388
      1.477745     1.470102     1.462458     1.454815     1.447172     1.439529     1.431886     1.424243     1.416600     1.408957
      1.401314     1.393671     1.386027     1.378384     1.370741     1.363098     1.355455     1.347812     1.340169     1.332526
      1.324883     1.317240     1.309596     1.301953     1.294310     1.286667     1.279024     1.271381     1.263738     1.256095
      1.248452     1.240808     1.233165     1.225522     1.217879     1.210236     1.202593     1.194950     1.187307     1.179664
      1.172021     1.164377     1.156734     1.149091     1.141448     1.133805     1.126162     1.118519     1.110876     1.103233
      1.095590     1.087946     1.080303     1.072660     1.065017     1.057374     1.049731     1.042088     1.034445     1.026802
      1.019158     1.011515     1.003872     0.996229     0.988586     0.980943     0.973300     0.965657     0.958014     0.950371
      0.942727     0.935084     0.927441     0.919798     0.912155     0.904512     0.896869     0.889226     0.881583     0.873940
      0.866296     0.858653     0.851010     0.843367     0.835724     0.828081     0.820438     0.812795     0.805152     0.797508
      0.789865     0.782222     0.774579     0.766936     0.759293     0.751650     0.744007     0.736364     0.728721     0.721077
      0.713434     0.705791     0.698148     0.690505     0.682862     0.675219     0.667576     0.659933     0.652290     0.644646
      0.637003     0.629360     0.621717     0.614074     0.606431     0.598788     0.591145     0.583502     0.575858     0.568215
      0.560572     0.552929     0.545286     0.537643     0.530000     0.522357     0.514714     0.507071     0.499427     0.491784
      0.484141     0.476498     0.468855     0.461212     0.453569     0.445925     0.438282     0.430639     0.422996     0.415353
      0.407710     0.400067     0.392424     0.384780     0.377137     0.369494     0.361851     0.354208     0.346565     0.338922
      0.331278     0.323635     0.315992     0.308349     0.300706     0.293063     0.285420     0.277777     0.270133     0.262490
      0.254847     0.247204     0.239561     0.231918     0.224275     0.216631     0.208988     0.201345
 NY phased data points follow
   5.08419E+00  3.01364E+00  6.41095E+00  5.45062E+00  2.56384E+00  2.79563E+00  1.90146E+00  1.21182E+00  5.17265E+00  3.01870E+00
   2.49039E+00  4.05661E+00  4.30310E+00  3.08492E+00  2.20615E+00  4.61312E+00  4.91998E+00  2.86068E+00  1.03124E+00  3.37369E+00
   3.52234E+00  4.10834E+00  2.36823E+00  6.07514E-01  2.60052E+00  2.49499E+00  4.24587E+00  2.06062E+00  3.79494E+00  2.47095E+00
   2.18692E+00  2.30893E+00  5.11013E+00  3.12901E+00  4.54160E+00  1.35812E+00  4.15095E+00  2.48801E+00  5.62545E+00  8.93388E-01
   3.86674E+00  6.19926E-01  2.05916E+00  2.17108E+00  1.86383E+00  1.70706E+00  1.28091E+00  4.36674E+00  3.37098E+00  1.11814E+00
   4.56189E+00  2.73474E+00  2.05266E+00  2.89743E+00  2.83382E+00  2.52974E+00  2.25307E+00  3.30778E+00  1.26940E+00  3.70055E+00
   2.33720E+00  2.11977E+00  3.43414E+00  1.58544E+00  7.38776E-01 -6.18499E-01  3.37665E+00  3.06227E+00  3.57910E+00  1.95047E+00
   3.54499E+00  5.16692E+00  6.22407E-01  2.58885E-01  1.38709E+00  4.31476E+00  1.41895E+00  4.20980E+00  3.16849E+00  1.90746E+00
   3.97748E+00  6.87811E-01  2.77584E+00  2.30803E+00  1.62343E+00  4.08872E+00  1.19068E+00  2.11810E+00  3.57288E+00  2.62640E+00
   6.06572E-01  1.35569E+00  1.99203E+00  5.33803E+00  2.69137E+00  2.14077E+00  1.96934E+00  3.58987E+00  5.41308E-01  3.54516E+00
   2.38326E+00  2.50820E+00  3.56603E+00  1.81292E+00  1.41391E+00  2.58181E+00  3.86454E+00  4.65702E+00  3.13773E+00  8.50672E-01
   1.55560E+00  2.90366E+00  1.84546E+00  4.39925E-01  6.87392E-01 -3.48953E-01  3.50457E-01  1.27285E+00  1.31536E+00  1.96608E+00
   1.32376E+00 -3.21732E-01  2.37748E+00  1.00197E+00  3.05049E+00  3.92752E+00  3.22746E+00  2.22281E+00  2.61053E+00  3.32644E+00
   5.44734E+00  4.41974E+00  2.53285E+00  3.32969E+00  4.32544E+00  1.28798E+00  3.11374E+00  1.65209E+00  2.75961E+00 -6.89381E-02
   3.78074E+00  5.31935E-01  3.46195E+00  1.19659E+00  3.32037E+00  2.62474E+00  1.52226E+00  1.38064E+00 -2.85925E-01  2.81168E+00
   1.19409E+00  1.95827E+00  3.77086E+00  2.70777E+00  1.39230E+00  4.22216E+00  2.98764E+00  1.19298E+00  3.40187E+00  7.99192E-01
   3.87144E+00  3.32851E+00  4.95756E+00  3.34767E+00  1.83302E+00  4.95795E+00  3.01277E+00  1.39781E+00  2.61173E+00  5.15403E+00
   3.99838E+00  1.86990E+00  2.37846E+00  1.94994E+00  3.19252E-01  2.71900E+00  9.79615E-01  1.80879E+00  2.65126E+00  1.21726E+00
   1.97419E-01  1.91503E+00  1.35747E+00  4.14115E-01 -5.65510E-01  2.87748E+00 -4.20067E-01  2.81194E+00  2.02566E+00  4.28303E-01
   1.75668E+00  2.67851E+00 -1.80956E+00  2.79024E+00  1.40128E+00  1.45864E+00  2.24160E+00  2.48158E+00  1.24609E+00 -3.11926E-01
   3.15711E+00  2.77911E+00 -6.00561E-01  1.10430E+00  3.48424E+00  1.61805E+00  2.06135E+00  3.43818E+00  3.02500E+00  7.13630E-01
   4.19493E+00  1.59407E+00  8.64936E-01  1.94201E+00  3.03381E+00  3.08950E+00  3.20741E+00  2.14382E+00  3.44097E+00  2.86365E+00
   2.42401E+00  1.16626E+00  1.94402E-01  5.91774E-01  3.17889E+00  1.24328E+00  2.67218E-01  2.07420E+00  5.39848E-01  2.08902E+00
   2.15000E+00  2.48623E+00  3.25891E+00  3.83393E+00  2.49704E+00  3.15684E+00  3.44609E-01  8.69186E-01  2.00218E+00  2.07612E+00
   2.70905E+00  3.19236E+00 -4.98122E-01  3.29471E+00 -2.97322E-01  5.77468E-01  3.35361E+00  7.43527E-01  1.46594E-01  2.78730E+00
   1.15016E-01 -2.05494E-01  2.25289E+00  1.80762E+00 -5.91360E-01  2.10169E+00 -2.75142E+00 -1.40499E+00  2.69218E+00  4.16157E+00
   3.50069E+00  4.00989E+00  5.13590E+00  8.16805E+00  5.53416E+00  7.11921E+00  5.53531E+00  5.94127E+00  2.97286E+00  1.88965E+00
   2.88729E+00  4.17504E+00  3.57581E+00  2.49347E+00  3.13325E+00  3.26029E+00  3.30070E+00  2.35324E-01  3.64376E+00  2.38808E+00
   3.57535E+00  1.97199E+00  1.60697E+00  4.38039E+00  2.85165E+00  2.15214E+00  1.61257E+00  4.70665E+00  2.62464E+00  5.00790E+00
   2.43737E+00  4.69290E+00  2.17134E+00  3.22915E+00  3.46848E+00  2.37498E+00  2.99575E+00  3.65029E+00  5.59579E+00  2.97876E+00
   1.52290E+00  3.89089E+00  4.16966E+00  3.70039E+00  3.90063E+00  5.36708E+00  3.35704E+00  6.12627E+00  4.75555E+00  2.21377E+00
   4.61665E+00  3.70394E+00  4.44939E+00  5.09606E+00  6.57894E+00  2.55558E+00  2.18252E+00  3.46437E+00  4.45589E+00  5.48194E+00
   2.44058E+00  3.83329E+00  4.65477E+00  4.52879E+00  3.85442E+00  3.95332E+00  6.11474E+00  7.14796E+00  4.79163E+00  5.91490E+00
   4.32781E+00  4.91584E+00  4.78918E+00  4.61942E+00  5.92755E+00  5.15715E+00  1.24817E+00  4.33150E+00  5.03581E+00  3.69140E+00
   4.13831E+00  5.29568E+00  2.74524E+00  7.48287E+00  3.09830E+00  4.92869E+00  5.75155E+00  5.61861E+00  5.13970E+00  4.70428E+00
   5.65035E+00  2.98193E+00  3.76319E+00  4.28870E+00  6.98118E+00  2.53675E+00  6.61909E+00  5.02872E+00  1.87039E+00  4.78401E+00
   4.05826E+00  2.70310E+00  2.54136E+00  5.48108E+00  5.54627E+00  3.10054E+00  2.05935E+00  2.82175E+00  9.83859E-01  3.13578E+00
   3.48931E+00  4.75300E+00  3.18787E+00  3.38226E+00  5.89544E+00  3.15874E+00  2.99981E+00  1.19508E+00  2.09437E+00  1.89299E+00
   2.91228E+00  1.02736E+00  1.25170E+00  7.07949E-01  2.79572E+00  3.01163E+00  6.06707E+00  5.21683E-01  3.10277E+00  4.10059E-01
   5.44060E-01 -1.03541E+00  2.50924E+00  5.40090E-01 -1.01797E+00 -9.95284E-01  6.60872E-01 -9.00453E-01  5.29667E-01  6.89401E-01
   2.93566E-01  2.32007E-01  1.47102E+00  2.35445E+00 -2.44979E+00  1.06257E+00  7.53524E-01  1.05607E-01  1.55999E+00  2.48979E+00
   1.20688E+00  1.62427E+00  1.46894E+00  2.70248E+00 -9.03360E-02  2.02692E+00  1.16218E+00  1.58101E+00  1.84047E+00  7.03509E-01
   2.00491E+00  1.36359E+00 -1.73677E+00 -1.50805E+00  1.39295E+00  1.37910E+00  1.65711E+00 -1.25768E-02  6.72147E-01 -1.03854E-01
   2.65208E+00  4.22394E-01  2.58572E-01  9.59549E-01  6.25318E-01 -1.64705E-01 -7.42447E-01  1.31624E+00  2.98455E+00 -1.06605E-01
  -7.48728E-01 -1.58338E+00  4.11427E-01 -1.76253E+00 -7.61460E-01  8.26428E-01  1.24147E+00  1.38882E+00 -5.46273E-01 -8.55205E-01
   1.32519E-01 -2.93010E-01  7.85158E-01 -2.64281E-01  9.92505E-01  2.05403E+00  9.23509E-01 -9.19073E-01  2.22540E+00 -5.14306E-02
  -1.20008E+00 -6.50275E-01 -1.77979E-02 -1.67921E+00 -3.82308E-01  1.02392E+00 -5.30622E-01 -9.85474E-01  7.76219E-01 -7.65672E-02
  -4.55883E-01 -1.91778E+00  4.56075E-01 -1.07601E+00  3.53692E-01 -8.33309E-01  2.42712E+00  1.48097E+00 -2.96786E+00  1.16536E+00
   6.44795E-01 -3.45070E-01 -1.25892E-01  6.03824E-01  1.82696E+00  7.31529E-01 -4.21148E-01 -3.30922E+00 -5.81543E-01 -1.84176E-02
  -1.35771E-01  7.25154E-01 -9.21816E-01  1.76045E+00  4.81844E-01  2.43534E+00  1.16047E+00 -1.37291E+00
 NY points of the fit to the data follow
   2.77017E+00  2.67243E+00  2.57264E+00  2.44723E+00  2.33322E+00  2.24784E+00  2.20780E+00  2.25318E+00  2.39556E+00  2.61320E+00
   2.86780E+00  3.11872E+00  3.32831E+00  3.45757E+00  3.46750E+00  3.33873E+00  3.10646E+00  2.86466E+00  2.66180E+00  2.54048E+00
   2.49608E+00  2.47910E+00  2.50206E+00  2.55715E+00  2.58045E+00  2.55224E+00  2.49916E+00  2.44706E+00  2.41155E+00  2.40981E+00
   2.47756E+00  2.63191E+00  2.85681E+00  3.12293E+00  3.36254E+00  3.48492E+00  3.41123E+00  3.19266E+00  2.94980E+00  2.69450E+00
   2.44502E+00  2.25321E+00  2.13789E+00  2.11532E+00  2.19546E+00  2.38280E+00  2.62295E+00  2.84551E+00  3.04431E+00  3.21349E+00
   3.32115E+00  3.32427E+00  3.18859E+00  2.91664E+00  2.57915E+00  2.30905E+00  2.19396E+00  2.21179E+00  2.29957E+00  2.41568E+00
   2.53607E+00  2.63831E+00  2.70668E+00  2.73121E+00  2.70891E+00  2.63832E+00  2.52239E+00  2.40586E+00  2.33749E+00  2.33013E+00
   2.37507E+00  2.44270E+00  2.51145E+00  2.56853E+00  2.60803E+00  2.62978E+00  2.63037E+00  2.61112E+00  2.57303E+00  2.52432E+00
   2.48316E+00  2.45564E+00  2.44782E+00  2.46313E+00  2.48607E+00  2.49096E+00  2.46566E+00  2.41397E+00  2.34252E+00  2.26000E+00
   2.17736E+00  2.11068E+00  2.08369E+00  2.11283E+00  2.19546E+00  2.28586E+00  2.32837E+00  2.27901E+00  2.19466E+00  2.16037E+00
   2.21355E+00  2.33807E+00  2.49687E+00  2.66788E+00  2.84609E+00  3.00226E+00  3.07773E+00  3.02923E+00  2.84846E+00  2.58896E+00
   2.36586E+00  2.28121E+00  2.26515E+00  2.26090E+00  2.26334E+00  2.26733E+00  2.27078E+00  2.26993E+00  2.26262E+00  2.24386E+00
   2.18481E+00  2.02493E+00  1.85829E+00  1.84518E+00  2.05272E+00  2.43165E+00  2.88044E+00  3.32218E+00  3.72087E+00  4.03869E+00
   4.19026E+00  4.08790E+00  3.71561E+00  3.17020E+00  2.67349E+00  2.44114E+00  2.34747E+00  2.26907E+00  2.19861E+00  2.14910E+00
   2.13826E+00  2.18325E+00  2.27413E+00  2.36937E+00  2.44177E+00  2.47759E+00  2.47433E+00  2.44929E+00  2.42059E+00  2.39898E+00
   2.38755E+00  2.37633E+00  2.36412E+00  2.35332E+00  2.34721E+00  2.34847E+00  2.35623E+00  2.36240E+00  2.35747E+00  2.33673E+00
   2.30713E+00  2.28096E+00  2.26166E+00  2.24748E+00  2.24004E+00  2.24296E+00  2.25795E+00  2.27999E+00  2.29509E+00  2.28666E+00
   2.25683E+00  2.22274E+00  2.18661E+00  2.15368E+00  2.12338E+00  2.09727E+00  2.08140E+00  2.06770E+00  2.04993E+00  2.03520E+00
   2.03534E+00  2.05432E+00  2.07764E+00  2.07730E+00  2.04111E+00  1.98750E+00  1.95909E+00  1.97196E+00  2.01781E+00  2.07796E+00
   2.14765E+00  2.23411E+00  2.32896E+00  2.39995E+00  2.41751E+00  2.37077E+00  2.28284E+00  2.19627E+00  2.13037E+00  2.09776E+00
   2.10687E+00  2.16468E+00  2.26533E+00  2.38811E+00  2.51680E+00  2.61517E+00  2.64543E+00  2.60279E+00  2.48171E+00  2.28337E+00
   2.02113E+00  1.79959E+00  1.74716E+00  1.90452E+00  2.22501E+00  2.62206E+00  3.03980E+00  3.38742E+00  3.49391E+00  3.27688E+00
   2.77843E+00  2.12399E+00  1.50197E+00  1.08937E+00  1.00412E+00  1.18734E+00  1.56443E+00  2.06237E+00  2.56034E+00  2.91582E+00
   3.02553E+00  2.92918E+00  2.77364E+00  2.65571E+00  2.59394E+00  2.60559E+00  2.67294E+00  2.76687E+00  2.83165E+00  2.80975E+00
   2.70194E+00  2.56023E+00  2.42195E+00  2.32012E+00  2.29097E+00  2.36222E+00  2.51019E+00  2.66842E+00  2.78186E+00  2.83073E+00
   2.81545E+00  2.73442E+00  2.64541E+00  2.56795E+00  2.41316E+00  2.13959E+00  2.04899E+00  2.35356E+00  3.00361E+00  3.80107E+00
   4.57590E+00  5.25994E+00  5.80450E+00  6.08111E+00  5.91518E+00  5.22521E+00  4.11142E+00  2.92294E+00  2.15609E+00  1.97231E+00
   1.94852E+00  1.95068E+00  1.97722E+00  2.01207E+00  2.04999E+00  2.10332E+00  2.16241E+00  2.21369E+00  2.24641E+00  2.25499E+00
   2.24131E+00  2.22060E+00  2.20615E+00  2.20034E+00  2.20301E+00  2.21404E+00  2.23167E+00  2.25280E+00  2.27305E+00  2.29003E+00
   2.30562E+00  2.32044E+00  2.33493E+00  2.35016E+00  2.36690E+00  2.38498E+00  2.40393E+00  2.42386E+00  2.44513E+00  2.46754E+00
   2.49109E+00  2.51595E+00  2.54200E+00  2.56921E+00  2.59764E+00  2.62736E+00  2.65842E+00  2.69082E+00  2.72453E+00  2.75962E+00
   2.79629E+00  2.83491E+00  2.87565E+00  2.91849E+00  2.96349E+00  3.01072E+00  3.06028E+00  3.11227E+00  3.16667E+00  3.22323E+00
   3.28108E+00  3.34092E+00  3.41573E+00  3.51225E+00  3.62041E+00  3.72454E+00  3.81453E+00  3.88931E+00  3.94986E+00  3.98644E+00
   3.99664E+00  4.00148E+00  4.03010E+00  4.10503E+00  4.23401E+00  4.40473E+00  4.58144E+00  4.74830E+00  4.90137E+00  5.02864E+00
   5.11781E+00  5.16601E+00  5.19595E+00  5.24377E+00  5.30939E+00  5.36656E+00  5.40134E+00  5.41008E+00  5.39070E+00  5.33493E+00
   5.24576E+00  5.13971E+00  5.03638E+00  4.95014E+00  4.88672E+00  4.83944E+00  4.78346E+00  4.70667E+00  4.60734E+00  4.47992E+00
   4.32105E+00  4.13537E+00  3.94027E+00  3.75919E+00  3.59034E+00  3.42724E+00  3.26912E+00  3.11658E+00  2.97043E+00  2.83146E+00
   2.70036E+00  2.57769E+00  2.46385E+00  2.35914E+00  2.26366E+00  2.17739E+00  2.10022E+00  2.03194E+00  1.97228E+00  1.92089E+00
   1.87734E+00  1.84117E+00  1.81189E+00  1.78898E+00  1.77192E+00  1.76013E+00  1.75302E+00  1.74997E+00  1.75035E+00  1.75351E+00
   1.75879E+00  1.76550E+00  1.77291E+00  1.78029E+00  1.78694E+00  1.79214E+00  1.79518E+00  1.79539E+00  1.79211E+00  1.78476E+00
   1.77286E+00  1.75600E+00  1.73385E+00  1.70620E+00  1.67297E+00  1.63419E+00  1.59006E+00  1.54086E+00  1.48699E+00  1.42894E+00
   1.36731E+00  1.30275E+00  1.23598E+00  1.16772E+00  1.09870E+00  1.02962E+00  9.61164E-01  8.93967E-01  8.28595E-01  7.65530E-01
   7.05172E-01  6.47839E-01  5.93782E-01  5.43169E-01  4.96093E-01  4.52568E-01  4.12554E-01  3.75966E-01  3.42688E-01  3.12572E-01
   2.85436E-01  2.61081E-01  2.39302E-01  2.19898E-01  2.02677E-01  1.87444E-01  1.74008E-01  1.62182E-01  1.51801E-01  1.42716E-01
   1.34795E-01  1.27908E-01  1.21933E-01  1.16759E-01  1.12295E-01  1.08463E-01  1.05193E-01  1.02413E-01  1.00057E-01  9.80699E-02
   9.64101E-02  9.50427E-02  9.39324E-02  9.30412E-02  9.23360E-02  9.17922E-02  9.13943E-02  9.11268E-02  9.09701E-02  9.09022E-02
   9.09065E-02  9.09739E-02  9.11004E-02  9.12783E-02  9.14959E-02  9.17399E-02  9.20038E-02  9.22867E-02  9.25891E-02  9.29048E-02
   9.32254E-02  9.35429E-02  9.38574E-02  9.41724E-02  9.44893E-02  9.48026E-02  9.51056E-02  9.53948E-02  9.56734E-02  9.59454E-02
   9.62110E-02  9.64647E-02  9.67023E-02  9.69243E-02  9.71366E-02  9.73427E-02  9.75419E-02  9.77292E-02  9.79030E-02  9.80663E-02
   9.82257E-02  9.83842E-02  9.85401E-02  9.86899E-02  9.88352E-02  9.89811E-02  9.91351E-02  9.92995E-02
 NY background values follow
     2.449E+00    2.447E+00    2.445E+00    2.443E+00    2.441E+00    2.439E+00    2.437E+00    2.435E+00    2.433E+00    2.431E+00
     2.429E+00    2.427E+00    2.425E+00    2.423E+00    2.421E+00    2.419E+00    2.417E+00    2.415E+00    2.413E+00    2.411E+00
     2.408E+00    2.406E+00    2.404E+00    2.402E+00    2.400E+00    2.397E+00    2.395E+00    2.393E+00    2.391E+00    2.388E+00
     2.386E+00    2.384E+00    2.381E+00    2.379E+00    2.377E+00    2.374E+00    2.372E+00    2.370E+00    2.367E+00    2.365E+00
     2.362E+00    2.360E+00    2.358E+00    2.355E+00    2.353E+00    2.350E+00    2.348E+00    2.345E+00    2.343E+00    2.340E+00
     2.337E+00    2.335E+00    2.332E+00    2.330E+00    2.327E+00    2.324E+00    2.322E+00    2.319E+00    2.317E+00    2.314E+00
     2.311E+00    2.309E+00    2.306E+00    2.303E+00    2.300E+00    2.298E+00    2.295E+00    2.292E+00    2.289E+00    2.287E+00
     2.284E+00    2.281E+00    2.278E+00    2.275E+00    2.272E+00    2.270E+00    2.267E+00    2.264E+00    2.261E+00    2.258E+00
     2.255E+00    2.252E+00    2.249E+00    2.246E+00    2.243E+00    2.241E+00    2.238E+00    2.235E+00    2.232E+00    2.229E+00
     2.226E+00    2.223E+00    2.219E+00    2.216E+00    2.213E+00    2.210E+00    2.207E+00    2.204E+00    2.201E+00    2.198E+00
     2.195E+00    2.192E+00    2.189E+00    2.185E+00    2.182E+00    2.179E+00    2.176E+00    2.173E+00    2.170E+00    2.166E+00
     2.163E+00    2.160E+00    2.157E+00    2.153E+00    2.150E+00    2.147E+00    2.144E+00    2.140E+00    2.137E+00    2.134E+00
     2.130E+00    2.127E+00    2.124E+00    2.120E+00    2.117E+00    2.114E+00    2.110E+00    2.107E+00    2.104E+00    2.100E+00
     2.097E+00    2.093E+00    2.090E+00    2.087E+00    2.083E+00    2.080E+00    2.076E+00    2.073E+00    2.069E+00    2.066E+00
     2.062E+00    2.059E+00    2.055E+00    2.052E+00    2.048E+00    2.045E+00    2.041E+00    2.038E+00    2.034E+00    2.031E+00
     2.027E+00    2.024E+00    2.020E+00    2.016E+00    2.013E+00    2.009E+00    2.006E+00    2.002E+00    1.998E+00    1.995E+00
     1.991E+00    1.987E+00    1.984E+00    1.980E+00    1.976E+00    1.973E+00    1.969E+00    1.965E+00    1.962E+00    1.958E+00
     1.954E+00    1.951E+00    1.947E+00    1.943E+00    1.939E+00    1.936E+00    1.932E+00    1.928E+00    1.924E+00    1.921E+00
     1.917E+00    1.913E+00    1.909E+00    1.906E+00    1.902E+00    1.898E+00    1.894E+00    1.890E+00    1.886E+00    1.883E+00
     1.879E+00    1.875E+00    1.871E+00    1.867E+00    1.863E+00    1.860E+00    1.856E+00    1.852E+00    1.848E+00    1.844E+00
     1.840E+00    1.836E+00    1.832E+00    1.828E+00    1.825E+00    1.821E+00    1.817E+00    1.813E+00    1.809E+00    1.805E+00
     1.801E+00    1.797E+00    1.793E+00    1.789E+00    1.785E+00    1.781E+00    1.777E+00    1.773E+00    1.769E+00    1.765E+00
     1.761E+00    1.757E+00    1.753E+00    1.749E+00    1.745E+00    1.741E+00    1.737E+00    1.733E+00    1.729E+00    1.725E+00
     1.721E+00    1.717E+00    1.713E+00    1.709E+00    1.705E+00    1.701E+00    1.697E+00    1.693E+00    1.689E+00    1.685E+00
     1.681E+00    1.677E+00    1.673E+00    1.669E+00    1.665E+00    1.660E+00    1.656E+00    1.652E+00    1.648E+00    1.644E+00
     1.640E+00    1.636E+00    1.632E+00    1.628E+00    1.624E+00    1.619E+00    1.615E+00    1.611E+00    1.607E+00    1.603E+00
     1.599E+00    1.595E+00    1.591E+00    1.586E+00    1.582E+00    1.578E+00    1.574E+00    1.570E+00    1.566E+00    1.561E+00
     1.557E+00    1.553E+00    1.549E+00    1.545E+00    1.541E+00    1.536E+00    1.532E+00    1.528E+00    1.524E+00    1.520E+00
     1.516E+00    1.511E+00    1.507E+00    1.503E+00    1.499E+00    1.495E+00    1.490E+00    1.486E+00    1.482E+00    1.478E+00
     1.474E+00    1.469E+00    1.465E+00    1.461E+00    1.457E+00    1.453E+00    1.448E+00    1.444E+00    1.440E+00    1.436E+00
     1.432E+00    1.427E+00    1.423E+00    1.419E+00    1.415E+00    1.410E+00    1.406E+00    1.402E+00    1.398E+00    1.394E+00
     1.389E+00    1.385E+00    1.381E+00    1.377E+00    1.372E+00    1.368E+00    1.364E+00    1.360E+00    1.355E+00    1.351E+00
     1.347E+00    1.343E+00    1.339E+00    1.334E+00    1.330E+00    1.326E+00    1.322E+00    1.317E+00    1.313E+00    1.309E+00
     1.305E+00    1.300E+00    1.296E+00    1.292E+00    1.288E+00    1.283E+00    1.279E+00    1.275E+00    1.271E+00    1.266E+00
     1.262E+00    1.258E+00    1.254E+00    1.250E+00    1.245E+00    1.241E+00    1.237E+00    1.233E+00    1.228E+00    1.224E+00
     1.220E+00    1.216E+00    1.211E+00    1.207E+00    1.203E+00    1.199E+00    1.195E+00    1.190E+00    1.186E+00    1.182E+00
     1.178E+00    1.173E+00    1.169E+00    1.165E+00    1.161E+00    1.157E+00    1.152E+00    1.148E+00    1.144E+00    1.140E+00
     1.136E+00    1.131E+00    1.127E+00    1.123E+00    1.119E+00    1.115E+00    1.110E+00    1.106E+00    1.102E+00    1.098E+00
     1.094E+00    1.090E+00    1.085E+00    1.081E+00    1.077E+00    1.073E+00    1.069E+00    1.065E+00    1.060E+00    1.056E+00
     1.052E+00    1.048E+00    1.044E+00    1.040E+00    1.035E+00    1.031E+00    1.027E+00    1.023E+00    1.019E+00    1.015E+00
     1.011E+00    1.007E+00    1.002E+00    9.984E-01    9.942E-01    9.901E-01    9.860E-01    9.819E-01    9.779E-01    9.738E-01
     9.697E-01    9.656E-01    9.615E-01    9.574E-01    9.534E-01    9.493E-01    9.452E-01    9.412E-01    9.371E-01    9.331E-01
     9.290E-01    9.250E-01    9.209E-01    9.169E-01    9.129E-01    9.089E-01    9.048E-01    9.008E-01    8.968E-01    8.928E-01
     8.888E-01    8.848E-01    8.808E-01    8.768E-01    8.728E-01    8.689E-01    8.649E-01    8.609E-01    8.569E-01    8.530E-01
     8.490E-01    8.451E-01    8.411E-01    8.372E-01    8.333E-01    8.293E-01    8.254E-01    8.215E-01    8.176E-01    8.137E-01
     8.097E-01    8.058E-01    8.020E-01    7.981E-01    7.942E-01    7.903E-01    7.864E-01    7.826E-01    7.787E-01    7.749E-01
     7.710E-01    7.672E-01    7.633E-01    7.595E-01    7.557E-01    7.519E-01    7.480E-01    7.442E-01    7.404E-01    7.366E-01
     7.328E-01    7.291E-01    7.253E-01    7.215E-01    7.178E-01    7.140E-01    7.102E-01    7.065E-01    7.028E-01    6.990E-01
     6.953E-01    6.916E-01    6.879E-01    6.842E-01    6.805E-01    6.768E-01    6.731E-01    6.694E-01    6.657E-01    6.621E-01
     6.584E-01    6.548E-01    6.511E-01    6.475E-01    6.438E-01    6.402E-01    6.366E-01    6.330E-01
 Ala      Conc. = 8.18E+00
