 LCModel (Version 6.3-1L) Copyright: S.W. Provencher.          Ref.: Magn. Reson. Med. 30:672-679 (1993).                
 Slice#1 Row#6 Col#4  K_02_press_1_raw_act
 36 lines in following concentration table = NCONC+1
    Conc.  %SD /Cr+PCr  Metabolite                                         
  868.335  21%   0.691 Ala                                                 
    0.000 999%   0.000 Asp                                                 
    0.000 999%   0.000 Cr                                                  
 1.26E+03   6%   1.000 PCr                                                 
  108.221 169% 8.6E-02 GABA                                                
  128.310 137%   0.102 Glc                                                 
  338.687 115%   0.270 Gln                                                 
 1.26E+03  36%   1.003 Glu                                                 
  544.635   5%   0.434 GPC                                                 
    0.000 999%   0.000 PCh                                                 
  365.579  28%   0.291 GSH                                                 
  865.056  39%   0.689 Ins                                                 
    0.000 999%   0.000 Lac                                                 
 2.66E+03   7%   2.117 NAA                                                 
  180.574 104%   0.144 NAAG                                                
  189.404  19%   0.151 Scyllo                                              
  680.687  34%   0.542 Tau                                                 
  737.826  18%   0.588 -CrCH2                                              
  544.635   5%   0.434 GPC+PCh                                             
 2.84E+03   4%   2.260 NAA+NAAG                                            
 1.26E+03   6%   1.000 Cr+PCr                                              
 1.60E+03  43%   1.273 Glu+Gln                                             
  529.806  49%   0.422 Lip13a                                              
    0.000 999%   0.000 Lip13b                                              
   25.014 489% 2.0E-02 Lip09                                               
  935.590  18%   0.745 MM09                                                
  137.320  62%   0.109 Lip20                                               
 2.22E+03  14%   1.767 MM20                                                
  297.136  33%   0.237 MM12                                                
    0.000 999%   0.000 MM14                                                
  416.735  40%   0.332 MM17                                                
  529.806  49%   0.422 Lip13a+Lip13b                                       
  826.942  30%   0.658 MM14+Lip13a+Lip13b+MM12                             
  960.604  16%   0.765 MM09+Lip09                                          
 2.36E+03  13%   1.876 MM20+Lip20                                          
   6 lines in following misc. output table
  FWHM = 0.061 ppm    S/N =  10                                            
  Data shift = 0.031 ppm                                                   
  Ph: -67 deg     -19.0 deg/ppm                                            
  alphaB,S = 1.4E+00,   9.5E+01                                            
   14 spline knots.   Ns = 9(1)                                            
  (13) 4 infls.   ( 7) 1 extrs.                                            
  498 points on ppm-axis = NY
      4.000000     3.992357     3.984714     3.977070     3.969427     3.961784     3.954141     3.946497     3.938854     3.931211
      3.923568     3.915925     3.908281     3.900638     3.892995     3.885352     3.877708     3.870065     3.862422     3.854779
      3.847136     3.839492     3.831849     3.824206     3.816563     3.808919     3.801276     3.793633     3.785990     3.778347
      3.770703     3.763060     3.755417     3.747774     3.740130     3.732487     3.724844     3.717201     3.709558     3.701914
      3.694271     3.686628     3.678985     3.671341     3.663698     3.656055     3.648412     3.640769     3.633125     3.625482
      3.617839     3.610196     3.602552     3.594909     3.587266     3.579623     3.571980     3.564336     3.556693     3.549050
      3.541407     3.533763     3.526120     3.518477     3.510834     3.503191     3.495547     3.487904     3.480261     3.472618
      3.464974     3.457331     3.449688     3.442045     3.434402     3.426758     3.419115     3.411472     3.403829     3.396185
      3.388542     3.380899     3.373256     3.365613     3.357969     3.350326     3.342683     3.335040     3.327396     3.319753
      3.312110     3.304467     3.296824     3.289180     3.281537     3.273894     3.266251     3.258607     3.250964     3.243321
      3.235678     3.228034     3.220391     3.212748     3.205105     3.197462     3.189818     3.182175     3.174532     3.166889
      3.159245     3.151602     3.143959     3.136316     3.128673     3.121029     3.113386     3.105743     3.098100     3.090456
      3.082813     3.075170     3.067527     3.059884     3.052240     3.044597     3.036954     3.029311     3.021667     3.014024
      3.006381     2.998738     2.991095     2.983451     2.975808     2.968165     2.960522     2.952878     2.945235     2.937592
      2.929949     2.922306     2.914662     2.907019     2.899376     2.891733     2.884089     2.876446     2.868803     2.861160
      2.853517     2.845873     2.838230     2.830587     2.822944     2.815300     2.807657     2.800014     2.792371     2.784728
      2.777084     2.769441     2.761798     2.754155     2.746511     2.738868     2.731225     2.723582     2.715939     2.708295
      2.700652     2.693009     2.685366     2.677722     2.670079     2.662436     2.654793     2.647150     2.639506     2.631863
      2.624220     2.616577     2.608933     2.601290     2.593647     2.586004     2.578361     2.570717     2.563074     2.555431
      2.547788     2.540144     2.532501     2.524858     2.517215     2.509572     2.501928     2.494285     2.486642     2.478999
      2.471355     2.463712     2.456069     2.448426     2.440783     2.433139     2.425496     2.417853     2.410210     2.402566
      2.394923     2.387280     2.379637     2.371994     2.364350     2.356707     2.349064     2.341421     2.333777     2.326134
      2.318491     2.310848     2.303205     2.295561     2.287918     2.280275     2.272632     2.264988     2.257345     2.249702
      2.242059     2.234416     2.226772     2.219129     2.211486     2.203843     2.196199     2.188556     2.180913     2.173270
      2.165627     2.157983     2.150340     2.142697     2.135054     2.127410     2.119767     2.112124     2.104481     2.096838
      2.089194     2.081551     2.073908     2.066265     2.058621     2.050978     2.043335     2.035692     2.028049     2.020405
      2.012762     2.005119     1.997476     1.989833     1.982190     1.974546     1.966903     1.959260     1.951617     1.943974
      1.936331     1.928688     1.921045     1.913402     1.905759     1.898115     1.890472     1.882829     1.875186     1.867543
      1.859900     1.852257     1.844614     1.836971     1.829327     1.821684     1.814041     1.806398     1.798755     1.791112
      1.783469     1.775826     1.768183     1.760540     1.752896     1.745253     1.737610     1.729967     1.722324     1.714681
      1.707038     1.699395     1.691752     1.684108     1.676465     1.668822     1.661179     1.653536     1.645893     1.638250
      1.630607     1.622964     1.615321     1.607677     1.600034     1.592391     1.584748     1.577105     1.569462     1.561819
      1.554176     1.546533     1.538890     1.531246     1.523603     1.515960     1.508317     1.500674     1.493031     1.485388
      1.477745     1.470102     1.462458     1.454815     1.447172     1.439529     1.431886     1.424243     1.416600     1.408957
      1.401314     1.393671     1.386027     1.378384     1.370741     1.363098     1.355455     1.347812     1.340169     1.332526
      1.324883     1.317240     1.309596     1.301953     1.294310     1.286667     1.279024     1.271381     1.263738     1.256095
      1.248452     1.240808     1.233165     1.225522     1.217879     1.210236     1.202593     1.194950     1.187307     1.179664
      1.172021     1.164377     1.156734     1.149091     1.141448     1.133805     1.126162     1.118519     1.110876     1.103233
      1.095590     1.087946     1.080303     1.072660     1.065017     1.057374     1.049731     1.042088     1.034445     1.026802
      1.019158     1.011515     1.003872     0.996229     0.988586     0.980943     0.973300     0.965657     0.958014     0.950371
      0.942727     0.935084     0.927441     0.919798     0.912155     0.904512     0.896869     0.889226     0.881583     0.873940
      0.866296     0.858653     0.851010     0.843367     0.835724     0.828081     0.820438     0.812795     0.805152     0.797508
      0.789865     0.782222     0.774579     0.766936     0.759293     0.751650     0.744007     0.736364     0.728721     0.721077
      0.713434     0.705791     0.698148     0.690505     0.682862     0.675219     0.667576     0.659933     0.652290     0.644646
      0.637003     0.629360     0.621717     0.614074     0.606431     0.598788     0.591145     0.583502     0.575858     0.568215
      0.560572     0.552929     0.545286     0.537643     0.530000     0.522357     0.514714     0.507071     0.499427     0.491784
      0.484141     0.476498     0.468855     0.461212     0.453569     0.445925     0.438282     0.430639     0.422996     0.415353
      0.407710     0.400067     0.392424     0.384780     0.377137     0.369494     0.361851     0.354208     0.346565     0.338922
      0.331278     0.323635     0.315992     0.308349     0.300706     0.293063     0.285420     0.277777     0.270133     0.262490
      0.254847     0.247204     0.239561     0.231918     0.224275     0.216631     0.208988     0.201345
 NY phased data points follow
  -4.02905E+01 -3.53653E+01 -3.22738E+01 -2.61624E+01 -2.98194E+01 -2.78699E+01 -2.78505E+01 -2.92730E+01 -2.10419E+01 -1.69607E+01
  -2.13499E+01 -2.29677E+01 -2.09054E+01 -3.10286E+01 -2.64650E+01 -3.41638E+01 -3.28862E+01 -3.34496E+01 -3.01081E+01 -3.00212E+01
  -3.14028E+01 -3.04383E+01 -3.04381E+01 -3.43668E+01 -2.67423E+01 -3.10361E+01 -3.05578E+01 -2.73549E+01 -2.58060E+01 -2.48989E+01
  -2.29491E+01 -2.46458E+01 -2.67425E+01 -2.41285E+01 -2.51739E+01 -2.95993E+01 -2.25349E+01 -2.77809E+01 -2.63995E+01 -2.30963E+01
  -2.43786E+01 -2.15155E+01 -2.07405E+01 -1.97297E+01 -2.02744E+01 -2.05182E+01 -1.83816E+01 -2.36322E+01 -2.26162E+01 -2.23560E+01
  -2.20960E+01 -2.34210E+01 -2.58479E+01 -2.63663E+01 -2.51388E+01 -2.19868E+01 -2.36116E+01 -2.24638E+01 -2.35466E+01 -2.13298E+01
  -2.49459E+01 -2.51764E+01 -2.77232E+01 -2.98110E+01 -2.57248E+01 -3.08398E+01 -2.68711E+01 -2.47530E+01 -2.49686E+01 -2.25345E+01
  -2.23056E+01 -2.18842E+01 -2.30664E+01 -2.12560E+01 -1.93629E+01 -2.33234E+01 -2.37565E+01 -2.07797E+01 -1.84714E+01 -1.88810E+01
  -1.68655E+01 -2.06202E+01 -2.19702E+01 -1.83667E+01 -1.95571E+01 -1.59309E+01 -1.24145E+01 -2.00250E+01 -1.60556E+01 -1.50802E+01
  -1.30399E+01 -1.65791E+01 -1.41288E+01 -9.80403E+00 -9.57740E+00 -4.82112E+00 -5.29028E+00  2.25064E+00  2.22676E+00  1.19683E+01
   1.46747E+01  1.73788E+01  2.22743E+01  1.46251E+01  8.53289E+00  3.48419E+00  1.80077E-01 -3.65542E+00 -5.76287E+00 -1.47599E+01
  -1.65760E+01 -1.81729E+01 -1.59907E+01 -1.57396E+01 -1.80134E+01 -1.47826E+01 -1.51226E+01 -1.30876E+01 -5.89739E+00 -8.30734E+00
  -8.92225E+00 -2.17485E+00 -2.14204E+00  3.31414E+00  5.95467E+00  9.23163E+00  1.30979E+01  1.56720E+01  8.25425E+00  1.10522E+01
   5.47786E+00 -4.99030E+00 -2.57216E+00 -1.01135E+01 -1.28080E+01 -1.44907E+01 -1.52856E+01 -1.21884E+01 -1.86348E+01 -1.18017E+01
  -1.58707E+01 -1.83663E+01 -1.54232E+01 -1.42306E+01 -1.15370E+01 -1.25614E+01 -1.47448E+01 -1.47964E+01 -1.40841E+01 -1.65520E+01
  -1.57149E+01 -1.13253E+01 -1.26593E+01 -1.29748E+01 -1.00522E+01 -1.45581E+01 -1.45687E+01 -1.45901E+01 -1.61104E+01 -1.45214E+01
  -2.27495E+01 -9.63220E+00 -1.39216E+01 -1.70529E+01 -1.49141E+01 -1.87240E+01 -1.89031E+01 -1.93507E+01 -1.88169E+01 -2.34592E+01
  -1.95888E+01 -2.75302E+01 -2.55252E+01 -2.78167E+01 -2.48650E+01 -2.70917E+01 -2.15688E+01 -2.52667E+01 -2.46849E+01 -2.29955E+01
  -2.44912E+01 -2.11121E+01 -2.01403E+01 -1.75348E+01 -1.71969E+01 -2.53051E+01 -1.30579E+01 -1.26990E+01 -1.51999E+01 -1.15557E+01
  -1.56377E+01 -1.42325E+01 -1.23494E+01 -1.15198E+01 -1.48663E+01 -1.53821E+01 -2.16423E+01 -2.11472E+01 -1.79267E+01 -2.19734E+01
  -1.74105E+01 -1.92115E+01 -1.38433E+01 -1.00657E+01 -1.08536E+01 -1.33082E+01 -1.23779E+01 -9.83450E+00 -8.61631E+00 -1.23559E+01
  -1.19571E+01 -9.82274E+00 -1.60887E+01 -1.13316E+01 -4.48571E+00 -3.85179E+00 -4.36563E+00 -7.43249E+00 -4.60242E+00 -4.65598E+00
  -8.70117E+00 -6.50513E+00 -1.55835E+01 -1.48124E+01 -1.37534E+01 -1.50348E+01 -7.44876E+00 -5.28499E+00 -9.90435E+00 -9.53983E-01
  -6.73271E+00 -6.93966E+00 -8.27197E+00 -6.53517E+00 -4.42023E-01 -1.12645E+00 -6.07597E+00 -1.43050E+00 -3.68226E+00 -9.79710E-01
  -8.29288E+00 -7.26394E+00 -7.89431E+00 -7.54734E+00 -5.05474E+00  1.02564E+00 -1.20028E+00 -7.92388E-01 -1.76846E+00  6.37216E+00
   7.88204E+00  1.46036E+01  2.14873E+01  2.18620E+01  3.12296E+01  3.28953E+01  3.86299E+01  4.25953E+01  4.75846E+01  6.26783E+01
   6.92719E+01  6.90211E+01  5.97084E+01  5.14394E+01  3.96408E+01  2.99455E+01  2.13686E+01  1.33991E+01  1.07843E+01  6.88478E+00
   5.02306E+00 -1.47123E+00 -2.93659E+00 -5.44215E+00 -3.58006E+00 -6.27617E+00 -3.29745E+00 -6.16845E-01 -6.07407E+00 -2.57551E-01
  -9.82202E+00 -8.47482E+00 -6.03623E+00 -4.12721E+00 -3.48349E+00 -8.49775E+00 -4.47754E+00 -5.85799E+00  1.16418E-01 -7.13434E+00
  -2.55199E+00 -4.82425E+00 -3.03287E+00 -7.19784E+00 -7.44705E+00 -8.32462E+00 -6.68108E+00 -4.54468E+00 -9.78131E+00 -3.43403E+00
  -7.26688E+00  1.09282E+00 -4.70527E+00 -6.61217E+00 -6.45324E+00 -5.57738E+00  1.52896E+00 -5.66621E+00 -1.77332E+00 -7.78738E+00
  -3.21807E+00 -4.48198E+00  3.68175E+00 -3.69487E+00 -5.87062E+00  1.54400E+00 -4.15158E+00 -2.43793E+00 -6.98055E+00 -6.16890E+00
  -3.57910E+00 -5.22489E+00 -3.86622E+00 -7.62880E+00 -6.72645E+00 -4.90142E+00 -1.61132E+01 -9.28498E+00 -1.12428E+01 -1.36609E+01
  -1.85021E+01 -1.27854E+01 -1.10394E+01 -7.75121E+00  1.31131E+00 -4.28746E+00 -2.47555E+00 -1.10317E+00  7.37218E-01 -2.86917E+00
   4.50544E+00 -1.64473E+00  2.62179E+00 -3.52856E+00 -2.97285E+00 -1.99045E+00 -2.54634E+00 -3.32469E+00 -6.39808E+00  1.23083E-01
  -1.34512E+00 -2.52491E+00  4.18994E+00  4.16215E+00  1.61364E+00  5.53027E-01 -2.83176E+00 -2.32895E+00 -6.45956E+00 -7.33804E+00
  -4.25139E+00 -1.23899E+00  7.77272E-01 -4.71009E+00 -1.19649E+00  1.32739E+00  1.21589E-01  5.35262E-01 -4.16087E-01  6.79065E+00
  -3.57905E+00  1.28986E+00  5.16270E+00  6.28486E-01 -2.84054E-01 -7.98690E-01 -4.67063E+00 -3.88156E+00 -5.38271E+00 -3.89734E+00
  -3.91110E+00  1.58952E+00 -3.72277E+00 -8.37001E+00 -5.00059E+00 -2.12708E+00 -5.95207E+00 -3.12269E+00  1.93160E-01 -5.81939E+00
  -5.02235E+00 -1.78575E+00 -4.96326E+00 -3.43741E-01  1.89553E+00  1.75849E+00  1.58703E+00 -8.29479E-01  3.86164E+00 -3.00623E+00
  -2.49759E+00  2.47883E+00 -1.28547E+00  4.44430E+00  1.83899E+00  6.13614E+00  8.31436E+00  1.72704E+00  9.21777E+00  1.33311E+00
   4.66134E+00  2.82763E+00  7.07991E+00  1.49205E+00  5.24939E+00  3.52142E+00  4.04310E+00  1.36367E+00  3.99948E+00 -5.56852E-01
  -4.99860E+00 -4.35637E+00 -1.32353E+00 -1.33334E+00  5.90956E-01  1.15904E+00 -2.34667E+00 -2.15976E+00 -5.25084E+00 -2.58146E+00
  -2.38319E+00 -2.93822E+00  3.70782E+00 -1.75650E+00 -1.92431E+00 -1.25486E+00  3.82915E+00 -3.59451E+00 -1.44248E+00  1.50420E+00
  -4.71317E+00  8.35837E-01  1.10193E+00 -1.08031E+00 -3.10545E+00 -3.42004E+00 -8.03069E-02 -3.59158E+00 -3.48254E+00  1.27839E+00
  -4.11224E+00  2.39135E+00  1.75410E+00 -9.71139E-01 -3.35957E+00  9.54598E-02 -2.50087E+00 -1.05008E-01  2.54480E+00 -2.42258E-01
  -3.69662E-01 -8.46636E-01 -5.69506E+00 -2.53838E+00  2.49498E+00 -1.94707E+00  6.35584E-01  3.76398E+00  3.05960E+00  4.09305E+00
   5.83600E+00 -3.51561E+00  3.49717E-01 -1.55347E-01  2.22207E+00  5.89660E-01 -1.84089E+00  2.25510E+00 -7.92740E-01  3.46682E+00
  -2.29485E-01  3.54004E+00 -1.77448E+00  2.79880E+00  1.22279E+00  3.12576E+00  6.38892E+00  2.12714E+00  1.97753E+00  1.24202E+00
  -2.42779E+00  2.27405E-01 -3.56790E+00  6.39588E-01 -2.07729E-01  2.75563E+00 -2.41677E+00  1.99831E+00
 NY points of the fit to the data follow
  -3.21216E+01 -3.10637E+01 -3.02846E+01 -2.95345E+01 -2.86208E+01 -2.74233E+01 -2.58920E+01 -2.42147E+01 -2.29893E+01 -2.25798E+01
  -2.29822E+01 -2.38781E+01 -2.49580E+01 -2.60284E+01 -2.69432E+01 -2.76791E+01 -2.83219E+01 -2.89237E+01 -2.94271E+01 -2.98925E+01
  -3.00261E+01 -2.94719E+01 -2.88533E+01 -2.84718E+01 -2.81637E+01 -2.79153E+01 -2.75754E+01 -2.70353E+01 -2.61558E+01 -2.49504E+01
  -2.39436E+01 -2.32934E+01 -2.26732E+01 -2.22331E+01 -2.23689E+01 -2.29356E+01 -2.37399E+01 -2.47066E+01 -2.54353E+01 -2.56873E+01
  -2.56410E+01 -2.53626E+01 -2.50256E+01 -2.46171E+01 -2.40021E+01 -2.32256E+01 -2.24513E+01 -2.19728E+01 -2.20073E+01 -2.24380E+01
  -2.30801E+01 -2.38309E+01 -2.44879E+01 -2.49586E+01 -2.53177E+01 -2.55437E+01 -2.55969E+01 -2.54905E+01 -2.52148E+01 -2.48991E+01
  -2.45913E+01 -2.44671E+01 -2.45268E+01 -2.45803E+01 -2.45531E+01 -2.44831E+01 -2.42302E+01 -2.37091E+01 -2.32856E+01 -2.30974E+01
  -2.30398E+01 -2.30291E+01 -2.29514E+01 -2.26466E+01 -2.21795E+01 -2.18278E+01 -2.17732E+01 -2.16256E+01 -2.10595E+01 -2.07712E+01
  -2.06530E+01 -2.03657E+01 -1.97728E+01 -1.87458E+01 -1.73806E+01 -1.61447E+01 -1.55197E+01 -1.56532E+01 -1.64668E+01 -1.74620E+01
  -1.81867E+01 -1.84617E+01 -1.64697E+01 -1.20466E+01 -8.61517E+00 -6.45332E+00 -4.45533E+00 -1.59890E+00  2.92258E+00  9.08451E+00
   1.54700E+01  1.95879E+01  1.97297E+01  1.63474E+01  1.11348E+01  5.31313E+00 -3.11600E-01 -5.10803E+00 -8.91011E+00 -1.16677E+01
  -1.37530E+01 -1.60209E+01 -1.79731E+01 -1.87461E+01 -1.90600E+01 -1.91852E+01 -1.88101E+01 -1.63770E+01 -1.21922E+01 -9.05245E+00
  -7.03643E+00 -5.21995E+00 -2.83826E+00  7.47812E-01  5.73415E+00  1.10312E+01  1.44355E+01  1.45871E+01  1.19085E+01  7.73820E+00
   3.13122E+00 -1.24166E+00 -4.97933E+00 -7.97230E+00 -1.02938E+01 -1.22752E+01 -1.43812E+01 -1.59846E+01 -1.64416E+01 -1.63682E+01
  -1.60920E+01 -1.58027E+01 -1.56286E+01 -1.56222E+01 -1.57255E+01 -1.58612E+01 -1.60274E+01 -1.61700E+01 -1.62757E+01 -1.63752E+01
  -1.64676E+01 -1.65841E+01 -1.68451E+01 -1.71657E+01 -1.73656E+01 -1.73924E+01 -1.72347E+01 -1.70989E+01 -1.72148E+01 -1.75395E+01
  -1.79295E+01 -1.82120E+01 -1.82605E+01 -1.81079E+01 -1.79399E+01 -1.79440E+01 -1.82171E+01 -1.87353E+01 -1.93535E+01 -1.97689E+01
  -1.99666E+01 -2.00682E+01 -2.03001E+01 -2.07008E+01 -2.10738E+01 -2.13011E+01 -2.12944E+01 -2.10904E+01 -2.09317E+01 -2.08452E+01
  -2.06113E+01 -2.01941E+01 -1.96364E+01 -1.90298E+01 -1.85018E+01 -1.80384E+01 -1.74403E+01 -1.66008E+01 -1.55720E+01 -1.45603E+01
  -1.36709E+01 -1.29455E+01 -1.24994E+01 -1.23524E+01 -1.23476E+01 -1.22645E+01 -1.21213E+01 -1.19451E+01 -1.17447E+01 -1.15681E+01
  -1.13367E+01 -1.11413E+01 -1.09364E+01 -1.06941E+01 -1.07174E+01 -1.10716E+01 -1.15325E+01 -1.19426E+01 -1.21191E+01 -1.24436E+01
  -1.28402E+01 -1.30383E+01 -1.28890E+01 -1.24172E+01 -1.17942E+01 -1.10301E+01 -1.02536E+01 -9.87020E+00 -1.01208E+01 -1.08464E+01
  -1.18234E+01 -1.28606E+01 -1.36046E+01 -1.36492E+01 -1.28888E+01 -1.16311E+01 -1.03074E+01 -9.16923E+00 -8.11684E+00 -7.30155E+00
  -6.86120E+00 -6.61687E+00 -6.33397E+00 -5.94818E+00 -5.64243E+00 -5.41837E+00 -5.05878E+00 -4.62245E+00 -4.37346E+00 -4.35771E+00
  -4.44640E+00 -4.53311E+00 -4.53710E+00 -4.33483E+00 -3.77843E+00 -2.88132E+00 -1.75297E+00 -3.62332E-01  9.41568E-01  2.04476E+00
   3.53590E+00  8.34481E+00  1.75356E+01  2.53385E+01  3.05809E+01  3.47648E+01  3.92479E+01  4.51978E+01  5.32589E+01  6.19519E+01
   6.74840E+01  6.68724E+01  6.04290E+01  5.07589E+01  4.00031E+01  2.95320E+01  2.04462E+01  1.33299E+01  8.26957E+00  4.54186E+00
   7.67957E-01 -2.57123E+00 -3.94988E+00 -4.45728E+00 -4.73206E+00 -4.93054E+00 -5.09862E+00 -5.27977E+00 -5.48516E+00 -5.69419E+00
  -5.89432E+00 -6.06860E+00 -6.19581E+00 -6.26989E+00 -6.30673E+00 -6.31280E+00 -6.29037E+00 -6.24395E+00 -6.17865E+00 -6.09805E+00
  -6.00373E+00 -5.88978E+00 -5.76410E+00 -5.63421E+00 -5.50136E+00 -5.36760E+00 -5.23863E+00 -5.11479E+00 -4.99788E+00 -4.88812E+00
  -4.78713E+00 -4.69676E+00 -4.62148E+00 -4.56091E+00 -4.51566E+00 -4.48516E+00 -4.46807E+00 -4.46001E+00 -4.45641E+00 -4.45047E+00
  -4.43677E+00 -4.40536E+00 -4.34466E+00 -4.23696E+00 -4.05469E+00 -3.73975E+00 -3.14511E+00 -2.13384E+00 -1.60626E+00 -1.86991E+00
  -2.32735E+00 -2.67862E+00 -2.90938E+00 -3.19341E+00 -3.87818E+00 -4.72460E+00 -5.74352E+00 -7.36673E+00 -9.17830E+00 -1.06494E+01
  -1.14796E+01 -1.13348E+01 -9.95735E+00 -7.51321E+00 -4.74106E+00 -2.55327E+00 -1.24704E+00 -4.27148E-01 -6.94855E-02 -1.85400E-01
  -5.36643E-01 -9.28187E-01 -1.19316E+00 -1.36207E+00 -1.68687E+00 -2.02987E+00 -2.15736E+00 -2.16489E+00 -2.11243E+00 -2.02519E+00
  -1.91858E+00 -1.80199E+00 -1.68358E+00 -1.56872E+00 -1.46287E+00 -1.36922E+00 -1.29134E+00 -1.23080E+00 -1.18973E+00 -1.16834E+00
  -1.16731E+00 -1.18545E+00 -1.22217E+00 -1.27526E+00 -1.34337E+00 -1.42360E+00 -1.51399E+00 -1.61120E+00 -1.71304E+00 -1.81624E+00
  -1.91881E+00 -2.01770E+00 -2.11112E+00 -2.19630E+00 -2.27187E+00 -2.33556E+00 -2.38643E+00 -2.42249E+00 -2.44299E+00 -2.44612E+00
  -2.43135E+00 -2.39702E+00 -2.34261E+00 -2.26637E+00 -2.16759E+00 -2.04445E+00 -1.89631E+00 -1.72144E+00 -1.51933E+00 -1.28851E+00
  -1.02901E+00 -7.40256E-01 -4.23526E-01 -7.97660E-02  2.88041E-01  6.76963E-01  1.08176E+00  1.49705E+00  1.91521E+00  2.32872E+00
   2.72826E+00  3.10509E+00  3.44925E+00  3.75210E+00  4.00471E+00  4.20042E+00  4.33311E+00  4.39964E+00  4.39785E+00  4.32884E+00
   4.19489E+00  4.00143E+00  3.75464E+00  3.46313E+00  3.13540E+00  2.78159E+00  2.41086E+00  2.03316E+00  1.65664E+00  1.28947E+00
   9.37568E-01  6.06594E-01  2.99890E-01  2.05669E-02 -2.30499E-01 -4.52468E-01 -6.46386E-01 -8.12912E-01 -9.54177E-01 -1.07161E+00
  -1.16789E+00 -1.24474E+00 -1.30488E+00 -1.34985E+00 -1.38206E+00 -1.40271E+00 -1.41392E+00 -1.41657E+00 -1.41238E+00 -1.40184E+00
  -1.38630E+00 -1.36601E+00 -1.34214E+00 -1.31473E+00 -1.28474E+00 -1.25201E+00 -1.21734E+00 -1.18052E+00 -1.14230E+00 -1.10242E+00
  -1.06149E+00 -1.01914E+00 -9.75985E-01 -9.31667E-01 -8.86792E-01 -8.40952E-01 -7.94666E-01 -7.47497E-01 -6.99987E-01 -6.51744E-01
  -6.03301E-01 -5.54205E-01 -5.04929E-01 -4.55023E-01 -4.05008E-01 -3.54467E-01 -3.03891E-01 -2.52804E-01 -2.01667E-01 -1.50035E-01
  -9.84156E-02 -4.63776E-02  5.62068E-03  5.80617E-02  1.10490E-01  1.63339E-01  2.16115E-01  2.69263E-01  3.22345E-01  3.75842E-01
   4.29295E-01  4.83129E-01  5.36870E-01  5.90980E-01  6.45040E-01  6.99518E-01  7.53958E-01  8.08785E-01  8.63551E-01  9.18733E-01
   9.73925E-01  1.02959E+00  1.08528E+00  1.14144E+00  1.19765E+00  1.25442E+00  1.31136E+00  1.36896E+00
 NY background values follow
    -3.583E+01   -3.571E+01   -3.559E+01   -3.546E+01   -3.534E+01   -3.522E+01   -3.509E+01   -3.497E+01   -3.485E+01   -3.472E+01
    -3.460E+01   -3.448E+01   -3.435E+01   -3.423E+01   -3.410E+01   -3.398E+01   -3.386E+01   -3.373E+01   -3.361E+01   -3.348E+01
    -3.336E+01   -3.324E+01   -3.311E+01   -3.299E+01   -3.286E+01   -3.274E+01   -3.262E+01   -3.249E+01   -3.237E+01   -3.225E+01
    -3.212E+01   -3.200E+01   -3.187E+01   -3.175E+01   -3.163E+01   -3.150E+01   -3.138E+01   -3.126E+01   -3.113E+01   -3.101E+01
    -3.089E+01   -3.076E+01   -3.064E+01   -3.052E+01   -3.040E+01   -3.027E+01   -3.015E+01   -3.003E+01   -2.991E+01   -2.978E+01
    -2.966E+01   -2.954E+01   -2.942E+01   -2.930E+01   -2.917E+01   -2.905E+01   -2.893E+01   -2.881E+01   -2.869E+01   -2.857E+01
    -2.845E+01   -2.833E+01   -2.821E+01   -2.809E+01   -2.797E+01   -2.785E+01   -2.773E+01   -2.761E+01   -2.749E+01   -2.737E+01
    -2.725E+01   -2.713E+01   -2.702E+01   -2.690E+01   -2.678E+01   -2.666E+01   -2.655E+01   -2.643E+01   -2.631E+01   -2.619E+01
    -2.608E+01   -2.596E+01   -2.585E+01   -2.573E+01   -2.562E+01   -2.550E+01   -2.539E+01   -2.527E+01   -2.516E+01   -2.504E+01
    -2.493E+01   -2.482E+01   -2.470E+01   -2.459E+01   -2.448E+01   -2.437E+01   -2.426E+01   -2.414E+01   -2.403E+01   -2.392E+01
    -2.381E+01   -2.370E+01   -2.359E+01   -2.348E+01   -2.337E+01   -2.326E+01   -2.316E+01   -2.305E+01   -2.294E+01   -2.283E+01
    -2.273E+01   -2.262E+01   -2.251E+01   -2.241E+01   -2.230E+01   -2.220E+01   -2.209E+01   -2.199E+01   -2.188E+01   -2.178E+01
    -2.168E+01   -2.157E+01   -2.147E+01   -2.137E+01   -2.127E+01   -2.116E+01   -2.106E+01   -2.096E+01   -2.086E+01   -2.076E+01
    -2.066E+01   -2.056E+01   -2.046E+01   -2.037E+01   -2.027E+01   -2.017E+01   -2.007E+01   -1.998E+01   -1.988E+01   -1.978E+01
    -1.969E+01   -1.959E+01   -1.950E+01   -1.940E+01   -1.931E+01   -1.922E+01   -1.912E+01   -1.903E+01   -1.894E+01   -1.885E+01
    -1.875E+01   -1.866E+01   -1.857E+01   -1.848E+01   -1.839E+01   -1.830E+01   -1.821E+01   -1.812E+01   -1.803E+01   -1.794E+01
    -1.786E+01   -1.777E+01   -1.768E+01   -1.759E+01   -1.750E+01   -1.742E+01   -1.733E+01   -1.725E+01   -1.716E+01   -1.707E+01
    -1.699E+01   -1.690E+01   -1.682E+01   -1.673E+01   -1.665E+01   -1.657E+01   -1.648E+01   -1.640E+01   -1.631E+01   -1.623E+01
    -1.615E+01   -1.607E+01   -1.598E+01   -1.590E+01   -1.582E+01   -1.574E+01   -1.566E+01   -1.558E+01   -1.550E+01   -1.542E+01
    -1.534E+01   -1.526E+01   -1.518E+01   -1.510E+01   -1.502E+01   -1.494E+01   -1.486E+01   -1.478E+01   -1.470E+01   -1.463E+01
    -1.455E+01   -1.447E+01   -1.439E+01   -1.432E+01   -1.424E+01   -1.416E+01   -1.409E+01   -1.401E+01   -1.394E+01   -1.386E+01
    -1.379E+01   -1.371E+01   -1.364E+01   -1.357E+01   -1.349E+01   -1.342E+01   -1.335E+01   -1.327E+01   -1.320E+01   -1.313E+01
    -1.306E+01   -1.299E+01   -1.292E+01   -1.285E+01   -1.278E+01   -1.271E+01   -1.264E+01   -1.257E+01   -1.250E+01   -1.243E+01
    -1.236E+01   -1.229E+01   -1.223E+01   -1.216E+01   -1.209E+01   -1.202E+01   -1.196E+01   -1.189E+01   -1.183E+01   -1.176E+01
    -1.170E+01   -1.163E+01   -1.157E+01   -1.150E+01   -1.144E+01   -1.137E+01   -1.131E+01   -1.125E+01   -1.119E+01   -1.112E+01
    -1.106E+01   -1.100E+01   -1.094E+01   -1.088E+01   -1.082E+01   -1.076E+01   -1.070E+01   -1.064E+01   -1.058E+01   -1.052E+01
    -1.046E+01   -1.040E+01   -1.034E+01   -1.028E+01   -1.022E+01   -1.017E+01   -1.011E+01   -1.005E+01   -9.996E+00   -9.940E+00
    -9.884E+00   -9.828E+00   -9.772E+00   -9.717E+00   -9.662E+00   -9.607E+00   -9.552E+00   -9.498E+00   -9.444E+00   -9.390E+00
    -9.337E+00   -9.283E+00   -9.230E+00   -9.178E+00   -9.125E+00   -9.072E+00   -9.020E+00   -8.968E+00   -8.916E+00   -8.865E+00
    -8.813E+00   -8.762E+00   -8.711E+00   -8.660E+00   -8.609E+00   -8.559E+00   -8.508E+00   -8.458E+00   -8.408E+00   -8.358E+00
    -8.308E+00   -8.258E+00   -8.209E+00   -8.159E+00   -8.110E+00   -8.061E+00   -8.011E+00   -7.962E+00   -7.913E+00   -7.865E+00
    -7.816E+00   -7.767E+00   -7.719E+00   -7.670E+00   -7.622E+00   -7.573E+00   -7.525E+00   -7.477E+00   -7.428E+00   -7.380E+00
    -7.332E+00   -7.284E+00   -7.236E+00   -7.188E+00   -7.140E+00   -7.092E+00   -7.044E+00   -6.996E+00   -6.948E+00   -6.900E+00
    -6.853E+00   -6.805E+00   -6.757E+00   -6.709E+00   -6.662E+00   -6.614E+00   -6.566E+00   -6.519E+00   -6.471E+00   -6.423E+00
    -6.375E+00   -6.328E+00   -6.280E+00   -6.233E+00   -6.185E+00   -6.137E+00   -6.090E+00   -6.042E+00   -5.994E+00   -5.946E+00
    -5.899E+00   -5.851E+00   -5.803E+00   -5.755E+00   -5.708E+00   -5.660E+00   -5.612E+00   -5.564E+00   -5.516E+00   -5.468E+00
    -5.420E+00   -5.372E+00   -5.324E+00   -5.276E+00   -5.228E+00   -5.180E+00   -5.132E+00   -5.083E+00   -5.035E+00   -4.987E+00
    -4.938E+00   -4.890E+00   -4.841E+00   -4.793E+00   -4.744E+00   -4.695E+00   -4.647E+00   -4.598E+00   -4.549E+00   -4.500E+00
    -4.451E+00   -4.402E+00   -4.353E+00   -4.304E+00   -4.254E+00   -4.205E+00   -4.155E+00   -4.106E+00   -4.056E+00   -4.007E+00
    -3.957E+00   -3.907E+00   -3.857E+00   -3.807E+00   -3.757E+00   -3.707E+00   -3.656E+00   -3.606E+00   -3.556E+00   -3.505E+00
    -3.454E+00   -3.403E+00   -3.353E+00   -3.302E+00   -3.250E+00   -3.199E+00   -3.148E+00   -3.097E+00   -3.045E+00   -2.993E+00
    -2.942E+00   -2.890E+00   -2.838E+00   -2.786E+00   -2.734E+00   -2.681E+00   -2.629E+00   -2.577E+00   -2.524E+00   -2.472E+00
    -2.419E+00   -2.366E+00   -2.313E+00   -2.260E+00   -2.207E+00   -2.154E+00   -2.101E+00   -2.048E+00   -1.995E+00   -1.941E+00
    -1.888E+00   -1.834E+00   -1.781E+00   -1.727E+00   -1.674E+00   -1.620E+00   -1.566E+00   -1.512E+00   -1.458E+00   -1.405E+00
    -1.351E+00   -1.297E+00   -1.243E+00   -1.189E+00   -1.135E+00   -1.080E+00   -1.026E+00   -9.722E-01   -9.180E-01   -8.638E-01
    -8.096E-01   -7.553E-01   -7.011E-01   -6.468E-01   -5.925E-01   -5.382E-01   -4.839E-01   -4.295E-01   -3.752E-01   -3.209E-01
    -2.665E-01   -2.121E-01   -1.578E-01   -1.034E-01   -4.904E-02    5.333E-03    5.971E-02    1.141E-01    1.685E-01    2.228E-01
     2.772E-01    3.316E-01    3.859E-01    4.403E-01    4.947E-01    5.490E-01    6.033E-01    6.577E-01    7.120E-01    7.663E-01
     8.206E-01    8.748E-01    9.291E-01    9.833E-01    1.038E+00    1.092E+00    1.146E+00    1.200E+00    1.254E+00    1.308E+00
     1.363E+00    1.417E+00    1.471E+00    1.525E+00    1.579E+00    1.633E+00    1.687E+00    1.741E+00
 Ala      Conc. = 8.68E+02
