 LCModel (Version 6.3-1L) Copyright: S.W. Provencher.          Ref.: Magn. Reson. Med. 30:672-679 (1993).                
 Slice#3 Row#5 Col#5  K_02_press_1_raw_act
 36 lines in following concentration table = NCONC+1
    Conc.  %SD /Cr+PCr  Metabolite                                         
  306.679  44%   0.130 Ala                                                 
    0.000 999%   0.000 Asp                                                 
 1.26E+03  20%   0.534 Cr                                                  
 1.10E+03  23%   0.466 PCr                                                 
    0.000 999%   0.000 GABA                                                
    0.000 999%   0.000 Glc                                                 
  672.207  38%   0.286 Gln                                                 
 1.93E+03  15%   0.821 Glu                                                 
  743.134   4%   0.316 GPC                                                 
    0.000 999%   0.000 PCh                                                 
  560.437  14%   0.238 GSH                                                 
  643.474  47%   0.274 Ins                                                 
    0.000 999%   0.000 Lac                                                 
 2.77E+03   5%   1.178 NAA                                                 
  136.348 106% 5.8E-02 NAAG                                                
    1.517 999% 6.4E-04 Scyllo                                              
    0.000 999%   0.000 Tau                                                 
    0.000 999%   0.000 -CrCH2                                              
  743.134   4%   0.316 GPC+PCh                                             
 2.91E+03   3%   1.236 NAA+NAAG                                            
 2.35E+03   3%   1.000 Cr+PCr                                              
 2.60E+03  16%   1.107 Glu+Gln                                             
    0.000 999%   0.000 Lip13a                                              
  438.488  37%   0.186 Lip13b                                              
  109.354  51% 4.6E-02 Lip09                                               
 1.42E+03  19%   0.604 MM09                                                
   66.688  52% 2.8E-02 Lip20                                               
 3.11E+03  15%   1.323 MM20                                                
  144.650 125% 6.1E-02 MM12                                                
 3.64E+03  14%   1.546 MM14                                                
 1.75E+03  21%   0.745 MM17                                                
  438.488  37%   0.186 Lip13a+Lip13b                                       
 4.22E+03  13%   1.794 MM14+Lip13a+Lip13b+MM12                             
 1.53E+03  18%   0.650 MM09+Lip09                                          
 3.18E+03  15%   1.351 MM20+Lip20                                          
   6 lines in following misc. output table
  FWHM = 0.046 ppm    S/N =  14                                            
  Data shift = 0.031 ppm                                                   
  Ph:  13 deg      -4.8 deg/ppm                                            
  alphaB,S = 4.1E-01,   1.0E+02                                            
   14 spline knots.   Ns = 7(1)                                            
  (14) 5 infls.   (13) 1 extrs.                                            
  498 points on ppm-axis = NY
      4.000000     3.992357     3.984714     3.977070     3.969427     3.961784     3.954141     3.946497     3.938854     3.931211
      3.923568     3.915925     3.908281     3.900638     3.892995     3.885352     3.877708     3.870065     3.862422     3.854779
      3.847136     3.839492     3.831849     3.824206     3.816563     3.808919     3.801276     3.793633     3.785990     3.778347
      3.770703     3.763060     3.755417     3.747774     3.740130     3.732487     3.724844     3.717201     3.709558     3.701914
      3.694271     3.686628     3.678985     3.671341     3.663698     3.656055     3.648412     3.640769     3.633125     3.625482
      3.617839     3.610196     3.602552     3.594909     3.587266     3.579623     3.571980     3.564336     3.556693     3.549050
      3.541407     3.533763     3.526120     3.518477     3.510834     3.503191     3.495547     3.487904     3.480261     3.472618
      3.464974     3.457331     3.449688     3.442045     3.434402     3.426758     3.419115     3.411472     3.403829     3.396185
      3.388542     3.380899     3.373256     3.365613     3.357969     3.350326     3.342683     3.335040     3.327396     3.319753
      3.312110     3.304467     3.296824     3.289180     3.281537     3.273894     3.266251     3.258607     3.250964     3.243321
      3.235678     3.228034     3.220391     3.212748     3.205105     3.197462     3.189818     3.182175     3.174532     3.166889
      3.159245     3.151602     3.143959     3.136316     3.128673     3.121029     3.113386     3.105743     3.098100     3.090456
      3.082813     3.075170     3.067527     3.059884     3.052240     3.044597     3.036954     3.029311     3.021667     3.014024
      3.006381     2.998738     2.991095     2.983451     2.975808     2.968165     2.960522     2.952878     2.945235     2.937592
      2.929949     2.922306     2.914662     2.907019     2.899376     2.891733     2.884089     2.876446     2.868803     2.861160
      2.853517     2.845873     2.838230     2.830587     2.822944     2.815300     2.807657     2.800014     2.792371     2.784728
      2.777084     2.769441     2.761798     2.754155     2.746511     2.738868     2.731225     2.723582     2.715939     2.708295
      2.700652     2.693009     2.685366     2.677722     2.670079     2.662436     2.654793     2.647150     2.639506     2.631863
      2.624220     2.616577     2.608933     2.601290     2.593647     2.586004     2.578361     2.570717     2.563074     2.555431
      2.547788     2.540144     2.532501     2.524858     2.517215     2.509572     2.501928     2.494285     2.486642     2.478999
      2.471355     2.463712     2.456069     2.448426     2.440783     2.433139     2.425496     2.417853     2.410210     2.402566
      2.394923     2.387280     2.379637     2.371994     2.364350     2.356707     2.349064     2.341421     2.333777     2.326134
      2.318491     2.310848     2.303205     2.295561     2.287918     2.280275     2.272632     2.264988     2.257345     2.249702
      2.242059     2.234416     2.226772     2.219129     2.211486     2.203843     2.196199     2.188556     2.180913     2.173270
      2.165627     2.157983     2.150340     2.142697     2.135054     2.127410     2.119767     2.112124     2.104481     2.096838
      2.089194     2.081551     2.073908     2.066265     2.058621     2.050978     2.043335     2.035692     2.028049     2.020405
      2.012762     2.005119     1.997476     1.989833     1.982190     1.974546     1.966903     1.959260     1.951617     1.943974
      1.936331     1.928688     1.921045     1.913402     1.905759     1.898115     1.890472     1.882829     1.875186     1.867543
      1.859900     1.852257     1.844614     1.836971     1.829327     1.821684     1.814041     1.806398     1.798755     1.791112
      1.783469     1.775826     1.768183     1.760540     1.752896     1.745253     1.737610     1.729967     1.722324     1.714681
      1.707038     1.699395     1.691752     1.684108     1.676465     1.668822     1.661179     1.653536     1.645893     1.638250
      1.630607     1.622964     1.615321     1.607677     1.600034     1.592391     1.584748     1.577105     1.569462     1.561819
      1.554176     1.546533     1.538890     1.531246     1.523603     1.515960     1.508317     1.500674     1.493031     1.485388
      1.477745     1.470102     1.462458     1.454815     1.447172     1.439529     1.431886     1.424243     1.416600     1.408957
      1.401314     1.393671     1.386027     1.378384     1.370741     1.363098     1.355455     1.347812     1.340169     1.332526
      1.324883     1.317240     1.309596     1.301953     1.294310     1.286667     1.279024     1.271381     1.263738     1.256095
      1.248452     1.240808     1.233165     1.225522     1.217879     1.210236     1.202593     1.194950     1.187307     1.179664
      1.172021     1.164377     1.156734     1.149091     1.141448     1.133805     1.126162     1.118519     1.110876     1.103233
      1.095590     1.087946     1.080303     1.072660     1.065017     1.057374     1.049731     1.042088     1.034445     1.026802
      1.019158     1.011515     1.003872     0.996229     0.988586     0.980943     0.973300     0.965657     0.958014     0.950371
      0.942727     0.935084     0.927441     0.919798     0.912155     0.904512     0.896869     0.889226     0.881583     0.873940
      0.866296     0.858653     0.851010     0.843367     0.835724     0.828081     0.820438     0.812795     0.805152     0.797508
      0.789865     0.782222     0.774579     0.766936     0.759293     0.751650     0.744007     0.736364     0.728721     0.721077
      0.713434     0.705791     0.698148     0.690505     0.682862     0.675219     0.667576     0.659933     0.652290     0.644646
      0.637003     0.629360     0.621717     0.614074     0.606431     0.598788     0.591145     0.583502     0.575858     0.568215
      0.560572     0.552929     0.545286     0.537643     0.530000     0.522357     0.514714     0.507071     0.499427     0.491784
      0.484141     0.476498     0.468855     0.461212     0.453569     0.445925     0.438282     0.430639     0.422996     0.415353
      0.407710     0.400067     0.392424     0.384780     0.377137     0.369494     0.361851     0.354208     0.346565     0.338922
      0.331278     0.323635     0.315992     0.308349     0.300706     0.293063     0.285420     0.277777     0.270133     0.262490
      0.254847     0.247204     0.239561     0.231918     0.224275     0.216631     0.208988     0.201345
 NY phased data points follow
   8.50643E+01  7.98908E+01  8.52527E+01  8.10515E+01  8.51824E+01  9.08504E+01  9.49217E+01  1.01129E+02  1.06849E+02  1.19471E+02
   1.24168E+02  1.28959E+02  1.23000E+02  1.11256E+02  1.04536E+02  9.49859E+01  8.82496E+01  7.99832E+01  7.72541E+01  6.96387E+01
   6.63288E+01  6.95456E+01  6.54897E+01  6.55504E+01  6.81121E+01  6.63509E+01  6.58024E+01  6.58601E+01  6.68083E+01  7.25798E+01
   7.23064E+01  7.19385E+01  7.49486E+01  7.24365E+01  6.59857E+01  6.63410E+01  6.35361E+01  5.83804E+01  6.27888E+01  6.57174E+01
   6.47341E+01  5.99859E+01  5.84652E+01  6.26280E+01  6.17960E+01  6.22038E+01  6.30735E+01  6.73208E+01  6.33636E+01  6.47247E+01
   5.90393E+01  5.83231E+01  5.04954E+01  5.11780E+01  5.03943E+01  5.07691E+01  5.15354E+01  4.72567E+01  5.03488E+01  5.07984E+01
   4.54610E+01  4.38736E+01  4.31307E+01  4.18283E+01  4.04788E+01  3.71873E+01  3.16370E+01  3.68123E+01  3.64338E+01  3.72472E+01
   3.42056E+01  3.79188E+01  3.62818E+01  3.27036E+01  3.57854E+01  3.27487E+01  3.09161E+01  3.96600E+01  3.14503E+01  3.60944E+01
   3.04375E+01  3.38465E+01  3.45305E+01  3.56862E+01  3.01978E+01  3.39712E+01  3.39491E+01  3.42645E+01  2.92037E+01  3.07603E+01
   3.39091E+01  3.82711E+01  3.71157E+01  3.36218E+01  3.68328E+01  3.74968E+01  4.33047E+01  4.57606E+01  5.11888E+01  5.40977E+01
   6.24018E+01  8.04491E+01  8.99319E+01  9.68602E+01  9.97443E+01  8.88022E+01  7.39181E+01  6.54461E+01  5.46182E+01  5.09705E+01
   3.91100E+01  3.82326E+01  3.84302E+01  3.65324E+01  3.00850E+01  2.84872E+01  3.58261E+01  3.74517E+01  3.41327E+01  3.48121E+01
   4.21055E+01  4.30359E+01  4.44607E+01  4.71215E+01  6.17995E+01  7.73189E+01  9.60943E+01  1.03272E+02  1.02881E+02  8.88027E+01
   7.90113E+01  6.44489E+01  5.79756E+01  5.39301E+01  4.01440E+01  3.60748E+01  3.56515E+01  2.68379E+01  2.76954E+01  2.77330E+01
   2.62098E+01  2.96094E+01  2.69997E+01  2.64984E+01  3.01704E+01  2.86376E+01  2.79469E+01  2.32411E+01  2.67717E+01  2.07959E+01
   2.43244E+01  2.49163E+01  2.41300E+01  2.34785E+01  1.88708E+01  1.99915E+01  1.97244E+01  2.33420E+01  2.12016E+01  2.35568E+01
   1.87026E+01  1.54158E+01  1.39249E+01  1.32889E+01  2.06271E+01  2.00372E+01  1.55526E+01  1.76952E+01  1.65195E+01  1.33284E+01
   1.05019E+01  1.33266E+01  1.42277E+01  7.72140E+00  5.22304E+00 -3.33934E-01  6.35243E+00  6.94289E+00  1.00797E+01  4.78272E+00
   7.73474E+00  3.91270E+00  4.68088E+00  5.93640E+00  1.04719E+01  3.53924E+00  1.16642E+01  9.89420E+00  8.02949E+00  1.55408E+01
   2.24436E+01  2.46367E+01  2.49973E+01  2.73566E+01  2.94252E+01  2.33210E+01  2.31398E+01  1.89595E+01  1.74772E+01  1.55131E+01
   1.63439E+01  1.77520E+01  2.29607E+01  2.31184E+01  1.86202E+01  2.19872E+01  1.63056E+01  1.76036E+01  1.10613E+01  1.64887E+01
   1.28700E+01  1.14330E+01  1.64079E+01  2.13543E+01  2.69021E+01  3.01683E+01  3.18480E+01  3.16225E+01  2.32397E+01  2.48357E+01
   2.04656E+01  1.41403E+01  1.48279E+01  1.13199E+01  1.49955E+01  2.21430E+01  2.61519E+01  3.26795E+01  2.69239E+01  2.83806E+01
   2.86232E+01  2.46124E+01  2.75954E+01  2.75194E+01  2.64500E+01  2.68637E+01  2.93588E+01  2.63995E+01  2.24664E+01  2.34331E+01
   2.36760E+01  2.19958E+01  1.96851E+01  1.98624E+01  3.18136E+01  2.81279E+01  2.97622E+01  3.30828E+01  3.04155E+01  3.56632E+01
   3.74318E+01  3.87234E+01  4.64936E+01  4.77251E+01  5.77800E+01  6.60133E+01  6.02914E+01  6.63226E+01  8.71347E+01  1.24229E+02
   1.36602E+02  1.24503E+02  1.12715E+02  8.83254E+01  7.30276E+01  6.04276E+01  4.65321E+01  3.88116E+01  3.58993E+01  3.22301E+01
   3.22122E+01  3.00316E+01  2.87288E+01  2.40779E+01  3.04203E+01  2.66672E+01  2.60862E+01  2.72895E+01  2.69793E+01  2.51830E+01
   2.60564E+01  2.51201E+01  2.74572E+01  2.46174E+01  2.55494E+01  2.90475E+01  2.83874E+01  2.36451E+01  2.55603E+01  2.68937E+01
   2.69828E+01  2.39709E+01  2.50996E+01  2.62741E+01  2.36917E+01  2.30065E+01  2.87497E+01  2.65161E+01  2.60330E+01  3.07454E+01
   2.61533E+01  1.95439E+01  2.37061E+01  2.46161E+01  2.57211E+01  2.62180E+01  2.61654E+01  3.12102E+01  2.76849E+01  3.06008E+01
   2.92993E+01  3.00064E+01  2.97289E+01  3.17594E+01  2.98607E+01  3.43932E+01  3.28840E+01  3.08728E+01  3.18628E+01  3.66657E+01
   3.45603E+01  3.62483E+01  3.44663E+01  3.42381E+01  3.58664E+01  3.53167E+01  3.71635E+01  3.74010E+01  3.72159E+01  3.43635E+01
   3.46282E+01  3.97946E+01  3.61510E+01  3.84275E+01  3.73531E+01  4.27341E+01  4.30096E+01  3.99631E+01  4.14986E+01  3.64118E+01
   3.84119E+01  3.58555E+01  3.38015E+01  3.06439E+01  2.92552E+01  3.09400E+01  3.36574E+01  2.61556E+01  2.41606E+01  2.88190E+01
   2.61796E+01  2.44820E+01  2.31342E+01  2.73880E+01  2.01762E+01  1.96442E+01  1.77392E+01  1.54666E+01  1.20480E+01  1.04645E+01
   1.24020E+01  8.23482E+00  8.31399E+00  1.01227E+01  1.16256E+01  6.81792E+00  5.66755E+00  6.65700E+00  3.03887E+00  4.32423E+00
   7.36408E+00  1.19106E+01  7.40889E+00  7.02885E+00  4.46693E+00  8.96572E+00  9.43883E+00  7.32077E+00  1.05210E+01  1.03783E+01
   7.55263E+00  7.90045E+00  1.04877E+01  6.18638E+00  4.65420E+00  1.61820E+00  8.25411E+00  7.15760E+00  2.97312E+00  9.10240E+00
   6.83263E+00  6.79153E+00  1.21734E+01  1.27235E+01  1.64173E+01  1.20130E+01  1.58731E+01  1.19599E+01  1.43419E+01  1.30901E+01
   1.24292E+01  1.51611E+01  1.39467E+01  1.58920E+01  1.61413E+01  1.74958E+01  1.36595E+01  1.31738E+01  1.86072E+01  1.63624E+01
   1.39088E+01  1.50104E+01  1.04893E+01  1.25954E+01  1.31287E+01  1.55134E+01  1.34487E+01  1.12450E+01  1.18102E+01  1.40050E+01
   1.16755E+01  1.23497E+01  1.20352E+01  1.39692E+01  8.24179E+00  1.45807E+01  8.39662E+00  9.23047E+00  9.96947E+00  9.64821E+00
   7.96667E+00  8.03011E+00  7.26122E+00  8.29544E+00  8.77755E+00  9.52233E+00  7.18172E+00  1.10422E+01  1.54096E+01  1.00004E+01
   1.20470E+01  8.01769E+00  6.68038E+00  9.71511E+00  1.11114E+01  1.11847E+01  3.55429E+00  8.79343E+00  4.10931E+00  5.77263E+00
   9.74221E+00  1.08866E+01  6.83095E+00  9.15640E+00  4.36751E+00  7.13920E+00  6.93938E+00  1.03665E+01  9.27087E+00  6.48545E+00
   6.51737E+00  7.84507E+00  5.40118E+00  6.32460E+00  7.94745E+00  6.64873E+00  7.26330E+00  4.88006E+00  7.14943E+00  8.26812E+00
   1.34707E+01  8.64717E+00  1.21554E+01  4.42138E+00  7.87520E+00  4.08140E+00  8.18708E+00  6.88223E+00  6.40274E+00  7.56487E+00
   8.55767E+00  7.77410E+00  1.35515E+01  9.43886E+00  8.44363E+00  8.39789E+00  1.13744E+01  8.82312E+00  6.26115E+00  4.84244E+00
   1.06703E+01  6.29099E+00  5.38405E+00  5.79437E+00  6.63989E+00  1.09651E+01  5.24500E+00  1.16383E+01
 NY points of the fit to the data follow
   7.81605E+01  7.80561E+01  7.93329E+01  8.21260E+01  8.57774E+01  8.90904E+01  9.25111E+01  9.82810E+01  1.07361E+02  1.17448E+02
   1.24247E+02  1.24686E+02  1.19116E+02  1.10406E+02  1.01518E+02  9.39517E+01  8.76655E+01  8.20588E+01  7.72966E+01  7.37699E+01
   7.15991E+01  7.01045E+01  6.90492E+01  6.89129E+01  6.89659E+01  6.81236E+01  6.67115E+01  6.62184E+01  6.77148E+01  7.07699E+01
   7.39297E+01  7.58570E+01  7.59692E+01  7.43143E+01  7.12029E+01  6.74667E+01  6.40254E+01  6.12225E+01  5.92239E+01  5.83838E+01
   5.84442E+01  5.87337E+01  5.88314E+01  5.88465E+01  5.90261E+01  5.94321E+01  5.97894E+01  5.97007E+01  5.90180E+01  5.78452E+01
   5.62818E+01  5.45995E+01  5.31190E+01  5.18675E+01  5.07184E+01  4.96893E+01  4.88398E+01  4.82116E+01  4.77778E+01  4.74585E+01
   4.70842E+01  4.64924E+01  4.56475E+01  4.46523E+01  4.37050E+01  4.29725E+01  4.24344E+01  4.20036E+01  4.16549E+01  4.13988E+01
   4.12150E+01  4.10339E+01  4.07568E+01  4.03489E+01  3.98400E+01  3.92884E+01  3.87543E+01  3.82595E+01  3.77988E+01  3.73358E+01
   3.68264E+01  3.63057E+01  3.58059E+01  3.53400E+01  3.48450E+01  3.42424E+01  3.35437E+01  3.28736E+01  3.23673E+01  3.21179E+01
   3.20986E+01  3.22178E+01  3.24369E+01  3.28000E+01  3.35218E+01  3.57579E+01  4.14689E+01  4.70562E+01  4.98817E+01  5.31676E+01
   6.20551E+01  7.74039E+01  9.32297E+01  1.01521E+02  9.91377E+01  8.88573E+01  7.58047E+01  6.40450E+01  5.47974E+01  4.71441E+01
   4.01492E+01  3.43364E+01  3.13729E+01  3.03113E+01  2.98005E+01  2.95299E+01  2.94262E+01  2.94942E+01  2.99353E+01  3.19878E+01
   3.80790E+01  4.45789E+01  4.80833E+01  5.17578E+01  6.13273E+01  7.81796E+01  9.61212E+01  1.06196E+02  1.04305E+02  9.32338E+01
   7.89511E+01  6.62874E+01  5.65881E+01  4.84426E+01  4.03039E+01  3.27566E+01  2.80613E+01  2.58938E+01  2.50375E+01  2.51005E+01
   2.56402E+01  2.61791E+01  2.64405E+01  2.63807E+01  2.60165E+01  2.54610E+01  2.48626E+01  2.42558E+01  2.36336E+01  2.30439E+01
   2.24990E+01  2.20355E+01  2.16081E+01  2.11268E+01  2.05198E+01  2.00904E+01  1.99503E+01  1.99296E+01  1.97012E+01  1.88628E+01
   1.77720E+01  1.71417E+01  1.72878E+01  1.78660E+01  1.82121E+01  1.79221E+01  1.71193E+01  1.61747E+01  1.53383E+01  1.45768E+01
   1.39988E+01  1.37017E+01  1.33491E+01  1.26468E+01  1.16550E+01  1.09904E+01  1.11105E+01  1.17583E+01  1.22084E+01  1.20350E+01
   1.14686E+01  1.13238E+01  1.17730E+01  1.23659E+01  1.26481E+01  1.26401E+01  1.29306E+01  1.39949E+01  1.57989E+01  1.78960E+01
   1.96272E+01  2.04048E+01  2.04457E+01  2.02030E+01  1.98368E+01  1.91892E+01  1.83159E+01  1.77219E+01  1.77288E+01  1.84217E+01
   1.96170E+01  2.11679E+01  2.26081E+01  2.33536E+01  2.34766E+01  2.28214E+01  2.11271E+01  1.87618E+01  1.65457E+01  1.54137E+01
   1.50231E+01  1.52261E+01  1.66164E+01  1.96020E+01  2.33340E+01  2.60423E+01  2.66974E+01  2.56962E+01  2.34634E+01  2.00356E+01
   1.61573E+01  1.29499E+01  1.15618E+01  1.25503E+01  1.52554E+01  1.87181E+01  2.19782E+01  2.45224E+01  2.61253E+01  2.68042E+01
   2.69198E+01  2.67482E+01  2.64499E+01  2.62744E+01  2.65552E+01  2.72869E+01  2.82458E+01  2.91604E+01  2.96604E+01  2.94751E+01
   2.85079E+01  2.72114E+01  2.63228E+01  2.63109E+01  2.71362E+01  2.84883E+01  3.00770E+01  3.14853E+01  3.24926E+01  3.32800E+01
   3.39711E+01  3.47412E+01  3.73589E+01  4.66373E+01  5.67717E+01  6.14610E+01  6.46253E+01  7.49252E+01  9.54114E+01  1.18045E+02
   1.30408E+02  1.27076E+02  1.11931E+02  9.26028E+01  7.54354E+01  6.24818E+01  5.20946E+01  4.23766E+01  3.37438E+01  2.93488E+01
   2.79060E+01  2.71452E+01  2.67594E+01  2.66166E+01  2.65007E+01  2.63043E+01  2.60386E+01  2.57160E+01  2.53568E+01  2.49874E+01
   2.46321E+01  2.43096E+01  2.40493E+01  2.38618E+01  2.37228E+01  2.36097E+01  2.35140E+01  2.34428E+01  2.34062E+01  2.34055E+01
   2.34431E+01  2.35263E+01  2.36545E+01  2.38265E+01  2.40392E+01  2.42884E+01  2.45699E+01  2.48789E+01  2.52146E+01  2.55777E+01
   2.59649E+01  2.63699E+01  2.67819E+01  2.71888E+01  2.75809E+01  2.79506E+01  2.82915E+01  2.85979E+01  2.88659E+01  2.90971E+01
   2.92961E+01  2.94698E+01  2.96280E+01  2.97829E+01  2.99508E+01  3.01516E+01  3.04081E+01  3.07466E+01  3.12024E+01  3.18439E+01
   3.27099E+01  3.34621E+01  3.40720E+01  3.48850E+01  3.60642E+01  3.72928E+01  3.79549E+01  3.77363E+01  3.71621E+01  3.67303E+01
   3.64244E+01  3.62229E+01  3.63103E+01  3.69604E+01  3.81676E+01  3.95091E+01  4.04606E+01  4.05935E+01  3.99077E+01  3.87131E+01
   3.72853E+01  3.57347E+01  3.40613E+01  3.22885E+01  3.06273E+01  2.92051E+01  2.79851E+01  2.69436E+01  2.60539E+01  2.52734E+01
   2.45448E+01  2.38029E+01  2.29868E+01  2.20520E+01  2.09788E+01  1.97760E+01  1.84780E+01  1.71372E+01  1.58145E+01  1.45680E+01
   1.34439E+01  1.24707E+01  1.16582E+01  1.10000E+01  1.04790E+01  1.00726E+01  9.75715E+00  9.51023E+00  9.31285E+00  9.15050E+00
   9.01338E+00  8.89549E+00  8.79319E+00  8.70415E+00  8.62707E+00  8.56183E+00  8.50942E+00  8.47125E+00  8.44857E+00  8.44236E+00
   8.45379E+00  8.48471E+00  8.53743E+00  8.61422E+00  8.71692E+00  8.84711E+00  9.00659E+00  9.19756E+00  9.42212E+00  9.68163E+00
   9.97650E+00  1.03064E+01  1.06705E+01  1.10675E+01  1.14947E+01  1.19476E+01  1.24202E+01  1.29052E+01  1.33945E+01  1.38791E+01
   1.43488E+01  1.47924E+01  1.51985E+01  1.55562E+01  1.58559E+01  1.60893E+01  1.62491E+01  1.63301E+01  1.63291E+01  1.62460E+01
   1.60834E+01  1.58459E+01  1.55400E+01  1.51736E+01  1.47564E+01  1.42994E+01  1.38140E+01  1.33111E+01  1.28008E+01  1.22927E+01
   1.17951E+01  1.13158E+01  1.08607E+01  1.04341E+01  1.00386E+01  9.67598E+00  9.34701E+00  9.05185E+00  8.78954E+00  8.55823E+00
   8.35566E+00  8.17967E+00  8.02827E+00  7.89936E+00  7.79051E+00  7.69918E+00  7.62315E+00  7.56075E+00  7.51060E+00  7.47128E+00
   7.44117E+00  7.41875E+00  7.40296E+00  7.39314E+00  7.38876E+00  7.38900E+00  7.39291E+00  7.39972E+00  7.40907E+00  7.42086E+00
   7.43481E+00  7.45037E+00  7.46689E+00  7.48405E+00  7.50195E+00  7.52076E+00  7.54032E+00  7.56025E+00  7.58023E+00  7.60026E+00
   7.62062E+00  7.64141E+00  7.66244E+00  7.68335E+00  7.70402E+00  7.72464E+00  7.74549E+00  7.76657E+00  7.78761E+00  7.80835E+00
   7.82883E+00  7.84936E+00  7.87013E+00  7.89103E+00  7.91176E+00  7.93221E+00  7.95255E+00  7.97309E+00  7.99393E+00  8.01483E+00
   8.03554E+00  8.05608E+00  8.07676E+00  8.09782E+00  8.11920E+00  8.14063E+00  8.16196E+00  8.18337E+00  8.20517E+00  8.22751E+00
   8.25021E+00  8.27301E+00  8.29591E+00  8.31919E+00  8.34315E+00  8.36779E+00  8.39286E+00  8.41820E+00
 NY background values follow
     7.530E+01    7.472E+01    7.414E+01    7.356E+01    7.298E+01    7.240E+01    7.182E+01    7.124E+01    7.066E+01    7.008E+01
     6.950E+01    6.892E+01    6.835E+01    6.777E+01    6.720E+01    6.662E+01    6.605E+01    6.548E+01    6.490E+01    6.434E+01
     6.377E+01    6.320E+01    6.264E+01    6.207E+01    6.151E+01    6.095E+01    6.040E+01    5.984E+01    5.929E+01    5.874E+01
     5.819E+01    5.765E+01    5.710E+01    5.657E+01    5.603E+01    5.549E+01    5.496E+01    5.444E+01    5.391E+01    5.339E+01
     5.288E+01    5.236E+01    5.185E+01    5.135E+01    5.084E+01    5.035E+01    4.985E+01    4.936E+01    4.888E+01    4.839E+01
     4.792E+01    4.744E+01    4.697E+01    4.651E+01    4.605E+01    4.559E+01    4.514E+01    4.469E+01    4.425E+01    4.381E+01
     4.338E+01    4.295E+01    4.252E+01    4.210E+01    4.168E+01    4.127E+01    4.086E+01    4.046E+01    4.006E+01    3.967E+01
     3.928E+01    3.889E+01    3.851E+01    3.814E+01    3.777E+01    3.740E+01    3.704E+01    3.668E+01    3.633E+01    3.598E+01
     3.564E+01    3.530E+01    3.497E+01    3.464E+01    3.432E+01    3.400E+01    3.368E+01    3.338E+01    3.307E+01    3.277E+01
     3.248E+01    3.219E+01    3.191E+01    3.163E+01    3.135E+01    3.108E+01    3.082E+01    3.056E+01    3.030E+01    3.005E+01
     2.980E+01    2.956E+01    2.932E+01    2.908E+01    2.885E+01    2.862E+01    2.839E+01    2.817E+01    2.795E+01    2.773E+01
     2.752E+01    2.730E+01    2.710E+01    2.689E+01    2.669E+01    2.648E+01    2.628E+01    2.609E+01    2.589E+01    2.570E+01
     2.551E+01    2.532E+01    2.513E+01    2.494E+01    2.476E+01    2.457E+01    2.439E+01    2.421E+01    2.402E+01    2.384E+01
     2.366E+01    2.348E+01    2.330E+01    2.312E+01    2.295E+01    2.277E+01    2.259E+01    2.241E+01    2.223E+01    2.205E+01
     2.187E+01    2.170E+01    2.152E+01    2.134E+01    2.117E+01    2.099E+01    2.082E+01    2.064E+01    2.047E+01    2.030E+01
     2.014E+01    1.997E+01    1.980E+01    1.964E+01    1.948E+01    1.932E+01    1.917E+01    1.901E+01    1.886E+01    1.871E+01
     1.857E+01    1.843E+01    1.829E+01    1.815E+01    1.802E+01    1.789E+01    1.776E+01    1.764E+01    1.752E+01    1.741E+01
     1.730E+01    1.720E+01    1.709E+01    1.700E+01    1.691E+01    1.682E+01    1.674E+01    1.666E+01    1.659E+01    1.652E+01
     1.646E+01    1.640E+01    1.635E+01    1.631E+01    1.627E+01    1.623E+01    1.620E+01    1.618E+01    1.616E+01    1.615E+01
     1.614E+01    1.613E+01    1.613E+01    1.613E+01    1.614E+01    1.615E+01    1.616E+01    1.618E+01    1.620E+01    1.623E+01
     1.626E+01    1.629E+01    1.632E+01    1.636E+01    1.640E+01    1.645E+01    1.649E+01    1.654E+01    1.659E+01    1.664E+01
     1.670E+01    1.675E+01    1.681E+01    1.687E+01    1.693E+01    1.700E+01    1.706E+01    1.713E+01    1.719E+01    1.726E+01
     1.733E+01    1.740E+01    1.747E+01    1.754E+01    1.760E+01    1.767E+01    1.774E+01    1.781E+01    1.788E+01    1.795E+01
     1.802E+01    1.809E+01    1.816E+01    1.823E+01    1.829E+01    1.836E+01    1.843E+01    1.849E+01    1.855E+01    1.862E+01
     1.868E+01    1.874E+01    1.880E+01    1.886E+01    1.891E+01    1.897E+01    1.902E+01    1.908E+01    1.913E+01    1.918E+01
     1.922E+01    1.927E+01    1.931E+01    1.935E+01    1.939E+01    1.943E+01    1.947E+01    1.950E+01    1.953E+01    1.956E+01
     1.959E+01    1.961E+01    1.963E+01    1.965E+01    1.966E+01    1.967E+01    1.968E+01    1.969E+01    1.969E+01    1.969E+01
     1.969E+01    1.969E+01    1.968E+01    1.966E+01    1.965E+01    1.963E+01    1.960E+01    1.958E+01    1.955E+01    1.952E+01
     1.948E+01    1.944E+01    1.940E+01    1.935E+01    1.930E+01    1.925E+01    1.919E+01    1.914E+01    1.907E+01    1.901E+01
     1.894E+01    1.887E+01    1.879E+01    1.871E+01    1.863E+01    1.855E+01    1.846E+01    1.837E+01    1.827E+01    1.817E+01
     1.807E+01    1.797E+01    1.786E+01    1.775E+01    1.763E+01    1.752E+01    1.740E+01    1.727E+01    1.715E+01    1.702E+01
     1.688E+01    1.675E+01    1.661E+01    1.647E+01    1.632E+01    1.617E+01    1.602E+01    1.586E+01    1.571E+01    1.554E+01
     1.538E+01    1.521E+01    1.505E+01    1.487E+01    1.470E+01    1.453E+01    1.435E+01    1.417E+01    1.399E+01    1.381E+01
     1.363E+01    1.344E+01    1.326E+01    1.307E+01    1.289E+01    1.270E+01    1.251E+01    1.233E+01    1.214E+01    1.196E+01
     1.177E+01    1.158E+01    1.140E+01    1.121E+01    1.103E+01    1.085E+01    1.067E+01    1.049E+01    1.031E+01    1.013E+01
     9.960E+00    9.788E+00    9.618E+00    9.450E+00    9.285E+00    9.122E+00    8.962E+00    8.805E+00    8.651E+00    8.500E+00
     8.353E+00    8.209E+00    8.069E+00    7.933E+00    7.800E+00    7.671E+00    7.546E+00    7.424E+00    7.306E+00    7.192E+00
     7.081E+00    6.974E+00    6.871E+00    6.770E+00    6.674E+00    6.581E+00    6.491E+00    6.405E+00    6.322E+00    6.242E+00
     6.166E+00    6.093E+00    6.024E+00    5.957E+00    5.894E+00    5.834E+00    5.778E+00    5.725E+00    5.674E+00    5.627E+00
     5.583E+00    5.542E+00    5.505E+00    5.470E+00    5.438E+00    5.409E+00    5.384E+00    5.361E+00    5.341E+00    5.324E+00
     5.310E+00    5.299E+00    5.290E+00    5.285E+00    5.282E+00    5.282E+00    5.285E+00    5.290E+00    5.298E+00    5.309E+00
     5.322E+00    5.338E+00    5.356E+00    5.376E+00    5.399E+00    5.423E+00    5.450E+00    5.478E+00    5.509E+00    5.541E+00
     5.574E+00    5.610E+00    5.647E+00    5.685E+00    5.725E+00    5.766E+00    5.808E+00    5.851E+00    5.895E+00    5.940E+00
     5.986E+00    6.033E+00    6.081E+00    6.129E+00    6.177E+00    6.226E+00    6.276E+00    6.325E+00    6.375E+00    6.425E+00
     6.475E+00    6.525E+00    6.575E+00    6.624E+00    6.674E+00    6.723E+00    6.771E+00    6.819E+00    6.866E+00    6.913E+00
     6.958E+00    7.003E+00    7.047E+00    7.090E+00    7.132E+00    7.172E+00    7.212E+00    7.251E+00    7.290E+00    7.327E+00
     7.363E+00    7.399E+00    7.434E+00    7.468E+00    7.502E+00    7.534E+00    7.567E+00    7.598E+00    7.629E+00    7.660E+00
     7.689E+00    7.719E+00    7.748E+00    7.776E+00    7.804E+00    7.832E+00    7.860E+00    7.887E+00    7.914E+00    7.940E+00
     7.966E+00    7.993E+00    8.019E+00    8.044E+00    8.070E+00    8.096E+00    8.121E+00    8.147E+00    8.173E+00    8.198E+00
     8.224E+00    8.250E+00    8.276E+00    8.302E+00    8.329E+00    8.355E+00    8.382E+00    8.409E+00
 Ala      Conc. = 3.07E+02
