 LCModel (Version 6.3-1L) Copyright: S.W. Provencher.          Ref.: Magn. Reson. Med. 30:672-679 (1993).                
 Slice#1 Row#14 Col#10  K_02_press_1_raw_act
 36 lines in following concentration table = NCONC+1
    Conc.  %SD /Cr+PCr  Metabolite                                         
   58.136  72%   1.560 Ala                                                 
    6.746  65%   0.181 Asp                                                 
   37.277  43%   1.000 Cr                                                  
    0.000 999%   0.000 PCr                                                 
    4.116  64%   0.110 GABA                                                
    4.125  64%   0.111 Glc                                                 
   53.954 163%   1.447 Gln                                                 
   86.797 113%   2.328 Glu                                                 
   24.104  25%   0.647 GPC                                                 
    0.000 999%   0.000 PCh                                                 
   16.662 149%   0.447 GSH                                                 
  192.165  38%   5.155 Ins                                                 
    0.000 999%   0.000 Lac                                                 
   28.450  66%   0.763 NAA                                                 
    0.000 999%   0.000 NAAG                                                
    1.425  61% 3.8E-02 Scyllo                                              
    6.845  63%   0.184 Tau                                                 
    3.120 120% 8.4E-02 -CrCH2                                              
   24.104  25%   0.647 GPC+PCh                                             
   28.450  66%   0.763 NAA+NAAG                                            
   37.277  43%   1.000 Cr+PCr                                              
  140.752 104%   3.776 Glu+Gln                                             
    0.000 999%   0.000 Lip13a                                              
    0.000 999%   0.000 Lip13b                                              
 2.13E-04 999% 5.7E-06 Lip09                                               
  116.940  30%   3.137 MM09                                                
    0.000 999%   0.000 Lip20                                               
  118.059  54%   3.167 MM20                                                
   36.718  52%   0.985 MM12                                                
    0.000 999%   0.000 MM14                                                
   71.814  52%   1.926 MM17                                                
    0.000 999%   0.000 Lip13a+Lip13b                                       
   36.718  52%   0.985 MM14+Lip13a+Lip13b+MM12                             
  116.940  30%   3.137 MM09+Lip09                                          
  118.059  54%   3.167 MM20+Lip20                                          
   6 lines in following misc. output table
  FWHM = 0.069 ppm    S/N =   1                                            
  Data shift = 0.054 ppm                                                   
  Ph:-114 deg      37.3 deg/ppm                                            
  alphaB,S = 8.5E+01,   5.1E+01                                            
   14 spline knots.   Ns = 7(1)                                            
   2 inflections.     1 extrema                                            
  498 points on ppm-axis = NY
      4.000000     3.992357     3.984714     3.977070     3.969427     3.961784     3.954141     3.946497     3.938854     3.931211
      3.923568     3.915925     3.908281     3.900638     3.892995     3.885352     3.877708     3.870065     3.862422     3.854779
      3.847136     3.839492     3.831849     3.824206     3.816563     3.808919     3.801276     3.793633     3.785990     3.778347
      3.770703     3.763060     3.755417     3.747774     3.740130     3.732487     3.724844     3.717201     3.709558     3.701914
      3.694271     3.686628     3.678985     3.671341     3.663698     3.656055     3.648412     3.640769     3.633125     3.625482
      3.617839     3.610196     3.602552     3.594909     3.587266     3.579623     3.571980     3.564336     3.556693     3.549050
      3.541407     3.533763     3.526120     3.518477     3.510834     3.503191     3.495547     3.487904     3.480261     3.472618
      3.464974     3.457331     3.449688     3.442045     3.434402     3.426758     3.419115     3.411472     3.403829     3.396185
      3.388542     3.380899     3.373256     3.365613     3.357969     3.350326     3.342683     3.335040     3.327396     3.319753
      3.312110     3.304467     3.296824     3.289180     3.281537     3.273894     3.266251     3.258607     3.250964     3.243321
      3.235678     3.228034     3.220391     3.212748     3.205105     3.197462     3.189818     3.182175     3.174532     3.166889
      3.159245     3.151602     3.143959     3.136316     3.128673     3.121029     3.113386     3.105743     3.098100     3.090456
      3.082813     3.075170     3.067527     3.059884     3.052240     3.044597     3.036954     3.029311     3.021667     3.014024
      3.006381     2.998738     2.991095     2.983451     2.975808     2.968165     2.960522     2.952878     2.945235     2.937592
      2.929949     2.922306     2.914662     2.907019     2.899376     2.891733     2.884089     2.876446     2.868803     2.861160
      2.853517     2.845873     2.838230     2.830587     2.822944     2.815300     2.807657     2.800014     2.792371     2.784728
      2.777084     2.769441     2.761798     2.754155     2.746511     2.738868     2.731225     2.723582     2.715939     2.708295
      2.700652     2.693009     2.685366     2.677722     2.670079     2.662436     2.654793     2.647150     2.639506     2.631863
      2.624220     2.616577     2.608933     2.601290     2.593647     2.586004     2.578361     2.570717     2.563074     2.555431
      2.547788     2.540144     2.532501     2.524858     2.517215     2.509572     2.501928     2.494285     2.486642     2.478999
      2.471355     2.463712     2.456069     2.448426     2.440783     2.433139     2.425496     2.417853     2.410210     2.402566
      2.394923     2.387280     2.379637     2.371994     2.364350     2.356707     2.349064     2.341421     2.333777     2.326134
      2.318491     2.310848     2.303205     2.295561     2.287918     2.280275     2.272632     2.264988     2.257345     2.249702
      2.242059     2.234416     2.226772     2.219129     2.211486     2.203843     2.196199     2.188556     2.180913     2.173270
      2.165627     2.157983     2.150340     2.142697     2.135054     2.127410     2.119767     2.112124     2.104481     2.096838
      2.089194     2.081551     2.073908     2.066265     2.058621     2.050978     2.043335     2.035692     2.028049     2.020405
      2.012762     2.005119     1.997476     1.989833     1.982190     1.974546     1.966903     1.959260     1.951617     1.943974
      1.936331     1.928688     1.921045     1.913402     1.905759     1.898115     1.890472     1.882829     1.875186     1.867543
      1.859900     1.852257     1.844614     1.836971     1.829327     1.821684     1.814041     1.806398     1.798755     1.791112
      1.783469     1.775826     1.768183     1.760540     1.752896     1.745253     1.737610     1.729967     1.722324     1.714681
      1.707038     1.699395     1.691752     1.684108     1.676465     1.668822     1.661179     1.653536     1.645893     1.638250
      1.630607     1.622964     1.615321     1.607677     1.600034     1.592391     1.584748     1.577105     1.569462     1.561819
      1.554176     1.546533     1.538890     1.531246     1.523603     1.515960     1.508317     1.500674     1.493031     1.485388
      1.477745     1.470102     1.462458     1.454815     1.447172     1.439529     1.431886     1.424243     1.416600     1.408957
      1.401314     1.393671     1.386027     1.378384     1.370741     1.363098     1.355455     1.347812     1.340169     1.332526
      1.324883     1.317240     1.309596     1.301953     1.294310     1.286667     1.279024     1.271381     1.263738     1.256095
      1.248452     1.240808     1.233165     1.225522     1.217879     1.210236     1.202593     1.194950     1.187307     1.179664
      1.172021     1.164377     1.156734     1.149091     1.141448     1.133805     1.126162     1.118519     1.110876     1.103233
      1.095590     1.087946     1.080303     1.072660     1.065017     1.057374     1.049731     1.042088     1.034445     1.026802
      1.019158     1.011515     1.003872     0.996229     0.988586     0.980943     0.973300     0.965657     0.958014     0.950371
      0.942727     0.935084     0.927441     0.919798     0.912155     0.904512     0.896869     0.889226     0.881583     0.873940
      0.866296     0.858653     0.851010     0.843367     0.835724     0.828081     0.820438     0.812795     0.805152     0.797508
      0.789865     0.782222     0.774579     0.766936     0.759293     0.751650     0.744007     0.736364     0.728721     0.721077
      0.713434     0.705791     0.698148     0.690505     0.682862     0.675219     0.667576     0.659933     0.652290     0.644646
      0.637003     0.629360     0.621717     0.614074     0.606431     0.598788     0.591145     0.583502     0.575858     0.568215
      0.560572     0.552929     0.545286     0.537643     0.530000     0.522357     0.514714     0.507071     0.499427     0.491784
      0.484141     0.476498     0.468855     0.461212     0.453569     0.445925     0.438282     0.430639     0.422996     0.415353
      0.407710     0.400067     0.392424     0.384780     0.377137     0.369494     0.361851     0.354208     0.346565     0.338922
      0.331278     0.323635     0.315992     0.308349     0.300706     0.293063     0.285420     0.277777     0.270133     0.262490
      0.254847     0.247204     0.239561     0.231918     0.224275     0.216631     0.208988     0.201345
 NY phased data points follow
   6.39232E-01  1.74956E+00 -2.49707E-01  1.35193E+00 -2.34082E+00  2.49855E+00  1.03375E+00  1.73429E+00  1.25338E+00  1.97756E+00
   2.36108E+00  2.00490E+00 -3.67697E-01  3.04679E-01  1.55344E+00  2.07826E+00  1.60133E-01  7.45408E-01  1.99558E-02  2.62682E+00
   7.17638E-01  3.59275E+00  3.23244E-01 -2.09710E-01 -1.34374E+00  2.43770E+00 -1.71971E-01  1.45968E+00 -1.46757E+00  1.59856E+00
   1.00857E+00  2.35395E+00 -8.26902E-01  1.40780E+00  2.59349E+00  6.79052E-01  3.36273E-01  1.85972E+00 -7.94445E-01  1.49104E+00
   1.37055E+00  1.07751E+00  8.96710E-01  7.04723E-02  8.64044E-01  2.89403E+00  8.60327E-01  1.11599E+00  1.64849E+00  5.11877E-02
   5.82001E-01  1.21987E+00  7.21979E-01 -1.18930E+00  3.73877E-01  7.30737E-01  2.47793E+00  6.98196E-01  2.08945E-01  1.03549E+00
  -1.47418E+00 -2.33669E-01  2.06359E+00  9.33252E-01  1.80723E+00  1.31282E+00  1.76591E+00  1.26578E-02  2.36658E-01  8.48904E-01
   6.04280E-01  8.66794E-01 -3.55748E-01  3.64580E-01 -9.92761E-01  1.47718E+00  1.35740E-02  1.16487E+00 -6.75158E-01  1.06004E+00
   2.42687E-01 -1.57448E-01  1.03278E+00  6.49869E-02  1.02834E+00 -1.95881E+00 -5.32624E-02  3.35081E-01  1.49076E+00  5.89321E-01
   1.52945E+00  4.08762E-01 -1.57490E+00  1.72097E+00  5.57091E-01 -1.38057E+00 -7.00736E-01 -1.00092E+00  3.52898E-01  1.50867E+00
   2.13692E+00  1.17552E+00  9.84213E-01  3.08504E+00  2.07842E+00  2.65186E+00  3.99545E-01  8.88202E-01 -5.50587E-02  1.03734E+00
   1.79185E-01  4.82014E-01  2.28078E-01  9.53888E-01  2.96042E+00  1.11136E+00 -8.86384E-01 -3.96641E-01 -9.65858E-01  1.55399E+00
  -1.16263E+00 -9.36640E-01  1.23274E+00 -8.99390E-01  6.27829E-01  1.27099E+00  1.13582E+00 -9.39143E-01  1.85003E+00  1.74339E+00
   2.91240E+00  7.57707E-02 -1.50020E+00  8.99155E-01  6.34435E-02  1.64735E+00  3.86346E-01  3.29895E-01  9.48999E-01 -5.89382E-01
   5.12216E-01  1.15454E+00 -2.00709E-01 -1.27063E+00 -1.13076E+00  1.92339E-01 -2.36728E+00 -1.28863E+00 -2.17572E+00  1.42983E+00
   4.65548E-01  1.63779E+00 -6.32453E-01  9.72735E-01 -4.63957E-01 -4.26978E-01  3.25697E-01  2.15208E+00 -1.98983E+00 -9.16842E-02
   2.99381E-01  2.15605E+00  8.98015E-01  4.56223E-01  1.09735E+00  2.90673E+00 -5.47807E-01 -9.87539E-01  1.63357E+00  1.56432E+00
  -2.41780E-01 -1.15191E+00  2.06622E-01  8.77855E-01  1.86527E+00 -5.93692E-01  9.40054E-01  6.87613E-01 -1.90648E-01  1.53526E+00
  -1.46434E-01  2.74816E+00 -2.50759E+00 -6.23624E-01  3.47837E-02  1.05184E-01  1.17505E+00  5.61151E-01 -7.27610E-01 -8.27567E-01
  -3.26018E-01  5.97516E-01 -5.05037E-01 -2.76824E-01  1.08510E+00 -1.42007E-01  1.53122E+00 -1.62599E+00 -1.29396E+00  6.51989E-01
   1.29992E+00 -1.80590E+00  1.12737E+00  1.79128E+00  3.26550E-01 -6.28519E-01  2.06491E-01 -3.62272E-01 -1.01452E+00  1.37246E+00
  -9.09310E-01 -1.51172E+00  8.95693E-01  4.86224E-01 -7.52689E-01 -3.35237E-01 -3.06360E-01  8.03553E-01  1.60694E-01 -1.87745E+00
  -4.11468E-01  9.98536E-01  6.12212E-01 -1.06816E+00 -6.35561E-01  4.65318E-01  1.09990E-01  9.03964E-01  1.84174E+00 -4.41239E-01
   9.02195E-01  1.56391E+00  1.30093E-01 -6.85283E-01  4.36419E-01  1.46061E+00  9.27251E-01 -2.35346E-01  1.53935E+00 -8.80152E-01
  -1.81452E-01 -1.55835E-01 -2.59627E-01  7.47040E-01  2.68122E-01  5.32664E-01  5.57094E-01  1.56223E+00  8.33775E-01  1.70320E+00
  -7.64336E-01  1.09853E+00  3.86601E-01 -1.23165E+00  1.22412E+00  1.04323E+00  2.20814E+00  1.27257E+00 -2.03349E-01  3.96273E+00
   1.41562E+00  1.33853E+00  7.07751E-01 -5.65207E-01 -5.95100E-01  3.29082E+00  8.83953E-01 -1.06128E+00 -4.80912E-01 -1.41124E+00
  -1.45083E+00 -4.80374E-01  1.66992E+00  3.70059E-01 -4.70920E-01 -2.83339E-01 -9.56269E-01 -1.17392E+00 -3.40783E-01  4.69345E-02
  -2.14715E-01 -5.16607E-01 -5.50042E-01 -9.52243E-01  9.18489E-01  4.20685E-01  1.99189E-01  1.25621E+00 -5.74768E-01 -4.82852E-01
  -5.74555E-01  5.13789E-02  2.12691E+00 -1.05292E+00 -1.69789E-01 -9.53896E-02  1.14367E+00  2.67676E+00  1.00464E+00  8.58516E-01
   5.22039E-01  7.56767E-02  5.67807E-01 -3.12710E-01  1.67701E+00  1.23102E+00  2.66763E+00 -4.60000E-02  1.64593E+00 -2.06294E-01
  -1.59338E+00  2.66078E+00  2.01977E-01  2.44436E+00  1.95176E+00  5.31898E-01  5.90149E-01  5.92519E-01  1.73216E+00 -3.51039E-01
   1.07253E+00  6.56813E-01  5.33228E-02  4.60953E-01 -1.05798E+00  7.63456E-01 -1.18092E-01 -3.66538E+00 -1.52562E+00 -1.30560E+00
  -1.44815E+00 -1.93813E+00 -2.32685E+00 -1.27598E+00 -1.62578E+00 -2.29787E+00  1.41509E-01 -1.96673E+00 -4.28857E-01 -5.03210E-01
  -6.88853E-01 -1.41193E+00  4.16216E-01 -5.31580E-01 -1.70361E+00 -6.23660E-01 -2.90007E+00  3.08651E-01  1.54905E+00 -1.20091E+00
  -6.38242E-01 -8.43504E-01 -3.55099E-01  1.11812E-01 -4.53129E-01 -2.52760E-01 -1.45462E-01  1.81544E+00 -2.07666E-01  1.25265E+00
  -8.37726E-01  2.20967E+00  1.11209E+00 -2.15411E-01  4.99370E-01  1.47184E+00  1.20011E+00 -9.41956E-01  1.80650E+00  1.90314E-01
  -2.96541E-01 -4.78643E-01 -2.13829E-01  1.25847E+00 -6.95865E-01  1.01760E+00  2.15873E+00  3.58398E-01  1.49780E+00  3.06922E+00
  -1.18667E-01  2.44171E+00  7.45189E-01  6.60866E-01  8.55873E-01  1.01381E+00  1.87607E+00  3.11219E+00  1.44024E+00 -2.64258E-01
   2.00216E+00  1.93243E+00  6.69758E-01  1.31508E+00  1.88647E+00  1.10263E+00  1.63278E+00  1.29795E+00 -2.39358E-01 -1.32650E-01
   1.02646E+00  1.00836E+00  2.98759E-01  5.43404E-01  1.38131E+00  4.48282E-01  1.59268E+00  7.57619E-01 -2.40393E-01  7.92758E-01
   1.78111E+00  5.40244E-01  1.65345E+00  1.65400E+00 -1.20748E+00  1.72842E+00  9.20705E-02  5.72791E-01  2.43003E-01  1.35517E+00
   1.13969E+00  2.18634E+00  6.91823E-01  5.43712E-01  4.66366E-02  9.66222E-01 -7.95301E-01  1.99313E-01  2.09092E+00  1.31833E+00
   9.06905E-01 -3.94948E-01  1.02110E+00  7.80430E-01 -1.08457E-01  1.01545E+00  2.83512E+00  1.88861E+00  1.24364E+00  4.23983E-01
  -9.90678E-01  3.45689E-01 -3.52556E-01  2.72015E-01  8.89448E-01 -1.25578E+00  1.71179E+00 -6.55779E-01  1.58372E+00  8.02237E-02
   5.26049E-01  2.09361E+00 -4.69410E-01  7.13561E-01  1.01901E+00 -9.02352E-03  1.37361E+00 -1.04966E+00 -5.92783E-01  6.67646E-01
  -1.10321E+00  9.88997E-01 -4.55666E-01  1.65709E+00 -8.92828E-01  2.03502E+00  2.36653E-01 -6.42833E-01  1.24935E-01 -1.24705E-01
   6.24593E-01  5.22506E-01  5.62299E-01 -1.00154E+00 -2.51667E+00  4.51530E-01  1.24128E+00  1.46420E+00  1.69374E+00 -1.92486E+00
  -5.83173E-01  4.34340E-01  7.43058E-01 -1.16864E-04 -5.83304E-03 -1.30596E+00  1.41386E+00 -7.43089E-01  3.22530E-01  9.37042E-01
   1.01689E+00  5.44461E-01  1.19174E+00  1.37695E+00  3.27674E-01 -4.20022E-01 -8.14726E-01 -1.48478E+00
 NY points of the fit to the data follow
   5.15180E-01  4.42307E-01  3.98519E-01  3.75681E-01  3.92724E-01  4.74750E-01  6.08576E-01  7.60418E-01  8.93724E-01  9.82828E-01
   1.02143E+00  1.01584E+00  9.75183E-01  9.06001E-01  8.16187E-01  7.18868E-01  6.30003E-01  5.63143E-01  5.26498E-01  5.15482E-01
   5.17677E-01  5.09265E-01  4.71268E-01  4.19665E-01  3.79911E-01  3.72053E-01  4.08450E-01  4.86591E-01  5.90926E-01  6.99810E-01
   7.95735E-01  8.66413E-01  9.01451E-01  8.97445E-01  8.54353E-01  7.74148E-01  6.69235E-01  5.58235E-01  4.60833E-01  4.03470E-01
   4.24337E-01  5.57857E-01  7.93000E-01  1.06707E+00  1.30179E+00  1.44150E+00  1.47229E+00  1.41154E+00  1.28535E+00  1.11768E+00
   9.25480E-01  7.29057E-01  5.60925E-01  4.52675E-01  4.18174E-01  4.54498E-01  5.41561E-01  6.40469E-01  7.08693E-01  7.26873E-01
   7.02837E-01  6.53605E-01  5.96084E-01  5.40977E-01  4.96862E-01  4.75958E-01  4.82031E-01  5.10404E-01  5.54897E-01  6.04714E-01
   6.47420E-01  6.75099E-01  6.83338E-01  6.72387E-01  6.44827E-01  6.06189E-01  5.63865E-01  5.23069E-01  4.87684E-01  4.56548E-01
   4.21025E-01  3.69811E-01  2.93063E-01  1.94727E-01  9.07022E-02  1.30811E-04 -6.31436E-02 -9.27157E-02 -8.95967E-02 -5.63331E-02
   4.90302E-04  6.76212E-02  1.30265E-01  1.77351E-01  2.07357E-01  2.41106E-01  3.57259E-01  6.14132E-01  9.77859E-01  1.36531E+00
   1.68609E+00  1.88235E+00  1.94780E+00  1.90871E+00  1.78827E+00  1.59896E+00  1.35406E+00  1.07839E+00  8.06576E-01  5.68948E-01
   3.80151E-01  2.47525E-01  1.84907E-01  1.67256E-01  1.59182E-01  1.53570E-01  1.49301E-01  1.47697E-01  1.51736E-01  1.71786E-01
   2.46118E-01  4.04768E-01  6.27227E-01  8.64577E-01  1.06493E+00  1.19438E+00  1.24891E+00  1.24411E+00  1.19151E+00  1.09300E+00
   9.52465E-01  7.82492E-01  6.04517E-01  4.42465E-01  3.11787E-01  2.20884E-01  1.77378E-01  1.67909E-01  1.69903E-01  1.76547E-01
   1.85111E-01  1.93240E-01  1.99430E-01  2.01992E-01  1.98567E-01  1.89227E-01  1.75677E-01  1.59663E-01  1.43220E-01  1.28166E-01
   1.15491E-01  1.05870E-01  9.85025E-02  9.23387E-02  8.58033E-02  7.80847E-02  6.95761E-02  6.15931E-02  5.60818E-02  5.34366E-02
   5.28296E-02  5.32630E-02  5.40271E-02  5.48471E-02  5.56410E-02  5.63842E-02  5.68412E-02  5.66312E-02  5.53453E-02  5.19851E-02
   4.59168E-02  3.86808E-02  3.22336E-02  2.76530E-02  2.44596E-02  2.11729E-02  1.74650E-02  1.44099E-02  1.28492E-02  1.22929E-02
   1.12579E-02  9.36645E-03  8.54782E-03  1.22877E-02  2.37409E-02  4.33845E-02  6.81608E-02  9.20727E-02  1.09288E-01  1.15351E-01
   1.07230E-01  8.47588E-02  5.29677E-02  2.03820E-02 -2.74381E-03 -6.22806E-03  1.52767E-02  6.00747E-02  1.23199E-01  1.96888E-01
   2.67911E-01  3.21926E-01  3.44350E-01  3.16473E-01  2.36504E-01  1.25656E-01  1.28778E-02 -7.32839E-02 -1.09500E-01 -7.90408E-02
   1.22156E-02  1.40088E-01  2.73969E-01  3.84478E-01  4.49644E-01  4.52158E-01  3.86829E-01  2.73288E-01  1.44645E-01  2.97156E-02
  -4.43504E-02 -6.55032E-02 -4.02340E-02  1.98055E-02  1.01428E-01  1.91405E-01  2.71885E-01  3.33298E-01  3.73640E-01  3.91031E-01
   3.89067E-01  3.77193E-01  3.68167E-01  3.73072E-01  3.94649E-01  4.25420E-01  4.49837E-01  4.58880E-01  4.53814E-01  4.40108E-01
   4.22703E-01  4.07634E-01  3.98504E-01  3.93892E-01  3.92152E-01  3.93721E-01  4.04678E-01  4.29358E-01  4.65580E-01  5.07491E-01
   5.49067E-01  5.82421E-01  6.04935E-01  6.46272E-01  7.42690E-01  8.90338E-01  1.05748E+00  1.20630E+00  1.30539E+00  1.34318E+00
   1.32882E+00  1.27467E+00  1.18714E+00  1.07090E+00  9.34911E-01  7.92070E-01  6.57126E-01  5.40930E-01  4.50823E-01  3.95839E-01
   3.71893E-01  3.60408E-01  3.54170E-01  3.50541E-01  3.46627E-01  3.40815E-01  3.33252E-01  3.23877E-01  3.13177E-01  3.02181E-01
   2.92016E-01  2.83499E-01  2.77680E-01  2.75304E-01  2.76280E-01  2.80308E-01  2.87136E-01  2.96431E-01  3.07943E-01  3.21489E-01
   3.36997E-01  3.54588E-01  3.74244E-01  3.95797E-01  4.19001E-01  4.43494E-01  4.68773E-01  4.94215E-01  5.19165E-01  5.42940E-01
   5.64782E-01  5.83975E-01  5.99913E-01  6.12075E-01  6.20093E-01  6.23759E-01  6.23032E-01  6.18053E-01  6.09147E-01  5.96807E-01
   5.81681E-01  5.64548E-01  5.46318E-01  5.28012E-01  5.10788E-01  4.96010E-01  4.85403E-01  4.81436E-01  4.88399E-01  5.15971E-01
   5.80026E-01  6.64549E-01  7.24762E-01  7.22864E-01  6.42615E-01  4.91802E-01  2.92439E-01  6.49828E-02 -1.53768E-01 -3.12114E-01
  -3.77463E-01 -3.44533E-01 -2.33337E-01 -7.90930E-02  8.56057E-02  2.44257E-01  3.88740E-01  4.96781E-01  5.55094E-01  5.67582E-01
   5.43990E-01  4.97908E-01  4.40815E-01  3.81235E-01  3.35043E-01  3.08412E-01  2.92558E-01  2.82824E-01  2.77139E-01  2.74369E-01
   2.73812E-01  2.74984E-01  2.77526E-01  2.81152E-01  2.85623E-01  2.90726E-01  2.96261E-01  3.02039E-01  3.07883E-01  3.13623E-01
   3.19109E-01  3.24200E-01  3.28777E-01  3.32744E-01  3.36033E-01  3.38609E-01  3.40470E-01  3.41649E-01  3.42211E-01  3.42258E-01
   3.41925E-01  3.41380E-01  3.40815E-01  3.40447E-01  3.40512E-01  3.41263E-01  3.42967E-01  3.45900E-01  3.50346E-01  3.56585E-01
   3.64899E-01  3.75561E-01  3.88829E-01  4.04941E-01  4.24099E-01  4.46454E-01  4.72104E-01  5.01066E-01  5.33269E-01  5.68532E-01
   6.06551E-01  6.46891E-01  6.88983E-01  7.32124E-01  7.75490E-01  8.18152E-01  8.59103E-01  8.97297E-01  9.31693E-01  9.61296E-01
   9.85208E-01  1.00267E+00  1.01311E+00  1.01615E+00  1.01167E+00  9.99754E-01  9.80752E-01  9.55204E-01  9.23837E-01  8.87522E-01
   8.47228E-01  8.03975E-01  7.58783E-01  7.12635E-01  6.66439E-01  6.20999E-01  5.77000E-01  5.34991E-01  4.95385E-01  4.58466E-01
   4.24401E-01  3.93251E-01  3.64991E-01  3.39527E-01  3.16711E-01  2.96361E-01  2.78276E-01  2.62244E-01  2.48056E-01  2.35507E-01
   2.24404E-01  2.14570E-01  2.05847E-01  1.98092E-01  1.91182E-01  1.85003E-01  1.79462E-01  1.74475E-01  1.69974E-01  1.65897E-01
   1.62193E-01  1.58816E-01  1.55728E-01  1.52895E-01  1.50291E-01  1.47891E-01  1.45673E-01  1.43617E-01  1.41707E-01  1.39931E-01
   1.38276E-01  1.36732E-01  1.35287E-01  1.33933E-01  1.32662E-01  1.31468E-01  1.30346E-01  1.29289E-01  1.28292E-01  1.27349E-01
   1.26457E-01  1.25615E-01  1.24817E-01  1.24061E-01  1.23343E-01  1.22659E-01  1.22010E-01  1.21394E-01  1.20807E-01  1.20247E-01
   1.19713E-01  1.19203E-01  1.18718E-01  1.18255E-01  1.17813E-01  1.17389E-01  1.16984E-01  1.16596E-01  1.16226E-01  1.15873E-01
   1.15534E-01  1.15208E-01  1.14896E-01  1.14598E-01  1.14314E-01  1.14042E-01  1.13780E-01  1.13530E-01  1.13290E-01  1.13062E-01
   1.12845E-01  1.12639E-01  1.12441E-01  1.12253E-01  1.12075E-01  1.11909E-01  1.11754E-01  1.11608E-01
 NY background values follow
     6.816E-02    6.822E-02    6.828E-02    6.833E-02    6.839E-02    6.845E-02    6.851E-02    6.857E-02    6.862E-02    6.868E-02
     6.874E-02    6.880E-02    6.885E-02    6.891E-02    6.897E-02    6.903E-02    6.909E-02    6.914E-02    6.920E-02    6.926E-02
     6.932E-02    6.937E-02    6.943E-02    6.949E-02    6.955E-02    6.960E-02    6.966E-02    6.972E-02    6.978E-02    6.984E-02
     6.989E-02    6.995E-02    7.001E-02    7.007E-02    7.012E-02    7.018E-02    7.024E-02    7.030E-02    7.036E-02    7.041E-02
     7.047E-02    7.053E-02    7.059E-02    7.064E-02    7.070E-02    7.076E-02    7.082E-02    7.088E-02    7.093E-02    7.099E-02
     7.105E-02    7.111E-02    7.116E-02    7.122E-02    7.128E-02    7.134E-02    7.139E-02    7.145E-02    7.151E-02    7.157E-02
     7.163E-02    7.168E-02    7.174E-02    7.180E-02    7.186E-02    7.191E-02    7.197E-02    7.203E-02    7.209E-02    7.215E-02
     7.220E-02    7.226E-02    7.232E-02    7.238E-02    7.243E-02    7.249E-02    7.255E-02    7.261E-02    7.267E-02    7.272E-02
     7.278E-02    7.284E-02    7.290E-02    7.295E-02    7.301E-02    7.307E-02    7.313E-02    7.319E-02    7.324E-02    7.330E-02
     7.336E-02    7.342E-02    7.347E-02    7.353E-02    7.359E-02    7.365E-02    7.371E-02    7.376E-02    7.382E-02    7.388E-02
     7.394E-02    7.399E-02    7.405E-02    7.411E-02    7.417E-02    7.423E-02    7.428E-02    7.434E-02    7.440E-02    7.446E-02
     7.451E-02    7.457E-02    7.463E-02    7.469E-02    7.475E-02    7.480E-02    7.486E-02    7.492E-02    7.498E-02    7.503E-02
     7.509E-02    7.515E-02    7.521E-02    7.527E-02    7.532E-02    7.538E-02    7.544E-02    7.550E-02    7.555E-02    7.561E-02
     7.567E-02    7.573E-02    7.579E-02    7.584E-02    7.590E-02    7.596E-02    7.602E-02    7.607E-02    7.613E-02    7.619E-02
     7.625E-02    7.631E-02    7.636E-02    7.642E-02    7.648E-02    7.654E-02    7.660E-02    7.665E-02    7.671E-02    7.677E-02
     7.683E-02    7.688E-02    7.694E-02    7.700E-02    7.706E-02    7.712E-02    7.717E-02    7.723E-02    7.729E-02    7.735E-02
     7.740E-02    7.746E-02    7.752E-02    7.758E-02    7.764E-02    7.769E-02    7.775E-02    7.781E-02    7.787E-02    7.793E-02
     7.798E-02    7.804E-02    7.810E-02    7.816E-02    7.821E-02    7.827E-02    7.833E-02    7.839E-02    7.845E-02    7.850E-02
     7.856E-02    7.862E-02    7.868E-02    7.874E-02    7.879E-02    7.885E-02    7.891E-02    7.897E-02    7.903E-02    7.908E-02
     7.914E-02    7.920E-02    7.926E-02    7.931E-02    7.937E-02    7.943E-02    7.949E-02    7.955E-02    7.960E-02    7.966E-02
     7.972E-02    7.978E-02    7.984E-02    7.989E-02    7.995E-02    8.001E-02    8.007E-02    8.013E-02    8.018E-02    8.024E-02
     8.030E-02    8.036E-02    8.042E-02    8.047E-02    8.053E-02    8.059E-02    8.065E-02    8.071E-02    8.076E-02    8.082E-02
     8.088E-02    8.094E-02    8.099E-02    8.105E-02    8.111E-02    8.117E-02    8.123E-02    8.128E-02    8.134E-02    8.140E-02
     8.146E-02    8.152E-02    8.157E-02    8.163E-02    8.169E-02    8.175E-02    8.181E-02    8.186E-02    8.192E-02    8.198E-02
     8.204E-02    8.210E-02    8.215E-02    8.221E-02    8.227E-02    8.233E-02    8.239E-02    8.244E-02    8.250E-02    8.256E-02
     8.262E-02    8.268E-02    8.273E-02    8.279E-02    8.285E-02    8.291E-02    8.297E-02    8.302E-02    8.308E-02    8.314E-02
     8.320E-02    8.326E-02    8.331E-02    8.337E-02    8.343E-02    8.349E-02    8.355E-02    8.361E-02    8.366E-02    8.372E-02
     8.378E-02    8.384E-02    8.390E-02    8.395E-02    8.401E-02    8.407E-02    8.413E-02    8.419E-02    8.424E-02    8.430E-02
     8.436E-02    8.442E-02    8.448E-02    8.453E-02    8.459E-02    8.465E-02    8.471E-02    8.477E-02    8.483E-02    8.488E-02
     8.494E-02    8.500E-02    8.506E-02    8.512E-02    8.517E-02    8.523E-02    8.529E-02    8.535E-02    8.541E-02    8.546E-02
     8.552E-02    8.558E-02    8.564E-02    8.570E-02    8.576E-02    8.581E-02    8.587E-02    8.593E-02    8.599E-02    8.605E-02
     8.610E-02    8.616E-02    8.622E-02    8.628E-02    8.634E-02    8.640E-02    8.645E-02    8.651E-02    8.657E-02    8.663E-02
     8.669E-02    8.674E-02    8.680E-02    8.686E-02    8.692E-02    8.698E-02    8.704E-02    8.709E-02    8.715E-02    8.721E-02
     8.727E-02    8.733E-02    8.738E-02    8.744E-02    8.750E-02    8.756E-02    8.762E-02    8.768E-02    8.773E-02    8.779E-02
     8.785E-02    8.791E-02    8.797E-02    8.803E-02    8.808E-02    8.814E-02    8.820E-02    8.826E-02    8.832E-02    8.837E-02
     8.843E-02    8.849E-02    8.855E-02    8.861E-02    8.867E-02    8.872E-02    8.878E-02    8.884E-02    8.890E-02    8.896E-02
     8.902E-02    8.907E-02    8.913E-02    8.919E-02    8.925E-02    8.931E-02    8.937E-02    8.942E-02    8.948E-02    8.954E-02
     8.960E-02    8.966E-02    8.972E-02    8.977E-02    8.983E-02    8.989E-02    8.995E-02    9.001E-02    9.007E-02    9.012E-02
     9.018E-02    9.024E-02    9.030E-02    9.036E-02    9.042E-02    9.047E-02    9.053E-02    9.059E-02    9.065E-02    9.071E-02
     9.077E-02    9.082E-02    9.088E-02    9.094E-02    9.100E-02    9.106E-02    9.112E-02    9.117E-02    9.123E-02    9.129E-02
     9.135E-02    9.141E-02    9.146E-02    9.152E-02    9.158E-02    9.164E-02    9.170E-02    9.176E-02    9.181E-02    9.187E-02
     9.193E-02    9.199E-02    9.205E-02    9.211E-02    9.216E-02    9.222E-02    9.228E-02    9.234E-02    9.240E-02    9.246E-02
     9.252E-02    9.257E-02    9.263E-02    9.269E-02    9.275E-02    9.281E-02    9.287E-02    9.292E-02    9.298E-02    9.304E-02
     9.310E-02    9.316E-02    9.322E-02    9.327E-02    9.333E-02    9.339E-02    9.345E-02    9.351E-02    9.357E-02    9.362E-02
     9.368E-02    9.374E-02    9.380E-02    9.386E-02    9.392E-02    9.397E-02    9.403E-02    9.409E-02    9.415E-02    9.421E-02
     9.427E-02    9.432E-02    9.438E-02    9.444E-02    9.450E-02    9.456E-02    9.462E-02    9.467E-02    9.473E-02    9.479E-02
     9.485E-02    9.491E-02    9.497E-02    9.502E-02    9.508E-02    9.514E-02    9.520E-02    9.526E-02    9.532E-02    9.537E-02
     9.543E-02    9.549E-02    9.555E-02    9.561E-02    9.567E-02    9.572E-02    9.578E-02    9.584E-02    9.590E-02    9.596E-02
     9.602E-02    9.607E-02    9.613E-02    9.619E-02    9.625E-02    9.631E-02    9.637E-02    9.642E-02    9.648E-02    9.654E-02
     9.660E-02    9.666E-02    9.672E-02    9.677E-02    9.683E-02    9.689E-02    9.695E-02    9.701E-02
 Ala      Conc. = 5.81E+01
