 LCModel (Version 6.3-1L) Copyright: S.W. Provencher.          Ref.: Magn. Reson. Med. 30:672-679 (1993).                
 Slice#1 Row#3 Col#1  K_02_press_1_raw_act
 36 lines in following concentration table = NCONC+1
    Conc.  %SD /Cr+PCr  Metabolite                                         
  115.438  65%   6.572 Ala                                                 
   10.538  50%   0.600 Asp                                                 
    0.000 999%   0.000 Cr                                                  
   17.565 171%   1.000 PCr                                                 
    6.422  50%   0.366 GABA                                                
    6.447  49%   0.367 Glc                                                 
  457.747  37%  26.061 Gln                                                 
  601.411  35%  34.240 Glu                                                 
   36.872  31%   2.099 GPC                                                 
    0.000 999%   0.000 PCh                                                 
    9.040 503%   0.515 GSH                                                 
  367.602  41%  20.928 Ins                                                 
    0.000 999%   0.000 Lac                                                 
   82.889  42%   4.719 NAA                                                 
    0.000 999%   0.000 NAAG                                                
    2.192  49%   0.125 Scyllo                                              
   10.678  50%   0.608 Tau                                                 
    0.961 639% 5.5E-02 -CrCH2                                              
   36.872  31%   2.099 GPC+PCh                                             
   82.889  42%   4.719 NAA+NAAG                                            
   17.565 171%   1.000 Cr+PCr                                              
 1.06E+03  29%  60.300 Glu+Gln                                             
    0.000 999%   0.000 Lip13a                                              
   36.472 122%   2.076 Lip13b                                              
    0.000 999%   0.000 Lip09                                               
  621.368  17%  35.376 MM09                                                
    5.290 226%   0.301 Lip20                                               
  932.562  17%  53.093 MM20                                                
  186.445  17%  10.615 MM12                                                
  497.525  16%  28.325 MM14                                                
  248.348  17%  14.139 MM17                                                
   36.472 122%   2.076 Lip13a+Lip13b                                       
  720.442  17%  41.016 MM14+Lip13a+Lip13b+MM12                             
  621.368  17%  35.376 MM09+Lip09                                          
  937.852  17%  53.394 MM20+Lip20                                          
   6 lines in following misc. output table
  FWHM = 0.069 ppm    S/N =   1                                            
  Data shift = 0.046 ppm                                                   
  Ph: 161 deg     -17.2 deg/ppm                                            
  alphaB,S = 3.6E-01,   1.3E+01                                            
   14 spline knots.   Ns = 5(1)                                            
  (10) 6 infls.   ( 7) 3 extrs.                                            
  498 points on ppm-axis = NY
      4.000000     3.992357     3.984714     3.977070     3.969427     3.961784     3.954141     3.946497     3.938854     3.931211
      3.923568     3.915925     3.908281     3.900638     3.892995     3.885352     3.877708     3.870065     3.862422     3.854779
      3.847136     3.839492     3.831849     3.824206     3.816563     3.808919     3.801276     3.793633     3.785990     3.778347
      3.770703     3.763060     3.755417     3.747774     3.740130     3.732487     3.724844     3.717201     3.709558     3.701914
      3.694271     3.686628     3.678985     3.671341     3.663698     3.656055     3.648412     3.640769     3.633125     3.625482
      3.617839     3.610196     3.602552     3.594909     3.587266     3.579623     3.571980     3.564336     3.556693     3.549050
      3.541407     3.533763     3.526120     3.518477     3.510834     3.503191     3.495547     3.487904     3.480261     3.472618
      3.464974     3.457331     3.449688     3.442045     3.434402     3.426758     3.419115     3.411472     3.403829     3.396185
      3.388542     3.380899     3.373256     3.365613     3.357969     3.350326     3.342683     3.335040     3.327396     3.319753
      3.312110     3.304467     3.296824     3.289180     3.281537     3.273894     3.266251     3.258607     3.250964     3.243321
      3.235678     3.228034     3.220391     3.212748     3.205105     3.197462     3.189818     3.182175     3.174532     3.166889
      3.159245     3.151602     3.143959     3.136316     3.128673     3.121029     3.113386     3.105743     3.098100     3.090456
      3.082813     3.075170     3.067527     3.059884     3.052240     3.044597     3.036954     3.029311     3.021667     3.014024
      3.006381     2.998738     2.991095     2.983451     2.975808     2.968165     2.960522     2.952878     2.945235     2.937592
      2.929949     2.922306     2.914662     2.907019     2.899376     2.891733     2.884089     2.876446     2.868803     2.861160
      2.853517     2.845873     2.838230     2.830587     2.822944     2.815300     2.807657     2.800014     2.792371     2.784728
      2.777084     2.769441     2.761798     2.754155     2.746511     2.738868     2.731225     2.723582     2.715939     2.708295
      2.700652     2.693009     2.685366     2.677722     2.670079     2.662436     2.654793     2.647150     2.639506     2.631863
      2.624220     2.616577     2.608933     2.601290     2.593647     2.586004     2.578361     2.570717     2.563074     2.555431
      2.547788     2.540144     2.532501     2.524858     2.517215     2.509572     2.501928     2.494285     2.486642     2.478999
      2.471355     2.463712     2.456069     2.448426     2.440783     2.433139     2.425496     2.417853     2.410210     2.402566
      2.394923     2.387280     2.379637     2.371994     2.364350     2.356707     2.349064     2.341421     2.333777     2.326134
      2.318491     2.310848     2.303205     2.295561     2.287918     2.280275     2.272632     2.264988     2.257345     2.249702
      2.242059     2.234416     2.226772     2.219129     2.211486     2.203843     2.196199     2.188556     2.180913     2.173270
      2.165627     2.157983     2.150340     2.142697     2.135054     2.127410     2.119767     2.112124     2.104481     2.096838
      2.089194     2.081551     2.073908     2.066265     2.058621     2.050978     2.043335     2.035692     2.028049     2.020405
      2.012762     2.005119     1.997476     1.989833     1.982190     1.974546     1.966903     1.959260     1.951617     1.943974
      1.936331     1.928688     1.921045     1.913402     1.905759     1.898115     1.890472     1.882829     1.875186     1.867543
      1.859900     1.852257     1.844614     1.836971     1.829327     1.821684     1.814041     1.806398     1.798755     1.791112
      1.783469     1.775826     1.768183     1.760540     1.752896     1.745253     1.737610     1.729967     1.722324     1.714681
      1.707038     1.699395     1.691752     1.684108     1.676465     1.668822     1.661179     1.653536     1.645893     1.638250
      1.630607     1.622964     1.615321     1.607677     1.600034     1.592391     1.584748     1.577105     1.569462     1.561819
      1.554176     1.546533     1.538890     1.531246     1.523603     1.515960     1.508317     1.500674     1.493031     1.485388
      1.477745     1.470102     1.462458     1.454815     1.447172     1.439529     1.431886     1.424243     1.416600     1.408957
      1.401314     1.393671     1.386027     1.378384     1.370741     1.363098     1.355455     1.347812     1.340169     1.332526
      1.324883     1.317240     1.309596     1.301953     1.294310     1.286667     1.279024     1.271381     1.263738     1.256095
      1.248452     1.240808     1.233165     1.225522     1.217879     1.210236     1.202593     1.194950     1.187307     1.179664
      1.172021     1.164377     1.156734     1.149091     1.141448     1.133805     1.126162     1.118519     1.110876     1.103233
      1.095590     1.087946     1.080303     1.072660     1.065017     1.057374     1.049731     1.042088     1.034445     1.026802
      1.019158     1.011515     1.003872     0.996229     0.988586     0.980943     0.973300     0.965657     0.958014     0.950371
      0.942727     0.935084     0.927441     0.919798     0.912155     0.904512     0.896869     0.889226     0.881583     0.873940
      0.866296     0.858653     0.851010     0.843367     0.835724     0.828081     0.820438     0.812795     0.805152     0.797508
      0.789865     0.782222     0.774579     0.766936     0.759293     0.751650     0.744007     0.736364     0.728721     0.721077
      0.713434     0.705791     0.698148     0.690505     0.682862     0.675219     0.667576     0.659933     0.652290     0.644646
      0.637003     0.629360     0.621717     0.614074     0.606431     0.598788     0.591145     0.583502     0.575858     0.568215
      0.560572     0.552929     0.545286     0.537643     0.530000     0.522357     0.514714     0.507071     0.499427     0.491784
      0.484141     0.476498     0.468855     0.461212     0.453569     0.445925     0.438282     0.430639     0.422996     0.415353
      0.407710     0.400067     0.392424     0.384780     0.377137     0.369494     0.361851     0.354208     0.346565     0.338922
      0.331278     0.323635     0.315992     0.308349     0.300706     0.293063     0.285420     0.277777     0.270133     0.262490
      0.254847     0.247204     0.239561     0.231918     0.224275     0.216631     0.208988     0.201345
 NY phased data points follow
   1.77016E+00  8.25307E-01  1.69014E+00  3.30014E+00  4.03837E+00  4.01812E+00  5.97663E+00  9.27728E-01  6.73706E+00  7.18179E+00
   5.41074E-01  4.11523E+00  3.72626E-01  1.76433E+00  3.61856E-01  9.20172E-01  1.88413E+00  1.18469E+00  3.78887E+00  1.10873E+00
   2.41601E+00  4.41322E+00  8.93536E-01  3.52013E+00  1.05949E+00  1.53289E+00  1.19861E+00  3.47456E+00  3.47690E+00  6.91923E+00
   3.80692E+00  2.05467E+00  5.90482E+00  2.89241E+00  2.34010E+00  2.57090E+00  1.39965E+00  3.44740E+00  2.51191E+00 -1.43122E+00
   5.11424E+00  1.88469E+00  5.90739E-01  6.11250E+00  5.62498E-01  4.24945E+00  3.08551E+00  1.97838E+00  5.41416E+00  8.40434E-01
  -2.37097E+00  2.29174E+00  1.31335E+00  1.07594E+00  3.21824E-01 -1.84502E+00  2.57675E+00  2.65873E+00  3.36444E+00  5.84639E+00
  -4.16922E-01  1.61526E+00  3.48603E+00  2.72288E+00  1.60526E+00  2.84914E+00 -1.14993E+00 -4.52057E-01  1.06262E+00  2.37746E+00
   1.14294E+00 -6.43452E-01  4.40980E+00  1.89571E+00  6.17823E-01  2.54109E+00  3.50548E+00  2.72682E+00 -2.56577E-01  7.28430E-01
  -5.58876E-01  2.43662E+00  8.62734E-01 -3.79437E-02  2.04272E-01  4.24836E+00  1.38551E+00  1.01274E-01  2.50837E+00 -2.31658E+00
   9.29007E-01  3.68834E-01  2.62951E+00  1.33319E+00 -7.23008E-01  1.12760E-01 -1.54496E+00 -6.14765E-01 -1.88196E-01  3.67505E+00
   3.46058E+00  1.26825E+00  1.20622E+00  2.74284E+00  4.30822E+00 -1.92315E-01  1.35975E-01  1.75350E+00 -1.08130E+00  1.62225E+00
   8.33369E-01 -2.91282E+00 -8.38602E-01  4.15780E+00 -2.79349E+00  3.11859E-02 -9.34803E-01  2.61555E-01 -2.23544E+00 -3.31990E+00
  -1.06516E+00 -2.23118E+00 -1.19443E+00  2.08301E+00 -9.03198E-01  2.13997E+00  1.83561E+00 -1.13071E-01  1.87072E+00 -5.06785E+00
  -1.62996E+00 -3.37908E+00 -5.69444E+00 -3.65120E+00 -6.73702E-01  8.24222E-02 -7.89671E-01 -2.84984E+00 -2.11119E+00 -2.64535E+00
  -2.24349E+00 -1.37600E+00 -1.60846E+00 -4.05696E+00 -1.02225E+00 -2.48744E+00  2.95697E-02  8.03782E-01 -1.02732E+00  1.31535E+00
  -1.43403E+00 -2.63243E+00 -2.54245E+00  1.11099E+00 -4.17761E+00  3.11952E-01 -1.24188E+00 -2.62222E+00 -1.18917E-01 -1.33543E+00
  -2.91386E+00 -1.48578E+00 -2.70741E+00 -1.94528E+00 -2.86572E+00  1.29139E+00  5.45795E-01 -1.64310E+00  2.45703E-01 -1.92976E-02
  -2.37333E+00 -9.14886E-01 -1.53052E+00  1.81866E+00 -2.34660E+00 -2.05525E+00 -3.07018E+00  8.71679E-02 -1.70903E+00 -3.87086E+00
  -1.55457E+00 -2.57512E+00 -1.17713E+00 -3.31836E+00 -1.55677E+00 -2.53703E+00 -5.10762E-01 -3.43662E+00 -1.88120E+00 -4.59032E+00
  -5.49772E+00 -5.26945E+00 -3.93820E+00 -3.01552E+00 -3.88772E+00 -4.41736E+00 -5.37138E+00 -5.74114E+00 -8.72685E+00 -4.59795E+00
  -5.12356E+00 -4.26705E+00 -7.64665E+00 -5.35292E+00 -5.58843E+00 -6.31028E+00 -6.85814E+00 -5.70166E+00 -4.00892E+00 -5.65301E+00
  -5.41348E+00 -4.86690E+00 -1.71596E+00 -7.05640E+00 -5.64727E+00 -2.43241E+00 -9.52101E-01 -7.84515E+00 -4.99316E+00 -5.89406E+00
  -6.00395E+00 -3.57731E+00 -5.32683E+00 -2.38160E+00  2.42063E-01 -1.91468E+00  4.26782E-01 -1.98771E+00 -5.00005E-01 -4.13348E-01
  -1.57080E+00 -2.73625E+00 -6.88065E-01 -9.98135E-01 -1.66052E-01  8.15918E-01  3.47319E+00  7.51478E-01  6.86822E-01 -1.62539E+00
   1.71441E+00  2.93802E+00 -4.84058E-01  5.85530E-01  2.69188E+00  9.68960E-01  2.55062E-01  5.17948E-01  1.82896E+00 -6.41599E-01
   1.46092E+00  2.27128E+00  1.07576E+00 -1.32725E-01 -4.90532E-01  1.80581E+00  5.61371E+00  5.03199E+00  6.36220E+00  5.32372E+00
   2.57463E+00  1.55957E+00  4.65925E+00  1.97030E+00  4.03069E+00  1.90412E+00  3.54865E+00  5.27607E+00  2.91691E+00  2.41648E+00
   1.86228E+00  2.44621E+00  1.63685E+00  4.61195E+00  3.85461E+00  1.52733E+00  3.66264E+00  2.04258E+00  2.25939E+00  6.87408E+00
   2.95990E+00  4.18200E+00  3.07522E+00 -1.29561E+00  3.10024E+00  5.39548E+00  5.72560E-01  4.00235E+00  3.06041E-01  6.76688E+00
   2.72103E+00  4.04471E+00  3.16191E+00  6.14375E+00  1.33043E+00  2.60764E+00  2.02969E+00 -6.30625E-01  1.85341E+00  1.39012E+00
   4.40306E+00 -6.75349E-01  3.39308E+00  1.55921E+00  3.23137E+00  3.22739E+00  2.26540E+00 -5.07042E-01  4.87344E+00  6.59047E+00
   2.60651E+00  2.52328E-01  2.10647E+00  4.21953E+00  2.20752E+00  4.46889E+00  3.49549E+00  3.45676E+00  3.59284E+00  3.25073E+00
   1.90635E+00  5.98200E+00  5.07341E+00  4.85171E+00  1.90096E+00  3.40616E+00  5.97433E+00  2.73997E+00  2.17171E+00  4.58066E+00
   6.14226E+00  1.70159E+00  5.30818E+00  6.07171E+00  5.72103E+00  6.25414E+00  3.98656E+00  7.05355E+00  3.89493E+00  2.38330E+00
   1.29341E+00 -5.90338E-01  1.74558E+00  2.91575E+00  3.49817E+00  4.76713E+00  5.74571E+00  2.54033E+00  6.41371E+00  3.44460E+00
   3.52871E+00  1.80670E+00  1.72296E-01  2.57567E+00  2.97380E+00  1.39479E+00  9.99104E-01 -7.22934E-01 -1.43739E+00  2.08025E+00
   2.19065E+00  3.85540E+00  4.52517E+00  2.08339E+00  7.16002E-01  3.37989E+00  1.02065E+00  3.04716E+00 -2.71209E+00  5.59640E-01
   7.33392E-01  1.14329E+00 -5.47790E-01 -7.66387E-01  1.45891E+00  9.49770E-02  5.00561E-01  1.38867E+00  1.33854E-01 -9.88981E-01
   1.41466E+00  2.21811E+00  4.78287E+00 -3.82189E-01  2.24282E+00  6.82434E-01  2.30693E+00  9.02934E-02  9.53642E-02 -8.64719E-01
   3.91312E-02  2.11571E+00  5.22574E+00  2.44666E+00  2.25202E+00  1.45185E+00  1.35082E+00  4.48034E+00  4.72378E+00 -5.83667E-01
   9.92849E-01  2.84589E+00 -1.48850E+00  3.19674E-01  3.30479E+00  8.45617E-01  2.87708E+00  1.17804E+00  1.64503E-02 -3.25951E-01
  -1.94672E+00  2.35529E+00  1.73321E+00  1.74653E+00 -2.07798E+00 -6.40544E-01  9.16044E-01  3.24702E+00  1.97139E+00  6.26799E-01
   2.26208E+00  5.66133E-03 -2.49973E-01 -1.47035E+00 -2.20710E-01 -9.59501E-01 -1.54103E+00  5.01664E-01  4.24921E-01 -8.70515E-01
  -8.56001E-01 -2.46884E-01 -1.18082E+00 -8.23633E-01 -1.33686E+00  2.00981E+00 -4.14005E-01 -4.39422E-01  3.34670E+00  2.97795E+00
   2.33057E+00  5.51079E-01  3.51900E-01  1.88497E+00  2.20191E+00  8.63788E-01  3.46147E+00 -7.97451E-02  1.13008E-01  2.04268E+00
   4.76193E-02 -1.79340E+00  1.03582E+00  1.97503E+00  3.92931E+00 -5.99170E-01  4.99371E-01 -1.07948E+00 -1.30416E+00  2.47091E-02
  -1.16922E+00  2.00350E+00  3.43770E-01  2.61327E+00  9.93708E-01  8.43387E-01 -4.22965E-01 -5.24595E-02 -1.94262E+00 -1.77033E+00
  -3.22176E-01 -8.53491E-01  1.97357E+00 -1.27366E+00  1.83776E+00  5.72154E-01  1.66238E+00 -2.35045E+00  1.90882E+00 -6.95683E-01
  -8.79139E-01  2.29301E+00  3.57868E+00  6.79833E-01  2.14042E+00 -2.15436E+00  1.86786E+00  2.33772E+00 -3.25628E-01  3.20932E-01
   8.55348E-01  1.65911E+00 -1.58258E+00  2.81746E+00  3.11899E+00  1.59822E+00 -1.16145E+00  1.16469E+00
 NY points of the fit to the data follow
   2.84327E+00  2.66481E+00  2.47345E+00  2.36234E+00  2.41487E+00  2.50088E+00  2.48054E+00  2.41720E+00  2.39875E+00  2.38431E+00
   2.33098E+00  2.29220E+00  2.28877E+00  2.21780E+00  2.11030E+00  2.04294E+00  2.04572E+00  2.09971E+00  2.23123E+00  2.54924E+00
   3.11490E+00  3.37899E+00  2.76104E+00  1.65090E+00  8.49263E-01  4.44352E-01  2.97760E-01  1.14149E+00  2.71035E+00  3.74613E+00
   3.59586E+00  2.97984E+00  2.52169E+00  2.04237E+00  1.89690E+00  2.34299E+00  2.70872E+00  2.49685E+00  1.92972E+00  1.46337E+00
   1.06401E+00  9.05884E-01  1.59970E+00  3.02254E+00  4.02240E+00  4.00960E+00  3.60581E+00  3.37049E+00  3.13982E+00  2.78329E+00
   2.55182E+00  2.51808E+00  2.33277E+00  1.79996E+00  1.36742E+00  1.40650E+00  1.66777E+00  1.86478E+00  1.88406E+00  1.80789E+00
   1.66342E+00  1.46748E+00  1.35505E+00  1.34243E+00  1.36089E+00  1.29609E+00  1.16067E+00  1.17212E+00  1.24951E+00  1.26568E+00
   1.24464E+00  1.28617E+00  1.34493E+00  1.30754E+00  1.22774E+00  1.18009E+00  1.12928E+00  1.03772E+00  9.23115E-01  8.43629E-01
   7.97291E-01  7.51470E-01  5.55723E-01  1.94830E-01 -1.86616E-01 -4.23636E-01 -5.39737E-01 -6.19768E-01 -6.59056E-01 -6.27084E-01
  -6.07780E-01 -5.93240E-01 -5.70983E-01 -6.00882E-01 -6.84628E-01 -7.83701E-01 -8.77864E-01 -7.44811E-01  4.88681E-01  1.92115E+00
   2.20881E+00  1.80743E+00  1.64850E+00  1.72063E+00  1.50958E+00  1.25609E+00  1.34960E+00  1.36239E+00  9.34610E-01  2.74148E-01
  -1.47744E-01 -3.12510E-01 -4.04644E-01 -4.67246E-01 -5.19342E-01 -5.67094E-01 -6.07267E-01 -6.35451E-01 -6.61938E-01 -6.89548E-01
  -7.04038E-01 -6.37683E-01 -3.80555E-01 -1.65258E-01 -1.43968E-01 -1.91894E-01 -1.79326E-01 -1.57545E-01 -1.91838E-01 -2.11126E-01
  -2.00229E-01 -2.49745E-01 -3.78596E-01 -5.28310E-01 -6.20156E-01 -6.65127E-01 -6.93884E-01 -7.20897E-01 -7.62431E-01 -8.09918E-01
  -8.53161E-01 -8.87238E-01 -9.20109E-01 -9.61121E-01 -1.00625E+00 -1.05470E+00 -1.10936E+00 -1.16783E+00 -1.22465E+00 -1.27667E+00
  -1.32979E+00 -1.38303E+00 -1.43168E+00 -1.47545E+00 -1.51772E+00 -1.56630E+00 -1.63731E+00 -1.71575E+00 -1.76590E+00 -1.78836E+00
  -1.79243E+00 -1.80654E+00 -1.84322E+00 -1.88450E+00 -1.92047E+00 -1.95167E+00 -1.98171E+00 -2.00232E+00 -2.01546E+00 -2.03879E+00
  -2.07783E+00 -2.13635E+00 -2.19836E+00 -2.21681E+00 -2.20747E+00 -2.21118E+00 -2.24994E+00 -2.29057E+00 -2.29605E+00 -2.28506E+00
  -2.28040E+00 -2.28821E+00 -2.30117E+00 -2.29870E+00 -2.27180E+00 -2.23261E+00 -2.18785E+00 -2.13529E+00 -2.12939E+00 -2.27668E+00
  -2.44464E+00 -2.67198E+00 -2.91279E+00 -3.05983E+00 -3.10087E+00 -3.04694E+00 -2.71950E+00 -2.07868E+00 -1.46409E+00 -1.11307E+00
  -6.40262E-01 -1.99867E-01 -3.05374E-01 -7.72245E-01 -1.72765E+00 -3.44364E+00 -4.60127E+00 -4.41083E+00 -3.71964E+00 -3.23218E+00
  -2.16626E+00 -4.43807E-01  1.58869E-01 -3.21457E-01 -5.08173E-01 -1.86864E-01 -6.10866E-01 -2.14105E+00 -3.11147E+00 -2.75372E+00
  -2.35392E+00 -2.54506E+00 -2.58287E+00 -2.04485E+00 -1.51541E+00 -1.29216E+00 -1.01192E+00 -4.14490E-01  2.15041E-01  5.28825E-01
   3.27615E-01 -3.55855E-01 -7.02041E-01 -3.83791E-01  7.98478E-02  3.26214E-01  8.42637E-01  1.17989E+00  7.61836E-01  3.38008E-01
   4.53154E-01  6.00478E-01  5.36635E-01  5.85824E-01  6.54921E-01  3.82221E-01  1.43414E-01  4.32380E-01  1.07695E+00  1.57383E+00
   1.89713E+00  2.17319E+00  2.19793E+00  1.97257E+00  1.96685E+00  2.89697E+00  4.45305E+00  5.06387E+00  4.76957E+00  4.49889E+00
   4.33186E+00  3.99505E+00  3.62581E+00  3.58262E+00  3.56434E+00  3.12426E+00  2.39361E+00  1.76309E+00  1.47441E+00  1.37510E+00
   1.31711E+00  1.25467E+00  1.18542E+00  1.13188E+00  1.05906E+00  9.61343E-01  8.97191E-01  8.70821E-01  8.27570E-01  7.51072E-01
   6.77686E-01  6.32359E-01  5.99540E-01  5.66634E-01  5.52034E-01  5.65896E-01  5.94323E-01  6.23992E-01  6.61221E-01  7.09069E-01
   7.62682E-01  8.20043E-01  8.84219E-01  9.54376E-01  1.02597E+00  1.09627E+00  1.16469E+00  1.23034E+00  1.29157E+00  1.34501E+00
   1.38898E+00  1.42368E+00  1.44929E+00  1.46523E+00  1.47203E+00  1.47199E+00  1.46716E+00  1.45894E+00  1.44976E+00  1.44301E+00
   1.44217E+00  1.45017E+00  1.47008E+00  1.50502E+00  1.55801E+00  1.63221E+00  1.73122E+00  1.85985E+00  2.02588E+00  2.24530E+00
   2.56103E+00  3.08918E+00  3.63114E+00  3.43187E+00  2.83554E+00  2.50291E+00  2.42939E+00  2.21507E+00  1.82692E+00  1.70082E+00
   2.30422E+00  2.91742E+00  3.02699E+00  2.97492E+00  3.20461E+00  3.48013E+00  3.50518E+00  3.45487E+00  3.55702E+00  3.61008E+00
   3.41460E+00  3.02831E+00  2.70246E+00  2.46875E+00  2.28110E+00  2.12427E+00  1.99351E+00  1.88697E+00  1.80349E+00  1.74156E+00
   1.69891E+00  1.67232E+00  1.65777E+00  1.65074E+00  1.64679E+00  1.64201E+00  1.63346E+00  1.61948E+00  1.59969E+00  1.57494E+00
   1.54693E+00  1.51777E+00  1.48957E+00  1.46405E+00  1.44238E+00  1.42517E+00  1.41258E+00  1.40442E+00  1.40035E+00  1.40004E+00
   1.40332E+00  1.41021E+00  1.42102E+00  1.43621E+00  1.45638E+00  1.48224E+00  1.51454E+00  1.55402E+00  1.60139E+00  1.65722E+00
   1.72193E+00  1.79576E+00  1.87875E+00  1.97076E+00  2.07136E+00  2.17984E+00  2.29517E+00  2.41607E+00  2.54096E+00  2.66799E+00
   2.79506E+00  2.91981E+00  3.03974E+00  3.15226E+00  3.25478E+00  3.34476E+00  3.41983E+00  3.47786E+00  3.51704E+00  3.53602E+00
   3.53391E+00  3.51035E+00  3.46548E+00  3.39998E+00  3.31504E+00  3.21231E+00  3.09384E+00  2.96195E+00  2.81913E+00  2.66801E+00
   2.51124E+00  2.35138E+00  2.19085E+00  2.03185E+00  1.87629E+00  1.72580E+00  1.58173E+00  1.44512E+00  1.31671E+00  1.19695E+00
   1.08605E+00  9.84029E-01  8.90743E-01  8.05913E-01  7.29139E-01  6.59942E-01  5.97809E-01  5.42216E-01  4.92645E-01  4.48573E-01
   4.09485E-01  3.74891E-01  3.44351E-01  3.17469E-01  2.93883E-01  2.73252E-01  2.55262E-01  2.39636E-01  2.26136E-01  2.14552E-01
   2.04698E-01  1.96400E-01  1.89495E-01  1.83838E-01  1.79318E-01  1.75842E-01  1.73318E-01  1.71646E-01  1.70738E-01  1.70532E-01
   1.70980E-01  1.72036E-01  1.73645E-01  1.75747E-01  1.78296E-01  1.81263E-01  1.84635E-01  1.88383E-01  1.92470E-01  1.96864E-01
   2.01547E-01  2.06503E-01  2.11724E-01  2.17189E-01  2.22874E-01  2.28756E-01  2.34832E-01  2.41097E-01  2.47547E-01  2.54166E-01
   2.60934E-01  2.67837E-01  2.74877E-01  2.82059E-01  2.89377E-01  2.96813E-01  3.04353E-01  3.11994E-01  3.19745E-01  3.27606E-01
   3.35571E-01  3.43626E-01  3.51762E-01  3.59983E-01  3.68300E-01  3.76715E-01  3.85221E-01  3.93803E-01  4.02463E-01  4.11213E-01
   4.20064E-01  4.29017E-01  4.38066E-01  4.47206E-01  4.56448E-01  4.65810E-01  4.75311E-01  4.84957E-01
 NY background values follow
     2.468E+00    2.441E+00    2.414E+00    2.387E+00    2.359E+00    2.332E+00    2.305E+00    2.277E+00    2.250E+00    2.222E+00
     2.194E+00    2.167E+00    2.139E+00    2.111E+00    2.083E+00    2.055E+00    2.027E+00    1.999E+00    1.971E+00    1.943E+00
     1.915E+00    1.886E+00    1.858E+00    1.830E+00    1.801E+00    1.773E+00    1.744E+00    1.716E+00    1.687E+00    1.659E+00
     1.630E+00    1.601E+00    1.572E+00    1.544E+00    1.515E+00    1.486E+00    1.457E+00    1.428E+00    1.399E+00    1.370E+00
     1.341E+00    1.312E+00    1.283E+00    1.254E+00    1.225E+00    1.196E+00    1.167E+00    1.137E+00    1.108E+00    1.079E+00
     1.050E+00    1.020E+00    9.912E-01    9.620E-01    9.327E-01    9.034E-01    8.742E-01    8.449E-01    8.156E-01    7.864E-01
     7.571E-01    7.279E-01    6.987E-01    6.694E-01    6.402E-01    6.110E-01    5.819E-01    5.527E-01    5.236E-01    4.945E-01
     4.654E-01    4.364E-01    4.073E-01    3.784E-01    3.494E-01    3.205E-01    2.916E-01    2.628E-01    2.340E-01    2.053E-01
     1.766E-01    1.480E-01    1.194E-01    9.086E-02    6.238E-02    3.397E-02    5.612E-03   -2.268E-02   -5.091E-02   -7.907E-02
    -1.072E-01   -1.352E-01   -1.631E-01   -1.910E-01   -2.188E-01   -2.465E-01   -2.741E-01   -3.016E-01   -3.290E-01   -3.563E-01
    -3.835E-01   -4.106E-01   -4.376E-01   -4.645E-01   -4.912E-01   -5.179E-01   -5.444E-01   -5.707E-01   -5.969E-01   -6.230E-01
    -6.490E-01   -6.748E-01   -7.004E-01   -7.259E-01   -7.512E-01   -7.764E-01   -8.014E-01   -8.262E-01   -8.509E-01   -8.753E-01
    -8.996E-01   -9.237E-01   -9.476E-01   -9.713E-01   -9.948E-01   -1.018E+00   -1.041E+00   -1.064E+00   -1.087E+00   -1.109E+00
    -1.132E+00   -1.154E+00   -1.175E+00   -1.197E+00   -1.218E+00   -1.239E+00   -1.260E+00   -1.281E+00   -1.301E+00   -1.321E+00
    -1.341E+00   -1.360E+00   -1.379E+00   -1.398E+00   -1.417E+00   -1.436E+00   -1.454E+00   -1.472E+00   -1.489E+00   -1.507E+00
    -1.524E+00   -1.540E+00   -1.557E+00   -1.573E+00   -1.589E+00   -1.604E+00   -1.619E+00   -1.634E+00   -1.649E+00   -1.663E+00
    -1.677E+00   -1.690E+00   -1.704E+00   -1.716E+00   -1.729E+00   -1.741E+00   -1.753E+00   -1.765E+00   -1.776E+00   -1.787E+00
    -1.797E+00   -1.807E+00   -1.817E+00   -1.826E+00   -1.835E+00   -1.844E+00   -1.852E+00   -1.860E+00   -1.867E+00   -1.874E+00
    -1.881E+00   -1.887E+00   -1.893E+00   -1.899E+00   -1.904E+00   -1.909E+00   -1.913E+00   -1.917E+00   -1.921E+00   -1.924E+00
    -1.926E+00   -1.929E+00   -1.931E+00   -1.932E+00   -1.934E+00   -1.934E+00   -1.935E+00   -1.935E+00   -1.935E+00   -1.934E+00
    -1.933E+00   -1.931E+00   -1.929E+00   -1.927E+00   -1.924E+00   -1.921E+00   -1.918E+00   -1.914E+00   -1.910E+00   -1.906E+00
    -1.901E+00   -1.895E+00   -1.890E+00   -1.884E+00   -1.877E+00   -1.870E+00   -1.863E+00   -1.856E+00   -1.848E+00   -1.840E+00
    -1.831E+00   -1.822E+00   -1.813E+00   -1.803E+00   -1.793E+00   -1.782E+00   -1.772E+00   -1.760E+00   -1.749E+00   -1.737E+00
    -1.725E+00   -1.712E+00   -1.699E+00   -1.686E+00   -1.673E+00   -1.659E+00   -1.645E+00   -1.631E+00   -1.616E+00   -1.602E+00
    -1.587E+00   -1.571E+00   -1.556E+00   -1.540E+00   -1.525E+00   -1.509E+00   -1.492E+00   -1.476E+00   -1.460E+00   -1.443E+00
    -1.426E+00   -1.409E+00   -1.392E+00   -1.375E+00   -1.358E+00   -1.340E+00   -1.323E+00   -1.306E+00   -1.288E+00   -1.271E+00
    -1.253E+00   -1.235E+00   -1.218E+00   -1.200E+00   -1.183E+00   -1.165E+00   -1.147E+00   -1.130E+00   -1.112E+00   -1.095E+00
    -1.077E+00   -1.060E+00   -1.043E+00   -1.026E+00   -1.009E+00   -9.918E-01   -9.750E-01   -9.582E-01   -9.416E-01   -9.251E-01
    -9.087E-01   -8.924E-01   -8.763E-01   -8.602E-01   -8.443E-01   -8.285E-01   -8.129E-01   -7.974E-01   -7.820E-01   -7.668E-01
    -7.518E-01   -7.369E-01   -7.221E-01   -7.075E-01   -6.931E-01   -6.788E-01   -6.648E-01   -6.509E-01   -6.371E-01   -6.236E-01
    -6.102E-01   -5.970E-01   -5.840E-01   -5.713E-01   -5.587E-01   -5.463E-01   -5.341E-01   -5.221E-01   -5.104E-01   -4.988E-01
    -4.875E-01   -4.764E-01   -4.656E-01   -4.549E-01   -4.445E-01   -4.343E-01   -4.244E-01   -4.147E-01   -4.053E-01   -3.961E-01
    -3.871E-01   -3.784E-01   -3.699E-01   -3.616E-01   -3.535E-01   -3.457E-01   -3.380E-01   -3.305E-01   -3.233E-01   -3.162E-01
    -3.094E-01   -3.027E-01   -2.962E-01   -2.899E-01   -2.837E-01   -2.777E-01   -2.719E-01   -2.663E-01   -2.608E-01   -2.554E-01
    -2.502E-01   -2.452E-01   -2.403E-01   -2.355E-01   -2.308E-01   -2.263E-01   -2.219E-01   -2.176E-01   -2.134E-01   -2.094E-01
    -2.054E-01   -2.016E-01   -1.978E-01   -1.941E-01   -1.905E-01   -1.870E-01   -1.836E-01   -1.802E-01   -1.769E-01   -1.737E-01
    -1.706E-01   -1.675E-01   -1.644E-01   -1.614E-01   -1.584E-01   -1.555E-01   -1.526E-01   -1.498E-01   -1.469E-01   -1.441E-01
    -1.414E-01   -1.386E-01   -1.358E-01   -1.331E-01   -1.303E-01   -1.276E-01   -1.248E-01   -1.221E-01   -1.193E-01   -1.165E-01
    -1.137E-01   -1.108E-01   -1.080E-01   -1.051E-01   -1.021E-01   -9.914E-02   -9.611E-02   -9.304E-02   -8.991E-02   -8.672E-02
    -8.347E-02   -8.016E-02   -7.677E-02   -7.332E-02   -6.978E-02   -6.617E-02   -6.247E-02   -5.868E-02   -5.479E-02   -5.081E-02
    -4.673E-02   -4.255E-02   -3.825E-02   -3.384E-02   -2.932E-02   -2.467E-02   -1.990E-02   -1.501E-02   -9.977E-03   -4.821E-03
     4.600E-04    5.864E-03    1.139E-02    1.703E-02    2.279E-02    2.866E-02    3.464E-02    4.073E-02    4.693E-02    5.323E-02
     5.964E-02    6.614E-02    7.273E-02    7.943E-02    8.621E-02    9.308E-02    1.000E-01    1.071E-01    1.142E-01    1.214E-01
     1.287E-01    1.361E-01    1.435E-01    1.510E-01    1.586E-01    1.662E-01    1.739E-01    1.817E-01    1.895E-01    1.974E-01
     2.053E-01    2.133E-01    2.213E-01    2.294E-01    2.375E-01    2.457E-01    2.539E-01    2.621E-01    2.704E-01    2.787E-01
     2.870E-01    2.954E-01    3.038E-01    3.122E-01    3.206E-01    3.291E-01    3.376E-01    3.461E-01    3.546E-01    3.631E-01
     3.717E-01    3.803E-01    3.889E-01    3.975E-01    4.061E-01    4.147E-01    4.234E-01    4.320E-01    4.407E-01    4.494E-01
     4.580E-01    4.667E-01    4.754E-01    4.841E-01    4.929E-01    5.016E-01    5.103E-01    5.190E-01    5.277E-01    5.365E-01
     5.452E-01    5.539E-01    5.626E-01    5.713E-01    5.801E-01    5.888E-01    5.975E-01    6.062E-01    6.149E-01    6.235E-01
     6.322E-01    6.409E-01    6.496E-01    6.582E-01    6.668E-01    6.755E-01    6.841E-01    6.927E-01
 Ala      Conc. = 1.15E+02
