 LCModel (Version 6.3-1L) Copyright: S.W. Provencher.          Ref.: Magn. Reson. Med. 30:672-679 (1993).                
 Slice#2 Row#2 Col#2  K_02_press_1_raw_act
 36 lines in following concentration table = NCONC+1
    Conc.  %SD /Cr+PCr  Metabolite                                         
    0.000 999%   0.000 Ala                                                 
    0.000 999%   0.000 Asp                                                 
    0.000 999%   0.000 Cr                                                  
  109.100  73%   1.000 PCr                                                 
   28.484 166%   0.261 GABA                                                
   33.340 142%   0.306 Glc                                                 
 5.40E+03  13%  49.532 Gln                                                 
 1.25E+03  72%  11.473 Glu                                                 
  127.275  26%   1.167 GPC                                                 
    0.000 999%   0.000 PCh                                                 
    0.000 999%   0.000 GSH                                                 
 1.29E+03  29%  11.809 Ins                                                 
 8.11E+03  11%  74.329 Lac                                                 
  174.455  73%   1.599 NAA                                                 
    0.000 999%   0.000 NAAG                                                
   30.077  49%   0.276 Scyllo                                              
  114.561  66%   1.050 Tau                                                 
    0.000 999%   0.000 -CrCH2                                              
  127.275  26%   1.167 GPC+PCh                                             
  174.455  73%   1.599 NAA+NAAG                                            
  109.100  73%   1.000 Cr+PCr                                              
 6.66E+03  19%  61.005 Glu+Gln                                             
    0.000 999%   0.000 Lip13a                                              
 1.28E+03  35%  11.709 Lip13b                                              
    0.000 999%   0.000 Lip09                                               
 2.75E+03   8%  25.191 MM09                                                
  273.829  50%   2.510 Lip20                                               
 4.12E+03   8%  37.790 MM20                                                
  824.505   8%   7.557 MM12                                                
 2.06E+03   8%  18.902 MM14                                                
 1.03E+03   8%   9.449 MM17                                                
 1.28E+03  35%  11.709 Lip13a+Lip13b                                       
 4.16E+03  12%  38.169 MM14+Lip13a+Lip13b+MM12                             
 2.75E+03   8%  25.191 MM09+Lip09                                          
 4.40E+03   8%  40.299 MM20+Lip20                                          
   6 lines in following misc. output table
  FWHM = 0.168 ppm    S/N =   7                                            
  Data shift = 0.046 ppm                                                   
  Ph:-160 deg      24.9 deg/ppm                                            
  alphaB,S = 1.8E+00,   3.9E+02                                            
    8 spline knots.   Ns = 9(2)                                            
  (13) 4 infls.   ( 3) 1 extrs.                                            
  498 points on ppm-axis = NY
      4.000000     3.992357     3.984714     3.977070     3.969427     3.961784     3.954141     3.946497     3.938854     3.931211
      3.923568     3.915925     3.908281     3.900638     3.892995     3.885352     3.877708     3.870065     3.862422     3.854779
      3.847136     3.839492     3.831849     3.824206     3.816563     3.808919     3.801276     3.793633     3.785990     3.778347
      3.770703     3.763060     3.755417     3.747774     3.740130     3.732487     3.724844     3.717201     3.709558     3.701914
      3.694271     3.686628     3.678985     3.671341     3.663698     3.656055     3.648412     3.640769     3.633125     3.625482
      3.617839     3.610196     3.602552     3.594909     3.587266     3.579623     3.571980     3.564336     3.556693     3.549050
      3.541407     3.533763     3.526120     3.518477     3.510834     3.503191     3.495547     3.487904     3.480261     3.472618
      3.464974     3.457331     3.449688     3.442045     3.434402     3.426758     3.419115     3.411472     3.403829     3.396185
      3.388542     3.380899     3.373256     3.365613     3.357969     3.350326     3.342683     3.335040     3.327396     3.319753
      3.312110     3.304467     3.296824     3.289180     3.281537     3.273894     3.266251     3.258607     3.250964     3.243321
      3.235678     3.228034     3.220391     3.212748     3.205105     3.197462     3.189818     3.182175     3.174532     3.166889
      3.159245     3.151602     3.143959     3.136316     3.128673     3.121029     3.113386     3.105743     3.098100     3.090456
      3.082813     3.075170     3.067527     3.059884     3.052240     3.044597     3.036954     3.029311     3.021667     3.014024
      3.006381     2.998738     2.991095     2.983451     2.975808     2.968165     2.960522     2.952878     2.945235     2.937592
      2.929949     2.922306     2.914662     2.907019     2.899376     2.891733     2.884089     2.876446     2.868803     2.861160
      2.853517     2.845873     2.838230     2.830587     2.822944     2.815300     2.807657     2.800014     2.792371     2.784728
      2.777084     2.769441     2.761798     2.754155     2.746511     2.738868     2.731225     2.723582     2.715939     2.708295
      2.700652     2.693009     2.685366     2.677722     2.670079     2.662436     2.654793     2.647150     2.639506     2.631863
      2.624220     2.616577     2.608933     2.601290     2.593647     2.586004     2.578361     2.570717     2.563074     2.555431
      2.547788     2.540144     2.532501     2.524858     2.517215     2.509572     2.501928     2.494285     2.486642     2.478999
      2.471355     2.463712     2.456069     2.448426     2.440783     2.433139     2.425496     2.417853     2.410210     2.402566
      2.394923     2.387280     2.379637     2.371994     2.364350     2.356707     2.349064     2.341421     2.333777     2.326134
      2.318491     2.310848     2.303205     2.295561     2.287918     2.280275     2.272632     2.264988     2.257345     2.249702
      2.242059     2.234416     2.226772     2.219129     2.211486     2.203843     2.196199     2.188556     2.180913     2.173270
      2.165627     2.157983     2.150340     2.142697     2.135054     2.127410     2.119767     2.112124     2.104481     2.096838
      2.089194     2.081551     2.073908     2.066265     2.058621     2.050978     2.043335     2.035692     2.028049     2.020405
      2.012762     2.005119     1.997476     1.989833     1.982190     1.974546     1.966903     1.959260     1.951617     1.943974
      1.936331     1.928688     1.921045     1.913402     1.905759     1.898115     1.890472     1.882829     1.875186     1.867543
      1.859900     1.852257     1.844614     1.836971     1.829327     1.821684     1.814041     1.806398     1.798755     1.791112
      1.783469     1.775826     1.768183     1.760540     1.752896     1.745253     1.737610     1.729967     1.722324     1.714681
      1.707038     1.699395     1.691752     1.684108     1.676465     1.668822     1.661179     1.653536     1.645893     1.638250
      1.630607     1.622964     1.615321     1.607677     1.600034     1.592391     1.584748     1.577105     1.569462     1.561819
      1.554176     1.546533     1.538890     1.531246     1.523603     1.515960     1.508317     1.500674     1.493031     1.485388
      1.477745     1.470102     1.462458     1.454815     1.447172     1.439529     1.431886     1.424243     1.416600     1.408957
      1.401314     1.393671     1.386027     1.378384     1.370741     1.363098     1.355455     1.347812     1.340169     1.332526
      1.324883     1.317240     1.309596     1.301953     1.294310     1.286667     1.279024     1.271381     1.263738     1.256095
      1.248452     1.240808     1.233165     1.225522     1.217879     1.210236     1.202593     1.194950     1.187307     1.179664
      1.172021     1.164377     1.156734     1.149091     1.141448     1.133805     1.126162     1.118519     1.110876     1.103233
      1.095590     1.087946     1.080303     1.072660     1.065017     1.057374     1.049731     1.042088     1.034445     1.026802
      1.019158     1.011515     1.003872     0.996229     0.988586     0.980943     0.973300     0.965657     0.958014     0.950371
      0.942727     0.935084     0.927441     0.919798     0.912155     0.904512     0.896869     0.889226     0.881583     0.873940
      0.866296     0.858653     0.851010     0.843367     0.835724     0.828081     0.820438     0.812795     0.805152     0.797508
      0.789865     0.782222     0.774579     0.766936     0.759293     0.751650     0.744007     0.736364     0.728721     0.721077
      0.713434     0.705791     0.698148     0.690505     0.682862     0.675219     0.667576     0.659933     0.652290     0.644646
      0.637003     0.629360     0.621717     0.614074     0.606431     0.598788     0.591145     0.583502     0.575858     0.568215
      0.560572     0.552929     0.545286     0.537643     0.530000     0.522357     0.514714     0.507071     0.499427     0.491784
      0.484141     0.476498     0.468855     0.461212     0.453569     0.445925     0.438282     0.430639     0.422996     0.415353
      0.407710     0.400067     0.392424     0.384780     0.377137     0.369494     0.361851     0.354208     0.346565     0.338922
      0.331278     0.323635     0.315992     0.308349     0.300706     0.293063     0.285420     0.277777     0.270133     0.262490
      0.254847     0.247204     0.239561     0.231918     0.224275     0.216631     0.208988     0.201345
 NY phased data points follow
   6.52957E+00  4.24732E+00  8.62614E+00  7.65992E+00  4.99040E+00  4.91752E+00  9.01609E+00  7.81704E+00  5.44056E+00  7.41005E+00
   6.62653E+00  8.70245E+00  3.76710E+00  6.17498E+00  4.47815E+00  6.33018E+00  6.39689E+00  8.56568E+00  6.85008E+00  5.55224E+00
   3.45090E+00  7.94241E+00  3.32197E+00  1.51832E+00  4.85748E+00  3.09613E+00  1.64757E+00  4.64664E+00  6.37687E+00  5.26457E+00
   8.39781E+00  3.10881E+00  1.85123E+00  3.80551E+00  7.20127E-02  6.89667E+00  5.64743E+00  3.49244E+00  4.34620E+00  3.59396E+00
   3.23817E+00  5.80484E+00  2.87541E+00  3.79519E+00  1.15862E-01  4.95173E+00  2.05232E+00  3.06861E+00  2.28154E+00  1.42760E+00
   4.82912E+00  4.99407E+00 -2.06461E-01  2.83412E+00  5.22824E+00  2.35462E+00  5.59723E+00  1.36249E-01 -1.30267E-01  2.17937E+00
   4.65050E+00  5.22816E+00 -1.37551E+00  2.58784E+00 -7.82366E-02  2.83699E+00 -5.75949E-03  9.91817E-01  4.49142E-01  1.29548E+00
   3.89480E+00  2.64085E+00  2.11520E+00 -2.46573E+00  1.02391E+00 -9.08762E-01  3.84549E-01  1.48057E+00 -3.84610E-01  3.18934E+00
   1.43326E+00  1.28297E+00 -7.12253E-01  1.18027E+00  2.79680E-01 -2.28273E+00  1.01318E-01 -6.30538E-01 -2.62231E+00 -2.65460E-01
  -2.23553E+00 -5.54852E-01 -3.82910E+00  5.72484E-01 -1.56889E-02 -3.06263E+00 -1.32165E+00  4.72752E-01  4.37702E+00  1.72637E+00
  -3.83901E-01 -1.99121E+00 -1.08938E+00  2.22293E+00 -4.63201E+00 -3.21055E+00 -2.82889E+00 -5.66015E+00 -4.69250E+00 -5.84573E+00
  -3.06254E+00 -1.65343E+00 -1.36749E+00 -6.73792E+00 -1.54844E+00 -2.15971E+00 -5.19790E+00 -3.82279E+00 -5.07146E+00 -4.03108E+00
  -4.80100E+00 -2.45473E+00 -4.72387E+00  8.49359E-01 -1.99783E+00 -3.90803E-01 -5.40919E+00 -5.14710E+00 -7.82566E+00 -8.59103E+00
  -3.46402E+00 -5.73781E+00 -6.24790E+00 -4.64148E+00 -3.21141E+00 -4.53181E+00 -3.03523E+00  1.78006E-01 -2.29375E+00 -6.37476E+00
  -4.45762E+00 -7.50663E+00 -6.72302E+00 -6.66294E+00 -4.55074E+00 -5.92308E+00 -2.63271E+00 -5.06842E+00 -3.49374E+00 -6.84500E+00
  -3.95990E+00 -5.97874E+00 -5.89997E+00 -4.93371E+00 -8.42000E+00 -5.80703E+00 -8.92415E+00 -1.00215E+01 -9.99820E+00 -6.87541E+00
  -9.34144E+00 -7.62671E+00 -7.78623E+00 -7.43826E+00 -8.16933E+00 -1.02554E+01 -8.14715E+00 -6.88447E+00 -1.15715E+01 -1.26032E+01
  -1.00646E+01 -8.69446E+00 -1.11628E+01 -9.52038E+00 -9.74265E+00 -9.53386E+00 -1.15709E+01 -1.12539E+01 -1.18382E+01 -1.23086E+01
  -1.22584E+01 -1.09668E+01 -1.23993E+01 -1.60123E+01 -1.42523E+01 -1.42881E+01 -1.40023E+01 -1.07488E+01 -1.68748E+01 -1.36669E+01
  -1.58833E+01 -1.73509E+01 -1.44484E+01 -1.61686E+01 -1.67440E+01 -1.91441E+01 -1.86304E+01 -1.83819E+01 -1.20316E+01 -1.59701E+01
  -1.36395E+01 -1.16167E+01 -1.26381E+01 -1.24066E+01 -1.27153E+01 -1.16714E+01 -1.29573E+01 -1.25522E+01 -1.14712E+01 -1.03620E+01
  -9.58095E+00 -7.61305E+00 -7.46537E+00 -1.03265E+01 -9.83379E+00 -1.30591E+01 -9.84188E+00 -8.78079E+00 -6.11679E+00 -7.49604E+00
  -7.53143E+00 -7.14087E+00 -5.48452E+00 -4.18341E+00 -6.39830E+00 -6.85674E+00 -1.79604E+00 -4.46843E+00 -1.01981E+00 -4.69908E+00
   3.43007E+00  8.94945E-01  1.16508E+00  1.05545E+00  2.59628E-01  2.19412E+00  1.98879E+00  2.97452E+00  4.06381E+00  2.59812E+00
   5.69844E+00  6.29357E+00  3.22801E+00  5.10046E+00  2.74209E+00  5.22873E+00  2.56492E+00  2.01286E+00  4.50128E+00  3.02837E+00
   9.70953E+00  4.23794E+00  2.36914E+00  4.77509E+00  8.93262E+00  7.69361E+00  8.34888E+00  9.49686E+00  5.76973E+00  4.04075E+00
   2.51577E-01  1.40198E+00  5.29189E+00  2.36026E+00  4.49859E+00  4.59647E+00  5.28602E+00  3.93903E+00  5.93516E+00  2.68652E+00
   4.49861E+00  4.52808E+00  4.96022E+00  3.48091E+00  6.68146E+00  3.32154E+00  1.60997E+00  1.19484E+00  3.84691E+00  1.60567E+00
  -2.80900E+00 -2.67034E-01  6.52094E-01 -9.52663E-01  1.33772E+00 -1.40460E+00  1.47412E+00 -3.73045E-01  1.20270E+00  2.13023E+00
  -2.33117E+00 -4.26365E+00  2.74856E+00  4.35698E-01 -1.49957E+00  1.16658E-01 -5.25083E-01  1.79223E-01 -3.01606E+00 -3.02660E+00
  -1.73485E+00 -4.84076E+00 -4.12762E+00 -2.06490E+00 -1.02964E-01 -2.16728E+00 -4.63042E+00 -6.04407E+00 -3.31765E+00 -4.23880E+00
  -9.67886E+00 -8.32442E+00 -6.93482E+00 -5.82490E+00 -1.56631E+00 -3.60032E+00 -7.60079E+00 -4.92096E+00 -2.31007E+00 -1.20216E+00
  -2.78810E+00  4.53464E+00  2.55820E+00  4.87286E+00  7.55561E+00  1.02459E+01  1.35114E+01  1.64784E+01  1.95116E+01  1.93930E+01
   2.63414E+01  2.24939E+01  2.61399E+01  2.51603E+01  2.39912E+01  2.58811E+01  2.26732E+01  2.64827E+01  2.36316E+01  2.83371E+01
   2.92754E+01  2.88540E+01  3.56328E+01  3.06649E+01  3.38612E+01  3.31106E+01  3.32606E+01  3.03465E+01  3.14721E+01  2.61713E+01
   2.50586E+01  2.40561E+01  2.47103E+01  2.13996E+01  2.46760E+01  2.16260E+01  2.09124E+01  2.11559E+01  1.87252E+01  1.88175E+01
   1.86335E+01  2.09184E+01  1.87473E+01  1.81452E+01  1.15417E+01  1.57964E+01  1.72559E+01  1.54760E+01  1.29697E+01  1.51365E+01
   1.54139E+01  1.17183E+01  1.01821E+01  1.14916E+01  8.78365E+00  8.43325E+00  1.19659E+01  1.36441E+01  1.03216E+01  1.41476E+01
   1.03079E+01  1.24467E+01  1.25014E+01  8.12882E+00  1.05041E+01  7.92241E+00  8.56294E+00  8.13436E+00  5.78555E+00  6.77791E+00
   7.73697E+00  6.27891E+00  7.29485E+00  7.87571E+00  6.47253E+00  8.49798E+00  9.82130E-01  6.05559E+00  4.69311E+00  5.75765E+00
   5.20946E+00  4.31362E+00  7.39561E+00  3.31179E+00  6.68208E+00  5.68085E+00  3.46212E+00  4.14011E+00  4.77425E+00  2.66048E+00
   2.42570E+00  5.85964E+00  4.31444E+00  4.17240E+00  5.07178E+00  3.19130E+00  4.60894E+00  4.94639E+00  6.11754E+00  4.08811E+00
   5.91940E+00  3.19196E+00  5.58250E+00  1.37389E+00  4.75489E+00  2.46916E+00  3.94298E+00  4.01771E+00  2.17234E+00  2.89003E+00
   2.89638E+00  7.99885E-01  4.94638E+00  3.79466E+00  6.65231E+00  2.64721E+00  8.82163E+00  4.68247E+00  2.66535E+00  3.05419E+00
   3.03503E+00  2.77132E+00  1.56955E+00  1.79756E+00  1.16554E+00  2.64070E+00  3.28780E+00  3.71428E+00  2.47322E+00  3.45860E+00
   5.52812E+00  5.03786E+00  3.88943E+00  2.86689E+00  2.32766E+00  5.24470E-01  5.30448E+00  4.34318E-01  2.99841E+00  3.72938E+00
   3.60376E+00  2.50658E+00  2.41404E+00  1.50046E+00  4.41684E-01  4.85944E+00  4.62237E+00  1.74889E+00  4.86612E+00  2.23736E+00
   4.22397E+00  2.62244E+00  6.96985E+00  3.36544E+00  4.32418E+00  1.93637E+00  1.50544E+00  2.46232E+00  7.45195E-01  2.37584E+00
   2.52489E+00  7.04603E+00  4.59909E-01  2.62714E+00  5.06507E+00  4.46181E+00 -1.32908E-01  5.07285E+00  3.54253E-01  1.67708E+00
   5.67743E+00  4.33090E+00  4.23742E+00  3.58484E+00  6.48298E-01  1.75354E+00  1.11433E-01  1.69048E+00
 NY points of the fit to the data follow
   5.12177E+00  6.35428E+00  5.02546E+00  6.15624E+00  5.27817E+00  6.48698E+00  5.74366E+00  6.59111E+00  5.79588E+00  5.98074E+00
   5.13273E+00  4.79577E+00  4.09127E+00  4.08891E+00  4.28392E+00  4.58363E+00  5.13098E+00  5.31890E+00  5.75163E+00  5.51795E+00
   5.50615E+00  5.21796E+00  5.15490E+00  4.88422E+00  4.93452E+00  4.71271E+00  4.90075E+00  4.76976E+00  5.02920E+00  5.03779E+00
   5.32146E+00  5.51950E+00  5.57806E+00  5.81583E+00  5.58486E+00  5.88483E+00  5.44048E+00  5.78653E+00  5.21315E+00  5.59956E+00
   4.95472E+00  5.34932E+00  4.83053E+00  5.28795E+00  4.91228E+00  5.36546E+00  5.06034E+00  5.38377E+00  4.87433E+00  4.82081E+00
   4.20770E+00  3.95993E+00  3.43387E+00  3.20608E+00  3.11615E+00  2.97422E+00  2.87450E+00  2.64612E+00  2.45283E+00  2.11626E+00
   1.80581E+00  1.56435E+00  1.28088E+00  1.08264E+00  8.07752E-01  6.40129E-01  3.69790E-01  2.60591E-01  5.81256E-02  1.33533E-02
  -1.24322E-01 -1.27893E-01 -3.27918E-01 -3.82441E-01 -6.31798E-01 -7.18572E-01 -9.87735E-01 -1.09006E+00 -1.36868E+00 -1.46512E+00
  -1.75291E+00 -1.86065E+00 -2.13612E+00 -2.18056E+00 -2.21574E+00 -2.19123E+00 -2.21601E+00 -2.17882E+00 -2.27273E+00 -2.22028E+00
  -2.35072E+00 -2.25904E+00 -2.36951E+00 -2.22435E+00 -2.26597E+00 -2.04435E+00 -2.01935E+00 -1.74966E+00 -1.69441E+00 -1.43169E+00
  -1.43089E+00 -1.22255E+00 -1.33558E+00 -1.19939E+00 -1.41514E+00 -1.34380E+00 -1.63125E+00 -1.60615E+00 -1.89468E+00 -1.85133E+00
  -2.21604E+00 -2.17940E+00 -2.57242E+00 -2.52949E+00 -2.92094E+00 -2.85966E+00 -3.20439E+00 -3.10349E+00 -3.42560E+00 -3.27320E+00
  -3.57052E+00 -3.36487E+00 -3.62666E+00 -3.33994E+00 -3.45808E+00 -3.13770E+00 -3.32003E+00 -3.04398E+00 -3.29047E+00 -3.07926E+00
  -3.37983E+00 -3.24769E+00 -3.59104E+00 -3.54433E+00 -3.91297E+00 -3.94703E+00 -4.31880E+00 -4.41659E+00 -4.78038E+00 -4.93127E+00
  -5.27456E+00 -5.46162E+00 -5.78535E+00 -6.00889E+00 -6.30382E+00 -6.54706E+00 -6.79951E+00 -7.03531E+00 -7.22884E+00 -7.41415E+00
  -7.59073E+00 -7.76331E+00 -7.92873E+00 -8.09114E+00 -8.24542E+00 -8.39692E+00 -8.54106E+00 -8.68265E+00 -8.81947E+00 -8.95145E+00
  -9.07853E+00 -9.20159E+00 -9.31882E+00 -9.43750E+00 -9.54490E+00 -9.65610E+00 -9.75205E+00 -9.85296E+00 -9.94163E+00 -1.00326E+01
  -1.01054E+01 -1.01916E+01 -1.02491E+01 -1.03294E+01 -1.03696E+01 -1.04604E+01 -1.05855E+01 -1.07157E+01 -1.09865E+01 -1.12424E+01
  -1.15432E+01 -1.18673E+01 -1.20896E+01 -1.22444E+01 -1.21202E+01 -1.20622E+01 -1.17931E+01 -1.15404E+01 -1.12992E+01 -1.11910E+01
  -1.11897E+01 -1.15941E+01 -1.23731E+01 -1.29672E+01 -1.35028E+01 -1.38580E+01 -1.37826E+01 -1.37251E+01 -1.30658E+01 -1.29003E+01
  -1.20702E+01 -1.20925E+01 -1.13960E+01 -1.17997E+01 -1.13865E+01 -1.20629E+01 -1.16238E+01 -1.23255E+01 -1.15434E+01 -1.21052E+01
  -1.08609E+01 -1.12827E+01 -9.63694E+00 -1.00046E+01 -8.16911E+00 -8.50615E+00 -6.62832E+00 -7.08946E+00 -5.72651E+00 -6.25201E+00
  -5.07914E+00 -5.37322E+00 -4.08029E+00 -3.79273E+00 -2.40795E+00 -2.16908E+00 -9.04325E-01 -9.36883E-01 -5.17301E-02 -4.83692E-01
  -1.04826E-02 -8.19047E-01 -8.33542E-01 -1.47022E+00 -9.69772E-01 -1.31529E+00 -2.95465E-01 -5.45687E-01  8.74899E-01  2.88480E-01
   1.87979E+00  8.88244E-01  2.71478E+00  1.55408E+00  3.47543E+00  2.33631E+00  4.30934E+00  3.27793E+00  5.19915E+00  4.30150E+00
   6.03974E+00  5.27783E+00  6.79390E+00  6.06817E+00  7.27748E+00  6.56686E+00  7.40053E+00  6.59129E+00  6.83967E+00  6.08752E+00
   6.10855E+00  5.57674E+00  5.48230E+00  5.21848E+00  4.97681E+00  4.57977E+00  4.20079E+00  3.71622E+00  3.18801E+00  2.67005E+00
   2.14486E+00  1.67345E+00  1.21794E+00  9.39095E-01  6.50065E-01  5.43182E-01  3.68353E-01  3.67986E-01  2.55370E-01  2.75108E-01
   2.21087E-01  2.43215E-01  2.98324E-01  3.64142E-01  4.10194E-01  4.50965E-01  4.54176E-01  4.25850E-01  3.56993E-01  2.45851E-01
   8.81769E-02 -1.13074E-01 -3.57298E-01 -6.37019E-01 -9.47293E-01 -1.27200E+00 -1.61172E+00 -1.95149E+00 -2.28960E+00 -2.61226E+00
  -2.91974E+00 -3.20014E+00 -3.45493E+00 -3.67295E+00 -3.85615E+00 -3.99721E+00 -4.09720E+00 -4.15095E+00 -4.15814E+00 -4.11488E+00
  -4.01887E+00 -3.86572E+00 -3.65056E+00 -3.36924E+00 -3.01356E+00 -2.57815E+00 -2.05404E+00 -1.43459E+00 -7.10658E-01  1.24826E-01
   1.08055E+00  2.16325E+00  3.38120E+00  4.74303E+00  6.26267E+00  7.96396E+00  9.89538E+00  1.21714E+01  1.51229E+01  1.92029E+01
   2.15635E+01  2.42943E+01  2.54804E+01  2.61690E+01  2.63150E+01  2.51308E+01  2.45556E+01  2.49912E+01  2.54644E+01  2.71325E+01
   2.82443E+01  2.99395E+01  3.09003E+01  3.16948E+01  3.19502E+01  3.13937E+01  3.10279E+01  2.95026E+01  2.89244E+01  2.71368E+01
   2.66906E+01  2.51192E+01  2.49258E+01  2.33116E+01  2.32748E+01  2.14820E+01  2.16307E+01  1.99684E+01  2.02623E+01  1.87453E+01
   1.92536E+01  1.79079E+01  1.83514E+01  1.67305E+01  1.70800E+01  1.57007E+01  1.62114E+01  1.54031E+01  1.62569E+01  1.66641E+01
   1.68725E+01  1.60463E+01  1.55515E+01  1.38579E+01  1.28007E+01  1.06265E+01  9.33227E+00  8.58082E+00  8.10480E+00  7.80048E+00
   7.61573E+00  7.51972E+00  7.49184E+00  7.51724E+00  7.58415E+00  7.68275E+00  7.80432E+00  7.94111E+00  8.08605E+00  8.23270E+00
   8.37497E+00  8.50725E+00  8.62436E+00  8.72181E+00  8.79575E+00  8.84302E+00  8.86112E+00  8.84820E+00  8.80319E+00  8.72580E+00
   8.61652E+00  8.47644E+00  8.30722E+00  8.11101E+00  7.89043E+00  7.64851E+00  7.38850E+00  7.11381E+00  6.82779E+00  6.53380E+00
   6.23512E+00  5.93487E+00  5.63593E+00  5.34088E+00  5.05194E+00  4.77108E+00  4.49997E+00  4.23997E+00  3.99216E+00  3.75725E+00
   3.53576E+00  3.32795E+00  3.13397E+00  2.95377E+00  2.78715E+00  2.63373E+00  2.49313E+00  2.36485E+00  2.24844E+00  2.14332E+00
   2.04895E+00  1.96470E+00  1.89001E+00  1.82434E+00  1.76718E+00  1.71798E+00  1.67625E+00  1.64148E+00  1.61323E+00  1.59109E+00
   1.57470E+00  1.56365E+00  1.55758E+00  1.55615E+00  1.55907E+00  1.56609E+00  1.57693E+00  1.59135E+00  1.60907E+00  1.62992E+00
   1.65369E+00  1.68023E+00  1.70935E+00  1.74088E+00  1.77464E+00  1.81053E+00  1.84842E+00  1.88820E+00  1.92975E+00  1.97293E+00
   2.01766E+00  2.06385E+00  2.11145E+00  2.16034E+00  2.21046E+00  2.26169E+00  2.31402E+00  2.36735E+00  2.42168E+00  2.47689E+00
   2.53296E+00  2.58979E+00  2.64739E+00  2.70569E+00  2.76468E+00  2.82427E+00  2.88445E+00  2.94515E+00  3.00639E+00  3.06811E+00
   3.13030E+00  3.19289E+00  3.25588E+00  3.31923E+00  3.38294E+00  3.44699E+00  3.51135E+00  3.57599E+00  3.64091E+00  3.70609E+00
   3.77155E+00  3.83727E+00  3.90324E+00  3.96946E+00  4.03597E+00  4.10279E+00  4.16999E+00  4.23763E+00
 NY background values follow
     9.675E-01    8.945E-01    8.216E-01    7.488E-01    6.760E-01    6.033E-01    5.306E-01    4.580E-01    3.854E-01    3.129E-01
     2.405E-01    1.681E-01    9.572E-02    2.344E-02   -4.879E-02   -1.210E-01   -1.931E-01   -2.651E-01   -3.371E-01   -4.091E-01
    -4.809E-01   -5.528E-01   -6.245E-01   -6.962E-01   -7.679E-01   -8.395E-01   -9.110E-01   -9.825E-01   -1.054E+00   -1.125E+00
    -1.197E+00   -1.268E+00   -1.339E+00   -1.410E+00   -1.481E+00   -1.552E+00   -1.623E+00   -1.694E+00   -1.765E+00   -1.835E+00
    -1.906E+00   -1.977E+00   -2.047E+00   -2.118E+00   -2.188E+00   -2.259E+00   -2.329E+00   -2.399E+00   -2.469E+00   -2.540E+00
    -2.610E+00   -2.680E+00   -2.750E+00   -2.819E+00   -2.889E+00   -2.959E+00   -3.029E+00   -3.098E+00   -3.168E+00   -3.237E+00
    -3.307E+00   -3.376E+00   -3.445E+00   -3.514E+00   -3.584E+00   -3.653E+00   -3.722E+00   -3.791E+00   -3.860E+00   -3.928E+00
    -3.997E+00   -4.066E+00   -4.134E+00   -4.203E+00   -4.271E+00   -4.340E+00   -4.408E+00   -4.476E+00   -4.545E+00   -4.613E+00
    -4.681E+00   -4.749E+00   -4.817E+00   -4.885E+00   -4.952E+00   -5.020E+00   -5.088E+00   -5.155E+00   -5.223E+00   -5.290E+00
    -5.357E+00   -5.425E+00   -5.492E+00   -5.559E+00   -5.626E+00   -5.693E+00   -5.760E+00   -5.827E+00   -5.894E+00   -5.960E+00
    -6.027E+00   -6.094E+00   -6.160E+00   -6.226E+00   -6.293E+00   -6.359E+00   -6.425E+00   -6.491E+00   -6.557E+00   -6.622E+00
    -6.688E+00   -6.753E+00   -6.818E+00   -6.883E+00   -6.948E+00   -7.013E+00   -7.077E+00   -7.141E+00   -7.206E+00   -7.269E+00
    -7.333E+00   -7.396E+00   -7.460E+00   -7.522E+00   -7.585E+00   -7.647E+00   -7.710E+00   -7.771E+00   -7.833E+00   -7.894E+00
    -7.955E+00   -8.016E+00   -8.076E+00   -8.136E+00   -8.196E+00   -8.255E+00   -8.314E+00   -8.373E+00   -8.431E+00   -8.489E+00
    -8.547E+00   -8.604E+00   -8.660E+00   -8.717E+00   -8.773E+00   -8.828E+00   -8.883E+00   -8.938E+00   -8.992E+00   -9.046E+00
    -9.100E+00   -9.152E+00   -9.205E+00   -9.257E+00   -9.308E+00   -9.359E+00   -9.410E+00   -9.460E+00   -9.509E+00   -9.558E+00
    -9.606E+00   -9.654E+00   -9.702E+00   -9.748E+00   -9.795E+00   -9.840E+00   -9.885E+00   -9.930E+00   -9.974E+00   -1.002E+01
    -1.006E+01   -1.010E+01   -1.014E+01   -1.018E+01   -1.022E+01   -1.026E+01   -1.030E+01   -1.034E+01   -1.038E+01   -1.042E+01
    -1.045E+01   -1.049E+01   -1.052E+01   -1.056E+01   -1.059E+01   -1.062E+01   -1.065E+01   -1.069E+01   -1.072E+01   -1.075E+01
    -1.077E+01   -1.080E+01   -1.083E+01   -1.086E+01   -1.088E+01   -1.091E+01   -1.093E+01   -1.096E+01   -1.098E+01   -1.100E+01
    -1.102E+01   -1.104E+01   -1.106E+01   -1.108E+01   -1.110E+01   -1.111E+01   -1.113E+01   -1.114E+01   -1.116E+01   -1.117E+01
    -1.119E+01   -1.120E+01   -1.121E+01   -1.122E+01   -1.123E+01   -1.124E+01   -1.125E+01   -1.125E+01   -1.126E+01   -1.127E+01
    -1.127E+01   -1.128E+01   -1.128E+01   -1.128E+01   -1.129E+01   -1.129E+01   -1.129E+01   -1.129E+01   -1.129E+01   -1.129E+01
    -1.129E+01   -1.128E+01   -1.128E+01   -1.128E+01   -1.127E+01   -1.127E+01   -1.126E+01   -1.125E+01   -1.125E+01   -1.124E+01
    -1.123E+01   -1.122E+01   -1.121E+01   -1.120E+01   -1.119E+01   -1.118E+01   -1.116E+01   -1.115E+01   -1.114E+01   -1.112E+01
    -1.111E+01   -1.109E+01   -1.108E+01   -1.106E+01   -1.104E+01   -1.103E+01   -1.101E+01   -1.099E+01   -1.097E+01   -1.095E+01
    -1.093E+01   -1.091E+01   -1.089E+01   -1.086E+01   -1.084E+01   -1.082E+01   -1.079E+01   -1.077E+01   -1.075E+01   -1.072E+01
    -1.069E+01   -1.067E+01   -1.064E+01   -1.061E+01   -1.059E+01   -1.056E+01   -1.053E+01   -1.050E+01   -1.047E+01   -1.044E+01
    -1.041E+01   -1.038E+01   -1.035E+01   -1.031E+01   -1.028E+01   -1.025E+01   -1.021E+01   -1.018E+01   -1.015E+01   -1.011E+01
    -1.008E+01   -1.004E+01   -1.001E+01   -9.969E+00   -9.933E+00   -9.896E+00   -9.858E+00   -9.820E+00   -9.782E+00   -9.743E+00
    -9.704E+00   -9.665E+00   -9.625E+00   -9.585E+00   -9.545E+00   -9.504E+00   -9.462E+00   -9.421E+00   -9.379E+00   -9.337E+00
    -9.294E+00   -9.251E+00   -9.207E+00   -9.163E+00   -9.119E+00   -9.075E+00   -9.030E+00   -8.985E+00   -8.939E+00   -8.893E+00
    -8.847E+00   -8.800E+00   -8.753E+00   -8.705E+00   -8.657E+00   -8.609E+00   -8.561E+00   -8.512E+00   -8.463E+00   -8.413E+00
    -8.363E+00   -8.313E+00   -8.262E+00   -8.211E+00   -8.160E+00   -8.108E+00   -8.056E+00   -8.004E+00   -7.951E+00   -7.898E+00
    -7.844E+00   -7.791E+00   -7.736E+00   -7.682E+00   -7.627E+00   -7.572E+00   -7.516E+00   -7.460E+00   -7.404E+00   -7.348E+00
    -7.291E+00   -7.233E+00   -7.176E+00   -7.118E+00   -7.060E+00   -7.001E+00   -6.942E+00   -6.883E+00   -6.823E+00   -6.763E+00
    -6.703E+00   -6.642E+00   -6.581E+00   -6.520E+00   -6.458E+00   -6.396E+00   -6.334E+00   -6.272E+00   -6.209E+00   -6.145E+00
    -6.082E+00   -6.018E+00   -5.953E+00   -5.889E+00   -5.824E+00   -5.759E+00   -5.693E+00   -5.627E+00   -5.561E+00   -5.494E+00
    -5.427E+00   -5.360E+00   -5.293E+00   -5.225E+00   -5.157E+00   -5.088E+00   -5.019E+00   -4.950E+00   -4.881E+00   -4.811E+00
    -4.741E+00   -4.671E+00   -4.600E+00   -4.529E+00   -4.458E+00   -4.386E+00   -4.314E+00   -4.242E+00   -4.169E+00   -4.096E+00
    -4.023E+00   -3.950E+00   -3.876E+00   -3.802E+00   -3.727E+00   -3.653E+00   -3.578E+00   -3.503E+00   -3.427E+00   -3.352E+00
    -3.276E+00   -3.200E+00   -3.123E+00   -3.047E+00   -2.970E+00   -2.893E+00   -2.815E+00   -2.738E+00   -2.660E+00   -2.582E+00
    -2.504E+00   -2.426E+00   -2.348E+00   -2.269E+00   -2.190E+00   -2.111E+00   -2.032E+00   -1.953E+00   -1.873E+00   -1.794E+00
    -1.714E+00   -1.634E+00   -1.555E+00   -1.474E+00   -1.394E+00   -1.314E+00   -1.234E+00   -1.153E+00   -1.073E+00   -9.921E-01
    -9.114E-01   -8.306E-01   -7.498E-01   -6.689E-01   -5.879E-01   -5.069E-01   -4.259E-01   -3.448E-01   -2.637E-01   -1.825E-01
    -1.014E-01   -2.018E-02    6.101E-02    1.422E-01    2.234E-01    3.046E-01    3.858E-01    4.669E-01    5.481E-01    6.292E-01
     7.103E-01    7.913E-01    8.723E-01    9.532E-01    1.034E+00    1.115E+00    1.196E+00    1.276E+00    1.357E+00    1.437E+00
     1.518E+00    1.598E+00    1.678E+00    1.758E+00    1.838E+00    1.918E+00    1.998E+00    2.078E+00    2.157E+00    2.237E+00
     2.316E+00    2.395E+00    2.474E+00    2.552E+00    2.631E+00    2.709E+00    2.787E+00    2.865E+00    2.943E+00    3.021E+00
     3.098E+00    3.176E+00    3.252E+00    3.329E+00    3.406E+00    3.482E+00    3.558E+00    3.634E+00
 PCr      Conc. = 1.09E+02
