 LCModel (Version 6.3-1L) Copyright: S.W. Provencher.          Ref.: Magn. Reson. Med. 30:672-679 (1993).                
 Slice#3 Row#4 Col#2  K_02_press_1_raw_act
 36 lines in following concentration table = NCONC+1
    Conc.  %SD /Cr+PCr  Metabolite                                         
    0.000 999%   0.000 Ala                                                 
  301.108  86%   0.000 Asp                                                 
    0.000 999%   0.000 Cr                                                  
    0.000 999%   0.000 PCr                                                 
  127.803 124%   0.000 GABA                                                
  242.545  65%   0.000 Glc                                                 
 1.93E+04  15%   0.000 Gln                                                 
 2.26E+04  15%   0.000 Glu                                                 
    0.000 999%   0.000 GPC                                                 
  749.138  15%   0.000 PCh                                                 
 2.15E+03  30%   0.000 GSH                                                 
 1.54E+04  11%   0.000 Ins                                                 
    0.000 999%   0.000 Lac                                                 
 2.53E+03  32%   0.000 NAA                                                 
  169.584 456%   0.000 NAAG                                                
  129.365  36%   0.000 Scyllo                                              
  463.454  55%   0.000 Tau                                                 
  116.262 421%   0.000 -CrCH2                                              
  749.138  15%   0.000 GPC+PCh                                             
 2.70E+03  21%   0.000 NAA+NAAG                                            
    0.000 999%   0.000 Cr+PCr                                              
 4.19E+04  13%   0.000 Glu+Gln                                             
    0.000 999%   0.000 Lip13a                                              
    0.000 999%   0.000 Lip13b                                              
 1.46E+03  39%   0.000 Lip09                                               
 1.98E+04   9%   0.000 MM09                                                
 1.18E+03  49%   0.000+Lip20                                               
 2.97E+04   9%   0.000 MM20                                                
 5.94E+03   9%   0.000 MM12                                                
 1.49E+04   9%   0.000 MM14                                                
 7.43E+03   9%   0.000 MM17                                                
    0.000 999%   0.000 Lip13a+Lip13b                                       
 2.08E+04   9%   0.000 MM14+Lip13a+Lip13b+MM12                             
 2.13E+04   9%   0.000 MM09+Lip09                                          
 3.09E+04   9%   0.000 MM20+Lip20                                          
   6 lines in following misc. output table
  FWHM = 0.199 ppm    S/N =  10                                            
  Data shift =-0.046 ppm                                                   
  Ph:  -3 deg     112.8 deg/ppm                                            
  alphaB,S = 3.0E+00,   7.6E+02                                            
    6 spline knots.   Ns = 9(2)                                            
  (11) 2 infls.   ( 3) 1 extrs.                                            
  498 points on ppm-axis = NY
      4.000000     3.992357     3.984714     3.977070     3.969427     3.961784     3.954141     3.946497     3.938854     3.931211
      3.923568     3.915925     3.908281     3.900638     3.892995     3.885352     3.877708     3.870065     3.862422     3.854779
      3.847136     3.839492     3.831849     3.824206     3.816563     3.808919     3.801276     3.793633     3.785990     3.778347
      3.770703     3.763060     3.755417     3.747774     3.740130     3.732487     3.724844     3.717201     3.709558     3.701914
      3.694271     3.686628     3.678985     3.671341     3.663698     3.656055     3.648412     3.640769     3.633125     3.625482
      3.617839     3.610196     3.602552     3.594909     3.587266     3.579623     3.571980     3.564336     3.556693     3.549050
      3.541407     3.533763     3.526120     3.518477     3.510834     3.503191     3.495547     3.487904     3.480261     3.472618
      3.464974     3.457331     3.449688     3.442045     3.434402     3.426758     3.419115     3.411472     3.403829     3.396185
      3.388542     3.380899     3.373256     3.365613     3.357969     3.350326     3.342683     3.335040     3.327396     3.319753
      3.312110     3.304467     3.296824     3.289180     3.281537     3.273894     3.266251     3.258607     3.250964     3.243321
      3.235678     3.228034     3.220391     3.212748     3.205105     3.197462     3.189818     3.182175     3.174532     3.166889
      3.159245     3.151602     3.143959     3.136316     3.128673     3.121029     3.113386     3.105743     3.098100     3.090456
      3.082813     3.075170     3.067527     3.059884     3.052240     3.044597     3.036954     3.029311     3.021667     3.014024
      3.006381     2.998738     2.991095     2.983451     2.975808     2.968165     2.960522     2.952878     2.945235     2.937592
      2.929949     2.922306     2.914662     2.907019     2.899376     2.891733     2.884089     2.876446     2.868803     2.861160
      2.853517     2.845873     2.838230     2.830587     2.822944     2.815300     2.807657     2.800014     2.792371     2.784728
      2.777084     2.769441     2.761798     2.754155     2.746511     2.738868     2.731225     2.723582     2.715939     2.708295
      2.700652     2.693009     2.685366     2.677722     2.670079     2.662436     2.654793     2.647150     2.639506     2.631863
      2.624220     2.616577     2.608933     2.601290     2.593647     2.586004     2.578361     2.570717     2.563074     2.555431
      2.547788     2.540144     2.532501     2.524858     2.517215     2.509572     2.501928     2.494285     2.486642     2.478999
      2.471355     2.463712     2.456069     2.448426     2.440783     2.433139     2.425496     2.417853     2.410210     2.402566
      2.394923     2.387280     2.379637     2.371994     2.364350     2.356707     2.349064     2.341421     2.333777     2.326134
      2.318491     2.310848     2.303205     2.295561     2.287918     2.280275     2.272632     2.264988     2.257345     2.249702
      2.242059     2.234416     2.226772     2.219129     2.211486     2.203843     2.196199     2.188556     2.180913     2.173270
      2.165627     2.157983     2.150340     2.142697     2.135054     2.127410     2.119767     2.112124     2.104481     2.096838
      2.089194     2.081551     2.073908     2.066265     2.058621     2.050978     2.043335     2.035692     2.028049     2.020405
      2.012762     2.005119     1.997476     1.989833     1.982190     1.974546     1.966903     1.959260     1.951617     1.943974
      1.936331     1.928688     1.921045     1.913402     1.905759     1.898115     1.890472     1.882829     1.875186     1.867543
      1.859900     1.852257     1.844614     1.836971     1.829327     1.821684     1.814041     1.806398     1.798755     1.791112
      1.783469     1.775826     1.768183     1.760540     1.752896     1.745253     1.737610     1.729967     1.722324     1.714681
      1.707038     1.699395     1.691752     1.684108     1.676465     1.668822     1.661179     1.653536     1.645893     1.638250
      1.630607     1.622964     1.615321     1.607677     1.600034     1.592391     1.584748     1.577105     1.569462     1.561819
      1.554176     1.546533     1.538890     1.531246     1.523603     1.515960     1.508317     1.500674     1.493031     1.485388
      1.477745     1.470102     1.462458     1.454815     1.447172     1.439529     1.431886     1.424243     1.416600     1.408957
      1.401314     1.393671     1.386027     1.378384     1.370741     1.363098     1.355455     1.347812     1.340169     1.332526
      1.324883     1.317240     1.309596     1.301953     1.294310     1.286667     1.279024     1.271381     1.263738     1.256095
      1.248452     1.240808     1.233165     1.225522     1.217879     1.210236     1.202593     1.194950     1.187307     1.179664
      1.172021     1.164377     1.156734     1.149091     1.141448     1.133805     1.126162     1.118519     1.110876     1.103233
      1.095590     1.087946     1.080303     1.072660     1.065017     1.057374     1.049731     1.042088     1.034445     1.026802
      1.019158     1.011515     1.003872     0.996229     0.988586     0.980943     0.973300     0.965657     0.958014     0.950371
      0.942727     0.935084     0.927441     0.919798     0.912155     0.904512     0.896869     0.889226     0.881583     0.873940
      0.866296     0.858653     0.851010     0.843367     0.835724     0.828081     0.820438     0.812795     0.805152     0.797508
      0.789865     0.782222     0.774579     0.766936     0.759293     0.751650     0.744007     0.736364     0.728721     0.721077
      0.713434     0.705791     0.698148     0.690505     0.682862     0.675219     0.667576     0.659933     0.652290     0.644646
      0.637003     0.629360     0.621717     0.614074     0.606431     0.598788     0.591145     0.583502     0.575858     0.568215
      0.560572     0.552929     0.545286     0.537643     0.530000     0.522357     0.514714     0.507071     0.499427     0.491784
      0.484141     0.476498     0.468855     0.461212     0.453569     0.445925     0.438282     0.430639     0.422996     0.415353
      0.407710     0.400067     0.392424     0.384780     0.377137     0.369494     0.361851     0.354208     0.346565     0.338922
      0.331278     0.323635     0.315992     0.308349     0.300706     0.293063     0.285420     0.277777     0.270133     0.262490
      0.254847     0.247204     0.239561     0.231918     0.224275     0.216631     0.208988     0.201345
 NY phased data points follow
  -6.19566E+01 -6.12146E+01 -6.02508E+01 -5.76468E+01 -5.87522E+01 -5.57247E+01 -5.31836E+01 -5.24940E+01 -5.41867E+01 -5.07010E+01
  -5.11093E+01 -4.99516E+01 -4.92770E+01 -4.68480E+01 -4.57471E+01 -4.32586E+01 -4.15380E+01 -4.24584E+01 -4.39343E+01 -4.41007E+01
  -4.23110E+01 -4.28624E+01 -4.01072E+01 -4.06181E+01 -3.42697E+01 -3.21752E+01 -3.32883E+01 -3.58373E+01 -2.91472E+01 -3.02953E+01
  -3.06702E+01 -2.92491E+01 -2.84228E+01 -2.89250E+01 -2.51479E+01 -2.49224E+01 -2.86594E+01 -2.60338E+01 -2.48940E+01 -2.78021E+01
  -2.59329E+01 -2.60928E+01 -2.42760E+01 -2.21074E+01 -2.04839E+01 -2.51739E+01 -1.97326E+01 -2.20294E+01 -1.69431E+01 -1.64490E+01
  -1.61170E+01 -1.82973E+01 -1.24987E+01 -1.41604E+01 -1.30192E+01 -1.71096E+01 -1.58808E+01 -1.38827E+01 -1.44158E+01 -1.43506E+01
  -8.81561E+00 -1.10333E+01 -1.31129E+01 -1.13126E+01 -5.82801E+00 -1.10445E+01 -9.39958E+00 -1.01343E+01 -5.53108E+00 -9.95231E+00
  -8.08167E+00 -9.02799E+00 -5.07166E+00 -5.23078E+00 -5.36217E+00 -6.51469E+00 -4.04485E+00 -5.83655E+00 -4.60852E+00 -7.64248E+00
  -4.48704E+00 -3.83597E+00 -1.49637E+00 -2.85569E+00 -2.22291E+00 -4.38544E+00 -4.65947E+00 -4.26542E+00 -3.91795E+00 -1.82676E+00
  -2.09648E+00 -1.21477E+00 -2.21810E+00 -4.77833E+00 -2.97753E+00 -2.06237E+00 -1.52346E+00 -2.33237E+00 -1.99386E+00  9.75522E-01
  -1.27086E+00 -1.52823E+00 -8.13057E-01 -1.14987E+00 -1.07322E+00 -4.02723E+00 -1.24732E+00 -5.41464E+00 -6.82102E+00 -6.52872E+00
  -5.16716E+00 -2.92434E+00 -2.79761E+00 -9.30926E-01 -4.97575E+00 -3.65972E+00 -3.18554E+00 -2.41871E+00 -7.20789E+00 -7.04927E+00
  -5.68669E+00 -4.59878E+00 -5.44012E+00 -6.41423E+00 -3.46942E+00 -2.24906E+00 -2.51314E+00 -4.38703E+00 -5.43872E+00 -3.92776E+00
  -4.19403E+00 -5.44577E+00 -1.13037E+01 -6.52909E+00 -5.77827E+00 -6.17199E+00 -5.34065E+00 -2.59290E+00 -4.89602E+00 -4.06920E+00
  -2.34135E+00 -4.55689E+00 -1.34887E+00 -2.51942E+00 -3.36804E+00 -6.88781E+00 -3.79335E+00 -4.35257E+00 -5.63426E+00 -6.37990E+00
  -4.17467E+00 -2.50952E+00 -5.69724E+00 -4.00191E+00 -6.21853E+00 -5.41635E+00 -2.19839E+00 -6.50144E+00 -2.11391E+00 -2.85265E+00
  -1.06979E+00 -4.66627E+00 -4.28263E+00 -5.52260E+00 -5.44667E+00 -4.73834E+00 -3.90499E+00 -1.27427E+00 -1.95458E+00 -3.82518E+00
  -6.00473E+00 -5.58594E+00 -7.08781E+00 -6.11495E+00 -5.75837E+00 -5.41943E+00 -7.02194E+00 -3.20356E+00 -4.95133E+00 -2.91625E+00
  -7.78281E+00 -8.83714E+00 -4.95884E+00 -5.01528E+00 -4.76010E+00 -4.65835E+00 -4.55434E+00 -6.66093E+00 -5.90433E+00 -4.76223E+00
  -3.23569E+00 -4.54595E+00 -1.98091E+00 -3.84600E+00 -2.83918E+00 -3.13962E+00 -9.24365E-01 -1.46114E+00 -6.80091E-01  3.59825E+00
   2.96450E+00  3.60705E+00  4.63182E+00  8.15557E+00  2.81151E+00  1.06241E+01  9.61141E+00  1.23321E+01  1.02627E+01  1.72040E+01
   2.47654E+01  1.76581E+01  2.07466E+01  2.11614E+01  2.50355E+01  2.72177E+01  2.60860E+01  2.94871E+01  3.05168E+01  3.21274E+01
   3.31682E+01  3.69478E+01  4.06043E+01  4.29414E+01  4.69310E+01  4.73482E+01  5.15555E+01  5.25890E+01  5.22275E+01  5.52951E+01
   5.73901E+01  6.17530E+01  6.33151E+01  6.64632E+01  6.61702E+01  6.86802E+01  7.07909E+01  7.36335E+01  7.53241E+01  7.45044E+01
   7.67303E+01  7.65998E+01  7.92426E+01  8.13767E+01  8.24288E+01  7.76350E+01  8.05386E+01  8.10165E+01  7.78606E+01  7.76567E+01
   7.85918E+01  7.61387E+01  7.54011E+01  7.44436E+01  7.19443E+01  7.30581E+01  7.44047E+01  7.19886E+01  7.13177E+01  7.13945E+01
   6.97104E+01  6.61116E+01  6.23617E+01  6.31485E+01  6.51058E+01  6.42302E+01  6.53186E+01  6.25464E+01  6.15101E+01  5.84743E+01
   5.41056E+01  5.56088E+01  5.04788E+01  4.85431E+01  4.64241E+01  4.43225E+01  4.22562E+01  3.84800E+01  3.76446E+01  3.67806E+01
   3.35340E+01  3.49265E+01  2.93576E+01  2.82403E+01  2.56158E+01  2.69757E+01  2.42008E+01  1.97366E+01  2.12175E+01  1.68343E+01
   1.68576E+01  1.47573E+01  1.42768E+01  1.80974E+01  1.74719E+01  1.41759E+01  1.40216E+01  1.23873E+01  1.02706E+01  1.19195E+01
   1.01993E+01  9.12927E+00  4.38625E+00  6.41788E+00  8.32752E+00  6.01152E+00  4.30792E+00  2.66982E+00 -5.62638E-01 -1.64905E-01
  -2.10274E-01 -1.14664E+00  4.12881E-01 -1.15936E-01  1.29589E+00 -2.62222E+00 -3.35126E+00 -2.05521E+00 -4.92390E+00 -7.40241E+00
  -5.10712E+00 -9.10373E+00 -8.58018E+00 -6.53862E+00 -9.36725E+00 -1.10789E+01 -8.32246E+00 -1.42823E+01 -1.46891E+01 -1.30305E+01
  -1.46359E+01 -1.75976E+01 -1.35170E+01 -1.78702E+01 -1.74745E+01 -2.11446E+01 -1.93402E+01 -2.21231E+01 -2.37458E+01 -2.50586E+01
  -2.76092E+01 -2.84995E+01 -2.92925E+01 -3.14181E+01 -3.05610E+01 -3.18136E+01 -3.39243E+01 -3.64472E+01 -3.88088E+01 -3.67479E+01
  -3.89079E+01 -4.24179E+01 -4.51444E+01 -4.42110E+01 -4.88421E+01 -5.06179E+01 -5.02422E+01 -5.10668E+01 -5.06360E+01 -5.24896E+01
  -5.51907E+01 -5.10291E+01 -5.07512E+01 -5.12738E+01 -5.39030E+01 -5.09119E+01 -5.01354E+01 -5.27223E+01 -5.28221E+01 -5.08976E+01
  -4.91185E+01 -4.79034E+01 -4.48733E+01 -4.92902E+01 -4.50621E+01 -4.47688E+01 -4.33226E+01 -4.15285E+01 -4.20699E+01 -4.29582E+01
  -3.91456E+01 -4.01688E+01 -3.86312E+01 -3.92865E+01 -3.73937E+01 -3.72854E+01 -3.78003E+01 -3.96239E+01 -3.51469E+01 -3.26841E+01
  -3.37866E+01 -3.67751E+01 -3.56247E+01 -3.13997E+01 -3.26031E+01 -3.20652E+01 -3.05817E+01 -3.35074E+01 -3.11153E+01 -2.79950E+01
  -3.03881E+01 -2.49634E+01 -2.65257E+01 -2.80438E+01 -2.52120E+01 -3.05412E+01 -2.46825E+01 -2.55182E+01 -2.43462E+01 -2.19751E+01
  -2.42846E+01 -2.56553E+01 -2.43575E+01 -2.36860E+01 -2.02757E+01 -1.99798E+01 -2.22693E+01 -2.02310E+01 -1.80233E+01 -1.86721E+01
  -2.25928E+01 -1.92329E+01 -2.01081E+01 -2.05209E+01 -2.02139E+01 -1.79624E+01 -1.62986E+01 -1.71373E+01 -1.72438E+01 -1.63526E+01
  -1.50041E+01 -1.50033E+01 -1.71405E+01 -1.41853E+01 -1.56508E+01 -1.47233E+01 -1.29080E+01 -1.38972E+01 -1.19445E+01 -1.23606E+01
  -1.52368E+01 -1.35046E+01 -1.14794E+01 -1.07134E+01 -1.00726E+01 -1.14812E+01 -1.35082E+01 -1.20482E+01 -1.04871E+01 -6.89822E+00
  -1.07015E+01 -9.26067E+00 -5.40950E+00 -8.16149E+00 -7.25684E+00 -4.30250E+00 -8.47479E+00 -5.44693E+00 -3.98855E+00 -3.49547E+00
  -3.91545E+00 -7.00207E+00 -4.55981E+00 -2.78452E+00 -5.89715E+00 -4.69420E+00 -4.31439E+00 -4.61886E+00 -3.73924E+00 -3.02533E+00
  -6.15063E-01 -6.16372E+00 -1.40295E+00 -3.00317E+00 -7.34550E-01 -4.56865E+00  3.55696E-01  3.04646E-02 -1.14837E+00 -4.38634E-01
  -5.77295E-01  4.35362E-01  1.20174E+00  1.60151E+00  1.87887E+00  3.22253E+00 -2.49081E-01  8.99292E-01  2.62429E+00  6.70068E+00
   2.89302E+00  4.47866E+00  5.73778E+00  7.86136E+00  7.09598E+00  5.09826E+00  4.67865E+00  5.72612E+00
 NY points of the fit to the data follow
  -5.99567E+01 -5.85621E+01 -5.67225E+01 -5.54945E+01 -5.38371E+01 -5.27594E+01 -5.10115E+01 -4.98370E+01 -4.88244E+01 -4.90376E+01
  -4.83053E+01 -4.92085E+01 -4.90399E+01 -4.95559E+01 -4.78979E+01 -4.78523E+01 -4.57981E+01 -4.64556E+01 -4.46236E+01 -4.64779E+01
  -4.46449E+01 -4.57558E+01 -4.31845E+01 -4.29440E+01 -3.96184E+01 -3.93486E+01 -3.59565E+01 -3.56842E+01 -3.28422E+01 -3.28107E+01
  -3.08809E+01 -3.09329E+01 -2.95580E+01 -2.93078E+01 -2.81121E+01 -2.76337E+01 -2.67680E+01 -2.58447E+01 -2.44931E+01 -2.29713E+01
  -2.22250E+01 -2.09390E+01 -2.11079E+01 -1.99598E+01 -2.05422E+01 -1.90047E+01 -1.93129E+01 -1.70560E+01 -1.78664E+01 -1.68267E+01
  -1.73196E+01 -1.62940E+01 -1.69429E+01 -1.53575E+01 -1.41657E+01 -1.22824E+01 -1.12383E+01 -1.04224E+01 -9.63342E+00 -1.01067E+01
  -9.64984E+00 -9.79399E+00 -8.86974E+00 -9.09250E+00 -8.36486E+00 -8.93953E+00 -8.49487E+00 -9.22563E+00 -8.66113E+00 -9.42853E+00
  -9.05861E+00 -9.84731E+00 -9.44049E+00 -1.01504E+01 -9.84960E+00 -1.05256E+01 -1.01562E+01 -1.03651E+01 -9.03012E+00 -8.92169E+00
  -8.11751E+00 -8.44118E+00 -7.05163E+00 -7.47865E+00 -6.00395E+00 -6.53550E+00 -5.15931E+00 -5.48429E+00 -4.22886E+00 -4.34831E+00
  -2.70189E+00 -2.45080E+00 -8.21424E-01 -6.56277E-01  1.99257E-01 -2.03370E-02 -9.15282E-02 -5.92188E-01 -1.26752E+00 -1.87664E+00
  -2.77060E+00 -3.25261E+00 -3.80087E+00 -3.74495E+00 -4.07900E+00 -3.58920E+00 -3.89314E+00 -3.01556E+00 -3.33223E+00 -2.40913E+00
  -3.01612E+00 -2.20957E+00 -3.09955E+00 -2.34681E+00 -3.19614E+00 -2.60272E+00 -3.52944E+00 -3.40375E+00 -4.73983E+00 -4.98000E+00
  -6.00283E+00 -5.75226E+00 -4.91822E+00 -4.38880E+00 -3.17002E+00 -2.72739E+00 -1.37410E+00 -1.03651E+00  2.26582E-01  1.55939E-01
   1.31165E+00  8.93496E-01  1.96292E+00  1.22386E+00  2.16599E+00  1.14430E+00  1.98683E+00  8.06972E-01  1.50364E+00  2.31839E-01
   8.12744E-01 -4.87131E-01  4.07475E-02 -1.21971E+00 -7.45305E-01 -1.85856E+00 -1.43845E+00 -2.36444E+00 -2.02352E+00 -2.80528E+00
  -2.62101E+00 -3.24449E+00 -3.18220E+00 -3.54752E+00 -3.46415E+00 -3.77398E+00 -4.02056E+00 -4.34884E+00 -4.88132E+00 -5.19942E+00
  -5.69584E+00 -5.91096E+00 -6.22589E+00 -6.42320E+00 -6.72787E+00 -6.94851E+00 -7.26544E+00 -7.46511E+00 -7.77890E+00 -7.93085E+00
  -8.14331E+00 -8.11573E+00 -8.16057E+00 -7.94807E+00 -7.94202E+00 -7.70456E+00 -7.99943E+00 -7.80565E+00 -8.80100E+00 -8.64216E+00
  -9.89572E+00 -9.65520E+00 -1.09266E+01 -9.99352E+00 -1.06775E+01 -8.91715E+00 -9.15569E+00 -6.20910E+00 -6.31820E+00 -3.00692E+00
  -3.28843E+00 -1.22139E+00 -3.24339E+00 -1.33910E+00 -3.23682E+00 -7.81743E-01 -1.93824E+00  2.08303E+00  1.17387E+00  4.94729E+00
   3.84117E+00  7.05554E+00  5.93452E+00  8.10294E+00  7.02290E+00  9.59289E+00  1.00375E+01  1.28196E+01  1.43159E+01  1.62849E+01
   1.78856E+01  1.84263E+01  1.95924E+01  1.91275E+01  2.08010E+01  2.04382E+01  2.33237E+01  2.34861E+01  2.66252E+01  2.74740E+01
   3.15365E+01  3.28599E+01  3.75717E+01  3.99743E+01  4.45796E+01  4.68505E+01  5.11786E+01  5.38682E+01  5.74802E+01  5.99519E+01
   6.25159E+01  6.31892E+01  6.30760E+01  6.39807E+01  6.46298E+01  6.65746E+01  6.81346E+01  7.19279E+01  7.34257E+01  7.60314E+01
   7.65628E+01  7.77635E+01  7.77888E+01  7.81030E+01  7.68460E+01  7.74633E+01  7.67205E+01  7.70806E+01  7.68167E+01  7.69928E+01
   7.69613E+01  7.68539E+01  7.64421E+01  7.58987E+01  7.54003E+01  7.47022E+01  7.42285E+01  7.29276E+01  7.15432E+01  7.00666E+01
   6.89489E+01  6.77187E+01  6.68934E+01  6.66873E+01  6.51325E+01  6.44322E+01  6.26817E+01  6.15597E+01  5.90416E+01  5.75584E+01
   5.46273E+01  5.23677E+01  4.90627E+01  4.67122E+01  4.39278E+01  4.18522E+01  3.96524E+01  3.77968E+01  3.58906E+01  3.35536E+01
   3.18415E+01  2.95556E+01  2.89936E+01  2.81412E+01  2.75283E+01  2.68641E+01  2.58159E+01  2.48162E+01  2.34789E+01  2.21961E+01
   2.05629E+01  1.90163E+01  1.71753E+01  1.54372E+01  1.36266E+01  1.20354E+01  1.04468E+01  9.05257E+00  7.73461E+00  6.59090E+00
   5.56752E+00  4.66638E+00  3.89130E+00  3.25294E+00  2.73257E+00  2.33000E+00  2.01749E+00  1.78932E+00  1.61593E+00  1.47868E+00
   1.35146E+00  1.22591E+00  1.06799E+00  8.68895E-01  6.07408E-01  2.72232E-01 -1.53466E-01 -6.74924E-01 -1.30349E+00 -2.03946E+00
  -2.88897E+00 -3.84764E+00 -4.91440E+00 -6.08202E+00 -7.34187E+00 -8.68550E+00 -1.01035E+01 -1.15826E+01 -1.31116E+01 -1.46767E+01
  -1.62662E+01 -1.78663E+01 -1.94661E+01 -2.10528E+01 -2.26170E+01 -2.41479E+01 -2.56383E+01 -2.70795E+01 -2.84665E+01 -2.97931E+01
  -3.10566E+01 -3.22528E+01 -3.33813E+01 -3.44399E+01 -3.54296E+01 -3.63497E+01 -3.72029E+01 -3.79894E+01 -3.87127E+01 -3.93741E+01
  -3.99777E+01 -4.05249E+01 -4.10203E+01 -4.14657E+01 -4.18658E+01 -4.22222E+01 -4.25396E+01 -4.28196E+01 -4.30666E+01 -4.32820E+01
  -4.34701E+01 -4.36317E+01 -4.37707E+01 -4.38875E+01 -4.39858E+01 -4.40652E+01 -4.41289E+01 -4.41759E+01 -4.42088E+01 -4.42259E+01
  -4.42290E+01 -4.42156E+01 -4.41866E+01 -4.41387E+01 -4.40717E+01 -4.39813E+01 -4.38663E+01 -4.37214E+01 -4.35444E+01 -4.33287E+01
  -4.30715E+01 -4.27657E+01 -4.24079E+01 -4.19912E+01 -4.15127E+01 -4.09667E+01 -4.03523E+01 -3.96662E+01 -3.89110E+01 -3.80875E+01
  -3.72030E+01 -3.62634E+01 -3.52814E+01 -3.42680E+01 -3.32405E+01 -3.22138E+01 -3.12076E+01 -3.02378E+01 -2.93234E+01 -2.84776E+01
  -2.77150E+01 -2.70426E+01 -2.64677E+01 -2.59891E+01 -2.56054E+01 -2.53069E+01 -2.50846E+01 -2.49223E+01 -2.48062E+01 -2.47166E+01
  -2.46386E+01 -2.45531E+01 -2.44472E+01 -2.43053E+01 -2.41192E+01 -2.38785E+01 -2.35804E+01 -2.32199E+01 -2.27993E+01 -2.23181E+01
  -2.17824E+01 -2.11949E+01 -2.05640E+01 -1.98940E+01 -1.91942E+01 -1.84695E+01 -1.77292E+01 -1.69778E+01 -1.62240E+01 -1.54716E+01
  -1.47284E+01 -1.39972E+01 -1.32850E+01 -1.25936E+01 -1.19289E+01 -1.12917E+01 -1.06871E+01 -1.01151E+01 -9.57973E+00 -9.08004E+00
  -8.61941E+00 -8.19582E+00 -7.81199E+00 -7.46505E+00 -7.15696E+00 -6.88409E+00 -6.64776E+00 -6.44370E+00 -6.27269E+00 -6.12991E+00
  -6.01573E+00 -5.92491E+00 -5.85748E+00 -5.80801E+00 -5.77637E+00 -5.75693E+00 -5.74954E+00 -5.74857E+00 -5.75392E+00 -5.76011E+00
  -5.76718E+00 -5.76979E+00 -5.76826E+00 -5.75749E+00 -5.73804E+00 -5.70516E+00 -5.65970E+00 -5.59715E+00 -5.51871E+00 -5.42019E+00
  -5.30311E+00 -5.16355E+00 -5.00331E+00 -4.81872E+00 -4.61189E+00 -4.37934E+00 -4.12344E+00 -3.84091E+00 -3.53430E+00 -3.20049E+00
  -2.84223E+00 -2.45653E+00 -2.04627E+00 -1.60854E+00 -1.14635E+00 -6.56860E-01 -1.43170E-01  3.97529E-01  9.62057E-01  1.55322E+00
   2.16780E+00  2.80859E+00  3.47238E+00  4.16200E+00  4.87423E+00  5.61204E+00  6.37231E+00  7.15822E+00
 NY background values follow
    -1.072E+02   -1.065E+02   -1.059E+02   -1.052E+02   -1.046E+02   -1.039E+02   -1.032E+02   -1.025E+02   -1.019E+02   -1.012E+02
    -1.005E+02   -9.979E+01   -9.909E+01   -9.839E+01   -9.768E+01   -9.697E+01   -9.626E+01   -9.554E+01   -9.482E+01   -9.410E+01
    -9.338E+01   -9.265E+01   -9.192E+01   -9.118E+01   -9.044E+01   -8.971E+01   -8.896E+01   -8.822E+01   -8.747E+01   -8.672E+01
    -8.597E+01   -8.522E+01   -8.447E+01   -8.371E+01   -8.295E+01   -8.220E+01   -8.143E+01   -8.067E+01   -7.991E+01   -7.915E+01
    -7.838E+01   -7.761E+01   -7.685E+01   -7.608E+01   -7.531E+01   -7.454E+01   -7.377E+01   -7.300E+01   -7.223E+01   -7.146E+01
    -7.069E+01   -6.992E+01   -6.915E+01   -6.838E+01   -6.761E+01   -6.684E+01   -6.608E+01   -6.531E+01   -6.454E+01   -6.378E+01
    -6.301E+01   -6.225E+01   -6.148E+01   -6.072E+01   -5.996E+01   -5.920E+01   -5.845E+01   -5.769E+01   -5.694E+01   -5.619E+01
    -5.544E+01   -5.469E+01   -5.394E+01   -5.320E+01   -5.246E+01   -5.172E+01   -5.098E+01   -5.025E+01   -4.952E+01   -4.879E+01
    -4.807E+01   -4.735E+01   -4.663E+01   -4.591E+01   -4.520E+01   -4.449E+01   -4.379E+01   -4.309E+01   -4.239E+01   -4.169E+01
    -4.100E+01   -4.032E+01   -3.964E+01   -3.896E+01   -3.829E+01   -3.762E+01   -3.695E+01   -3.630E+01   -3.564E+01   -3.499E+01
    -3.435E+01   -3.371E+01   -3.307E+01   -3.244E+01   -3.182E+01   -3.120E+01   -3.059E+01   -2.998E+01   -2.938E+01   -2.878E+01
    -2.819E+01   -2.761E+01   -2.703E+01   -2.646E+01   -2.590E+01   -2.534E+01   -2.479E+01   -2.424E+01   -2.370E+01   -2.317E+01
    -2.265E+01   -2.213E+01   -2.162E+01   -2.111E+01   -2.062E+01   -2.013E+01   -1.965E+01   -1.917E+01   -1.871E+01   -1.825E+01
    -1.780E+01   -1.736E+01   -1.693E+01   -1.650E+01   -1.608E+01   -1.568E+01   -1.528E+01   -1.488E+01   -1.450E+01   -1.413E+01
    -1.376E+01   -1.341E+01   -1.306E+01   -1.272E+01   -1.239E+01   -1.208E+01   -1.177E+01   -1.147E+01   -1.118E+01   -1.090E+01
    -1.063E+01   -1.037E+01   -1.012E+01   -9.878E+00   -9.649E+00   -9.430E+00   -9.221E+00   -9.024E+00   -8.837E+00   -8.661E+00
    -8.496E+00   -8.341E+00   -8.198E+00   -8.067E+00   -7.946E+00   -7.837E+00   -7.740E+00   -7.654E+00   -7.580E+00   -7.516E+00
    -7.465E+00   -7.424E+00   -7.394E+00   -7.375E+00   -7.367E+00   -7.370E+00   -7.383E+00   -7.407E+00   -7.441E+00   -7.485E+00
    -7.539E+00   -7.604E+00   -7.678E+00   -7.762E+00   -7.856E+00   -7.960E+00   -8.073E+00   -8.195E+00   -8.326E+00   -8.467E+00
    -8.617E+00   -8.775E+00   -8.943E+00   -9.119E+00   -9.304E+00   -9.497E+00   -9.699E+00   -9.908E+00   -1.013E+01   -1.035E+01
    -1.059E+01   -1.083E+01   -1.108E+01   -1.134E+01   -1.160E+01   -1.187E+01   -1.215E+01   -1.244E+01   -1.273E+01   -1.303E+01
    -1.334E+01   -1.365E+01   -1.397E+01   -1.430E+01   -1.463E+01   -1.497E+01   -1.532E+01   -1.567E+01   -1.603E+01   -1.639E+01
    -1.676E+01   -1.714E+01   -1.752E+01   -1.791E+01   -1.830E+01   -1.869E+01   -1.910E+01   -1.950E+01   -1.991E+01   -2.033E+01
    -2.075E+01   -2.118E+01   -2.161E+01   -2.204E+01   -2.248E+01   -2.292E+01   -2.337E+01   -2.382E+01   -2.427E+01   -2.473E+01
    -2.519E+01   -2.566E+01   -2.612E+01   -2.660E+01   -2.707E+01   -2.755E+01   -2.803E+01   -2.851E+01   -2.900E+01   -2.948E+01
    -2.997E+01   -3.047E+01   -3.096E+01   -3.146E+01   -3.196E+01   -3.246E+01   -3.296E+01   -3.347E+01   -3.397E+01   -3.448E+01
    -3.499E+01   -3.550E+01   -3.601E+01   -3.652E+01   -3.704E+01   -3.755E+01   -3.807E+01   -3.858E+01   -3.910E+01   -3.961E+01
    -4.013E+01   -4.065E+01   -4.116E+01   -4.168E+01   -4.219E+01   -4.271E+01   -4.323E+01   -4.374E+01   -4.425E+01   -4.477E+01
    -4.528E+01   -4.579E+01   -4.630E+01   -4.681E+01   -4.732E+01   -4.783E+01   -4.833E+01   -4.884E+01   -4.934E+01   -4.984E+01
    -5.034E+01   -5.083E+01   -5.133E+01   -5.182E+01   -5.231E+01   -5.279E+01   -5.328E+01   -5.376E+01   -5.424E+01   -5.471E+01
    -5.518E+01   -5.565E+01   -5.612E+01   -5.658E+01   -5.704E+01   -5.750E+01   -5.795E+01   -5.839E+01   -5.884E+01   -5.928E+01
    -5.971E+01   -6.015E+01   -6.057E+01   -6.100E+01   -6.141E+01   -6.183E+01   -6.223E+01   -6.264E+01   -6.304E+01   -6.343E+01
    -6.382E+01   -6.420E+01   -6.458E+01   -6.495E+01   -6.532E+01   -6.568E+01   -6.603E+01   -6.638E+01   -6.672E+01   -6.706E+01
    -6.739E+01   -6.771E+01   -6.802E+01   -6.833E+01   -6.864E+01   -6.893E+01   -6.922E+01   -6.951E+01   -6.978E+01   -7.005E+01
    -7.031E+01   -7.057E+01   -7.082E+01   -7.106E+01   -7.130E+01   -7.152E+01   -7.175E+01   -7.196E+01   -7.217E+01   -7.237E+01
    -7.256E+01   -7.275E+01   -7.292E+01   -7.309E+01   -7.326E+01   -7.342E+01   -7.357E+01   -7.371E+01   -7.384E+01   -7.397E+01
    -7.409E+01   -7.420E+01   -7.431E+01   -7.441E+01   -7.450E+01   -7.458E+01   -7.466E+01   -7.473E+01   -7.479E+01   -7.484E+01
    -7.488E+01   -7.492E+01   -7.495E+01   -7.497E+01   -7.499E+01   -7.499E+01   -7.499E+01   -7.498E+01   -7.497E+01   -7.494E+01
    -7.491E+01   -7.487E+01   -7.482E+01   -7.476E+01   -7.470E+01   -7.463E+01   -7.454E+01   -7.446E+01   -7.436E+01   -7.425E+01
    -7.414E+01   -7.402E+01   -7.389E+01   -7.375E+01   -7.360E+01   -7.345E+01   -7.329E+01   -7.311E+01   -7.293E+01   -7.275E+01
    -7.255E+01   -7.234E+01   -7.213E+01   -7.191E+01   -7.168E+01   -7.144E+01   -7.119E+01   -7.093E+01   -7.067E+01   -7.039E+01
    -7.011E+01   -6.982E+01   -6.952E+01   -6.921E+01   -6.889E+01   -6.856E+01   -6.823E+01   -6.788E+01   -6.753E+01   -6.716E+01
    -6.679E+01   -6.641E+01   -6.602E+01   -6.562E+01   -6.521E+01   -6.480E+01   -6.437E+01   -6.393E+01   -6.349E+01   -6.304E+01
    -6.257E+01   -6.210E+01   -6.162E+01   -6.113E+01   -6.063E+01   -6.011E+01   -5.960E+01   -5.907E+01   -5.853E+01   -5.798E+01
    -5.742E+01   -5.685E+01   -5.628E+01   -5.569E+01   -5.509E+01   -5.449E+01   -5.387E+01   -5.325E+01   -5.261E+01   -5.197E+01
    -5.131E+01   -5.065E+01   -4.997E+01   -4.929E+01   -4.859E+01   -4.789E+01   -4.717E+01   -4.645E+01   -4.572E+01   -4.497E+01
    -4.422E+01   -4.345E+01   -4.268E+01   -4.189E+01   -4.110E+01   -4.029E+01   -3.947E+01   -3.865E+01   -3.781E+01   -3.696E+01
    -3.611E+01   -3.524E+01   -3.436E+01   -3.347E+01   -3.257E+01   -3.166E+01   -3.074E+01   -2.981E+01   -2.887E+01   -2.792E+01
    -2.696E+01   -2.599E+01   -2.500E+01   -2.401E+01   -2.300E+01   -2.199E+01   -2.096E+01   -1.992E+01   -1.887E+01   -1.781E+01
    -1.674E+01   -1.566E+01   -1.457E+01   -1.346E+01   -1.235E+01   -1.122E+01   -1.009E+01   -8.940E+00
 Asp      Conc. = 3.01E+02
