 LCModel (Version 6.3-1L) Copyright: S.W. Provencher.          Ref.: Magn. Reson. Med. 30:672-679 (1993).                
 Slice#1 Row#4 Col#8  K_02_press_1_raw_act
 36 lines in following concentration table = NCONC+1
    Conc.  %SD /Cr+PCr  Metabolite                                         
    0.000 999%   0.000 Ala                                                 
    0.000 999%   0.000 Asp                                                 
 1.22E+03  19%   0.795 Cr                                                  
  315.039  74%   0.205 PCr                                                 
    5.181 999% 3.4E-03 GABA                                                
   20.725 787% 1.4E-02 Glc                                                 
    0.000 999%   0.000 Gln                                                 
 1.55E+03  20%   1.008 Glu                                                 
  517.954   5%   0.338 GPC                                                 
    0.000 999%   0.000 PCh                                                 
  375.180  23%   0.245 GSH                                                 
 1.36E+03  22%   0.885 Ins                                                 
  462.341  30%   0.301 Lac                                                 
 1.62E+03   9%   1.054 NAA                                                 
  658.914  24%   0.429 NAAG                                                
   37.095  83% 2.4E-02 Scyllo                                              
    0.000 999%   0.000 Tau                                                 
  257.975  49%   0.168 -CrCH2                                              
  517.954   5%   0.338 GPC+PCh                                             
 2.28E+03   5%   1.484 NAA+NAAG                                            
 1.53E+03   5%   1.000 Cr+PCr                                              
 1.55E+03  20%   1.008 Glu+Gln                                             
 6.20E+03  26%   4.040 Lip13a                                              
    0.000 999%   0.000 Lip13b                                              
 1.88E+03  28%   1.226 Lip09                                               
 3.06E+03  20%   1.994 MM09                                                
 1.17E+03  28%   0.763 Lip20                                               
 2.08E+03  30%   1.357 MM20                                                
  978.992  68%   0.638 MM12                                                
 3.72E+03  22%   2.423 MM14                                                
 1.13E+03  35%   0.734 MM17                                                
 6.20E+03  26%   4.040 Lip13a+Lip13b                                       
 1.09E+04   9%   7.101 MM14+Lip13a+Lip13b+MM12                             
 4.94E+03   8%   3.219 MM09+Lip09                                          
 3.25E+03  17%   2.121 MM20+Lip20                                          
   6 lines in following misc. output table
  FWHM = 0.046 ppm    S/N =   9                                            
  Data shift = 0.000 ppm                                                   
  Ph:  14 deg       5.2 deg/ppm                                            
  alphaB,S = 1.3E+00,   7.6E+01                                            
   14 spline knots.   Ns = 7(1)                                            
  (10) 4 infls.   (10) 1 extrs.                                            
  498 points on ppm-axis = NY
      4.000000     3.992357     3.984714     3.977070     3.969427     3.961784     3.954141     3.946497     3.938854     3.931211
      3.923568     3.915925     3.908281     3.900638     3.892995     3.885352     3.877708     3.870065     3.862422     3.854779
      3.847136     3.839492     3.831849     3.824206     3.816563     3.808919     3.801276     3.793633     3.785990     3.778347
      3.770703     3.763060     3.755417     3.747774     3.740130     3.732487     3.724844     3.717201     3.709558     3.701914
      3.694271     3.686628     3.678985     3.671341     3.663698     3.656055     3.648412     3.640769     3.633125     3.625482
      3.617839     3.610196     3.602552     3.594909     3.587266     3.579623     3.571980     3.564336     3.556693     3.549050
      3.541407     3.533763     3.526120     3.518477     3.510834     3.503191     3.495547     3.487904     3.480261     3.472618
      3.464974     3.457331     3.449688     3.442045     3.434402     3.426758     3.419115     3.411472     3.403829     3.396185
      3.388542     3.380899     3.373256     3.365613     3.357969     3.350326     3.342683     3.335040     3.327396     3.319753
      3.312110     3.304467     3.296824     3.289180     3.281537     3.273894     3.266251     3.258607     3.250964     3.243321
      3.235678     3.228034     3.220391     3.212748     3.205105     3.197462     3.189818     3.182175     3.174532     3.166889
      3.159245     3.151602     3.143959     3.136316     3.128673     3.121029     3.113386     3.105743     3.098100     3.090456
      3.082813     3.075170     3.067527     3.059884     3.052240     3.044597     3.036954     3.029311     3.021667     3.014024
      3.006381     2.998738     2.991095     2.983451     2.975808     2.968165     2.960522     2.952878     2.945235     2.937592
      2.929949     2.922306     2.914662     2.907019     2.899376     2.891733     2.884089     2.876446     2.868803     2.861160
      2.853517     2.845873     2.838230     2.830587     2.822944     2.815300     2.807657     2.800014     2.792371     2.784728
      2.777084     2.769441     2.761798     2.754155     2.746511     2.738868     2.731225     2.723582     2.715939     2.708295
      2.700652     2.693009     2.685366     2.677722     2.670079     2.662436     2.654793     2.647150     2.639506     2.631863
      2.624220     2.616577     2.608933     2.601290     2.593647     2.586004     2.578361     2.570717     2.563074     2.555431
      2.547788     2.540144     2.532501     2.524858     2.517215     2.509572     2.501928     2.494285     2.486642     2.478999
      2.471355     2.463712     2.456069     2.448426     2.440783     2.433139     2.425496     2.417853     2.410210     2.402566
      2.394923     2.387280     2.379637     2.371994     2.364350     2.356707     2.349064     2.341421     2.333777     2.326134
      2.318491     2.310848     2.303205     2.295561     2.287918     2.280275     2.272632     2.264988     2.257345     2.249702
      2.242059     2.234416     2.226772     2.219129     2.211486     2.203843     2.196199     2.188556     2.180913     2.173270
      2.165627     2.157983     2.150340     2.142697     2.135054     2.127410     2.119767     2.112124     2.104481     2.096838
      2.089194     2.081551     2.073908     2.066265     2.058621     2.050978     2.043335     2.035692     2.028049     2.020405
      2.012762     2.005119     1.997476     1.989833     1.982190     1.974546     1.966903     1.959260     1.951617     1.943974
      1.936331     1.928688     1.921045     1.913402     1.905759     1.898115     1.890472     1.882829     1.875186     1.867543
      1.859900     1.852257     1.844614     1.836971     1.829327     1.821684     1.814041     1.806398     1.798755     1.791112
      1.783469     1.775826     1.768183     1.760540     1.752896     1.745253     1.737610     1.729967     1.722324     1.714681
      1.707038     1.699395     1.691752     1.684108     1.676465     1.668822     1.661179     1.653536     1.645893     1.638250
      1.630607     1.622964     1.615321     1.607677     1.600034     1.592391     1.584748     1.577105     1.569462     1.561819
      1.554176     1.546533     1.538890     1.531246     1.523603     1.515960     1.508317     1.500674     1.493031     1.485388
      1.477745     1.470102     1.462458     1.454815     1.447172     1.439529     1.431886     1.424243     1.416600     1.408957
      1.401314     1.393671     1.386027     1.378384     1.370741     1.363098     1.355455     1.347812     1.340169     1.332526
      1.324883     1.317240     1.309596     1.301953     1.294310     1.286667     1.279024     1.271381     1.263738     1.256095
      1.248452     1.240808     1.233165     1.225522     1.217879     1.210236     1.202593     1.194950     1.187307     1.179664
      1.172021     1.164377     1.156734     1.149091     1.141448     1.133805     1.126162     1.118519     1.110876     1.103233
      1.095590     1.087946     1.080303     1.072660     1.065017     1.057374     1.049731     1.042088     1.034445     1.026802
      1.019158     1.011515     1.003872     0.996229     0.988586     0.980943     0.973300     0.965657     0.958014     0.950371
      0.942727     0.935084     0.927441     0.919798     0.912155     0.904512     0.896869     0.889226     0.881583     0.873940
      0.866296     0.858653     0.851010     0.843367     0.835724     0.828081     0.820438     0.812795     0.805152     0.797508
      0.789865     0.782222     0.774579     0.766936     0.759293     0.751650     0.744007     0.736364     0.728721     0.721077
      0.713434     0.705791     0.698148     0.690505     0.682862     0.675219     0.667576     0.659933     0.652290     0.644646
      0.637003     0.629360     0.621717     0.614074     0.606431     0.598788     0.591145     0.583502     0.575858     0.568215
      0.560572     0.552929     0.545286     0.537643     0.530000     0.522357     0.514714     0.507071     0.499427     0.491784
      0.484141     0.476498     0.468855     0.461212     0.453569     0.445925     0.438282     0.430639     0.422996     0.415353
      0.407710     0.400067     0.392424     0.384780     0.377137     0.369494     0.361851     0.354208     0.346565     0.338922
      0.331278     0.323635     0.315992     0.308349     0.300706     0.293063     0.285420     0.277777     0.270133     0.262490
      0.254847     0.247204     0.239561     0.231918     0.224275     0.216631     0.208988     0.201345
 NY phased data points follow
   1.00950E-02  5.64363E-01 -8.74800E-01  4.43720E+00  6.76730E+00  1.20807E+01  1.84683E+01  1.58900E+01  2.43613E+01  2.95164E+01
   3.35417E+01  3.34515E+01  3.50395E+01  2.76981E+01  2.34507E+01  2.11959E+01  1.28249E+01  7.72928E+00  3.40322E+00  1.16491E+00
   3.87403E+00 -2.94445E+00  1.57329E+00  3.93434E+00  7.96822E+00  1.07241E+01  6.04906E+00  6.75708E+00  6.78314E+00  1.12393E+01
   1.03405E+01  6.10842E+00  1.42184E+01  1.63606E+01  1.05093E+01  1.11520E+01  7.51959E+00  6.24002E+00  6.50021E+00  4.25685E+00
   1.13950E+01  1.06982E+00  1.58665E+00  4.49681E+00  5.64305E+00  8.34403E+00  1.90451E+01  1.44791E+01  2.13877E+01  1.44586E+01
   1.32759E+01  1.06869E+01  8.54560E+00  1.04962E+01  1.47277E+01  5.80178E+00  1.00591E+01  3.65213E+00  9.49286E+00  2.83531E+00
   1.07753E+01  5.15778E+00  8.77601E-01  6.46587E+00 -1.10829E+00  8.93505E+00  6.45585E+00  1.83750E+00 -6.82973E+00 -3.13989E+00
  -1.70008E+00 -3.51724E+00 -5.74977E+00  3.65728E+00  2.07856E+00 -1.89030E+00  2.12818E+00 -9.47044E+00  2.76959E+00  3.52370E-01
   2.80278E+00  4.34263E+00 -4.00333E+00 -1.12258E+00  5.43976E+00  2.09770E+00 -3.45254E+00 -1.99882E+00 -7.03908E-02 -1.60697E+00
  -3.10848E+00  2.41907E+00  1.09710E+00  5.30913E+00  9.77824E+00 -8.59625E-01  7.24718E+00  8.47409E+00  1.07044E+01  1.70904E+01
   2.44764E+01  2.45678E+01  5.09693E+01  5.62215E+01  5.56955E+01  4.33003E+01  3.16592E+01  2.14529E+01  1.13545E+01 -1.22317E-01
  -1.67360E+00  2.48707E+00 -9.83951E-01 -5.08932E+00  4.41507E+00 -2.17543E+00  5.24258E+00  5.14510E+00  6.14217E+00  4.67539E+00
   1.03484E+01  1.27957E+01  1.58776E+01  2.31239E+01  3.25118E+01  3.93039E+01  5.30890E+01  4.59201E+01  5.75450E+01  4.14385E+01
   3.47753E+01  2.65750E+01  1.21380E+01  8.09559E+00  6.45950E+00  4.35943E-02  3.42335E+00  1.48701E+00 -2.84452E-01  1.18360E+01
   2.24162E+00  5.14058E+00  9.26006E+00  2.27888E+00  6.09015E+00  4.48106E+00  2.75436E+00  5.45236E+00  1.29303E-01 -5.52373E-01
   5.80416E+00  5.07896E+00 -4.88104E+00 -3.96100E+00  2.34499E+00 -3.50435E-01  7.35412E+00 -3.57958E+00 -4.35295E-01  3.23552E+00
   2.80592E+00  2.26391E+00 -1.99648E+00 -8.20696E+00  6.92159E+00 -3.67704E+00  1.58668E+00 -5.44751E+00  1.07086E+00 -2.28536E+00
  -5.27736E+00 -3.09175E+00 -1.05611E+01 -9.16543E+00 -1.46815E+01 -9.95512E+00 -1.39686E+01 -1.82272E+01 -1.93859E+01 -1.01899E+01
  -1.01871E+01 -6.60973E+00 -7.65454E+00 -1.31068E+01 -6.72629E+00 -7.56231E+00 -8.64799E+00 -1.23567E+01 -1.03712E+01 -3.90725E+00
  -1.04955E+01 -3.98287E+00 -2.41867E+00 -1.38031E+00 -6.79147E+00 -6.12950E+00 -3.18418E+00 -1.34094E+01 -9.07475E+00 -7.00323E+00
  -1.15065E+01 -9.87356E+00 -1.73366E+00 -4.53473E+00 -1.96847E+00 -4.72558E-01 -1.09934E+01 -2.35170E+00 -8.37695E+00 -1.28776E+00
  -3.71188E+00  1.11051E+00 -1.20341E-01  4.00088E+00  1.33251E+01  1.43677E+01  2.56425E+00  2.54276E-01 -3.46298E-01 -8.82435E-01
  -3.96743E+00 -1.11371E+01 -1.03399E+01 -8.84537E+00 -2.02959E+00 -1.78525E+00  1.10405E+01  1.35451E+01  7.31998E+00  7.66702E+00
   5.92353E+00  7.11295E+00  7.83001E+00  2.02496E+00  3.48047E-01  1.97066E+00  9.08899E+00  5.55891E+00  1.45827E+00  3.61870E-02
  -1.47224E+00 -1.39185E+00 -1.02441E+00  2.13123E-01  9.30176E+00 -3.44717E-02  5.31161E+00  1.32453E+01  6.61590E+00  1.84845E+01
   1.86199E+01  2.54576E+01  2.24013E+01  2.42011E+01  4.25119E+01  4.60027E+01  5.18787E+01  6.94875E+01  7.50321E+01  7.96701E+01
   7.88809E+01  7.38331E+01  5.30713E+01  4.39503E+01  2.00040E+01  9.39085E+00  1.55211E+00  3.24056E+00 -1.04204E+01 -3.38517E+00
  -3.88004E+00 -2.47861E+00 -9.13433E-01 -1.00858E+00  6.51410E+00 -2.74438E+00  4.22898E+00  1.15810E+00  2.50410E+00  1.49701E+00
  -5.86167E+00 -4.41119E+00  3.04585E+00  4.76813E+00 -7.34772E+00  2.62276E+00 -3.97988E+00 -7.17180E+00  8.66537E+00 -1.04062E+00
  -2.92383E+00  1.71025E+00  4.02880E+00  1.51079E+00 -4.13243E+00  7.17127E-01  5.67558E-01  3.64213E-01 -1.69337E+00 -1.80261E+00
   8.51055E+00  4.74298E+00  2.90994E+00  9.27004E+00  8.49389E+00  1.49212E+01  8.81951E+00  1.09182E+01  1.15220E+01  1.04111E+01
   1.16685E+01  1.13035E+01  1.12173E+01  1.00247E+01  4.57000E+00  3.64300E+00  8.40345E+00  7.76963E+00  1.18157E+01  1.44136E+01
   1.14282E+01  1.74202E+01  1.66717E+01  1.20686E+01  1.56223E+01  2.10023E+01  1.52259E+01  1.83213E+01  2.82119E+01  2.70452E+01
   2.28953E+01  3.04990E+01  2.47913E+01  2.62372E+01  3.39808E+01  2.46912E+01  3.00558E+01  3.31910E+01  3.51654E+01  2.49922E+01
   3.73198E+01  2.51803E+01  2.99219E+01  3.51021E+01  3.66116E+01  3.59501E+01  3.56071E+01  3.30807E+01  3.32224E+01  2.42821E+01
   1.81831E+01  1.97995E+01  1.99076E+01  2.07018E+01  2.55631E+01  2.04359E+01  2.54757E+01  3.03188E+01  2.66501E+01  2.50125E+01
   2.74015E+01  2.48835E+01  2.37596E+01  2.49001E+01  2.58144E+01  2.95832E+01  2.66359E+01  1.95862E+01  2.44431E+01  2.39885E+01
   2.27864E+01  2.60405E+01  2.43123E+01  2.62635E+01  1.99465E+01  2.36773E+01  2.38240E+01  1.79244E+01  2.46527E+01  1.87862E+01
   1.89606E+01  2.29078E+01  2.66186E+01  2.91783E+01  2.46184E+01  1.87948E+01  3.14387E+01  2.56367E+01  2.27723E+01  2.69951E+01
   2.67260E+01  3.11803E+01  2.92128E+01  2.73469E+01  2.92571E+01  2.93243E+01  3.37818E+01  3.05002E+01  2.72643E+01  2.47044E+01
   3.27340E+01  2.83628E+01  3.49936E+01  3.26201E+01  3.57387E+01  3.70299E+01  3.04993E+01  3.08169E+01  2.88002E+01  2.92855E+01
   2.91735E+01  2.96802E+01  2.51564E+01  2.12595E+01  2.10972E+01  2.64238E+01  2.03159E+01  2.02112E+01  1.96323E+01  2.01652E+01
   2.00731E+01  1.75021E+01  2.24168E+01  1.34457E+01  1.89708E+01  1.82115E+01  1.98404E+01  1.40029E+01  1.45301E+01  1.58402E+01
   1.09990E+01  1.50491E+01  1.32107E+01  1.49662E+01  1.62535E+01  1.16623E+01  1.18522E+01  1.32666E+01  1.89283E+01  1.60212E+01
   1.07973E+01  1.32180E+01  9.81330E+00  1.04986E+01  7.76711E+00  1.19590E+01  1.41216E+01  1.33082E+01  7.74152E+00  6.37152E+00
   1.11761E+01  5.82265E+00  6.99812E+00  6.00530E+00  1.31930E+01  8.74630E+00  1.63526E+01  1.01746E+01  8.35007E+00  8.02713E+00
   7.81687E+00  1.23212E+01  1.12085E+01  9.49354E+00  8.25174E+00  1.19370E+01  2.59396E+00  4.04998E+00  6.60409E+00  4.83550E+00
   1.22067E+00  8.76202E+00  3.98524E+00  7.87715E+00  3.88582E+00  1.22488E+01  6.74709E+00  6.75830E+00  3.20654E+00  1.13241E+01
   1.06644E+01  1.13510E+01  1.00043E+01  6.24741E+00  2.57870E+00  8.13562E+00  4.26654E+00  4.59410E+00  7.62100E+00  7.17357E+00
   1.13363E+01  6.82212E+00  6.98098E+00  8.39267E+00  7.39583E+00  4.75596E+00  8.24308E+00  9.06957E+00
 NY points of the fit to the data follow
   4.61670E+00  4.55341E+00  4.98071E+00  5.87641E+00  7.86422E+00  1.12476E+01  1.49064E+01  1.86576E+01  2.30910E+01  2.82285E+01
   3.28923E+01  3.53061E+01  3.43747E+01  3.02529E+01  2.41483E+01  1.75357E+01  1.16589E+01  7.48129E+00  5.35135E+00  4.98782E+00
   5.23533E+00  4.94344E+00  4.48712E+00  4.46349E+00  4.89130E+00  5.33835E+00  5.94065E+00  7.17314E+00  9.14782E+00  1.14557E+01
   1.34712E+01  1.46209E+01  1.45221E+01  1.31761E+01  1.07537E+01  7.77638E+00  5.19179E+00  3.71352E+00  3.26221E+00  3.42969E+00
   4.12938E+00  5.39798E+00  6.80123E+00  8.04000E+00  9.36411E+00  1.10394E+01  1.28107E+01  1.39701E+01  1.38931E+01  1.23960E+01
   9.85394E+00  6.86315E+00  4.07650E+00  2.14364E+00  1.40369E+00  1.73086E+00  2.61372E+00  3.57663E+00  4.44562E+00  5.11661E+00
   5.40926E+00  5.18921E+00  4.44627E+00  3.36162E+00  2.19503E+00  1.31578E+00  9.59308E-01  1.14720E+00  1.74550E+00  2.50502E+00
   3.22697E+00  3.71613E+00  3.87350E+00  3.71186E+00  3.31565E+00  2.82137E+00  2.33383E+00  1.91852E+00  1.64823E+00  1.59616E+00
   1.65457E+00  1.61096E+00  1.46483E+00  1.32381E+00  1.14775E+00  7.57019E-01  4.31657E-02 -8.77965E-01 -1.74199E+00 -2.28132E+00
  -2.32198E+00 -1.89519E+00 -1.11524E+00 -1.57558E-01  7.75416E-01  1.66282E+00  3.80280E+00  8.24847E+00  1.30382E+01  1.83217E+01
   2.58681E+01  3.59612E+01  4.61058E+01  5.23958E+01  5.22705E+01  4.56107E+01  3.44624E+01  2.17193E+01  1.00795E+01  1.89302E+00
  -1.91744E+00 -2.10265E+00 -9.32534E-01 -5.24203E-01 -4.31177E-01 -3.62441E-01 -2.71461E-01 -1.18635E-01  2.16446E-01  1.24163E+00
   4.33622E+00  9.50555E+00  1.51507E+01  2.17065E+01  3.04156E+01  4.07941E+01  5.00348E+01  5.47445E+01  5.30344E+01  4.53471E+01
   3.40171E+01  2.17979E+01  1.11345E+01  3.85654E+00  3.43508E-01 -3.74956E-01 -3.59886E-01 -7.07420E-01 -8.11506E-01 -4.17844E-01
   3.66570E-01  1.24767E+00  1.91282E+00  2.15126E+00  1.97806E+00  1.57416E+00  1.10538E+00  6.88331E-01  3.85425E-01  1.87388E-01
   6.05643E-02 -8.09719E-02 -2.42748E-01 -4.46261E-01 -6.81153E-01 -8.05115E-01 -8.02069E-01 -7.85688E-01 -8.96333E-01 -1.25515E+00
  -1.72638E+00 -2.09221E+00 -2.27247E+00 -2.36360E+00 -2.48642E+00 -2.73845E+00 -3.20408E+00 -3.86690E+00 -4.65094E+00 -5.40014E+00
  -5.82148E+00 -5.93125E+00 -6.00024E+00 -6.26359E+00 -6.73961E+00 -7.11499E+00 -7.24029E+00 -7.14742E+00 -7.01477E+00 -6.99511E+00
  -7.08150E+00 -7.09567E+00 -6.98914E+00 -6.79210E+00 -6.43072E+00 -5.74489E+00 -4.77243E+00 -3.64117E+00 -2.41391E+00 -1.16212E+00
  -7.35002E-02  4.65806E-01  3.80654E-01 -1.91458E-01 -1.12392E+00 -2.21454E+00 -3.11196E+00 -3.57883E+00 -3.52450E+00 -2.96658E+00
  -2.10805E+00 -1.14969E+00 -3.07069E-01  1.42280E-01  3.14473E-02 -7.23089E-01 -2.01021E+00 -3.36178E+00 -4.42666E+00 -4.81184E+00
  -4.59150E+00 -3.69568E+00 -1.93805E+00  5.03764E-01  2.89609E+00  4.09928E+00  3.57608E+00  1.51774E+00 -1.69041E+00 -5.54183E+00
  -9.14211E+00 -1.13009E+01 -1.11584E+01 -8.79875E+00 -5.09588E+00 -1.26151E+00  2.03721E+00  4.33148E+00  5.30934E+00  5.05081E+00
   4.11000E+00  3.29631E+00  3.08096E+00  3.37693E+00  3.99031E+00  4.70718E+00  5.12803E+00  5.01720E+00  4.27578E+00  3.05234E+00
   1.78627E+00  1.07190E+00  1.28492E+00  2.43591E+00  4.25713E+00  6.32121E+00  8.15681E+00  9.36194E+00  1.01201E+01  1.14433E+01
   1.31744E+01  1.52568E+01  1.92794E+01  2.79352E+01  3.89029E+01  4.87828E+01  5.75528E+01  6.62342E+01  7.41794E+01  7.86660E+01
   7.71446E+01  6.91564E+01  5.64856E+01  4.19386E+01  2.77838E+01  1.58686E+01  8.13459E+00  5.04140E+00  5.03400E+00  4.99026E+00
   4.43321E+00  3.98155E+00  3.68809E+00  3.44315E+00  3.16400E+00  2.80206E+00  2.33811E+00  1.81606E+00  1.28891E+00  8.31241E-01
   5.07813E-01  3.39988E-01  2.86698E-01  2.72532E-01  2.45380E-01  2.03154E-01  1.58049E-01  1.16219E-01  1.00131E-01  1.55438E-01
   3.18955E-01  5.91155E-01  9.42596E-01  1.34727E+00  1.79029E+00  2.25174E+00  2.72022E+00  3.20017E+00  3.70749E+00  4.25895E+00
   4.85924E+00  5.48895E+00  6.12387E+00  6.74041E+00  7.31496E+00  7.82859E+00  8.27104E+00  8.64141E+00  8.94894E+00  9.20126E+00
   9.40776E+00  9.58204E+00  9.73989E+00  9.90015E+00  1.00840E+01  1.03133E+01  1.06094E+01  1.09918E+01  1.14769E+01  1.20771E+01
   1.27998E+01  1.36474E+01  1.46167E+01  1.56994E+01  1.68821E+01  1.81464E+01  1.94702E+01  2.08284E+01  2.21940E+01  2.35391E+01
   2.48365E+01  2.60606E+01  2.71891E+01  2.82037E+01  2.90915E+01  2.98464E+01  3.04698E+01  3.09734E+01  3.13844E+01  3.17634E+01
   3.22561E+01  3.28516E+01  3.31744E+01  3.32978E+01  3.34120E+01  3.33508E+01  3.26295E+01  3.08324E+01  2.82223E+01  2.54936E+01
   2.30172E+01  2.11889E+01  2.05322E+01  2.14337E+01  2.36845E+01  2.64886E+01  2.88800E+01  3.02344E+01  3.06111E+01  3.01644E+01
   2.91288E+01  2.78886E+01  2.68129E+01  2.61233E+01  2.57166E+01  2.53142E+01  2.48924E+01  2.44615E+01  2.40251E+01  2.35870E+01
   2.31531E+01  2.27305E+01  2.23278E+01  2.19541E+01  2.16191E+01  2.13328E+01  2.11047E+01  2.09442E+01  2.08597E+01  2.08585E+01
   2.09469E+01  2.11291E+01  2.14079E+01  2.17838E+01  2.22549E+01  2.28168E+01  2.34627E+01  2.41830E+01  2.49657E+01  2.57962E+01
   2.66582E+01  2.75332E+01  2.84021E+01  2.92450E+01  3.00421E+01  3.07745E+01  3.14248E+01  3.19774E+01  3.24197E+01  3.27418E+01
   3.29375E+01  3.30034E+01  3.29399E+01  3.27500E+01  3.24400E+01  3.20180E+01  3.14943E+01  3.08803E+01  3.01882E+01  2.94304E+01
   2.86194E+01  2.77672E+01  2.68851E+01  2.59833E+01  2.50713E+01  2.41574E+01  2.32490E+01  2.23525E+01  2.14732E+01  2.06157E+01
   1.97838E+01  1.89806E+01  1.82086E+01  1.74696E+01  1.67651E+01  1.60958E+01  1.54622E+01  1.48644E+01  1.43021E+01  1.37746E+01
   1.32812E+01  1.28206E+01  1.23916E+01  1.19929E+01  1.16229E+01  1.12800E+01  1.09627E+01  1.06693E+01  1.03983E+01  1.01482E+01
   9.91739E+00  9.70455E+00  9.50831E+00  9.32743E+00  9.16077E+00  9.00722E+00  8.86578E+00  8.73547E+00  8.61547E+00  8.50499E+00
   8.40335E+00  8.30986E+00  8.22392E+00  8.14494E+00  8.07246E+00  8.00603E+00  7.94523E+00  7.88967E+00  7.83897E+00  7.79279E+00
   7.75088E+00  7.71295E+00  7.67878E+00  7.64808E+00  7.62065E+00  7.59629E+00  7.57485E+00  7.55615E+00  7.54004E+00  7.52634E+00
   7.51492E+00  7.50566E+00  7.49847E+00  7.49324E+00  7.48986E+00  7.48820E+00  7.48819E+00  7.48974E+00  7.49281E+00  7.49729E+00
   7.50311E+00  7.51017E+00  7.51845E+00  7.52789E+00  7.53845E+00  7.55005E+00  7.56262E+00  7.57611E+00  7.59051E+00  7.60575E+00
   7.62181E+00  7.63861E+00  7.65611E+00  7.67427E+00  7.69307E+00  7.71246E+00  7.73240E+00  7.75281E+00
 NY background values follow
     4.450E-01    4.214E-01    3.978E-01    3.742E-01    3.506E-01    3.270E-01    3.034E-01    2.798E-01    2.562E-01    2.325E-01
     2.089E-01    1.853E-01    1.616E-01    1.380E-01    1.143E-01    9.064E-02    6.694E-02    4.323E-02    1.950E-02   -4.255E-03
    -2.803E-02   -5.182E-02   -7.565E-02   -9.949E-02   -1.234E-01   -1.473E-01   -1.712E-01   -1.952E-01   -2.192E-01   -2.432E-01
    -2.673E-01   -2.914E-01   -3.155E-01   -3.397E-01   -3.640E-01   -3.882E-01   -4.126E-01   -4.369E-01   -4.613E-01   -4.858E-01
    -5.103E-01   -5.349E-01   -5.595E-01   -5.842E-01   -6.089E-01   -6.337E-01   -6.586E-01   -6.835E-01   -7.085E-01   -7.335E-01
    -7.586E-01   -7.838E-01   -8.090E-01   -8.343E-01   -8.596E-01   -8.850E-01   -9.104E-01   -9.359E-01   -9.614E-01   -9.870E-01
    -1.013E+00   -1.038E+00   -1.064E+00   -1.090E+00   -1.116E+00   -1.142E+00   -1.168E+00   -1.194E+00   -1.220E+00   -1.246E+00
    -1.272E+00   -1.298E+00   -1.324E+00   -1.350E+00   -1.377E+00   -1.403E+00   -1.430E+00   -1.456E+00   -1.482E+00   -1.509E+00
    -1.536E+00   -1.562E+00   -1.589E+00   -1.615E+00   -1.642E+00   -1.669E+00   -1.696E+00   -1.722E+00   -1.749E+00   -1.776E+00
    -1.803E+00   -1.830E+00   -1.857E+00   -1.884E+00   -1.911E+00   -1.938E+00   -1.965E+00   -1.992E+00   -2.020E+00   -2.047E+00
    -2.074E+00   -2.101E+00   -2.129E+00   -2.156E+00   -2.183E+00   -2.211E+00   -2.238E+00   -2.265E+00   -2.293E+00   -2.320E+00
    -2.348E+00   -2.375E+00   -2.403E+00   -2.430E+00   -2.458E+00   -2.485E+00   -2.513E+00   -2.541E+00   -2.568E+00   -2.596E+00
    -2.624E+00   -2.651E+00   -2.679E+00   -2.707E+00   -2.735E+00   -2.762E+00   -2.790E+00   -2.818E+00   -2.846E+00   -2.874E+00
    -2.901E+00   -2.929E+00   -2.957E+00   -2.985E+00   -3.013E+00   -3.041E+00   -3.069E+00   -3.097E+00   -3.125E+00   -3.153E+00
    -3.180E+00   -3.208E+00   -3.236E+00   -3.264E+00   -3.292E+00   -3.319E+00   -3.347E+00   -3.375E+00   -3.402E+00   -3.430E+00
    -3.457E+00   -3.484E+00   -3.511E+00   -3.538E+00   -3.565E+00   -3.592E+00   -3.619E+00   -3.645E+00   -3.671E+00   -3.698E+00
    -3.724E+00   -3.749E+00   -3.775E+00   -3.801E+00   -3.826E+00   -3.851E+00   -3.876E+00   -3.900E+00   -3.925E+00   -3.949E+00
    -3.973E+00   -3.997E+00   -4.020E+00   -4.043E+00   -4.066E+00   -4.089E+00   -4.111E+00   -4.133E+00   -4.155E+00   -4.177E+00
    -4.198E+00   -4.219E+00   -4.239E+00   -4.259E+00   -4.279E+00   -4.299E+00   -4.318E+00   -4.337E+00   -4.355E+00   -4.373E+00
    -4.391E+00   -4.409E+00   -4.426E+00   -4.443E+00   -4.459E+00   -4.476E+00   -4.491E+00   -4.507E+00   -4.522E+00   -4.537E+00
    -4.552E+00   -4.566E+00   -4.580E+00   -4.593E+00   -4.606E+00   -4.619E+00   -4.631E+00   -4.643E+00   -4.655E+00   -4.667E+00
    -4.678E+00   -4.688E+00   -4.699E+00   -4.709E+00   -4.718E+00   -4.728E+00   -4.737E+00   -4.745E+00   -4.754E+00   -4.762E+00
    -4.769E+00   -4.776E+00   -4.783E+00   -4.790E+00   -4.796E+00   -4.802E+00   -4.807E+00   -4.812E+00   -4.817E+00   -4.821E+00
    -4.825E+00   -4.829E+00   -4.832E+00   -4.835E+00   -4.837E+00   -4.839E+00   -4.841E+00   -4.842E+00   -4.843E+00   -4.844E+00
    -4.844E+00   -4.844E+00   -4.843E+00   -4.842E+00   -4.841E+00   -4.839E+00   -4.837E+00   -4.834E+00   -4.831E+00   -4.828E+00
    -4.824E+00   -4.820E+00   -4.815E+00   -4.810E+00   -4.805E+00   -4.799E+00   -4.793E+00   -4.786E+00   -4.779E+00   -4.771E+00
    -4.763E+00   -4.755E+00   -4.746E+00   -4.736E+00   -4.727E+00   -4.716E+00   -4.706E+00   -4.695E+00   -4.683E+00   -4.671E+00
    -4.658E+00   -4.646E+00   -4.632E+00   -4.618E+00   -4.604E+00   -4.589E+00   -4.574E+00   -4.558E+00   -4.542E+00   -4.526E+00
    -4.509E+00   -4.491E+00   -4.473E+00   -4.455E+00   -4.436E+00   -4.417E+00   -4.398E+00   -4.378E+00   -4.357E+00   -4.336E+00
    -4.315E+00   -4.293E+00   -4.271E+00   -4.249E+00   -4.226E+00   -4.202E+00   -4.179E+00   -4.154E+00   -4.130E+00   -4.105E+00
    -4.080E+00   -4.054E+00   -4.028E+00   -4.001E+00   -3.974E+00   -3.947E+00   -3.919E+00   -3.891E+00   -3.863E+00   -3.834E+00
    -3.805E+00   -3.775E+00   -3.745E+00   -3.715E+00   -3.684E+00   -3.653E+00   -3.622E+00   -3.590E+00   -3.558E+00   -3.525E+00
    -3.492E+00   -3.459E+00   -3.426E+00   -3.392E+00   -3.358E+00   -3.323E+00   -3.288E+00   -3.253E+00   -3.217E+00   -3.182E+00
    -3.145E+00   -3.109E+00   -3.072E+00   -3.035E+00   -2.997E+00   -2.960E+00   -2.922E+00   -2.883E+00   -2.845E+00   -2.806E+00
    -2.767E+00   -2.727E+00   -2.687E+00   -2.647E+00   -2.607E+00   -2.566E+00   -2.525E+00   -2.484E+00   -2.443E+00   -2.401E+00
    -2.359E+00   -2.317E+00   -2.274E+00   -2.232E+00   -2.189E+00   -2.145E+00   -2.102E+00   -2.058E+00   -2.014E+00   -1.970E+00
    -1.926E+00   -1.881E+00   -1.836E+00   -1.791E+00   -1.746E+00   -1.701E+00   -1.655E+00   -1.609E+00   -1.563E+00   -1.517E+00
    -1.470E+00   -1.423E+00   -1.376E+00   -1.329E+00   -1.282E+00   -1.235E+00   -1.187E+00   -1.139E+00   -1.091E+00   -1.043E+00
    -9.949E-01   -9.464E-01   -8.978E-01   -8.490E-01   -8.000E-01   -7.510E-01   -7.017E-01   -6.523E-01   -6.028E-01   -5.532E-01
    -5.034E-01   -4.535E-01   -4.034E-01   -3.532E-01   -3.030E-01   -2.525E-01   -2.020E-01   -1.514E-01   -1.006E-01   -4.979E-02
     1.164E-03    5.221E-02    1.034E-01    1.546E-01    2.059E-01    2.573E-01    3.088E-01    3.604E-01    4.121E-01    4.638E-01
     5.156E-01    5.675E-01    6.194E-01    6.714E-01    7.235E-01    7.756E-01    8.278E-01    8.800E-01    9.323E-01    9.846E-01
     1.037E+00    1.089E+00    1.142E+00    1.194E+00    1.247E+00    1.300E+00    1.352E+00    1.405E+00    1.458E+00    1.510E+00
     1.563E+00    1.616E+00    1.669E+00    1.721E+00    1.774E+00    1.827E+00    1.880E+00    1.933E+00    1.986E+00    2.038E+00
     2.091E+00    2.144E+00    2.197E+00    2.250E+00    2.303E+00    2.355E+00    2.408E+00    2.461E+00    2.514E+00    2.566E+00
     2.619E+00    2.672E+00    2.724E+00    2.777E+00    2.830E+00    2.882E+00    2.935E+00    2.987E+00    3.040E+00    3.092E+00
     3.145E+00    3.197E+00    3.250E+00    3.302E+00    3.354E+00    3.407E+00    3.459E+00    3.511E+00    3.563E+00    3.616E+00
     3.668E+00    3.720E+00    3.772E+00    3.824E+00    3.876E+00    3.929E+00    3.981E+00    4.033E+00    4.085E+00    4.137E+00
     4.189E+00    4.241E+00    4.293E+00    4.345E+00    4.397E+00    4.449E+00    4.501E+00    4.553E+00    4.605E+00    4.657E+00
     4.709E+00    4.761E+00    4.813E+00    4.865E+00    4.917E+00    4.968E+00    5.020E+00    5.072E+00
 Cr       Conc. = 1.22E+03
