 LCModel (Version 6.3-1L) Copyright: S.W. Provencher.          Ref.: Magn. Reson. Med. 30:672-679 (1993).                
 Slice#3 Row#3 Col#11  K_02_press_1_raw_act
 36 lines in following concentration table = NCONC+1
    Conc.  %SD /Cr+PCr  Metabolite                                         
 2.19E+05   5%  99.719 Ala                                                 
 1.11E+03 101%   0.503 Asp                                                 
 2.20E+03  21%   1.000 Cr                                                  
    0.000 999%   0.000 PCr                                                 
    0.000 999%   0.000 GABA                                                
  591.695 120%   0.269 Glc                                                 
 2.07E+04  26%   9.406 Gln                                                 
 2.96E+04  25%  13.453 Glu                                                 
 2.50E+03  10%   1.138 GPC                                                 
    0.000 999%   0.000 PCh                                                 
 1.33E+04  11%   6.070 GSH                                                 
 3.48E+04   9%  15.853 Ins                                                 
    0.000 999%   0.000 Lac                                                 
    0.000 999%   0.000 NAA                                                 
    0.000 999%   0.000 NAAG                                                
  702.476  26%   0.320+Scyllo                                              
 1.70E+03  63%   0.774 Tau                                                 
    0.000 999%   0.000 -CrCH2                                              
 2.50E+03  10%   1.138 GPC+PCh                                             
    0.000 999%   0.000 NAA+NAAG                                            
 2.20E+03  21%   1.000 Cr+PCr                                              
 5.02E+04  22%  22.859 Glu+Gln                                             
    0.000 999%   0.000 Lip13a                                              
 7.36E+03  50%   3.348 Lip13b                                              
 6.61E+03  41%   3.009 Lip09                                               
 5.16E+04   7%  23.483 MM09                                                
    0.000 999%   0.000 Lip20                                               
 7.06E+04   8%  32.116-MM20                                                
 1.54E+04   8%   6.992 MM12                                                
 5.73E+04   3%  26.085+MM14                                                
 2.61E+04   9%  11.852+MM17                                                
 7.36E+03  50%   3.348 Lip13a+Lip13b                                       
 8.01E+04   6%  36.426 MM14+Lip13a+Lip13b+MM12                             
 5.82E+04   7%  26.492 MM09+Lip09                                          
 7.06E+04   8%  32.116 MM20+Lip20                                          
   6 lines in following misc. output table
  FWHM = 0.168 ppm    S/N =  21                                            
  Data shift = 0.206 ppm                                                   
  Ph:  95 deg       4.5 deg/ppm                                            
  alphaB,S = 8.5E+01,   1.5E+03                                            
    6 spline knots.   Ns = 9(2)                                            
  ( 9) 4 infls.   ( 4) 2 extrs.                                            
  498 points on ppm-axis = NY
      4.000000     3.992357     3.984714     3.977070     3.969427     3.961784     3.954141     3.946497     3.938854     3.931211
      3.923568     3.915925     3.908281     3.900638     3.892995     3.885352     3.877708     3.870065     3.862422     3.854779
      3.847136     3.839492     3.831849     3.824206     3.816563     3.808919     3.801276     3.793633     3.785990     3.778347
      3.770703     3.763060     3.755417     3.747774     3.740130     3.732487     3.724844     3.717201     3.709558     3.701914
      3.694271     3.686628     3.678985     3.671341     3.663698     3.656055     3.648412     3.640769     3.633125     3.625482
      3.617839     3.610196     3.602552     3.594909     3.587266     3.579623     3.571980     3.564336     3.556693     3.549050
      3.541407     3.533763     3.526120     3.518477     3.510834     3.503191     3.495547     3.487904     3.480261     3.472618
      3.464974     3.457331     3.449688     3.442045     3.434402     3.426758     3.419115     3.411472     3.403829     3.396185
      3.388542     3.380899     3.373256     3.365613     3.357969     3.350326     3.342683     3.335040     3.327396     3.319753
      3.312110     3.304467     3.296824     3.289180     3.281537     3.273894     3.266251     3.258607     3.250964     3.243321
      3.235678     3.228034     3.220391     3.212748     3.205105     3.197462     3.189818     3.182175     3.174532     3.166889
      3.159245     3.151602     3.143959     3.136316     3.128673     3.121029     3.113386     3.105743     3.098100     3.090456
      3.082813     3.075170     3.067527     3.059884     3.052240     3.044597     3.036954     3.029311     3.021667     3.014024
      3.006381     2.998738     2.991095     2.983451     2.975808     2.968165     2.960522     2.952878     2.945235     2.937592
      2.929949     2.922306     2.914662     2.907019     2.899376     2.891733     2.884089     2.876446     2.868803     2.861160
      2.853517     2.845873     2.838230     2.830587     2.822944     2.815300     2.807657     2.800014     2.792371     2.784728
      2.777084     2.769441     2.761798     2.754155     2.746511     2.738868     2.731225     2.723582     2.715939     2.708295
      2.700652     2.693009     2.685366     2.677722     2.670079     2.662436     2.654793     2.647150     2.639506     2.631863
      2.624220     2.616577     2.608933     2.601290     2.593647     2.586004     2.578361     2.570717     2.563074     2.555431
      2.547788     2.540144     2.532501     2.524858     2.517215     2.509572     2.501928     2.494285     2.486642     2.478999
      2.471355     2.463712     2.456069     2.448426     2.440783     2.433139     2.425496     2.417853     2.410210     2.402566
      2.394923     2.387280     2.379637     2.371994     2.364350     2.356707     2.349064     2.341421     2.333777     2.326134
      2.318491     2.310848     2.303205     2.295561     2.287918     2.280275     2.272632     2.264988     2.257345     2.249702
      2.242059     2.234416     2.226772     2.219129     2.211486     2.203843     2.196199     2.188556     2.180913     2.173270
      2.165627     2.157983     2.150340     2.142697     2.135054     2.127410     2.119767     2.112124     2.104481     2.096838
      2.089194     2.081551     2.073908     2.066265     2.058621     2.050978     2.043335     2.035692     2.028049     2.020405
      2.012762     2.005119     1.997476     1.989833     1.982190     1.974546     1.966903     1.959260     1.951617     1.943974
      1.936331     1.928688     1.921045     1.913402     1.905759     1.898115     1.890472     1.882829     1.875186     1.867543
      1.859900     1.852257     1.844614     1.836971     1.829327     1.821684     1.814041     1.806398     1.798755     1.791112
      1.783469     1.775826     1.768183     1.760540     1.752896     1.745253     1.737610     1.729967     1.722324     1.714681
      1.707038     1.699395     1.691752     1.684108     1.676465     1.668822     1.661179     1.653536     1.645893     1.638250
      1.630607     1.622964     1.615321     1.607677     1.600034     1.592391     1.584748     1.577105     1.569462     1.561819
      1.554176     1.546533     1.538890     1.531246     1.523603     1.515960     1.508317     1.500674     1.493031     1.485388
      1.477745     1.470102     1.462458     1.454815     1.447172     1.439529     1.431886     1.424243     1.416600     1.408957
      1.401314     1.393671     1.386027     1.378384     1.370741     1.363098     1.355455     1.347812     1.340169     1.332526
      1.324883     1.317240     1.309596     1.301953     1.294310     1.286667     1.279024     1.271381     1.263738     1.256095
      1.248452     1.240808     1.233165     1.225522     1.217879     1.210236     1.202593     1.194950     1.187307     1.179664
      1.172021     1.164377     1.156734     1.149091     1.141448     1.133805     1.126162     1.118519     1.110876     1.103233
      1.095590     1.087946     1.080303     1.072660     1.065017     1.057374     1.049731     1.042088     1.034445     1.026802
      1.019158     1.011515     1.003872     0.996229     0.988586     0.980943     0.973300     0.965657     0.958014     0.950371
      0.942727     0.935084     0.927441     0.919798     0.912155     0.904512     0.896869     0.889226     0.881583     0.873940
      0.866296     0.858653     0.851010     0.843367     0.835724     0.828081     0.820438     0.812795     0.805152     0.797508
      0.789865     0.782222     0.774579     0.766936     0.759293     0.751650     0.744007     0.736364     0.728721     0.721077
      0.713434     0.705791     0.698148     0.690505     0.682862     0.675219     0.667576     0.659933     0.652290     0.644646
      0.637003     0.629360     0.621717     0.614074     0.606431     0.598788     0.591145     0.583502     0.575858     0.568215
      0.560572     0.552929     0.545286     0.537643     0.530000     0.522357     0.514714     0.507071     0.499427     0.491784
      0.484141     0.476498     0.468855     0.461212     0.453569     0.445925     0.438282     0.430639     0.422996     0.415353
      0.407710     0.400067     0.392424     0.384780     0.377137     0.369494     0.361851     0.354208     0.346565     0.338922
      0.331278     0.323635     0.315992     0.308349     0.300706     0.293063     0.285420     0.277777     0.270133     0.262490
      0.254847     0.247204     0.239561     0.231918     0.224275     0.216631     0.208988     0.201345
 NY phased data points follow
  -4.32528E+01 -4.39981E+01 -4.73345E+01 -4.49950E+01 -4.64354E+01 -4.78792E+01 -4.32150E+01 -4.78019E+01 -4.90242E+01 -4.98047E+01
  -4.98215E+01 -4.97109E+01 -4.97219E+01 -4.95757E+01 -5.28823E+01 -5.53442E+01 -5.52367E+01 -5.61978E+01 -5.66385E+01 -5.79134E+01
  -5.84412E+01 -6.16299E+01 -5.90993E+01 -6.32768E+01 -6.18959E+01 -6.10585E+01 -6.18310E+01 -6.60258E+01 -6.29474E+01 -6.64657E+01
  -6.40368E+01 -6.57329E+01 -6.77903E+01 -7.12777E+01 -6.80447E+01 -6.67696E+01 -6.89740E+01 -6.99770E+01 -6.84981E+01 -7.18113E+01
  -7.31882E+01 -7.39785E+01 -7.09274E+01 -7.78495E+01 -7.86421E+01 -7.80070E+01 -7.99143E+01 -7.85079E+01 -8.10304E+01 -8.27941E+01
  -8.31733E+01 -8.58717E+01 -8.93344E+01 -8.75267E+01 -9.01345E+01 -9.08635E+01 -9.45721E+01 -9.35482E+01 -9.36263E+01 -9.54711E+01
  -9.47214E+01 -1.05196E+02 -1.00969E+02 -1.03484E+02 -1.05710E+02 -1.10238E+02 -1.10471E+02 -1.09607E+02 -1.09058E+02 -1.14858E+02
  -1.18355E+02 -1.16993E+02 -1.19166E+02 -1.24989E+02 -1.22252E+02 -1.25596E+02 -1.25068E+02 -1.24626E+02 -1.26647E+02 -1.27801E+02
  -1.28690E+02 -1.27273E+02 -1.29816E+02 -1.32103E+02 -1.30908E+02 -1.35789E+02 -1.33312E+02 -1.34946E+02 -1.37578E+02 -1.37486E+02
  -1.42932E+02 -1.44000E+02 -1.43932E+02 -1.47481E+02 -1.48359E+02 -1.54839E+02 -1.58427E+02 -1.55342E+02 -1.64185E+02 -1.67640E+02
  -1.60826E+02 -1.64655E+02 -1.60682E+02 -1.62056E+02 -1.60485E+02 -1.59330E+02 -1.57422E+02 -1.60548E+02 -1.59005E+02 -1.63980E+02
  -1.65047E+02 -1.64537E+02 -1.65551E+02 -1.64561E+02 -1.68753E+02 -1.65372E+02 -1.70370E+02 -1.68656E+02 -1.71033E+02 -1.72089E+02
  -1.73597E+02 -1.72139E+02 -1.73782E+02 -1.75598E+02 -1.75166E+02 -1.80912E+02 -1.78077E+02 -1.76540E+02 -1.82863E+02 -1.81983E+02
  -1.82101E+02 -1.86672E+02 -1.84049E+02 -1.89237E+02 -1.84934E+02 -1.89780E+02 -1.89763E+02 -1.91548E+02 -1.93539E+02 -1.94024E+02
  -1.92899E+02 -1.98289E+02 -1.98332E+02 -1.97425E+02 -1.99292E+02 -2.05332E+02 -2.07243E+02 -2.10131E+02 -2.09579E+02 -2.14227E+02
  -2.16212E+02 -2.18050E+02 -2.18196E+02 -2.21716E+02 -2.27481E+02 -2.25526E+02 -2.33086E+02 -2.31480E+02 -2.33239E+02 -2.37594E+02
  -2.40080E+02 -2.36659E+02 -2.39251E+02 -2.37325E+02 -2.45172E+02 -2.49207E+02 -2.48947E+02 -2.46696E+02 -2.45359E+02 -2.47165E+02
  -2.47978E+02 -2.47299E+02 -2.44887E+02 -2.49390E+02 -2.48213E+02 -2.46329E+02 -2.46585E+02 -2.48685E+02 -2.44510E+02 -2.44495E+02
  -2.46837E+02 -2.42883E+02 -2.44861E+02 -2.41670E+02 -2.41905E+02 -2.38849E+02 -2.37279E+02 -2.34824E+02 -2.32550E+02 -2.33092E+02
  -2.27357E+02 -2.26369E+02 -2.22794E+02 -2.20041E+02 -2.18775E+02 -2.17661E+02 -2.11085E+02 -2.11830E+02 -2.09466E+02 -2.05629E+02
  -2.03875E+02 -1.98117E+02 -1.96742E+02 -1.92468E+02 -1.88382E+02 -1.87665E+02 -1.80185E+02 -1.79350E+02 -1.76262E+02 -1.74755E+02
  -1.69853E+02 -1.67967E+02 -1.65909E+02 -1.57530E+02 -1.56731E+02 -1.55807E+02 -1.54538E+02 -1.54098E+02 -1.46726E+02 -1.46100E+02
  -1.47244E+02 -1.39988E+02 -1.39965E+02 -1.36512E+02 -1.32153E+02 -1.27856E+02 -1.27879E+02 -1.22147E+02 -1.25987E+02 -1.19565E+02
  -1.14000E+02 -1.10772E+02 -1.04851E+02 -9.65122E+01 -8.85549E+01 -8.68420E+01 -8.26435E+01 -8.35350E+01 -7.45495E+01 -7.67482E+01
  -7.71993E+01 -7.40914E+01 -7.41942E+01 -7.26024E+01 -7.44689E+01 -7.62742E+01 -7.25611E+01 -7.16917E+01 -7.00521E+01 -6.74518E+01
  -6.28182E+01 -6.11392E+01 -6.25652E+01 -5.55492E+01 -5.26944E+01 -5.02384E+01 -5.05488E+01 -4.40363E+01 -4.24914E+01 -3.34054E+01
  -2.79195E+01 -2.62755E+01 -1.97571E+01 -1.23953E+01 -1.06736E+01 -1.43647E+00  5.24717E+00  1.14746E+01  1.93751E+01  2.36876E+01
   3.54204E+01  4.28021E+01  4.82282E+01  6.21556E+01  7.15183E+01  7.69791E+01  8.71350E+01  1.00342E+02  1.15904E+02  1.25714E+02
   1.40859E+02  1.52521E+02  1.65159E+02  1.83610E+02  2.00217E+02  2.12106E+02  2.33194E+02  2.49222E+02  2.67120E+02  2.86196E+02
   3.08437E+02  3.25058E+02  3.50484E+02  3.70867E+02  3.93547E+02  4.15016E+02  4.38652E+02  4.62834E+02  4.82876E+02  5.05695E+02
   5.31855E+02  5.54772E+02  5.76286E+02  5.97731E+02  6.18218E+02  6.38593E+02  6.58997E+02  6.76101E+02  6.88777E+02  7.03079E+02
   7.15311E+02  7.19133E+02  7.23716E+02  7.23053E+02  7.17523E+02  7.16821E+02  7.14191E+02  7.04877E+02  7.01451E+02  6.92635E+02
   6.78727E+02  6.70664E+02  6.55017E+02  6.43224E+02  6.30213E+02  6.13864E+02  5.96543E+02  5.82888E+02  5.66303E+02  5.49477E+02
   5.39409E+02  5.18306E+02  5.05609E+02  4.89736E+02  4.78431E+02  4.67560E+02  4.56263E+02  4.43620E+02  4.31649E+02  4.16371E+02
   4.05594E+02  3.96265E+02  3.83598E+02  3.74837E+02  3.63554E+02  3.51200E+02  3.39699E+02  3.33796E+02  3.21408E+02  3.12827E+02
   3.03533E+02  2.91725E+02  2.85516E+02  2.72788E+02  2.63997E+02  2.58936E+02  2.45793E+02  2.40852E+02  2.34263E+02  2.29655E+02
   2.20535E+02  2.12605E+02  2.08116E+02  2.00302E+02  1.89473E+02  1.82885E+02  1.79761E+02  1.70707E+02  1.70210E+02  1.63940E+02
   1.53158E+02  1.51735E+02  1.42075E+02  1.38399E+02  1.31830E+02  1.30519E+02  1.24263E+02  1.14641E+02  1.10815E+02  1.08909E+02
   1.03628E+02  9.86072E+01  9.54455E+01  9.16326E+01  8.75654E+01  8.52093E+01  8.07330E+01  7.61017E+01  6.90953E+01  6.47642E+01
   6.09563E+01  5.61834E+01  5.14769E+01  4.87538E+01  4.91877E+01  4.31598E+01  4.17321E+01  3.72464E+01  3.41663E+01  3.39879E+01
   3.02109E+01  2.61671E+01  2.54628E+01  2.19728E+01  1.88041E+01  1.75033E+01  1.34367E+01  1.18161E+01  9.80722E+00  6.38878E+00
   6.14858E+00  3.65329E+00 -2.08959E+00 -6.80248E-01 -2.98789E+00 -5.56731E+00 -5.41886E+00 -1.20052E+01 -1.16153E+01 -7.79860E+00
  -1.14741E+01 -1.35687E+01 -1.78131E+01 -1.55747E+01 -2.29743E+01 -2.12131E+01 -2.14549E+01 -2.02797E+01 -2.24522E+01 -2.34144E+01
  -3.05045E+01 -2.70169E+01 -2.63418E+01 -3.17930E+01 -3.28079E+01 -3.25659E+01 -3.23243E+01 -3.07372E+01 -3.69406E+01 -3.57198E+01
  -3.75416E+01 -3.78051E+01 -3.69415E+01 -4.00126E+01 -4.27878E+01 -3.88690E+01 -3.99853E+01 -4.40357E+01 -4.40059E+01 -4.37092E+01
  -4.19518E+01 -4.33414E+01 -4.22930E+01 -4.58366E+01 -5.12206E+01 -5.10479E+01 -5.40698E+01 -5.06434E+01 -5.12506E+01 -5.13152E+01
  -5.42130E+01 -5.18458E+01 -5.31435E+01 -5.52195E+01 -5.38322E+01 -5.21646E+01 -5.31863E+01 -5.04645E+01 -5.50174E+01 -5.82055E+01
  -5.92181E+01 -5.60763E+01 -5.83697E+01 -5.91014E+01 -5.71623E+01 -6.47322E+01 -5.97078E+01 -5.52123E+01 -6.39918E+01 -6.34000E+01
  -6.13647E+01 -6.25244E+01 -6.16873E+01 -6.01457E+01 -6.16503E+01 -6.02300E+01 -6.25179E+01 -6.53212E+01 -6.52982E+01 -6.14632E+01
  -6.32513E+01 -6.51290E+01 -6.56630E+01 -6.34604E+01 -6.62735E+01 -6.37245E+01 -6.94286E+01 -6.73408E+01
 NY points of the fit to the data follow
  -5.31404E+01 -4.88239E+01 -4.81597E+01 -4.07805E+01 -3.93386E+01 -3.26456E+01 -3.44586E+01 -3.32500E+01 -3.59104E+01 -3.65240E+01
  -3.93366E+01 -4.12632E+01 -4.41121E+01 -4.86784E+01 -5.30258E+01 -5.84780E+01 -6.00200E+01 -6.50126E+01 -6.40819E+01 -6.94750E+01
  -6.72472E+01 -7.27345E+01 -6.97704E+01 -7.42694E+01 -6.93784E+01 -7.20290E+01 -6.51732E+01 -6.72814E+01 -6.06983E+01 -6.32644E+01
  -5.79138E+01 -6.10941E+01 -5.70839E+01 -6.09476E+01 -6.07172E+01 -6.52737E+01 -6.58473E+01 -7.00922E+01 -7.24333E+01 -7.67164E+01
  -7.90386E+01 -7.96129E+01 -7.94401E+01 -7.80383E+01 -7.85540E+01 -7.81419E+01 -8.24848E+01 -8.49720E+01 -8.87527E+01 -9.00311E+01
  -9.23876E+01 -9.25733E+01 -9.39445E+01 -9.42183E+01 -9.59324E+01 -9.45735E+01 -9.41370E+01 -9.19803E+01 -9.15613E+01 -9.01847E+01
  -9.01690E+01 -9.12848E+01 -9.22807E+01 -9.48429E+01 -9.64874E+01 -9.96810E+01 -1.00873E+02 -1.04810E+02 -1.05056E+02 -1.08679E+02
  -1.08359E+02 -1.12286E+02 -1.12127E+02 -1.16526E+02 -1.16405E+02 -1.19409E+02 -1.17297E+02 -1.19649E+02 -1.17955E+02 -1.21101E+02
  -1.20756E+02 -1.25116E+02 -1.26406E+02 -1.33298E+02 -1.36450E+02 -1.41963E+02 -1.44762E+02 -1.49409E+02 -1.51518E+02 -1.55218E+02
  -1.56485E+02 -1.59250E+02 -1.59787E+02 -1.61604E+02 -1.61381E+02 -1.62327E+02 -1.61435E+02 -1.61753E+02 -1.60592E+02 -1.60461E+02
  -1.58777E+02 -1.58557E+02 -1.56929E+02 -1.57055E+02 -1.56147E+02 -1.57154E+02 -1.57663E+02 -1.60116E+02 -1.60451E+02 -1.62891E+02
  -1.63792E+02 -1.65475E+02 -1.65722E+02 -1.67272E+02 -1.67858E+02 -1.70305E+02 -1.72298E+02 -1.75287E+02 -1.77566E+02 -1.80201E+02
  -1.81657E+02 -1.84443E+02 -1.85377E+02 -1.88812E+02 -1.88845E+02 -1.89674E+02 -1.87741E+02 -1.88166E+02 -1.85323E+02 -1.86064E+02
  -1.82950E+02 -1.84394E+02 -1.81551E+02 -1.83773E+02 -1.81201E+02 -1.84067E+02 -1.81918E+02 -1.85397E+02 -1.83941E+02 -1.87954E+02
  -1.87122E+02 -1.91369E+02 -1.91053E+02 -1.95209E+02 -1.95604E+02 -1.99871E+02 -2.01154E+02 -2.05627E+02 -2.06855E+02 -2.10623E+02
  -2.11973E+02 -2.14303E+02 -2.15068E+02 -2.17244E+02 -2.18544E+02 -2.21050E+02 -2.23215E+02 -2.25589E+02 -2.27859E+02 -2.29558E+02
  -2.31262E+02 -2.32560E+02 -2.33953E+02 -2.35508E+02 -2.36898E+02 -2.38868E+02 -2.40266E+02 -2.42292E+02 -2.43008E+02 -2.44487E+02
  -2.44122E+02 -2.45274E+02 -2.44299E+02 -2.45401E+02 -2.44021E+02 -2.45827E+02 -2.44645E+02 -2.46285E+02 -2.44766E+02 -2.46401E+02
  -2.45175E+02 -2.46891E+02 -2.46289E+02 -2.48052E+02 -2.47473E+02 -2.48039E+02 -2.46873E+02 -2.46185E+02 -2.43573E+02 -2.41536E+02
  -2.38223E+02 -2.34861E+02 -2.32862E+02 -2.31520E+02 -2.30457E+02 -2.28917E+02 -2.27551E+02 -2.24859E+02 -2.20645E+02 -2.16404E+02
  -2.11527E+02 -2.06778E+02 -2.01762E+02 -1.97478E+02 -1.94017E+02 -1.91834E+02 -1.88753E+02 -1.85973E+02 -1.82763E+02 -1.79689E+02
  -1.76914E+02 -1.73672E+02 -1.71475E+02 -1.68118E+02 -1.66429E+02 -1.62265E+02 -1.60693E+02 -1.55640E+02 -1.54555E+02 -1.50430E+02
  -1.49521E+02 -1.45215E+02 -1.44166E+02 -1.38913E+02 -1.35725E+02 -1.30539E+02 -1.26515E+02 -1.21513E+02 -1.15877E+02 -1.11736E+02
  -1.05114E+02 -1.02229E+02 -9.71955E+01 -9.79125E+01 -9.31826E+01 -9.43349E+01 -8.86950E+01 -8.93337E+01 -8.11771E+01 -8.14891E+01
  -7.39437E+01 -7.44344E+01 -6.79898E+01 -6.84865E+01 -6.42300E+01 -6.47511E+01 -6.06690E+01 -5.90543E+01 -5.58827E+01 -5.25014E+01
  -5.02828E+01 -4.48659E+01 -4.32437E+01 -3.59574E+01 -3.48162E+01 -2.52090E+01 -2.46291E+01 -1.43791E+01 -1.53142E+01 -5.73715E+00
  -7.35725E+00  2.39255E+00  5.79609E-01  1.08899E+01  1.01299E+01  1.96400E+01  1.90256E+01  2.81732E+01  2.79833E+01  3.61716E+01
   3.67894E+01  4.43572E+01  4.57280E+01  5.31592E+01  5.65241E+01  6.51121E+01  7.13067E+01  8.16253E+01  9.10202E+01  1.03432E+02
   1.15910E+02  1.31051E+02  1.47200E+02  1.65701E+02  1.85415E+02  2.06764E+02  2.29297E+02  2.52211E+02  2.75772E+02  2.98881E+02
   3.21687E+02  3.43166E+02  3.63567E+02  3.82137E+02  3.99334E+02  4.15057E+02  4.29999E+02  4.44587E+02  4.60026E+02  4.77577E+02
   4.99222E+02  5.27237E+02  5.63009E+02  6.01241E+02  6.32436E+02  6.60332E+02  6.78585E+02  6.94071E+02  6.99007E+02  7.02447E+02
   6.99473E+02  7.08003E+02  7.09054E+02  7.18009E+02  7.14506E+02  7.17132E+02  7.06823E+02  7.04695E+02  6.91010E+02  6.86967E+02
   6.72052E+02  6.66009E+02  6.49678E+02  6.40701E+02  6.22869E+02  6.11109E+02  5.92519E+02  5.78843E+02  5.60681E+02  5.46213E+02
   5.29828E+02  5.15995E+02  5.02703E+02  4.90540E+02  4.80022E+02  4.68299E+02  4.57838E+02  4.44234E+02  4.32574E+02  4.18486E+02
   4.10118E+02  4.01571E+02  4.00418E+02  3.94324E+02  3.85389E+02  3.70651E+02  3.54887E+02  3.34983E+02  3.16003E+02  2.96307E+02
   2.83842E+02  2.78724E+02  2.76858E+02  2.75113E+02  2.71704E+02  2.65898E+02  2.57749E+02  2.47858E+02  2.37112E+02  2.26434E+02
   2.16576E+02  2.07995E+02  2.00823E+02  1.94902E+02  1.89888E+02  1.85355E+02  1.80899E+02  1.76205E+02  1.71082E+02  1.65466E+02
   1.59394E+02  1.52982E+02  1.46384E+02  1.39765E+02  1.33280E+02  1.27056E+02  1.21185E+02  1.15721E+02  1.10683E+02  1.06058E+02
   1.01807E+02  9.78750E+01  9.41962E+01  9.07007E+01  8.73205E+01  8.39942E+01  8.06699E+01  7.73071E+01  7.38775E+01  7.03652E+01
   6.67649E+01  6.30815E+01  5.93274E+01  5.55215E+01  5.16867E+01  4.78487E+01  4.40340E+01  4.02690E+01  3.65784E+01  3.29849E+01
   2.95084E+01  2.61653E+01  2.29686E+01  1.99274E+01  1.70472E+01  1.43302E+01  1.17747E+01  9.37630E+00  7.12752E+00  5.01846E+00
   3.03708E+00  1.16972E+00 -5.98505E-01 -2.28336E+00 -3.90092E+00 -5.46700E+00 -6.99705E+00 -8.50532E+00 -1.00048E+01 -1.15067E+01
  -1.30202E+01 -1.45522E+01 -1.61074E+01 -1.76879E+01 -1.92935E+01 -2.09216E+01 -2.25677E+01 -2.42253E+01 -2.58866E+01 -2.75427E+01
  -2.91836E+01 -3.07994E+01 -3.23799E+01 -3.39157E+01 -3.53978E+01 -3.68183E+01 -3.81706E+01 -3.94493E+01 -4.06505E+01 -4.17719E+01
  -4.28122E+01 -4.37720E+01 -4.46527E+01 -4.54569E+01 -4.61880E+01 -4.68505E+01 -4.74490E+01 -4.79888E+01 -4.84753E+01 -4.89142E+01
  -4.93109E+01 -4.96709E+01 -4.99995E+01 -5.03018E+01 -5.05823E+01 -5.08456E+01 -5.10955E+01 -5.13360E+01 -5.15702E+01 -5.18012E+01
  -5.20317E+01 -5.22641E+01 -5.25004E+01 -5.27426E+01 -5.29919E+01 -5.32499E+01 -5.35176E+01 -5.37960E+01 -5.40857E+01 -5.43872E+01
  -5.47009E+01 -5.50269E+01 -5.53653E+01 -5.57160E+01 -5.60786E+01 -5.64527E+01 -5.68377E+01 -5.72327E+01 -5.76367E+01 -5.80485E+01
  -5.84667E+01 -5.88895E+01 -5.93148E+01 -5.97403E+01 -6.01629E+01 -6.05794E+01 -6.09856E+01 -6.13766E+01 -6.17465E+01 -6.20879E+01
  -6.23917E+01 -6.26464E+01 -6.28369E+01 -6.29434E+01 -6.29390E+01 -6.27862E+01 -6.24346E+01 -6.18358E+01
 NY background values follow
     1.644E+02    1.604E+02    1.564E+02    1.523E+02    1.483E+02    1.444E+02    1.404E+02    1.365E+02    1.325E+02    1.286E+02
     1.247E+02    1.208E+02    1.170E+02    1.131E+02    1.093E+02    1.055E+02    1.017E+02    9.791E+01    9.415E+01    9.041E+01
     8.670E+01    8.300E+01    7.932E+01    7.566E+01    7.201E+01    6.839E+01    6.479E+01    6.121E+01    5.765E+01    5.411E+01
     5.059E+01    4.709E+01    4.361E+01    4.016E+01    3.672E+01    3.331E+01    2.992E+01    2.655E+01    2.320E+01    1.988E+01
     1.658E+01    1.329E+01    1.004E+01    6.803E+00    3.591E+00    4.031E-01   -2.762E+00   -5.904E+00   -9.022E+00   -1.212E+01
    -1.519E+01   -1.823E+01   -2.126E+01   -2.425E+01   -2.723E+01   -3.018E+01   -3.310E+01   -3.600E+01   -3.888E+01   -4.173E+01
    -4.455E+01   -4.735E+01   -5.013E+01   -5.288E+01   -5.560E+01   -5.830E+01   -6.097E+01   -6.362E+01   -6.624E+01   -6.883E+01
    -7.140E+01   -7.394E+01   -7.646E+01   -7.895E+01   -8.141E+01   -8.385E+01   -8.626E+01   -8.864E+01   -9.100E+01   -9.332E+01
    -9.563E+01   -9.790E+01   -1.002E+02   -1.024E+02   -1.046E+02   -1.067E+02   -1.089E+02   -1.110E+02   -1.131E+02   -1.151E+02
    -1.172E+02   -1.192E+02   -1.211E+02   -1.231E+02   -1.250E+02   -1.269E+02   -1.288E+02   -1.306E+02   -1.324E+02   -1.342E+02
    -1.359E+02   -1.377E+02   -1.394E+02   -1.410E+02   -1.427E+02   -1.443E+02   -1.459E+02   -1.474E+02   -1.489E+02   -1.504E+02
    -1.519E+02   -1.534E+02   -1.548E+02   -1.562E+02   -1.575E+02   -1.589E+02   -1.602E+02   -1.614E+02   -1.627E+02   -1.639E+02
    -1.651E+02   -1.663E+02   -1.674E+02   -1.685E+02   -1.696E+02   -1.706E+02   -1.717E+02   -1.727E+02   -1.736E+02   -1.746E+02
    -1.755E+02   -1.764E+02   -1.772E+02   -1.781E+02   -1.789E+02   -1.796E+02   -1.804E+02   -1.811E+02   -1.818E+02   -1.825E+02
    -1.831E+02   -1.837E+02   -1.843E+02   -1.849E+02   -1.854E+02   -1.859E+02   -1.864E+02   -1.868E+02   -1.873E+02   -1.877E+02
    -1.880E+02   -1.884E+02   -1.887E+02   -1.890E+02   -1.892E+02   -1.895E+02   -1.897E+02   -1.899E+02   -1.900E+02   -1.902E+02
    -1.903E+02   -1.904E+02   -1.904E+02   -1.905E+02   -1.905E+02   -1.905E+02   -1.904E+02   -1.904E+02   -1.903E+02   -1.902E+02
    -1.900E+02   -1.899E+02   -1.897E+02   -1.895E+02   -1.892E+02   -1.890E+02   -1.887E+02   -1.884E+02   -1.880E+02   -1.877E+02
    -1.873E+02   -1.869E+02   -1.865E+02   -1.860E+02   -1.856E+02   -1.851E+02   -1.846E+02   -1.840E+02   -1.835E+02   -1.829E+02
    -1.823E+02   -1.817E+02   -1.810E+02   -1.804E+02   -1.797E+02   -1.790E+02   -1.782E+02   -1.775E+02   -1.767E+02   -1.759E+02
    -1.751E+02   -1.743E+02   -1.734E+02   -1.726E+02   -1.717E+02   -1.708E+02   -1.698E+02   -1.689E+02   -1.679E+02   -1.669E+02
    -1.659E+02   -1.649E+02   -1.639E+02   -1.628E+02   -1.618E+02   -1.607E+02   -1.596E+02   -1.584E+02   -1.573E+02   -1.561E+02
    -1.550E+02   -1.538E+02   -1.526E+02   -1.513E+02   -1.501E+02   -1.488E+02   -1.476E+02   -1.463E+02   -1.450E+02   -1.437E+02
    -1.423E+02   -1.410E+02   -1.396E+02   -1.383E+02   -1.369E+02   -1.355E+02   -1.341E+02   -1.326E+02   -1.312E+02   -1.298E+02
    -1.283E+02   -1.268E+02   -1.253E+02   -1.238E+02   -1.223E+02   -1.208E+02   -1.193E+02   -1.177E+02   -1.162E+02   -1.146E+02
    -1.130E+02   -1.114E+02   -1.099E+02   -1.083E+02   -1.066E+02   -1.050E+02   -1.034E+02   -1.017E+02   -1.001E+02   -9.845E+01
    -9.678E+01   -9.511E+01   -9.343E+01   -9.175E+01   -9.006E+01   -8.836E+01   -8.665E+01   -8.494E+01   -8.322E+01   -8.150E+01
    -7.977E+01   -7.804E+01   -7.630E+01   -7.455E+01   -7.280E+01   -7.105E+01   -6.929E+01   -6.753E+01   -6.577E+01   -6.400E+01
    -6.223E+01   -6.045E+01   -5.867E+01   -5.690E+01   -5.511E+01   -5.333E+01   -5.154E+01   -4.976E+01   -4.797E+01   -4.618E+01
    -4.439E+01   -4.260E+01   -4.081E+01   -3.902E+01   -3.723E+01   -3.544E+01   -3.365E+01   -3.186E+01   -3.007E+01   -2.828E+01
    -2.650E+01   -2.472E+01   -2.294E+01   -2.116E+01   -1.938E+01   -1.761E+01   -1.584E+01   -1.407E+01   -1.231E+01   -1.055E+01
    -8.795E+00   -7.044E+00   -5.298E+00   -3.555E+00   -1.818E+00   -8.644E-02    1.640E+00    3.361E+00    5.076E+00    6.785E+00
     8.488E+00    1.018E+01    1.187E+01    1.356E+01    1.523E+01    1.690E+01    1.856E+01    2.021E+01    2.185E+01    2.349E+01
     2.512E+01    2.673E+01    2.834E+01    2.994E+01    3.153E+01    3.311E+01    3.468E+01    3.624E+01    3.779E+01    3.933E+01
     4.086E+01    4.238E+01    4.388E+01    4.538E+01    4.686E+01    4.833E+01    4.979E+01    5.123E+01    5.267E+01    5.409E+01
     5.550E+01    5.689E+01    5.827E+01    5.964E+01    6.099E+01    6.233E+01    6.366E+01    6.497E+01    6.626E+01    6.755E+01
     6.881E+01    7.006E+01    7.130E+01    7.252E+01    7.372E+01    7.491E+01    7.608E+01    7.724E+01    7.838E+01    7.950E+01
     8.060E+01    8.169E+01    8.276E+01    8.381E+01    8.485E+01    8.587E+01    8.687E+01    8.785E+01    8.881E+01    8.975E+01
     9.068E+01    9.158E+01    9.247E+01    9.334E+01    9.419E+01    9.502E+01    9.582E+01    9.661E+01    9.738E+01    9.813E+01
     9.886E+01    9.957E+01    1.003E+02    1.009E+02    1.016E+02    1.022E+02    1.028E+02    1.034E+02    1.039E+02    1.045E+02
     1.050E+02    1.055E+02    1.059E+02    1.064E+02    1.068E+02    1.072E+02    1.076E+02    1.080E+02    1.083E+02    1.086E+02
     1.089E+02    1.092E+02    1.094E+02    1.096E+02    1.098E+02    1.100E+02    1.101E+02    1.103E+02    1.104E+02    1.104E+02
     1.105E+02    1.105E+02    1.105E+02    1.105E+02    1.105E+02    1.104E+02    1.103E+02    1.102E+02    1.100E+02    1.099E+02
     1.097E+02    1.094E+02    1.092E+02    1.089E+02    1.086E+02    1.083E+02    1.079E+02    1.076E+02    1.072E+02    1.067E+02
     1.063E+02    1.058E+02    1.053E+02    1.048E+02    1.042E+02    1.036E+02    1.030E+02    1.024E+02    1.017E+02    1.010E+02
     1.003E+02    9.957E+01    9.881E+01    9.801E+01    9.719E+01    9.634E+01    9.547E+01    9.457E+01    9.364E+01    9.269E+01
     9.171E+01    9.070E+01    8.967E+01    8.861E+01    8.752E+01    8.641E+01    8.527E+01    8.410E+01    8.291E+01    8.169E+01
     8.044E+01    7.916E+01    7.786E+01    7.654E+01    7.518E+01    7.380E+01    7.239E+01    7.096E+01    6.950E+01    6.801E+01
     6.650E+01    6.496E+01    6.340E+01    6.180E+01    6.018E+01    5.854E+01    5.687E+01    5.517E+01    5.345E+01    5.170E+01
     4.992E+01    4.812E+01    4.629E+01    4.444E+01    4.256E+01    4.065E+01    3.872E+01    3.676E+01
 Ala      Conc. = 2.19E+05
