 LCModel (Version 6.3-1L) Copyright: S.W. Provencher.          Ref.: Magn. Reson. Med. 30:672-679 (1993).                
 Slice#3 Row#14 Col#10  K_02_press_1_raw_act
 36 lines in following concentration table = NCONC+1
    Conc.  %SD /Cr+PCr  Metabolite                                         
  842.488  22%   9.056 Ala                                                 
   10.452  61%   0.112 Asp                                                 
    0.000 999%   0.000 Cr                                                  
   93.027 250%   1.000 PCr                                                 
    6.422  59% 6.9E-02 GABA                                                
    6.505  59% 7.0E-02 Glc                                                 
  320.439  84%   3.445 Gln                                                 
  926.392  34%   9.958 Glu                                                 
   28.224  32%   0.303 GPC                                                 
    0.000 999%   0.000 PCh                                                 
   37.366 131%   0.402 GSH                                                 
  330.481  35%   3.553 Ins                                                 
  998.424  27%  10.733 Lac                                                 
    0.000 999%   0.000 NAA                                                 
   35.349  99%   0.380 NAAG                                                
    2.422  52% 2.6E-02 Scyllo                                              
   10.795  58%   0.116 Tau                                                 
    0.000 999%   0.000 -CrCH2                                              
   28.224  32%   0.303 GPC+PCh                                             
   35.349  99%   0.380 NAA+NAAG                                            
   93.027  25%   1.000 Cr+PCr                                              
 1.25E+03  41%  13.403 Glu+Gln                                             
  103.125 272%   1.109 Lip13a                                              
    1.593 999% 1.7E-02 Lip13b                                              
   61.707 130%   0.663 Lip09                                               
   47.788 141%   0.514 MM09                                                
    0.000 999%   0.000 Lip20                                               
    0.000 999%   0.000 MM20                                                
   16.581 168%   0.178 MM12                                                
   93.075  91%   1.001 MM14                                                
  118.744  43%   1.276 MM17                                                
  104.718 208%   1.126 Lip13a+Lip13b                                       
  214.374  99%   2.304 MM14+Lip13a+Lip13b+MM12                             
  109.495  39%   1.177 MM09+Lip09                                          
    0.000 999%   0.000 MM20+Lip20                                          
   6 lines in following misc. output table
  FWHM = 0.153 ppm    S/N =   2                                            
  Data shift = 0.008 ppm                                                   
  Ph:-156 deg      -8.6 deg/ppm                                            
  alphaB,S = 8.5E+01,   2.0E+02                                            
   14 spline knots.   Ns = 8(2)                                            
   2 inflections.     1 extrema                                            
  498 points on ppm-axis = NY
      4.000000     3.992357     3.984714     3.977070     3.969427     3.961784     3.954141     3.946497     3.938854     3.931211
      3.923568     3.915925     3.908281     3.900638     3.892995     3.885352     3.877708     3.870065     3.862422     3.854779
      3.847136     3.839492     3.831849     3.824206     3.816563     3.808919     3.801276     3.793633     3.785990     3.778347
      3.770703     3.763060     3.755417     3.747774     3.740130     3.732487     3.724844     3.717201     3.709558     3.701914
      3.694271     3.686628     3.678985     3.671341     3.663698     3.656055     3.648412     3.640769     3.633125     3.625482
      3.617839     3.610196     3.602552     3.594909     3.587266     3.579623     3.571980     3.564336     3.556693     3.549050
      3.541407     3.533763     3.526120     3.518477     3.510834     3.503191     3.495547     3.487904     3.480261     3.472618
      3.464974     3.457331     3.449688     3.442045     3.434402     3.426758     3.419115     3.411472     3.403829     3.396185
      3.388542     3.380899     3.373256     3.365613     3.357969     3.350326     3.342683     3.335040     3.327396     3.319753
      3.312110     3.304467     3.296824     3.289180     3.281537     3.273894     3.266251     3.258607     3.250964     3.243321
      3.235678     3.228034     3.220391     3.212748     3.205105     3.197462     3.189818     3.182175     3.174532     3.166889
      3.159245     3.151602     3.143959     3.136316     3.128673     3.121029     3.113386     3.105743     3.098100     3.090456
      3.082813     3.075170     3.067527     3.059884     3.052240     3.044597     3.036954     3.029311     3.021667     3.014024
      3.006381     2.998738     2.991095     2.983451     2.975808     2.968165     2.960522     2.952878     2.945235     2.937592
      2.929949     2.922306     2.914662     2.907019     2.899376     2.891733     2.884089     2.876446     2.868803     2.861160
      2.853517     2.845873     2.838230     2.830587     2.822944     2.815300     2.807657     2.800014     2.792371     2.784728
      2.777084     2.769441     2.761798     2.754155     2.746511     2.738868     2.731225     2.723582     2.715939     2.708295
      2.700652     2.693009     2.685366     2.677722     2.670079     2.662436     2.654793     2.647150     2.639506     2.631863
      2.624220     2.616577     2.608933     2.601290     2.593647     2.586004     2.578361     2.570717     2.563074     2.555431
      2.547788     2.540144     2.532501     2.524858     2.517215     2.509572     2.501928     2.494285     2.486642     2.478999
      2.471355     2.463712     2.456069     2.448426     2.440783     2.433139     2.425496     2.417853     2.410210     2.402566
      2.394923     2.387280     2.379637     2.371994     2.364350     2.356707     2.349064     2.341421     2.333777     2.326134
      2.318491     2.310848     2.303205     2.295561     2.287918     2.280275     2.272632     2.264988     2.257345     2.249702
      2.242059     2.234416     2.226772     2.219129     2.211486     2.203843     2.196199     2.188556     2.180913     2.173270
      2.165627     2.157983     2.150340     2.142697     2.135054     2.127410     2.119767     2.112124     2.104481     2.096838
      2.089194     2.081551     2.073908     2.066265     2.058621     2.050978     2.043335     2.035692     2.028049     2.020405
      2.012762     2.005119     1.997476     1.989833     1.982190     1.974546     1.966903     1.959260     1.951617     1.943974
      1.936331     1.928688     1.921045     1.913402     1.905759     1.898115     1.890472     1.882829     1.875186     1.867543
      1.859900     1.852257     1.844614     1.836971     1.829327     1.821684     1.814041     1.806398     1.798755     1.791112
      1.783469     1.775826     1.768183     1.760540     1.752896     1.745253     1.737610     1.729967     1.722324     1.714681
      1.707038     1.699395     1.691752     1.684108     1.676465     1.668822     1.661179     1.653536     1.645893     1.638250
      1.630607     1.622964     1.615321     1.607677     1.600034     1.592391     1.584748     1.577105     1.569462     1.561819
      1.554176     1.546533     1.538890     1.531246     1.523603     1.515960     1.508317     1.500674     1.493031     1.485388
      1.477745     1.470102     1.462458     1.454815     1.447172     1.439529     1.431886     1.424243     1.416600     1.408957
      1.401314     1.393671     1.386027     1.378384     1.370741     1.363098     1.355455     1.347812     1.340169     1.332526
      1.324883     1.317240     1.309596     1.301953     1.294310     1.286667     1.279024     1.271381     1.263738     1.256095
      1.248452     1.240808     1.233165     1.225522     1.217879     1.210236     1.202593     1.194950     1.187307     1.179664
      1.172021     1.164377     1.156734     1.149091     1.141448     1.133805     1.126162     1.118519     1.110876     1.103233
      1.095590     1.087946     1.080303     1.072660     1.065017     1.057374     1.049731     1.042088     1.034445     1.026802
      1.019158     1.011515     1.003872     0.996229     0.988586     0.980943     0.973300     0.965657     0.958014     0.950371
      0.942727     0.935084     0.927441     0.919798     0.912155     0.904512     0.896869     0.889226     0.881583     0.873940
      0.866296     0.858653     0.851010     0.843367     0.835724     0.828081     0.820438     0.812795     0.805152     0.797508
      0.789865     0.782222     0.774579     0.766936     0.759293     0.751650     0.744007     0.736364     0.728721     0.721077
      0.713434     0.705791     0.698148     0.690505     0.682862     0.675219     0.667576     0.659933     0.652290     0.644646
      0.637003     0.629360     0.621717     0.614074     0.606431     0.598788     0.591145     0.583502     0.575858     0.568215
      0.560572     0.552929     0.545286     0.537643     0.530000     0.522357     0.514714     0.507071     0.499427     0.491784
      0.484141     0.476498     0.468855     0.461212     0.453569     0.445925     0.438282     0.430639     0.422996     0.415353
      0.407710     0.400067     0.392424     0.384780     0.377137     0.369494     0.361851     0.354208     0.346565     0.338922
      0.331278     0.323635     0.315992     0.308349     0.300706     0.293063     0.285420     0.277777     0.270133     0.262490
      0.254847     0.247204     0.239561     0.231918     0.224275     0.216631     0.208988     0.201345
 NY phased data points follow
   3.57339E+00  6.65787E-01  2.27258E+00  2.07885E+00  2.58108E+00  3.79558E+00  4.02753E+00  2.91863E+00  3.83696E+00  2.25736E+00
   2.79051E+00  2.18812E+00  2.61703E+00  2.82694E+00  1.91256E+00  3.06262E+00  2.22123E+00  1.77321E+00  1.65047E+00  3.63476E+00
   1.37859E+00  1.51777E+00  1.49517E+00  2.28317E+00  1.61224E+00  1.33967E+00  2.10038E+00  1.95367E+00  2.73346E+00  4.97304E-01
   2.46687E+00  1.15171E+00  2.05027E+00  3.17757E+00  1.65257E+00  2.02893E+00  1.34064E+00  1.34270E+00  2.46300E+00  9.94205E-01
   1.58584E+00  2.67736E+00  1.85724E+00  1.81430E+00  1.65826E+00  2.46631E+00  1.48784E+00  1.16144E+00  2.83594E-01  1.15416E+00
   1.28841E+00  1.72265E+00  9.68483E-01 -2.06473E-01  5.85860E-01  9.41659E-01  9.47254E-01  2.37761E+00  1.97850E+00  3.24166E+00
   5.26663E-01  5.08689E-01 -2.78388E-01  9.65458E-01  2.15153E+00  5.55304E-01  1.21536E-01  1.50576E+00  1.86170E+00  6.34977E-01
   5.61221E-01  5.27108E-01  1.51317E+00  9.33111E-01  1.57293E+00  1.30953E+00  1.24958E+00  3.58623E-01  1.58719E+00  1.45630E+00
   1.50366E+00  1.58387E+00  3.11452E-01  1.58304E+00  5.96184E-01  1.40264E+00  7.40885E-01  9.18162E-01  1.09161E+00  1.12127E+00
   1.97317E+00 -3.57225E-01  1.22598E+00  6.02365E-01  2.34461E+00  1.56558E+00  4.14366E-01  2.28017E+00  1.77892E-01  9.83561E-01
   9.06801E-01  8.63136E-01  1.90571E-01  2.14241E+00  1.21511E+00  1.82233E+00  2.05617E+00  1.42060E+00 -1.13127E+00 -1.65329E+00
   4.28217E-01  1.18509E+00 -1.73564E-01  1.68357E-02 -2.09323E-01 -3.42987E-01 -3.18242E-01  1.49849E+00  2.33343E-01  2.58879E-01
   2.39039E+00  8.93116E-01  4.10123E-01  1.57516E+00 -2.64369E-02  1.25919E+00  4.98318E-01  1.96207E+00 -9.92746E-02  1.55699E+00
   1.98293E+00  1.02868E-02  1.07388E-01  1.04199E+00  5.21193E-01 -5.01325E-01 -1.33787E-01  9.34221E-02 -7.89833E-01  2.11344E+00
  -8.91380E-01  1.72710E+00  1.99875E-01  6.83576E-01  9.81250E-01  8.82940E-01  1.12744E+00  5.33796E-01 -1.09426E-01 -6.83862E-01
   1.43128E+00  6.46071E-01 -3.24270E-02 -9.39259E-02  1.17649E-01  1.62160E-01 -1.46661E-01  1.10823E+00 -8.46305E-01 -1.48785E+00
   7.81300E-01  3.65490E-01  3.55887E-01  1.50340E+00  2.72665E-01 -1.85133E+00 -2.33161E-01 -6.38375E-01  8.16660E-01 -1.19472E+00
  -4.94383E-01  2.81721E-01 -8.45524E-01 -1.11946E-01 -6.83995E-01  6.43343E-02  4.83167E-01  3.56930E-01 -1.09565E-01 -9.64410E-01
   1.16443E+00 -1.15643E+00 -1.72404E+00  1.54924E+00  6.15606E-01 -3.49277E-01 -8.75956E-01  4.38604E-01 -9.27938E-02  1.30790E+00
  -1.28028E+00 -8.00718E-01  1.86037E-01 -1.32667E-01 -7.41131E-01  5.20717E-01  1.11524E-01 -9.89362E-01 -5.34805E-01  1.05438E-01
  -2.66857E-01  7.14221E-01  2.29219E-01  2.60932E-01  1.47518E+00  1.63488E+00  8.68840E-01  8.02958E-01 -4.22037E-01 -1.48743E-01
   1.41555E+00 -1.29339E-01  9.40572E-01 -4.41855E-01  8.72743E-01 -5.93179E-01 -8.19382E-01 -1.35819E-01  7.52179E-02  5.07381E-01
  -8.07715E-01 -1.83739E+00 -1.97015E+00  3.04551E-03 -2.53373E-01 -4.53448E-02 -1.69595E-01  7.26266E-02 -9.07205E-01  2.14343E+00
   6.70707E-01 -1.17963E+00  1.20800E+00  1.98829E+00  9.46930E-01 -2.08093E-01  3.55715E-01  2.24185E-01  1.09419E+00  3.92080E-01
   1.21117E+00  1.25806E+00  2.25148E-01  1.15537E+00 -4.95456E-02 -5.80082E-01  5.24635E-01  5.74644E-01  2.83075E+00  8.80659E-01
   1.12902E+00  1.33186E+00  1.77757E-01  1.99090E+00  1.37431E-01  1.45989E+00  1.86555E+00  1.71308E+00  5.78495E-01  2.49577E-01
  -3.88045E-01  1.27561E+00  1.63670E+00  8.34712E-01  2.38884E-01 -9.18246E-01 -3.21003E-01  1.28578E+00  6.44941E-01 -1.55646E+00
   2.75168E-01 -2.63796E-01  2.83611E-02  1.90468E+00  3.73068E-01  1.85419E-01  1.03352E+00 -6.17745E-01  1.27325E+00 -2.82255E-01
  -3.44035E-01  1.25155E+00 -3.26916E-01  1.45742E+00  1.50314E-01 -2.49455E-02 -7.00245E-02  1.00270E+00  1.37274E+00 -1.44355E+00
   1.04742E+00  9.24401E-01  7.31753E-01 -2.30030E-01  1.20319E+00  4.09597E-01  1.16773E+00  3.50908E+00  2.06851E+00  2.22497E+00
   9.46635E-01  2.62357E+00  1.61853E+00  9.32480E-01  1.78110E+00  2.49091E+00  3.01993E+00  3.25092E+00  2.20068E+00  1.97576E+00
   3.98072E+00  4.41519E+00  4.20984E+00  1.94857E+00  2.75282E+00  4.51169E+00  3.32403E+00  3.08167E+00  3.17924E+00  2.49439E+00
   4.06633E+00  2.97097E+00  1.20774E+00  3.37519E+00  3.17707E+00  4.26551E+00  1.75172E+00  2.24233E+00  3.05467E+00  4.11350E+00
   1.67993E+00  3.89005E+00  4.46648E+00  4.77350E+00  4.55156E+00  3.22055E+00  4.11057E+00  5.04356E+00  3.71439E+00  4.29008E+00
   2.82568E+00  4.79642E+00  4.36082E+00  4.01248E+00  3.40772E+00  4.31754E+00  5.26013E+00  2.89529E+00  4.86830E+00  2.77519E+00
   2.50840E+00  2.61978E+00  3.46671E+00  4.77744E+00  3.71837E+00  2.66762E+00  4.13127E+00  2.71247E+00  1.16987E+00  4.47408E+00
   1.86288E+00  3.26187E+00  3.96930E+00  1.57256E+00  2.30232E+00  1.54508E+00  4.93764E+00  3.92209E+00  2.93735E+00  2.67304E+00
   2.09700E+00  2.70637E+00  3.94226E-01  1.76472E+00  7.22797E-01  4.44190E-01  1.84092E+00  2.15096E+00  7.42054E-01  1.42617E+00
   2.14404E+00  6.71447E-01  5.63176E-01  2.45153E+00 -7.27303E-01  2.43602E+00  3.04143E+00  8.15519E-01  2.13854E+00  1.04440E+00
   1.97294E-01  2.40009E-01 -5.96563E-01  1.30713E+00  9.46861E-01  1.51299E+00  9.67598E-01  8.25860E-01  1.15999E-01 -7.93182E-03
   3.30882E+00  3.42977E-01 -2.41324E-02  1.29803E+00  6.64802E-01  3.28027E-01 -8.91237E-01 -8.62351E-01  1.69476E+00  1.22454E+00
   2.05525E+00  2.62324E+00  2.18004E+00 -1.45332E-01  2.05752E+00  1.24113E+00  1.40519E+00  1.61658E+00  2.93290E-01  1.21136E+00
   8.62581E-01  1.31573E+00  3.58350E-01  1.31242E-01 -7.77478E-01 -8.20327E-01  8.96974E-01  5.83478E-01  5.58565E-02 -1.58360E-01
   1.29424E+00 -2.22215E-01 -1.68039E+00 -3.13283E-01  7.04973E-01  1.27001E+00  2.04107E-01  4.77932E-02  1.81986E+00  2.66646E+00
   8.16244E-01  6.48992E-01  7.90545E-01  6.54846E-01  8.48905E-01  1.79747E+00  5.91948E-01 -2.34728E-01 -1.47360E+00 -4.36134E-01
  -2.11430E-01 -7.79674E-01  1.03251E+00  6.21041E-01  1.21011E-01  1.38334E+00  1.14265E-01  3.77078E-01  6.39902E-01  1.68298E+00
  -7.86081E-01 -6.71071E-02 -2.81816E-01 -5.03320E-01 -5.10228E-01  1.02843E-01 -4.62509E-01 -1.06130E+00  1.25631E+00 -1.63478E+00
  -1.44991E-01  1.69999E+00  1.39502E+00  1.78867E-01  4.06051E-01 -1.93055E-01  6.18277E-01 -4.78289E-01 -2.21411E-01 -1.67790E-01
  -3.38120E-01 -1.30241E+00 -3.36634E-01  7.74505E-01  1.05653E+00 -3.46628E-01  2.79251E-01 -3.15081E-01  1.94152E+00  1.58320E-01
  -4.70953E-01 -6.17430E-01  4.16696E-01  7.73228E-01  7.65489E-01 -3.27760E-02  8.97425E-01  6.14638E-01
 NY points of the fit to the data follow
   1.74371E+00  1.99679E+00  1.80784E+00  2.02885E+00  1.81463E+00  1.98421E+00  1.78072E+00  1.93358E+00  1.78811E+00  1.98929E+00
   1.82160E+00  2.02342E+00  1.76313E+00  1.96052E+00  1.63380E+00  1.83421E+00  1.52364E+00  1.83117E+00  1.58028E+00  1.92187E+00
   1.66634E+00  1.96029E+00  1.66008E+00  1.91359E+00  1.60328E+00  1.81128E+00  1.56997E+00  1.76558E+00  1.62286E+00  1.80556E+00
   1.74106E+00  1.88875E+00  1.89296E+00  1.95955E+00  1.98118E+00  1.96480E+00  2.01078E+00  1.93070E+00  2.01775E+00  1.91501E+00
   2.04967E+00  1.92791E+00  2.07947E+00  1.96043E+00  2.11068E+00  1.97966E+00  2.06633E+00  1.88173E+00  1.90149E+00  1.70855E+00
   1.71808E+00  1.55731E+00  1.59663E+00  1.49645E+00  1.55486E+00  1.45528E+00  1.50021E+00  1.39063E+00  1.41974E+00  1.30580E+00
   1.32609E+00  1.20719E+00  1.23154E+00  1.12423E+00  1.15919E+00  1.07301E+00  1.12801E+00  1.06487E+00  1.13343E+00  1.07377E+00
   1.12770E+00  1.04657E+00  1.07051E+00  9.67273E-01  9.70870E-01  8.60623E-01  8.57155E-01  7.51404E-01  7.51131E-01  6.55807E-01
   6.64881E-01  5.77442E-01  5.80571E-01  4.93602E-01  4.84573E-01  4.13891E-01  4.52180E-01  4.63129E-01  4.94876E-01  5.69984E-01
   5.75010E-01  6.98496E-01  6.72046E-01  8.33761E-01  7.66191E-01  9.58259E-01  8.55334E-01  1.07305E+00  9.34316E-01  1.16637E+00
   9.90136E-01  1.21709E+00  1.00287E+00  1.20139E+00  9.68962E-01  1.13287E+00  9.00952E-01  1.02841E+00  8.10061E-01  9.12845E-01
   7.48171E-01  9.14189E-01  7.77701E-01  9.68288E-01  8.35042E-01  1.02994E+00  9.00430E-01  1.10476E+00  9.77823E-01  1.18584E+00
   1.06261E+00  1.28436E+00  1.16075E+00  1.39820E+00  1.23972E+00  1.45646E+00  1.26608E+00  1.43414E+00  1.22904E+00  1.35051E+00
   1.14758E+00  1.22950E+00  1.03953E+00  1.08940E+00  9.13109E-01  9.25245E-01  7.70597E-01  7.52901E-01  6.20212E-01  5.69992E-01
   4.65163E-01  3.94543E-01  3.22366E-01  2.49164E-01  2.10335E-01  1.54660E-01  1.46848E-01  1.27016E-01  1.23999E-01  1.08849E-01
   1.04896E-01  9.38619E-02  8.85838E-02  8.02661E-02  7.17921E-02  6.42399E-02  5.29933E-02  4.79499E-02  3.57250E-02  3.38006E-02
   2.23201E-02  2.35849E-02  1.36318E-02  1.63064E-02  7.06867E-03  1.01848E-02  1.25272E-03  4.09103E-03 -1.95441E-03 -6.72176E-04
  -4.48049E-03 -4.67040E-03 -5.51404E-03 -5.97993E-03 -4.84049E-04  1.58656E-03  1.53159E-02  1.45431E-02  2.38925E-02  1.92079E-02
   9.63776E-03 -2.19664E-03 -2.51942E-02 -3.09409E-02 -5.56687E-02 -3.08265E-02 -3.77899E-02  1.88309E-02  2.24773E-02  1.23348E-01
   1.26303E-01  2.23215E-01  2.10727E-01  2.51576E-01  1.45994E-01  1.86116E-01  4.87376E-02  1.28762E-01  2.33714E-02  2.02135E-01
   2.36969E-01  3.84681E-01  4.85543E-01  5.27239E-01  6.41479E-01  5.15936E-01  5.54928E-01  2.98331E-01  4.05420E-01  1.22532E-01
   3.34787E-01  4.15189E-02  3.16347E-01 -1.24623E-02  2.57788E-01 -1.24772E-01  8.79263E-02 -2.77131E-01 -7.54349E-02 -3.64246E-01
  -1.62877E-01 -3.08876E-01 -7.70178E-02 -1.08928E-01  7.31958E-02  1.18062E-01  1.91038E-01  2.11483E-01  1.95691E-01  2.25297E-01
   1.52432E-01  2.36593E-01  1.83194E-01  3.03188E-01  2.89998E-01  4.05180E-01  4.43654E-01  4.86677E-01  5.32481E-01  5.04668E-01
   5.71839E-01  4.57289E-01  5.02417E-01  3.64919E-01  4.57450E-01  3.57173E-01  4.78364E-01  4.25368E-01  5.71149E-01  5.33018E-01
   6.86960E-01  6.63043E-01  7.96312E-01  7.78967E-01  8.80406E-01  8.69092E-01  9.21677E-01  9.41546E-01  9.74739E-01  1.01923E+00
   1.02255E+00  1.07044E+00  1.04614E+00  1.07484E+00  1.03350E+00  1.05483E+00  1.00593E+00  1.01598E+00  9.66807E-01  9.66520E-01
   9.21058E-01  9.17575E-01  8.84615E-01  8.87780E-01  8.67214E-01  8.70827E-01  8.58966E-01  8.56211E-01  8.39571E-01  8.39020E-01
   8.34099E-01  8.41238E-01  8.46269E-01  8.56475E-01  8.71755E-01  8.78617E-01  8.97437E-01  9.07667E-01  9.30030E-01  9.45072E-01
   9.72863E-01  9.96567E-01  1.03359E+00  1.07200E+00  1.12286E+00  1.17522E+00  1.23751E+00  1.30167E+00  1.37323E+00  1.44693E+00
   1.52520E+00  1.60592E+00  1.69053E+00  1.77771E+00  1.86903E+00  1.96502E+00  2.06915E+00  2.18617E+00  2.32667E+00  2.51403E+00
   2.81156E+00  3.21431E+00  3.28864E+00  3.65503E+00  3.44821E+00  3.73242E+00  3.24880E+00  3.40782E+00  2.63243E+00  3.05218E+00
   2.27688E+00  2.89493E+00  2.09503E+00  2.79904E+00  1.95336E+00  2.68275E+00  1.84623E+00  2.57993E+00  1.90464E+00  2.75777E+00
   2.44028E+00  3.64646E+00  3.45140E+00  4.45336E+00  4.24280E+00  4.80018E+00  4.52626E+00  4.60112E+00  4.22707E+00  4.32026E+00
   4.15649E+00  4.27962E+00  4.29244E+00  4.31260E+00  4.39130E+00  4.29011E+00  4.37266E+00  4.11461E+00  4.08853E+00  3.75432E+00
   3.71956E+00  3.43927E+00  3.43358E+00  3.23647E+00  3.25051E+00  3.08675E+00  3.15258E+00  2.96645E+00  3.01560E+00  2.80668E+00
   2.86520E+00  2.72690E+00  2.82356E+00  2.73559E+00  2.84217E+00  2.82432E+00  2.91675E+00  2.88810E+00  2.84021E+00  2.61585E+00
   2.46135E+00  2.14241E+00  1.93172E+00  1.62698E+00  1.42743E+00  1.28981E+00  1.18476E+00  1.10081E+00  1.03213E+00  9.75300E-01
   9.28151E-01  8.89220E-01  8.57466E-01  8.32145E-01  8.12697E-01  7.98715E-01  7.89877E-01  7.85924E-01  7.86613E-01  7.91708E-01
   8.00949E-01  8.14047E-01  8.30650E-01  8.50337E-01  8.72600E-01  8.96848E-01  9.22407E-01  9.48531E-01  9.74412E-01  9.99199E-01
   1.02203E+00  1.04206E+00  1.05850E+00  1.07065E+00  1.07793E+00  1.07988E+00  1.07622E+00  1.06686E+00  1.05187E+00  1.03150E+00
   1.00615E+00  9.76355E-01  9.42759E-01  9.06080E-01  8.67075E-01  8.26504E-01  7.85104E-01  7.43561E-01  7.02495E-01  6.62439E-01
   6.23834E-01  5.87023E-01  5.52256E-01  5.19691E-01  4.89419E-01  4.61455E-01  4.35764E-01  4.12260E-01  3.90833E-01  3.71345E-01
   3.53654E-01  3.37605E-01  3.23048E-01  3.09832E-01  2.97820E-01  2.86880E-01  2.76899E-01  2.67768E-01  2.59390E-01  2.51680E-01
   2.44560E-01  2.37970E-01  2.31848E-01  2.26146E-01  2.20816E-01  2.15822E-01  2.11125E-01  2.06705E-01  2.02527E-01  1.98575E-01
   1.94821E-01  1.91255E-01  1.87854E-01  1.84613E-01  1.81511E-01  1.78544E-01  1.75693E-01  1.72957E-01  1.70323E-01  1.67789E-01
   1.65344E-01  1.62984E-01  1.60701E-01  1.58494E-01  1.56356E-01  1.54285E-01  1.52275E-01  1.50323E-01  1.48426E-01  1.46582E-01
   1.44789E-01  1.43042E-01  1.41342E-01  1.39682E-01  1.38066E-01  1.36489E-01  1.34952E-01  1.33450E-01  1.31984E-01  1.30552E-01
   1.29155E-01  1.27791E-01  1.26460E-01  1.25159E-01  1.23891E-01  1.22654E-01  1.21450E-01  1.20279E-01  1.19141E-01  1.18037E-01
   1.16969E-01  1.15940E-01  1.14954E-01  1.14013E-01  1.13122E-01  1.12292E-01  1.11531E-01  1.10854E-01
 NY background values follow
     2.548E-01    2.544E-01    2.540E-01    2.536E-01    2.532E-01    2.528E-01    2.524E-01    2.520E-01    2.516E-01    2.512E-01
     2.508E-01    2.504E-01    2.500E-01    2.496E-01    2.492E-01    2.488E-01    2.484E-01    2.480E-01    2.476E-01    2.472E-01
     2.468E-01    2.464E-01    2.460E-01    2.457E-01    2.453E-01    2.449E-01    2.445E-01    2.441E-01    2.437E-01    2.433E-01
     2.429E-01    2.425E-01    2.421E-01    2.417E-01    2.413E-01    2.409E-01    2.405E-01    2.401E-01    2.397E-01    2.393E-01
     2.389E-01    2.385E-01    2.381E-01    2.377E-01    2.373E-01    2.369E-01    2.365E-01    2.361E-01    2.357E-01    2.353E-01
     2.349E-01    2.345E-01    2.341E-01    2.337E-01    2.333E-01    2.329E-01    2.325E-01    2.321E-01    2.317E-01    2.313E-01
     2.309E-01    2.305E-01    2.301E-01    2.298E-01    2.294E-01    2.290E-01    2.286E-01    2.282E-01    2.278E-01    2.274E-01
     2.270E-01    2.266E-01    2.262E-01    2.258E-01    2.254E-01    2.250E-01    2.246E-01    2.242E-01    2.238E-01    2.234E-01
     2.230E-01    2.226E-01    2.222E-01    2.218E-01    2.214E-01    2.210E-01    2.206E-01    2.202E-01    2.198E-01    2.194E-01
     2.190E-01    2.186E-01    2.182E-01    2.178E-01    2.174E-01    2.170E-01    2.166E-01    2.162E-01    2.159E-01    2.155E-01
     2.151E-01    2.147E-01    2.143E-01    2.139E-01    2.135E-01    2.131E-01    2.127E-01    2.123E-01    2.119E-01    2.115E-01
     2.111E-01    2.107E-01    2.103E-01    2.099E-01    2.095E-01    2.091E-01    2.087E-01    2.083E-01    2.079E-01    2.075E-01
     2.071E-01    2.067E-01    2.063E-01    2.059E-01    2.055E-01    2.051E-01    2.047E-01    2.043E-01    2.039E-01    2.035E-01
     2.032E-01    2.028E-01    2.024E-01    2.020E-01    2.016E-01    2.012E-01    2.008E-01    2.004E-01    2.000E-01    1.996E-01
     1.992E-01    1.988E-01    1.984E-01    1.980E-01    1.976E-01    1.972E-01    1.968E-01    1.964E-01    1.960E-01    1.956E-01
     1.952E-01    1.948E-01    1.944E-01    1.940E-01    1.936E-01    1.932E-01    1.928E-01    1.925E-01    1.921E-01    1.917E-01
     1.913E-01    1.909E-01    1.905E-01    1.901E-01    1.897E-01    1.893E-01    1.889E-01    1.885E-01    1.881E-01    1.877E-01
     1.873E-01    1.869E-01    1.865E-01    1.861E-01    1.857E-01    1.853E-01    1.849E-01    1.845E-01    1.841E-01    1.837E-01
     1.833E-01    1.829E-01    1.826E-01    1.822E-01    1.818E-01    1.814E-01    1.810E-01    1.806E-01    1.802E-01    1.798E-01
     1.794E-01    1.790E-01    1.786E-01    1.782E-01    1.778E-01    1.774E-01    1.770E-01    1.766E-01    1.762E-01    1.758E-01
     1.754E-01    1.750E-01    1.746E-01    1.742E-01    1.738E-01    1.735E-01    1.731E-01    1.727E-01    1.723E-01    1.719E-01
     1.715E-01    1.711E-01    1.707E-01    1.703E-01    1.699E-01    1.695E-01    1.691E-01    1.687E-01    1.683E-01    1.679E-01
     1.675E-01    1.671E-01    1.667E-01    1.663E-01    1.659E-01    1.656E-01    1.652E-01    1.648E-01    1.644E-01    1.640E-01
     1.636E-01    1.632E-01    1.628E-01    1.624E-01    1.620E-01    1.616E-01    1.612E-01    1.608E-01    1.604E-01    1.600E-01
     1.596E-01    1.592E-01    1.588E-01    1.584E-01    1.580E-01    1.577E-01    1.573E-01    1.569E-01    1.565E-01    1.561E-01
     1.557E-01    1.553E-01    1.549E-01    1.545E-01    1.541E-01    1.537E-01    1.533E-01    1.529E-01    1.525E-01    1.521E-01
     1.517E-01    1.513E-01    1.509E-01    1.506E-01    1.502E-01    1.498E-01    1.494E-01    1.490E-01    1.486E-01    1.482E-01
     1.478E-01    1.474E-01    1.470E-01    1.466E-01    1.462E-01    1.458E-01    1.454E-01    1.450E-01    1.446E-01    1.442E-01
     1.438E-01    1.435E-01    1.431E-01    1.427E-01    1.423E-01    1.419E-01    1.415E-01    1.411E-01    1.407E-01    1.403E-01
     1.399E-01    1.395E-01    1.391E-01    1.387E-01    1.383E-01    1.379E-01    1.375E-01    1.371E-01    1.368E-01    1.364E-01
     1.360E-01    1.356E-01    1.352E-01    1.348E-01    1.344E-01    1.340E-01    1.336E-01    1.332E-01    1.328E-01    1.324E-01
     1.320E-01    1.316E-01    1.312E-01    1.308E-01    1.305E-01    1.301E-01    1.297E-01    1.293E-01    1.289E-01    1.285E-01
     1.281E-01    1.277E-01    1.273E-01    1.269E-01    1.265E-01    1.261E-01    1.257E-01    1.253E-01    1.249E-01    1.246E-01
     1.242E-01    1.238E-01    1.234E-01    1.230E-01    1.226E-01    1.222E-01    1.218E-01    1.214E-01    1.210E-01    1.206E-01
     1.202E-01    1.198E-01    1.194E-01    1.190E-01    1.186E-01    1.183E-01    1.179E-01    1.175E-01    1.171E-01    1.167E-01
     1.163E-01    1.159E-01    1.155E-01    1.151E-01    1.147E-01    1.143E-01    1.139E-01    1.135E-01    1.131E-01    1.127E-01
     1.124E-01    1.120E-01    1.116E-01    1.112E-01    1.108E-01    1.104E-01    1.100E-01    1.096E-01    1.092E-01    1.088E-01
     1.084E-01    1.080E-01    1.076E-01    1.072E-01    1.068E-01    1.065E-01    1.061E-01    1.057E-01    1.053E-01    1.049E-01
     1.045E-01    1.041E-01    1.037E-01    1.033E-01    1.029E-01    1.025E-01    1.021E-01    1.017E-01    1.013E-01    1.009E-01
     1.006E-01    1.002E-01    9.977E-02    9.938E-02    9.898E-02    9.859E-02    9.820E-02    9.780E-02    9.741E-02    9.702E-02
     9.662E-02    9.623E-02    9.584E-02    9.544E-02    9.505E-02    9.466E-02    9.426E-02    9.387E-02    9.348E-02    9.308E-02
     9.269E-02    9.230E-02    9.190E-02    9.151E-02    9.112E-02    9.073E-02    9.033E-02    8.994E-02    8.955E-02    8.915E-02
     8.876E-02    8.837E-02    8.797E-02    8.758E-02    8.719E-02    8.679E-02    8.640E-02    8.601E-02    8.561E-02    8.522E-02
     8.483E-02    8.444E-02    8.404E-02    8.365E-02    8.326E-02    8.286E-02    8.247E-02    8.208E-02    8.168E-02    8.129E-02
     8.090E-02    8.050E-02    8.011E-02    7.972E-02    7.932E-02    7.893E-02    7.854E-02    7.815E-02    7.775E-02    7.736E-02
     7.697E-02    7.657E-02    7.618E-02    7.579E-02    7.539E-02    7.500E-02    7.461E-02    7.421E-02    7.382E-02    7.343E-02
     7.304E-02    7.264E-02    7.225E-02    7.186E-02    7.146E-02    7.107E-02    7.068E-02    7.028E-02    6.989E-02    6.950E-02
     6.910E-02    6.871E-02    6.832E-02    6.793E-02    6.753E-02    6.714E-02    6.675E-02    6.635E-02    6.596E-02    6.557E-02
     6.517E-02    6.478E-02    6.439E-02    6.399E-02    6.360E-02    6.321E-02    6.282E-02    6.242E-02    6.203E-02    6.164E-02
     6.124E-02    6.085E-02    6.046E-02    6.006E-02    5.967E-02    5.928E-02    5.888E-02    5.849E-02
 Ala      Conc. = 8.42E+02
