 LCModel (Version 6.3-1L) Copyright: S.W. Provencher.          Ref.: Magn. Reson. Med. 30:672-679 (1993).                
 Slice#2 Row#12 Col#6  K_02_press_1_raw_act
 36 lines in following concentration table = NCONC+1
    Conc.  %SD /Cr+PCr  Metabolite                                         
    0.000 999%   0.000 Ala                                                 
    0.000 999%   0.000 Asp                                                 
 1.19E+03  28%   0.582 Cr                                                  
  855.944  39%   0.418 PCr                                                 
   18.547 999% 9.1E-03 GABA                                                
    0.000 999%   0.000 Glc                                                 
 1.95E+03  22%   0.952 Gln                                                 
 2.05E+03  25%   1.000 Glu                                                 
  791.302   4%   0.387 GPC                                                 
    0.000 999%   0.000 PCh                                                 
 1.13E+03   9%   0.551 GSH                                                 
 4.83E+03  10%   2.361 Ins                                                 
  203.209 104% 9.9E-02 Lac                                                 
 3.37E+03   3%   1.648 NAA                                                 
    0.000 999%   0.000 NAAG                                                
  339.430  12%   0.166 Scyllo                                              
    0.000 999%   0.000 Tau                                                 
    0.000 999%   0.000 -CrCH2                                              
  791.302   4%   0.387 GPC+PCh                                             
 3.37E+03   3%   1.648 NAA+NAAG                                            
 2.05E+03   3%   1.000 Cr+PCr                                              
 3.99E+03  20%   1.952 Glu+Gln                                             
 1.02E+03  42%   0.496 Lip13a                                              
    0.000 999%   0.000 Lip13b                                              
  236.680  80%   0.116 Lip09                                               
 1.35E+03  18%   0.662 MM09                                                
  174.580  70% 8.5E-02 Lip20                                               
 2.27E+03  20%   1.108 MM20                                                
  452.664  43%   0.221 MM12                                                
 1.06E+03  29%   0.517 MM14                                                
  586.839  36%   0.287 MM17                                                
 1.02E+03  42%   0.496 Lip13a+Lip13b                                       
 2.53E+03  20%   1.235 MM14+Lip13a+Lip13b+MM12                             
 1.59E+03  14%   0.778 MM09+Lip09                                          
 2.44E+03  18%   1.193 MM20+Lip20                                          
   6 lines in following misc. output table
  FWHM = 0.084 ppm    S/N =  14                                            
  Data shift = 0.015 ppm                                                   
  Ph: -65 deg     -20.8 deg/ppm                                            
  alphaB,S = 6.5E-01,   9.8E+01                                            
   14 spline knots.   Ns =10(1)                                            
  (19) 9 infls.   (19) 1 extrs.                                            
  498 points on ppm-axis = NY
      4.000000     3.992357     3.984714     3.977070     3.969427     3.961784     3.954141     3.946497     3.938854     3.931211
      3.923568     3.915925     3.908281     3.900638     3.892995     3.885352     3.877708     3.870065     3.862422     3.854779
      3.847136     3.839492     3.831849     3.824206     3.816563     3.808919     3.801276     3.793633     3.785990     3.778347
      3.770703     3.763060     3.755417     3.747774     3.740130     3.732487     3.724844     3.717201     3.709558     3.701914
      3.694271     3.686628     3.678985     3.671341     3.663698     3.656055     3.648412     3.640769     3.633125     3.625482
      3.617839     3.610196     3.602552     3.594909     3.587266     3.579623     3.571980     3.564336     3.556693     3.549050
      3.541407     3.533763     3.526120     3.518477     3.510834     3.503191     3.495547     3.487904     3.480261     3.472618
      3.464974     3.457331     3.449688     3.442045     3.434402     3.426758     3.419115     3.411472     3.403829     3.396185
      3.388542     3.380899     3.373256     3.365613     3.357969     3.350326     3.342683     3.335040     3.327396     3.319753
      3.312110     3.304467     3.296824     3.289180     3.281537     3.273894     3.266251     3.258607     3.250964     3.243321
      3.235678     3.228034     3.220391     3.212748     3.205105     3.197462     3.189818     3.182175     3.174532     3.166889
      3.159245     3.151602     3.143959     3.136316     3.128673     3.121029     3.113386     3.105743     3.098100     3.090456
      3.082813     3.075170     3.067527     3.059884     3.052240     3.044597     3.036954     3.029311     3.021667     3.014024
      3.006381     2.998738     2.991095     2.983451     2.975808     2.968165     2.960522     2.952878     2.945235     2.937592
      2.929949     2.922306     2.914662     2.907019     2.899376     2.891733     2.884089     2.876446     2.868803     2.861160
      2.853517     2.845873     2.838230     2.830587     2.822944     2.815300     2.807657     2.800014     2.792371     2.784728
      2.777084     2.769441     2.761798     2.754155     2.746511     2.738868     2.731225     2.723582     2.715939     2.708295
      2.700652     2.693009     2.685366     2.677722     2.670079     2.662436     2.654793     2.647150     2.639506     2.631863
      2.624220     2.616577     2.608933     2.601290     2.593647     2.586004     2.578361     2.570717     2.563074     2.555431
      2.547788     2.540144     2.532501     2.524858     2.517215     2.509572     2.501928     2.494285     2.486642     2.478999
      2.471355     2.463712     2.456069     2.448426     2.440783     2.433139     2.425496     2.417853     2.410210     2.402566
      2.394923     2.387280     2.379637     2.371994     2.364350     2.356707     2.349064     2.341421     2.333777     2.326134
      2.318491     2.310848     2.303205     2.295561     2.287918     2.280275     2.272632     2.264988     2.257345     2.249702
      2.242059     2.234416     2.226772     2.219129     2.211486     2.203843     2.196199     2.188556     2.180913     2.173270
      2.165627     2.157983     2.150340     2.142697     2.135054     2.127410     2.119767     2.112124     2.104481     2.096838
      2.089194     2.081551     2.073908     2.066265     2.058621     2.050978     2.043335     2.035692     2.028049     2.020405
      2.012762     2.005119     1.997476     1.989833     1.982190     1.974546     1.966903     1.959260     1.951617     1.943974
      1.936331     1.928688     1.921045     1.913402     1.905759     1.898115     1.890472     1.882829     1.875186     1.867543
      1.859900     1.852257     1.844614     1.836971     1.829327     1.821684     1.814041     1.806398     1.798755     1.791112
      1.783469     1.775826     1.768183     1.760540     1.752896     1.745253     1.737610     1.729967     1.722324     1.714681
      1.707038     1.699395     1.691752     1.684108     1.676465     1.668822     1.661179     1.653536     1.645893     1.638250
      1.630607     1.622964     1.615321     1.607677     1.600034     1.592391     1.584748     1.577105     1.569462     1.561819
      1.554176     1.546533     1.538890     1.531246     1.523603     1.515960     1.508317     1.500674     1.493031     1.485388
      1.477745     1.470102     1.462458     1.454815     1.447172     1.439529     1.431886     1.424243     1.416600     1.408957
      1.401314     1.393671     1.386027     1.378384     1.370741     1.363098     1.355455     1.347812     1.340169     1.332526
      1.324883     1.317240     1.309596     1.301953     1.294310     1.286667     1.279024     1.271381     1.263738     1.256095
      1.248452     1.240808     1.233165     1.225522     1.217879     1.210236     1.202593     1.194950     1.187307     1.179664
      1.172021     1.164377     1.156734     1.149091     1.141448     1.133805     1.126162     1.118519     1.110876     1.103233
      1.095590     1.087946     1.080303     1.072660     1.065017     1.057374     1.049731     1.042088     1.034445     1.026802
      1.019158     1.011515     1.003872     0.996229     0.988586     0.980943     0.973300     0.965657     0.958014     0.950371
      0.942727     0.935084     0.927441     0.919798     0.912155     0.904512     0.896869     0.889226     0.881583     0.873940
      0.866296     0.858653     0.851010     0.843367     0.835724     0.828081     0.820438     0.812795     0.805152     0.797508
      0.789865     0.782222     0.774579     0.766936     0.759293     0.751650     0.744007     0.736364     0.728721     0.721077
      0.713434     0.705791     0.698148     0.690505     0.682862     0.675219     0.667576     0.659933     0.652290     0.644646
      0.637003     0.629360     0.621717     0.614074     0.606431     0.598788     0.591145     0.583502     0.575858     0.568215
      0.560572     0.552929     0.545286     0.537643     0.530000     0.522357     0.514714     0.507071     0.499427     0.491784
      0.484141     0.476498     0.468855     0.461212     0.453569     0.445925     0.438282     0.430639     0.422996     0.415353
      0.407710     0.400067     0.392424     0.384780     0.377137     0.369494     0.361851     0.354208     0.346565     0.338922
      0.331278     0.323635     0.315992     0.308349     0.300706     0.293063     0.285420     0.277777     0.270133     0.262490
      0.254847     0.247204     0.239561     0.231918     0.224275     0.216631     0.208988     0.201345
 NY phased data points follow
  -2.46179E+02 -2.41300E+02 -2.35670E+02 -2.26279E+02 -2.22901E+02 -2.12592E+02 -2.10965E+02 -2.02900E+02 -1.97897E+02 -1.91221E+02
  -1.88669E+02 -1.89325E+02 -1.93437E+02 -1.93842E+02 -1.90756E+02 -1.99769E+02 -2.00058E+02 -1.99779E+02 -1.99251E+02 -1.99585E+02
  -1.98412E+02 -1.94461E+02 -1.95120E+02 -1.88191E+02 -1.88811E+02 -1.83956E+02 -1.77178E+02 -1.75784E+02 -1.70344E+02 -1.66016E+02
  -1.65388E+02 -1.62870E+02 -1.59963E+02 -1.61518E+02 -1.60351E+02 -1.59606E+02 -1.55274E+02 -1.56256E+02 -1.52581E+02 -1.48039E+02
  -1.47925E+02 -1.44419E+02 -1.44124E+02 -1.39480E+02 -1.36595E+02 -1.34799E+02 -1.33861E+02 -1.31420E+02 -1.33110E+02 -1.34042E+02
  -1.30088E+02 -1.35244E+02 -1.32050E+02 -1.27789E+02 -1.34074E+02 -1.28159E+02 -1.27673E+02 -1.23757E+02 -1.24475E+02 -1.27764E+02
  -1.26087E+02 -1.27930E+02 -1.25791E+02 -1.25368E+02 -1.22785E+02 -1.22537E+02 -1.20652E+02 -1.21761E+02 -1.18722E+02 -1.17088E+02
  -1.18163E+02 -1.16437E+02 -1.14088E+02 -1.15865E+02 -1.13480E+02 -1.08619E+02 -1.07456E+02 -1.07288E+02 -1.08026E+02 -1.05012E+02
  -1.06181E+02 -1.00613E+02 -1.00563E+02 -9.96006E+01 -9.94659E+01 -1.01041E+02 -9.44707E+01 -9.70345E+01 -9.17979E+01 -9.51201E+01
  -8.59701E+01 -8.70087E+01 -8.08809E+01 -8.13646E+01 -7.68974E+01 -7.73311E+01 -7.32151E+01 -6.85404E+01 -6.54196E+01 -5.90760E+01
  -5.17398E+01 -4.31474E+01 -4.35353E+01 -3.93359E+01 -4.37006E+01 -4.95368E+01 -5.41983E+01 -5.51193E+01 -5.92994E+01 -5.76213E+01
  -6.27508E+01 -6.43900E+01 -6.79967E+01 -6.81246E+01 -6.70527E+01 -6.69687E+01 -6.67983E+01 -6.62650E+01 -6.54696E+01 -5.87480E+01
  -5.35534E+01 -4.75692E+01 -4.73750E+01 -3.57908E+01 -3.17038E+01 -2.43211E+01 -1.97886E+01 -2.09488E+01 -1.71163E+01 -2.58935E+01
  -3.41801E+01 -3.32909E+01 -4.11384E+01 -4.48831E+01 -4.84679E+01 -4.80746E+01 -5.20752E+01 -5.56756E+01 -5.59266E+01 -5.85023E+01
  -5.81806E+01 -5.82817E+01 -6.03909E+01 -5.87423E+01 -5.70408E+01 -5.57762E+01 -5.67866E+01 -5.20256E+01 -5.66139E+01 -5.69929E+01
  -5.12249E+01 -5.67007E+01 -5.58390E+01 -5.08840E+01 -4.87822E+01 -5.21730E+01 -4.68704E+01 -5.09449E+01 -4.90985E+01 -4.94024E+01
  -4.89912E+01 -4.70723E+01 -4.74077E+01 -5.34313E+01 -5.05458E+01 -5.03242E+01 -5.04048E+01 -5.33459E+01 -5.24015E+01 -4.95601E+01
  -5.37874E+01 -5.75110E+01 -5.61591E+01 -5.56292E+01 -5.58309E+01 -5.67550E+01 -5.56905E+01 -5.52666E+01 -5.41189E+01 -5.00061E+01
  -5.17093E+01 -5.27557E+01 -5.30705E+01 -5.28016E+01 -5.01984E+01 -5.01569E+01 -4.67474E+01 -4.39320E+01 -4.73030E+01 -4.17104E+01
  -4.27791E+01 -3.84124E+01 -3.30034E+01 -3.49680E+01 -3.39553E+01 -3.47967E+01 -3.05607E+01 -3.02847E+01 -3.38351E+01 -3.20075E+01
  -3.33683E+01 -2.89702E+01 -3.04273E+01 -2.66843E+01 -3.05500E+01 -2.78209E+01 -3.13884E+01 -3.06313E+01 -2.85058E+01 -2.84231E+01
  -2.70249E+01 -2.68101E+01 -2.29615E+01 -1.95856E+01 -2.40238E+01 -2.20898E+01 -1.56907E+01 -1.86928E+01 -1.70905E+01 -1.86053E+01
  -2.20575E+01 -2.09266E+01 -2.06548E+01 -2.36631E+01 -2.16045E+01 -1.85202E+01 -1.07514E+01 -1.69828E+01 -1.22998E+01 -1.44818E+01
  -9.81480E+00 -1.49790E+01 -1.40134E+01 -1.04984E+01 -1.45521E+01 -1.41920E+01 -1.13296E+01 -8.21494E+00 -1.09926E+01 -1.37023E+01
  -1.63716E+01 -1.29832E+01 -1.49088E+01 -1.05972E+01 -8.13325E+00 -7.05898E+00 -7.64965E+00 -5.42807E+00  1.40856E+00 -4.48019E-02
   3.40947E+00  6.92180E+00  1.01332E+01  2.05726E+01  2.99806E+01  3.86294E+01  4.84554E+01  5.63269E+01  6.23736E+01  7.04140E+01
   7.32700E+01  7.42869E+01  6.45994E+01  5.60122E+01  4.34905E+01  4.11569E+01  3.00742E+01  2.53965E+01  1.95653E+01  1.15995E+01
   7.89788E+00  5.76346E+00  3.10761E+00  9.48905E-01  2.92479E+00  8.73385E-01  4.63607E-01  1.72451E+00 -2.18774E+00  1.06649E+00
  -1.69844E+00 -3.00824E+00  1.30439E+00 -8.43239E-01 -1.03419E+00 -4.85976E+00 -4.64663E+00 -5.37413E+00 -2.76790E+00 -3.02120E+00
  -3.59112E-01 -4.49731E-01 -3.70882E+00 -2.02283E+00 -1.64405E+00 -3.27734E+00 -1.11964E-01 -2.02846E+00 -4.46358E-01  5.09182E-01
   2.91455E+00  3.87968E+00  3.67483E+00  7.18075E-01 -2.93926E+00  1.72199E+00  5.92971E+00  3.31935E+00  8.30151E+00  3.87112E+00
   7.46032E+00  6.02850E+00  8.30683E+00  1.28605E+01  5.44455E+00  6.45511E+00  4.27039E+00  4.26448E+00  3.43881E+00  7.23473E+00
   3.86284E+00  5.54733E+00  2.31725E+00  4.33628E+00  7.03772E+00  4.97419E+00  6.20683E+00  5.53693E+00  5.63046E+00  1.10045E+01
   9.98775E+00  1.31433E+01  8.92435E+00  1.19264E+01  1.12124E+01  1.20952E+01  1.15217E+01  1.35877E+01  1.50692E+01  1.35401E+01
   1.15458E+01  1.28832E+01  1.43118E+01  1.04287E+01  1.06546E+01  1.08288E+01  1.36707E+01  1.55232E+01  1.14860E+01  1.27461E+01
   1.20274E+01  1.18505E+01  1.33587E+01  1.50949E+01  1.56729E+01  1.49027E+01  1.42779E+01  1.16137E+01  1.56964E+01  1.56788E+01
   1.51295E+01  1.48169E+01  1.49835E+01  1.24041E+01  1.46614E+01  1.62773E+01  1.49837E+01  1.28565E+01  1.30970E+01  1.43716E+01
   1.24519E+01  1.35401E+01  1.39189E+01  1.22198E+01  1.23122E+01  1.82912E+01  1.42548E+01  1.60890E+01  1.25191E+01  1.73959E+01
   1.12044E+01  1.52171E+01  1.34062E+01  1.12238E+01  1.04840E+01  1.23949E+01  1.37267E+01  1.28084E+01  1.23619E+01  1.55432E+01
   1.67624E+01  1.40346E+01  1.86275E+01  1.60163E+01  1.68716E+01  1.54395E+01  1.91139E+01  1.92283E+01  1.87869E+01  2.14781E+01
   2.27303E+01  2.36277E+01  2.21528E+01  2.26945E+01  2.45371E+01  2.64259E+01  2.31711E+01  2.43704E+01  2.72675E+01  2.00448E+01
   2.05743E+01  2.42445E+01  2.61381E+01  2.45447E+01  2.48753E+01  2.31375E+01  2.57268E+01  2.24734E+01  2.24859E+01  2.11121E+01
   1.99533E+01  1.79432E+01  1.95620E+01  1.97287E+01  1.63387E+01  1.56225E+01  2.00139E+01  1.68985E+01  1.71116E+01  1.61041E+01
   1.37155E+01  1.26847E+01  1.65827E+01  1.83876E+01  1.80705E+01  1.16350E+01  1.50958E+01  1.56089E+01  1.65484E+01  1.56248E+01
   1.44931E+01  1.73351E+01  1.68708E+01  1.66488E+01  1.80783E+01  1.78452E+01  1.87181E+01  1.63335E+01  1.61276E+01  1.46193E+01
   1.39325E+01  1.61556E+01  1.52111E+01  1.73541E+01  2.11615E+01  1.77607E+01  1.51983E+01  1.56726E+01  1.79434E+01  2.27362E+01
   2.10778E+01  1.74504E+01  1.82125E+01  1.61488E+01  1.69996E+01  1.78005E+01  1.70963E+01  1.88102E+01  1.75902E+01  1.67723E+01
   1.65319E+01  1.82661E+01  1.48243E+01  1.82652E+01  1.39916E+01  1.95912E+01  1.68213E+01  1.67815E+01  1.53630E+01  1.85886E+01
   1.87269E+01  1.87868E+01  1.60963E+01  1.63762E+01  2.16874E+01  1.74256E+01  1.77634E+01  1.60483E+01  1.61917E+01  1.78687E+01
   1.83505E+01  1.53791E+01  1.78267E+01  1.59403E+01  1.74397E+01  1.89206E+01  1.54131E+01  1.99591E+01
 NY points of the fit to the data follow
  -2.37276E+02 -2.33743E+02 -2.30336E+02 -2.26211E+02 -2.21229E+02 -2.16081E+02 -2.10664E+02 -2.04943E+02 -1.99478E+02 -1.94952E+02
  -1.92089E+02 -1.91252E+02 -1.92029E+02 -1.93263E+02 -1.94176E+02 -1.94956E+02 -1.95753E+02 -1.96413E+02 -1.96988E+02 -1.97352E+02
  -1.96934E+02 -1.95398E+02 -1.93814E+02 -1.91288E+02 -1.87911E+02 -1.84114E+02 -1.80034E+02 -1.75505E+02 -1.70652E+02 -1.65969E+02
  -1.62006E+02 -1.59370E+02 -1.58634E+02 -1.59313E+02 -1.60201E+02 -1.60160E+02 -1.58944E+02 -1.57425E+02 -1.55817E+02 -1.53358E+02
  -1.50053E+02 -1.47049E+02 -1.44399E+02 -1.40894E+02 -1.37260E+02 -1.34406E+02 -1.33090E+02 -1.33387E+02 -1.34683E+02 -1.35991E+02
  -1.36302E+02 -1.35945E+02 -1.35445E+02 -1.34759E+02 -1.33715E+02 -1.32233E+02 -1.30828E+02 -1.29941E+02 -1.28885E+02 -1.27603E+02
  -1.26468E+02 -1.25681E+02 -1.24933E+02 -1.23899E+02 -1.22481E+02 -1.20839E+02 -1.19099E+02 -1.17248E+02 -1.15538E+02 -1.14132E+02
  -1.12851E+02 -1.11778E+02 -1.10843E+02 -1.09993E+02 -1.09137E+02 -1.08457E+02 -1.08002E+02 -1.07299E+02 -1.06083E+02 -1.05178E+02
  -1.04196E+02 -1.03102E+02 -1.01911E+02 -1.00565E+02 -9.89804E+01 -9.70567E+01 -9.50740E+01 -9.32113E+01 -9.17828E+01 -9.11835E+01
  -9.11699E+01 -9.08549E+01 -8.89249E+01 -8.49046E+01 -8.13452E+01 -7.78207E+01 -7.32707E+01 -6.81139E+01 -6.28968E+01 -5.73755E+01
  -5.10881E+01 -4.51418E+01 -4.09240E+01 -3.96082E+01 -4.18519E+01 -4.66373E+01 -5.15743E+01 -5.52939E+01 -5.86639E+01 -6.20075E+01
  -6.50164E+01 -6.74352E+01 -6.92629E+01 -7.14219E+01 -7.40279E+01 -7.46319E+01 -7.24956E+01 -6.80700E+01 -6.38028E+01 -5.92918E+01
  -5.39458E+01 -4.82677E+01 -4.24239E+01 -3.61912E+01 -2.97055E+01 -2.39502E+01 -2.02541E+01 -1.95193E+01 -2.22366E+01 -2.72174E+01
  -3.19779E+01 -3.57035E+01 -3.91916E+01 -4.27661E+01 -4.61935E+01 -4.91859E+01 -5.16878E+01 -5.43701E+01 -5.68140E+01 -5.72419E+01
  -5.65806E+01 -5.57797E+01 -5.51207E+01 -5.46940E+01 -5.45106E+01 -5.45348E+01 -5.44669E+01 -5.42061E+01 -5.39694E+01 -5.37712E+01
  -5.36260E+01 -5.37041E+01 -5.38358E+01 -5.39442E+01 -5.39424E+01 -5.37441E+01 -5.35007E+01 -5.33154E+01 -5.31395E+01 -5.30101E+01
  -5.29205E+01 -5.27739E+01 -5.24937E+01 -5.21063E+01 -5.17555E+01 -5.16198E+01 -5.17578E+01 -5.20419E+01 -5.21827E+01 -5.22031E+01
  -5.22262E+01 -5.23149E+01 -5.23322E+01 -5.22635E+01 -5.22176E+01 -5.21667E+01 -5.21051E+01 -5.19002E+01 -5.14845E+01 -5.09700E+01
  -5.04874E+01 -4.98800E+01 -4.89932E+01 -4.79200E+01 -4.67906E+01 -4.57234E+01 -4.45539E+01 -4.30965E+01 -4.16637E+01 -4.03842E+01
  -3.90755E+01 -3.80162E+01 -3.72604E+01 -3.66570E+01 -3.59195E+01 -3.51050E+01 -3.41210E+01 -3.28482E+01 -3.15814E+01 -3.05563E+01
  -2.95102E+01 -2.86535E+01 -2.85092E+01 -2.89713E+01 -2.95676E+01 -3.02406E+01 -3.08544E+01 -3.11368E+01 -3.10231E+01 -3.00107E+01
  -2.82889E+01 -2.64727E+01 -2.49293E+01 -2.36912E+01 -2.24186E+01 -2.12549E+01 -2.05870E+01 -2.06233E+01 -2.11538E+01 -2.16998E+01
  -2.19548E+01 -2.21538E+01 -2.22642E+01 -2.17509E+01 -2.05790E+01 -1.93055E+01 -1.80867E+01 -1.71535E+01 -1.63282E+01 -1.52532E+01
  -1.42296E+01 -1.34642E+01 -1.28200E+01 -1.19778E+01 -1.09545E+01 -1.00500E+01 -9.29531E+00 -8.77337E+00 -8.80826E+00 -9.44896E+00
  -1.03998E+01 -1.13294E+01 -1.17667E+01 -1.13986E+01 -1.04315E+01 -9.08930E+00 -7.45096E+00 -5.91772E+00 -4.64238E+00 -3.06569E+00
   1.28889E+00  8.77003E+00  1.52530E+01  2.22638E+01  3.04461E+01  3.87471E+01  4.68188E+01  5.50493E+01  6.32367E+01  7.00858E+01
   7.36516E+01  7.23641E+01  6.56091E+01  5.57509E+01  4.66725E+01  3.93956E+01  3.23281E+01  2.54774E+01  1.94808E+01  1.46803E+01
   1.07546E+01  5.92825E+00  9.14661E-01 -9.21907E-01 -1.43201E+00 -1.68522E+00 -1.86922E+00 -1.97707E+00 -2.07885E+00 -2.16968E+00
  -2.23393E+00 -2.27400E+00 -2.28647E+00 -2.25778E+00 -2.20742E+00 -2.16059E+00 -2.10220E+00 -2.01174E+00 -1.89067E+00 -1.74252E+00
  -1.56845E+00 -1.36512E+00 -1.12760E+00 -8.65859E-01 -5.80897E-01 -2.69824E-01  6.56322E-02  4.23283E-01  8.00716E-01  1.19461E+00
   1.60056E+00  2.01173E+00  2.42184E+00  2.82497E+00  3.21384E+00  3.58116E+00  3.92112E+00  4.23003E+00  4.50524E+00  4.74508E+00
   4.94946E+00  5.12022E+00  5.26103E+00  5.37714E+00  5.47455E+00  5.55997E+00  5.64135E+00  5.72649E+00  5.82256E+00  5.93587E+00
   6.07173E+00  6.23427E+00  6.42627E+00  6.64910E+00  6.90271E+00  7.18574E+00  7.49562E+00  7.82888E+00  8.18144E+00  8.54891E+00
   8.92681E+00  9.31093E+00  9.69780E+00  1.00853E+01  1.04736E+01  1.08684E+01  1.12893E+01  1.17652E+01  1.21740E+01  1.24868E+01
   1.27824E+01  1.30273E+01  1.31912E+01  1.32762E+01  1.32935E+01  1.33349E+01  1.33083E+01  1.31561E+01  1.29536E+01  1.27868E+01
   1.27556E+01  1.29056E+01  1.31762E+01  1.35252E+01  1.39377E+01  1.43558E+01  1.46799E+01  1.48207E+01  1.48096E+01  1.48403E+01
   1.49048E+01  1.48944E+01  1.48233E+01  1.47178E+01  1.46067E+01  1.44779E+01  1.42576E+01  1.40325E+01  1.38538E+01  1.36966E+01
   1.35519E+01  1.34180E+01  1.32956E+01  1.31862E+01  1.30918E+01  1.30146E+01  1.29566E+01  1.29199E+01  1.29065E+01  1.29185E+01
   1.29579E+01  1.30266E+01  1.31266E+01  1.32600E+01  1.34291E+01  1.36360E+01  1.38830E+01  1.41723E+01  1.45059E+01  1.48856E+01
   1.53125E+01  1.57872E+01  1.63092E+01  1.68766E+01  1.74862E+01  1.81330E+01  1.88102E+01  1.95090E+01  2.02187E+01  2.09269E+01
   2.16198E+01  2.22826E+01  2.29000E+01  2.34570E+01  2.39396E+01  2.43352E+01  2.46336E+01  2.48275E+01  2.49128E+01  2.48889E+01
   2.47586E+01  2.45283E+01  2.42074E+01  2.38076E+01  2.33427E+01  2.28278E+01  2.22780E+01  2.17086E+01  2.11337E+01  2.05663E+01
   2.00174E+01  1.94962E+01  1.90097E+01  1.85628E+01  1.81586E+01  1.77985E+01  1.74823E+01  1.72087E+01  1.69755E+01  1.67797E+01
   1.66184E+01  1.64879E+01  1.63849E+01  1.63061E+01  1.62483E+01  1.62085E+01  1.61843E+01  1.61733E+01  1.61733E+01  1.61827E+01
   1.61998E+01  1.62233E+01  1.62521E+01  1.62852E+01  1.63217E+01  1.63609E+01  1.64022E+01  1.64450E+01  1.64890E+01  1.65336E+01
   1.65784E+01  1.66233E+01  1.66679E+01  1.67120E+01  1.67554E+01  1.67981E+01  1.68399E+01  1.68809E+01  1.69210E+01  1.69600E+01
   1.69981E+01  1.70351E+01  1.70710E+01  1.71059E+01  1.71398E+01  1.71726E+01  1.72043E+01  1.72350E+01  1.72647E+01  1.72934E+01
   1.73212E+01  1.73480E+01  1.73739E+01  1.73988E+01  1.74230E+01  1.74463E+01  1.74688E+01  1.74906E+01  1.75117E+01  1.75321E+01
   1.75518E+01  1.75711E+01  1.75898E+01  1.76080E+01  1.76257E+01  1.76431E+01  1.76602E+01  1.76770E+01  1.76936E+01  1.77100E+01
   1.77264E+01  1.77428E+01  1.77592E+01  1.77758E+01  1.77925E+01  1.78096E+01  1.78271E+01  1.78452E+01
 NY background values follow
    -2.502E+02   -2.481E+02   -2.461E+02   -2.441E+02   -2.421E+02   -2.401E+02   -2.380E+02   -2.360E+02   -2.340E+02   -2.320E+02
    -2.300E+02   -2.280E+02   -2.260E+02   -2.240E+02   -2.220E+02   -2.200E+02   -2.180E+02   -2.160E+02   -2.141E+02   -2.121E+02
    -2.101E+02   -2.082E+02   -2.062E+02   -2.043E+02   -2.024E+02   -2.004E+02   -1.985E+02   -1.966E+02   -1.947E+02   -1.928E+02
    -1.909E+02   -1.890E+02   -1.872E+02   -1.853E+02   -1.834E+02   -1.816E+02   -1.798E+02   -1.780E+02   -1.762E+02   -1.744E+02
    -1.726E+02   -1.708E+02   -1.691E+02   -1.673E+02   -1.656E+02   -1.639E+02   -1.622E+02   -1.605E+02   -1.589E+02   -1.572E+02
    -1.556E+02   -1.539E+02   -1.523E+02   -1.507E+02   -1.492E+02   -1.476E+02   -1.460E+02   -1.445E+02   -1.430E+02   -1.415E+02
    -1.400E+02   -1.385E+02   -1.370E+02   -1.355E+02   -1.341E+02   -1.327E+02   -1.313E+02   -1.299E+02   -1.285E+02   -1.271E+02
    -1.258E+02   -1.244E+02   -1.231E+02   -1.218E+02   -1.205E+02   -1.192E+02   -1.179E+02   -1.166E+02   -1.154E+02   -1.141E+02
    -1.129E+02   -1.117E+02   -1.105E+02   -1.093E+02   -1.082E+02   -1.070E+02   -1.059E+02   -1.048E+02   -1.036E+02   -1.025E+02
    -1.014E+02   -1.004E+02   -9.931E+01   -9.826E+01   -9.723E+01   -9.621E+01   -9.520E+01   -9.420E+01   -9.322E+01   -9.224E+01
    -9.129E+01   -9.034E+01   -8.940E+01   -8.848E+01   -8.757E+01   -8.668E+01   -8.579E+01   -8.492E+01   -8.405E+01   -8.320E+01
    -8.237E+01   -8.154E+01   -8.072E+01   -7.992E+01   -7.913E+01   -7.835E+01   -7.758E+01   -7.682E+01   -7.607E+01   -7.533E+01
    -7.460E+01   -7.389E+01   -7.318E+01   -7.249E+01   -7.181E+01   -7.113E+01   -7.047E+01   -6.982E+01   -6.917E+01   -6.854E+01
    -6.792E+01   -6.731E+01   -6.670E+01   -6.611E+01   -6.553E+01   -6.495E+01   -6.439E+01   -6.383E+01   -6.329E+01   -6.275E+01
    -6.222E+01   -6.170E+01   -6.119E+01   -6.068E+01   -6.018E+01   -5.969E+01   -5.920E+01   -5.872E+01   -5.825E+01   -5.778E+01
    -5.732E+01   -5.686E+01   -5.641E+01   -5.596E+01   -5.551E+01   -5.507E+01   -5.463E+01   -5.420E+01   -5.376E+01   -5.333E+01
    -5.291E+01   -5.248E+01   -5.205E+01   -5.163E+01   -5.120E+01   -5.078E+01   -5.036E+01   -4.993E+01   -4.951E+01   -4.909E+01
    -4.866E+01   -4.823E+01   -4.780E+01   -4.737E+01   -4.694E+01   -4.650E+01   -4.606E+01   -4.562E+01   -4.517E+01   -4.472E+01
    -4.426E+01   -4.380E+01   -4.334E+01   -4.287E+01   -4.240E+01   -4.192E+01   -4.144E+01   -4.095E+01   -4.046E+01   -3.997E+01
    -3.948E+01   -3.898E+01   -3.848E+01   -3.798E+01   -3.748E+01   -3.697E+01   -3.647E+01   -3.596E+01   -3.545E+01   -3.494E+01
    -3.444E+01   -3.393E+01   -3.342E+01   -3.291E+01   -3.241E+01   -3.190E+01   -3.139E+01   -3.089E+01   -3.039E+01   -2.989E+01
    -2.939E+01   -2.890E+01   -2.841E+01   -2.792E+01   -2.743E+01   -2.695E+01   -2.647E+01   -2.600E+01   -2.553E+01   -2.507E+01
    -2.461E+01   -2.415E+01   -2.370E+01   -2.326E+01   -2.282E+01   -2.239E+01   -2.196E+01   -2.154E+01   -2.113E+01   -2.072E+01
    -2.032E+01   -1.993E+01   -1.954E+01   -1.916E+01   -1.879E+01   -1.842E+01   -1.805E+01   -1.770E+01   -1.734E+01   -1.700E+01
    -1.665E+01   -1.632E+01   -1.599E+01   -1.566E+01   -1.534E+01   -1.503E+01   -1.471E+01   -1.441E+01   -1.411E+01   -1.381E+01
    -1.352E+01   -1.323E+01   -1.295E+01   -1.267E+01   -1.239E+01   -1.212E+01   -1.186E+01   -1.159E+01   -1.133E+01   -1.108E+01
    -1.083E+01   -1.058E+01   -1.033E+01   -1.009E+01   -9.855E+00   -9.620E+00   -9.388E+00   -9.159E+00   -8.934E+00   -8.711E+00
    -8.490E+00   -8.273E+00   -8.058E+00   -7.845E+00   -7.635E+00   -7.428E+00   -7.223E+00   -7.020E+00   -6.819E+00   -6.620E+00
    -6.423E+00   -6.229E+00   -6.036E+00   -5.846E+00   -5.657E+00   -5.470E+00   -5.284E+00   -5.101E+00   -4.919E+00   -4.738E+00
    -4.559E+00   -4.382E+00   -4.205E+00   -4.030E+00   -3.857E+00   -3.684E+00   -3.513E+00   -3.343E+00   -3.173E+00   -3.005E+00
    -2.838E+00   -2.671E+00   -2.505E+00   -2.340E+00   -2.175E+00   -2.011E+00   -1.848E+00   -1.685E+00   -1.523E+00   -1.360E+00
    -1.199E+00   -1.037E+00   -8.754E-01   -7.140E-01   -5.526E-01   -3.912E-01   -2.298E-01   -6.825E-02    9.345E-02    2.552E-01
     4.171E-01    5.789E-01    7.408E-01    9.026E-01    1.064E+00    1.226E+00    1.388E+00    1.549E+00    1.710E+00    1.871E+00
     2.031E+00    2.192E+00    2.352E+00    2.511E+00    2.671E+00    2.829E+00    2.988E+00    3.145E+00    3.303E+00    3.459E+00
     3.615E+00    3.771E+00    3.926E+00    4.080E+00    4.233E+00    4.385E+00    4.537E+00    4.688E+00    4.838E+00    4.987E+00
     5.136E+00    5.283E+00    5.429E+00    5.574E+00    5.718E+00    5.861E+00    6.003E+00    6.144E+00    6.284E+00    6.422E+00
     6.559E+00    6.695E+00    6.829E+00    6.962E+00    7.094E+00    7.224E+00    7.354E+00    7.482E+00    7.609E+00    7.735E+00
     7.860E+00    7.983E+00    8.106E+00    8.228E+00    8.349E+00    8.469E+00    8.588E+00    8.707E+00    8.824E+00    8.941E+00
     9.057E+00    9.173E+00    9.288E+00    9.402E+00    9.516E+00    9.629E+00    9.742E+00    9.855E+00    9.967E+00    1.008E+01
     1.019E+01    1.030E+01    1.041E+01    1.052E+01    1.063E+01    1.074E+01    1.085E+01    1.096E+01    1.107E+01    1.118E+01
     1.129E+01    1.140E+01    1.151E+01    1.163E+01    1.174E+01    1.185E+01    1.196E+01    1.207E+01    1.218E+01    1.229E+01
     1.241E+01    1.252E+01    1.263E+01    1.274E+01    1.286E+01    1.297E+01    1.308E+01    1.319E+01    1.331E+01    1.342E+01
     1.353E+01    1.364E+01    1.375E+01    1.386E+01    1.397E+01    1.408E+01    1.418E+01    1.429E+01    1.440E+01    1.450E+01
     1.461E+01    1.471E+01    1.481E+01    1.491E+01    1.501E+01    1.511E+01    1.521E+01    1.531E+01    1.540E+01    1.549E+01
     1.558E+01    1.567E+01    1.576E+01    1.585E+01    1.593E+01    1.602E+01    1.610E+01    1.618E+01    1.625E+01    1.633E+01
     1.640E+01    1.647E+01    1.654E+01    1.661E+01    1.667E+01    1.673E+01    1.679E+01    1.685E+01    1.691E+01    1.696E+01
     1.701E+01    1.706E+01    1.711E+01    1.716E+01    1.720E+01    1.724E+01    1.728E+01    1.732E+01    1.736E+01    1.740E+01
     1.743E+01    1.747E+01    1.750E+01    1.753E+01    1.756E+01    1.759E+01    1.762E+01    1.765E+01    1.767E+01    1.770E+01
     1.772E+01    1.774E+01    1.777E+01    1.779E+01    1.781E+01    1.783E+01    1.785E+01    1.787E+01    1.788E+01    1.790E+01
     1.792E+01    1.794E+01    1.795E+01    1.797E+01    1.798E+01    1.800E+01    1.802E+01    1.803E+01
 Cr       Conc. = 1.19E+03
