 LCModel (Version 6.3-1L) Copyright: S.W. Provencher.          Ref.: Magn. Reson. Med. 30:672-679 (1993).                
 Slice#3 Row#7 Col#14  K_02_press_1_raw_act
 36 lines in following concentration table = NCONC+1
    Conc.  %SD /Cr+PCr  Metabolite                                         
  455.446 170%   3.193 Ala                                                 
   25.634  77%   0.180 Asp                                                 
    0.000 999%   0.000 Cr                                                  
  142.651  33%   1.000 PCr                                                 
   15.953  74%   0.112 GABA                                                
   15.895  75%   0.111 Glc                                                 
   32.287 999%   0.226 Gln                                                 
 1.05E+03  63%   7.374 Glu                                                 
    0.000 999%   0.000 GPC                                                 
   31.514  51%   0.221 PCh                                                 
    0.000 999%   0.000 GSH                                                 
    0.000 999%   0.000 Ins                                                 
 7.25E+03  20%  50.839 Lac                                                 
  277.476  30%   1.945 NAA                                                 
    0.000 999%   0.000 NAAG                                                
    6.361  61% 4.5E-02 Scyllo                                              
   28.029  70%   0.196 Tau                                                 
   17.572 101%   0.123 -CrCH2                                              
   31.514  51%   0.221 GPC+PCh                                             
  277.476  30%   1.945 NAA+NAAG                                            
  142.651  33%   1.000 Cr+PCr                                              
 1.08E+03  82%   7.600 Glu+Gln                                             
 4.53E+04  11% 317.559 Lip13a                                              
    0.000 999%   0.000 Lip13b                                              
 6.24E+03  19%  43.734 Lip09                                               
 3.99E+03  23%  27.939 MM09                                                
 1.16E+03  41%   8.132 Lip20                                               
  663.111  60%   4.648 MM20                                                
 1.23E+03  71%   8.625 MM12                                                
 2.98E+04  11% 208.661+MM14                                                
 1.78E+04  13% 124.951+MM17                                                
 4.53E+04  11% 317.559 Lip13a+Lip13b                                       
 7.63E+04   6% 534.845 MM14+Lip13a+Lip13b+MM12                             
 1.02E+04  14%  71.673 MM09+Lip09                                          
 1.82E+03  21%  12.781 MM20+Lip20                                          
   6 lines in following misc. output table
  FWHM = 0.168 ppm    S/N =  53                                            
  Data shift = 0.130 ppm                                                   
  Ph: -22 deg     -16.2 deg/ppm                                            
  alphaB,S = 8.5E+01,   4.1E+02                                            
    6 spline knots.   Ns = 9(2)                                            
   2 inflections.     1 extrema                                            
  498 points on ppm-axis = NY
      4.000000     3.992357     3.984714     3.977070     3.969427     3.961784     3.954141     3.946497     3.938854     3.931211
      3.923568     3.915925     3.908281     3.900638     3.892995     3.885352     3.877708     3.870065     3.862422     3.854779
      3.847136     3.839492     3.831849     3.824206     3.816563     3.808919     3.801276     3.793633     3.785990     3.778347
      3.770703     3.763060     3.755417     3.747774     3.740130     3.732487     3.724844     3.717201     3.709558     3.701914
      3.694271     3.686628     3.678985     3.671341     3.663698     3.656055     3.648412     3.640769     3.633125     3.625482
      3.617839     3.610196     3.602552     3.594909     3.587266     3.579623     3.571980     3.564336     3.556693     3.549050
      3.541407     3.533763     3.526120     3.518477     3.510834     3.503191     3.495547     3.487904     3.480261     3.472618
      3.464974     3.457331     3.449688     3.442045     3.434402     3.426758     3.419115     3.411472     3.403829     3.396185
      3.388542     3.380899     3.373256     3.365613     3.357969     3.350326     3.342683     3.335040     3.327396     3.319753
      3.312110     3.304467     3.296824     3.289180     3.281537     3.273894     3.266251     3.258607     3.250964     3.243321
      3.235678     3.228034     3.220391     3.212748     3.205105     3.197462     3.189818     3.182175     3.174532     3.166889
      3.159245     3.151602     3.143959     3.136316     3.128673     3.121029     3.113386     3.105743     3.098100     3.090456
      3.082813     3.075170     3.067527     3.059884     3.052240     3.044597     3.036954     3.029311     3.021667     3.014024
      3.006381     2.998738     2.991095     2.983451     2.975808     2.968165     2.960522     2.952878     2.945235     2.937592
      2.929949     2.922306     2.914662     2.907019     2.899376     2.891733     2.884089     2.876446     2.868803     2.861160
      2.853517     2.845873     2.838230     2.830587     2.822944     2.815300     2.807657     2.800014     2.792371     2.784728
      2.777084     2.769441     2.761798     2.754155     2.746511     2.738868     2.731225     2.723582     2.715939     2.708295
      2.700652     2.693009     2.685366     2.677722     2.670079     2.662436     2.654793     2.647150     2.639506     2.631863
      2.624220     2.616577     2.608933     2.601290     2.593647     2.586004     2.578361     2.570717     2.563074     2.555431
      2.547788     2.540144     2.532501     2.524858     2.517215     2.509572     2.501928     2.494285     2.486642     2.478999
      2.471355     2.463712     2.456069     2.448426     2.440783     2.433139     2.425496     2.417853     2.410210     2.402566
      2.394923     2.387280     2.379637     2.371994     2.364350     2.356707     2.349064     2.341421     2.333777     2.326134
      2.318491     2.310848     2.303205     2.295561     2.287918     2.280275     2.272632     2.264988     2.257345     2.249702
      2.242059     2.234416     2.226772     2.219129     2.211486     2.203843     2.196199     2.188556     2.180913     2.173270
      2.165627     2.157983     2.150340     2.142697     2.135054     2.127410     2.119767     2.112124     2.104481     2.096838
      2.089194     2.081551     2.073908     2.066265     2.058621     2.050978     2.043335     2.035692     2.028049     2.020405
      2.012762     2.005119     1.997476     1.989833     1.982190     1.974546     1.966903     1.959260     1.951617     1.943974
      1.936331     1.928688     1.921045     1.913402     1.905759     1.898115     1.890472     1.882829     1.875186     1.867543
      1.859900     1.852257     1.844614     1.836971     1.829327     1.821684     1.814041     1.806398     1.798755     1.791112
      1.783469     1.775826     1.768183     1.760540     1.752896     1.745253     1.737610     1.729967     1.722324     1.714681
      1.707038     1.699395     1.691752     1.684108     1.676465     1.668822     1.661179     1.653536     1.645893     1.638250
      1.630607     1.622964     1.615321     1.607677     1.600034     1.592391     1.584748     1.577105     1.569462     1.561819
      1.554176     1.546533     1.538890     1.531246     1.523603     1.515960     1.508317     1.500674     1.493031     1.485388
      1.477745     1.470102     1.462458     1.454815     1.447172     1.439529     1.431886     1.424243     1.416600     1.408957
      1.401314     1.393671     1.386027     1.378384     1.370741     1.363098     1.355455     1.347812     1.340169     1.332526
      1.324883     1.317240     1.309596     1.301953     1.294310     1.286667     1.279024     1.271381     1.263738     1.256095
      1.248452     1.240808     1.233165     1.225522     1.217879     1.210236     1.202593     1.194950     1.187307     1.179664
      1.172021     1.164377     1.156734     1.149091     1.141448     1.133805     1.126162     1.118519     1.110876     1.103233
      1.095590     1.087946     1.080303     1.072660     1.065017     1.057374     1.049731     1.042088     1.034445     1.026802
      1.019158     1.011515     1.003872     0.996229     0.988586     0.980943     0.973300     0.965657     0.958014     0.950371
      0.942727     0.935084     0.927441     0.919798     0.912155     0.904512     0.896869     0.889226     0.881583     0.873940
      0.866296     0.858653     0.851010     0.843367     0.835724     0.828081     0.820438     0.812795     0.805152     0.797508
      0.789865     0.782222     0.774579     0.766936     0.759293     0.751650     0.744007     0.736364     0.728721     0.721077
      0.713434     0.705791     0.698148     0.690505     0.682862     0.675219     0.667576     0.659933     0.652290     0.644646
      0.637003     0.629360     0.621717     0.614074     0.606431     0.598788     0.591145     0.583502     0.575858     0.568215
      0.560572     0.552929     0.545286     0.537643     0.530000     0.522357     0.514714     0.507071     0.499427     0.491784
      0.484141     0.476498     0.468855     0.461212     0.453569     0.445925     0.438282     0.430639     0.422996     0.415353
      0.407710     0.400067     0.392424     0.384780     0.377137     0.369494     0.361851     0.354208     0.346565     0.338922
      0.331278     0.323635     0.315992     0.308349     0.300706     0.293063     0.285420     0.277777     0.270133     0.262490
      0.254847     0.247204     0.239561     0.231918     0.224275     0.216631     0.208988     0.201345
 NY phased data points follow
   1.84193E+01  2.09689E+01  2.10369E+01  1.76690E+01  1.83404E+01  1.99839E+01  2.02616E+01  1.89722E+01  1.78595E+01  1.80353E+01
   1.65236E+01  1.82136E+01  1.80629E+01  1.95747E+01  1.67638E+01  1.94314E+01  1.93040E+01  1.97052E+01  1.85239E+01  1.79220E+01
   1.74630E+01  1.90495E+01  2.09039E+01  2.02024E+01  1.81772E+01  1.88537E+01  1.84985E+01  1.93587E+01  1.90777E+01  1.80500E+01
   1.86805E+01  1.78244E+01  2.01679E+01  1.90282E+01  1.80103E+01  1.70439E+01  1.99689E+01  1.89487E+01  1.84120E+01  1.77143E+01
   1.87947E+01  1.69980E+01  1.94568E+01  1.85773E+01  1.67890E+01  1.84208E+01  1.73386E+01  1.85264E+01  1.99227E+01  1.71104E+01
   1.63504E+01  1.68281E+01  1.76294E+01  1.76717E+01  1.70583E+01  1.73296E+01  1.58746E+01  1.69437E+01  1.81218E+01  1.75212E+01
   1.94900E+01  1.78401E+01  1.70717E+01  1.68386E+01  1.75017E+01  1.68120E+01  1.65831E+01  1.71281E+01  1.82102E+01  1.86430E+01
   1.89890E+01  1.90904E+01  1.72727E+01  1.64539E+01  1.79353E+01  1.82195E+01  1.72174E+01  1.75487E+01  1.71608E+01  1.66431E+01
   1.79461E+01  1.75611E+01  1.63151E+01  1.74677E+01  1.93848E+01  1.88708E+01  1.93360E+01  1.87245E+01  2.01464E+01  2.06105E+01
   1.95292E+01  1.75277E+01  2.10925E+01  1.95304E+01  2.05893E+01  1.87716E+01  1.68852E+01  1.70687E+01  1.87481E+01  1.70194E+01
   1.68531E+01  1.86450E+01  1.91699E+01  1.77209E+01  1.85358E+01  1.69571E+01  1.64112E+01  2.07205E+01  1.80368E+01  1.86198E+01
   1.69927E+01  1.85401E+01  1.96394E+01  1.97794E+01  2.12516E+01  2.06541E+01  2.13330E+01  2.01502E+01  2.12839E+01  1.92402E+01
   2.08369E+01  1.97656E+01  1.93735E+01  2.07798E+01  1.82816E+01  1.98725E+01  1.79034E+01  2.13412E+01  1.86956E+01  2.01178E+01
   1.98226E+01  1.95394E+01  1.95827E+01  1.96352E+01  2.14863E+01  1.95650E+01  1.91578E+01  2.07882E+01  2.12042E+01  1.79972E+01
   1.90880E+01  1.92539E+01  1.85629E+01  1.91187E+01  1.85156E+01  1.94334E+01  1.92315E+01  2.08381E+01  1.91986E+01  1.93880E+01
   1.99393E+01  1.98055E+01  1.92614E+01  2.04668E+01  1.90564E+01  1.92846E+01  2.07370E+01  2.07159E+01  2.19212E+01  1.88999E+01
   1.90575E+01  1.88127E+01  1.87662E+01  1.97276E+01  2.10178E+01  1.96943E+01  1.82885E+01  1.84593E+01  1.83786E+01  2.00530E+01
   1.81565E+01  2.01451E+01  2.04209E+01  1.93224E+01  1.88965E+01  1.97358E+01  1.71462E+01  1.98289E+01  2.06359E+01  2.09626E+01
   2.11861E+01  1.97115E+01  1.87585E+01  2.11132E+01  2.05705E+01  2.16255E+01  1.85168E+01  2.00582E+01  1.93744E+01  2.01639E+01
   2.07128E+01  2.07484E+01  1.98220E+01  2.08228E+01  1.85297E+01  2.01366E+01  1.99402E+01  2.07427E+01  2.07741E+01  2.03254E+01
   2.03604E+01  2.01399E+01  2.29147E+01  1.96872E+01  2.29010E+01  2.00955E+01  2.02251E+01  1.88279E+01  1.89965E+01  2.13160E+01
   1.94707E+01  2.05357E+01  2.00823E+01  2.10184E+01  2.13697E+01  2.31010E+01  2.29248E+01  2.20985E+01  2.26779E+01  2.36124E+01
   2.26583E+01  2.16917E+01  2.32124E+01  2.39456E+01  2.23842E+01  2.45792E+01  2.45730E+01  2.61520E+01  2.58232E+01  2.72705E+01
   2.43685E+01  2.52753E+01  2.99942E+01  2.84204E+01  2.74085E+01  2.86003E+01  2.96273E+01  3.04295E+01  3.04977E+01  3.01393E+01
   3.12632E+01  3.15408E+01  2.94901E+01  3.04606E+01  3.07452E+01  3.23373E+01  3.55411E+01  3.80771E+01  3.66196E+01  3.62713E+01
   3.94298E+01  4.00185E+01  3.87317E+01  3.86816E+01  4.09372E+01  4.08977E+01  4.28757E+01  4.03504E+01  4.32502E+01  4.45640E+01
   4.34072E+01  4.35971E+01  4.29270E+01  4.58195E+01  4.64261E+01  4.78598E+01  4.82405E+01  4.93815E+01  5.04462E+01  5.25943E+01
   5.28297E+01  5.34218E+01  5.32887E+01  5.68242E+01  5.73791E+01  5.76753E+01  5.95557E+01  6.11122E+01  6.06518E+01  6.41943E+01
   6.55720E+01  6.67016E+01  6.88041E+01  7.35379E+01  7.69262E+01  7.64393E+01  7.81819E+01  8.11028E+01  8.38763E+01  8.74494E+01
   8.98171E+01  9.03999E+01  9.48848E+01  1.00291E+02  1.01318E+02  1.05310E+02  1.07663E+02  1.11713E+02  1.15450E+02  1.19065E+02
   1.23504E+02  1.25810E+02  1.30323E+02  1.34055E+02  1.39093E+02  1.40803E+02  1.44355E+02  1.49056E+02  1.54111E+02  1.55827E+02
   1.57179E+02  1.61978E+02  1.64757E+02  1.68728E+02  1.72094E+02  1.75348E+02  1.79575E+02  1.83025E+02  1.82874E+02  1.87004E+02
   1.90610E+02  1.92494E+02  1.92705E+02  1.93039E+02  1.96159E+02  1.97692E+02  2.00529E+02  1.98930E+02  2.00424E+02  2.01521E+02
   2.01806E+02  1.99717E+02  2.01696E+02  2.00001E+02  1.98763E+02  1.96205E+02  1.94922E+02  1.95138E+02  1.92323E+02  1.90242E+02
   1.87405E+02  1.83466E+02  1.81122E+02  1.78480E+02  1.76600E+02  1.73513E+02  1.72752E+02  1.69196E+02  1.66253E+02  1.65768E+02
   1.64018E+02  1.60827E+02  1.61775E+02  1.58300E+02  1.57653E+02  1.57949E+02  1.55605E+02  1.51891E+02  1.50831E+02  1.48933E+02
   1.47569E+02  1.46583E+02  1.43566E+02  1.43626E+02  1.40677E+02  1.39947E+02  1.35488E+02  1.35209E+02  1.33601E+02  1.32869E+02
   1.29674E+02  1.27929E+02  1.23179E+02  1.23492E+02  1.20378E+02  1.19694E+02  1.16521E+02  1.13272E+02  1.10060E+02  1.11655E+02
   1.09851E+02  1.05455E+02  1.04631E+02  1.00856E+02  1.01745E+02  9.67348E+01  9.69442E+01  9.29998E+01  9.13034E+01  9.15269E+01
   8.85873E+01  8.78098E+01  8.69237E+01  8.28912E+01  8.18728E+01  7.97990E+01  7.71118E+01  7.57604E+01  7.46849E+01  7.41469E+01
   7.08469E+01  7.09035E+01  6.83671E+01  6.85960E+01  6.59214E+01  6.48910E+01  6.55556E+01  6.26311E+01  5.96923E+01  5.89722E+01
   5.90151E+01  5.72006E+01  5.52518E+01  5.52163E+01  5.27766E+01  5.41115E+01  5.08134E+01  5.03551E+01  5.03848E+01  4.75983E+01
   4.66173E+01  4.53175E+01  4.46713E+01  4.46976E+01  4.32971E+01  4.18105E+01  4.11599E+01  3.90603E+01  4.01687E+01  3.87494E+01
   3.65090E+01  3.80445E+01  3.60268E+01  3.41412E+01  3.50506E+01  3.24142E+01  3.41519E+01  3.09871E+01  3.06478E+01  3.14221E+01
   3.04710E+01  3.01633E+01  2.96214E+01  2.88930E+01  2.60244E+01  2.66810E+01  2.80834E+01  2.70148E+01  2.53135E+01  2.42799E+01
   2.32919E+01  2.46818E+01  2.18453E+01  2.30677E+01  2.21530E+01  2.10807E+01  2.04263E+01  2.15475E+01  2.24196E+01  2.30386E+01
   2.02975E+01  2.19868E+01  2.10668E+01  1.97849E+01  2.00240E+01  1.78922E+01  1.75163E+01  1.83452E+01  1.85665E+01  1.92259E+01
   1.69725E+01  1.74389E+01  1.79551E+01  1.52209E+01  1.60559E+01  1.53424E+01  1.61534E+01  1.57084E+01  1.71570E+01  1.60537E+01
   1.33063E+01  1.65096E+01  1.79098E+01  1.51104E+01  1.52819E+01  1.63043E+01  1.50392E+01  1.37777E+01  1.58324E+01  1.38597E+01
   1.49900E+01  1.57346E+01  1.37968E+01  1.39168E+01  1.49754E+01  1.31698E+01  1.36882E+01  1.46569E+01
 NY points of the fit to the data follow
   1.76279E+01  1.91096E+01  1.80309E+01  1.92999E+01  1.85083E+01  1.96806E+01  1.89004E+01  1.97327E+01  1.90531E+01  1.95775E+01
   1.89616E+01  1.91974E+01  1.86900E+01  1.90755E+01  1.87756E+01  1.91523E+01  1.89743E+01  1.92679E+01  1.91239E+01  1.92547E+01
   1.90172E+01  1.90912E+01  1.89032E+01  1.89426E+01  1.88132E+01  1.88038E+01  1.87252E+01  1.86678E+01  1.86528E+01  1.85586E+01
   1.86286E+01  1.85178E+01  1.86256E+01  1.84685E+01  1.85929E+01  1.83909E+01  1.85289E+01  1.83092E+01  1.84742E+01  1.82478E+01
   1.84209E+01  1.81937E+01  1.83608E+01  1.81347E+01  1.82819E+01  1.80725E+01  1.82088E+01  1.80384E+01  1.81577E+01  1.79934E+01
   1.80537E+01  1.79104E+01  1.79311E+01  1.78215E+01  1.78309E+01  1.77819E+01  1.78035E+01  1.77792E+01  1.77759E+01  1.77573E+01
   1.77235E+01  1.77132E+01  1.76835E+01  1.76799E+01  1.76546E+01  1.76560E+01  1.76344E+01  1.76391E+01  1.76262E+01  1.76325E+01
   1.76248E+01  1.76305E+01  1.76287E+01  1.76329E+01  1.76379E+01  1.76390E+01  1.76479E+01  1.76448E+01  1.76556E+01  1.76484E+01
   1.76623E+01  1.76536E+01  1.76681E+01  1.76597E+01  1.76818E+01  1.77115E+01  1.77594E+01  1.77965E+01  1.78623E+01  1.79042E+01
   1.79908E+01  1.80366E+01  1.81461E+01  1.81872E+01  1.83174E+01  1.83353E+01  1.84761E+01  1.84652E+01  1.86121E+01  1.85681E+01
   1.87142E+01  1.86366E+01  1.87751E+01  1.86639E+01  1.87897E+01  1.86536E+01  1.87662E+01  1.86310E+01  1.87838E+01  1.87068E+01
   1.88438E+01  1.88147E+01  1.89251E+01  1.89503E+01  1.90274E+01  1.91282E+01  1.91620E+01  1.93440E+01  1.93136E+01  1.95599E+01
   1.94621E+01  1.97593E+01  1.95965E+01  1.99275E+01  1.97111E+01  2.00803E+01  1.98250E+01  2.01684E+01  1.98753E+01  2.01783E+01
   1.98727E+01  2.01344E+01  1.98325E+01  2.00518E+01  1.97648E+01  1.99391E+01  1.96694E+01  1.97923E+01  1.95619E+01  1.96447E+01
   1.94656E+01  1.95186E+01  1.93914E+01  1.94190E+01  1.93433E+01  1.93557E+01  1.93288E+01  1.93409E+01  1.93828E+01  1.94247E+01
   1.94679E+01  1.95064E+01  1.95437E+01  1.95764E+01  1.96036E+01  1.96279E+01  1.96411E+01  1.96540E+01  1.96498E+01  1.96507E+01
   1.96352E+01  1.96255E+01  1.95985E+01  1.95746E+01  1.95382E+01  1.95033E+01  1.94634E+01  1.94201E+01  1.93807E+01  1.93286E+01
   1.92965E+01  1.92446E+01  1.92233E+01  1.91752E+01  1.91666E+01  1.91244E+01  1.91319E+01  1.91006E+01  1.91268E+01  1.91127E+01
   1.91536E+01  1.91574E+01  1.92103E+01  1.92314E+01  1.92973E+01  1.93436E+01  1.94288E+01  1.95047E+01  1.96040E+01  1.96886E+01
   1.97973E+01  1.98841E+01  1.99758E+01  2.00652E+01  2.01439E+01  2.02400E+01  2.03309E+01  2.04663E+01  2.06321E+01  2.07577E+01
   2.09622E+01  2.10585E+01  2.13002E+01  2.13277E+01  2.15653E+01  2.15088E+01  2.18026E+01  2.16907E+01  2.20112E+01  2.18542E+01
   2.21965E+01  2.20156E+01  2.23792E+01  2.21957E+01  2.25828E+01  2.24331E+01  2.28269E+01  2.27414E+01  2.31385E+01  2.31441E+01
   2.35538E+01  2.36571E+01  2.40680E+01  2.42598E+01  2.46515E+01  2.48947E+01  2.52600E+01  2.55594E+01  2.59102E+01  2.62409E+01
   2.66009E+01  2.69571E+01  2.73194E+01  2.76879E+01  2.80744E+01  2.84589E+01  2.89044E+01  2.93170E+01  2.98621E+01  3.02483E+01
   3.08146E+01  3.12092E+01  3.19140E+01  3.23827E+01  3.30849E+01  3.36300E+01  3.43813E+01  3.50510E+01  3.58180E+01  3.66257E+01
   3.73762E+01  3.82983E+01  3.89592E+01  3.99433E+01  4.04720E+01  4.14937E+01  4.18909E+01  4.29360E+01  4.32138E+01  4.42685E+01
   4.44431E+01  4.54932E+01  4.55975E+01  4.66376E+01  4.67504E+01  4.77958E+01  4.79931E+01  4.90815E+01  4.94095E+01  5.05482E+01
   5.10318E+01  5.22347E+01  5.29227E+01  5.42238E+01  5.51692E+01  5.66241E+01  5.78591E+01  5.94956E+01  6.10338E+01  6.28742E+01
   6.47096E+01  6.67901E+01  6.90053E+01  7.13587E+01  7.38122E+01  7.63816E+01  7.90508E+01  8.18058E+01  8.46558E+01  8.75769E+01
   9.05762E+01  9.36303E+01  9.67450E+01  9.98998E+01  1.03098E+02  1.06330E+02  1.09594E+02  1.12882E+02  1.16195E+02  1.19529E+02
   1.22886E+02  1.26268E+02  1.29674E+02  1.33113E+02  1.36585E+02  1.40096E+02  1.43646E+02  1.47242E+02  1.50891E+02  1.54611E+02
   1.58286E+02  1.61969E+02  1.65604E+02  1.69166E+02  1.72667E+02  1.75982E+02  1.79204E+02  1.82173E+02  1.85105E+02  1.87551E+02
   1.90073E+02  1.91886E+02  1.93937E+02  1.95080E+02  1.96674E+02  1.97194E+02  1.98458E+02  1.98579E+02  2.00002E+02  2.00681E+02
   2.01463E+02  2.01201E+02  2.01277E+02  2.00119E+02  1.99439E+02  1.97143E+02  1.95503E+02  1.93478E+02  1.91530E+02  1.89033E+02
   1.86686E+02  1.83865E+02  1.81315E+02  1.78613E+02  1.76149E+02  1.73868E+02  1.71636E+02  1.69476E+02  1.67510E+02  1.65554E+02
   1.63914E+02  1.62262E+02  1.60890E+02  1.59433E+02  1.58184E+02  1.56493E+02  1.55071E+02  1.52838E+02  1.51420E+02  1.49158E+02
   1.47810E+02  1.45682E+02  1.44395E+02  1.42391E+02  1.41130E+02  1.38910E+02  1.37504E+02  1.35267E+02  1.34013E+02  1.32375E+02
   1.30530E+02  1.28004E+02  1.25763E+02  1.22813E+02  1.20366E+02  1.17137E+02  1.14633E+02  1.12571E+02  1.10727E+02  1.09005E+02
   1.07350E+02  1.05722E+02  1.04093E+02  1.02443E+02  1.00754E+02  9.90181E+01  9.72297E+01  9.53895E+01  9.35007E+01  9.15722E+01
   8.96138E+01  8.76395E+01  8.56624E+01  8.36981E+01  8.17598E+01  7.98617E+01  7.80140E+01  7.62270E+01  7.45064E+01  7.28573E+01
   7.12805E+01  6.97764E+01  6.83410E+01  6.69709E+01  6.56592E+01  6.43999E+01  6.31847E+01  6.20071E+01  6.08584E+01  5.97327E+01
   5.86225E+01  5.75234E+01  5.64298E+01  5.53390E+01  5.42475E+01  5.31546E+01  5.20586E+01  5.09607E+01  4.98608E+01  4.87614E+01
   4.76634E+01  4.65701E+01  4.54830E+01  4.44060E+01  4.33406E+01  4.22905E+01  4.12573E+01  4.02443E+01  3.92525E+01  3.82849E+01
   3.73420E+01  3.64260E+01  3.55369E+01  3.46764E+01  3.38439E+01  3.30407E+01  3.22657E+01  3.15197E+01  3.08013E+01  3.01111E+01
   2.94472E+01  2.88101E+01  2.81979E+01  2.76107E+01  2.70467E+01  2.65059E+01  2.59863E+01  2.54881E+01  2.50093E+01  2.45501E+01
   2.41084E+01  2.36845E+01  2.32766E+01  2.28848E+01  2.25073E+01  2.21445E+01  2.17946E+01  2.14580E+01  2.11330E+01  2.08201E+01
   2.05177E+01  2.02261E+01  1.99440E+01  1.96719E+01  1.94083E+01  1.91537E+01  1.89068E+01  1.86682E+01  1.84365E+01  1.82123E+01
   1.79945E+01  1.77836E+01  1.75783E+01  1.73794E+01  1.71857E+01  1.69979E+01  1.68147E+01  1.66370E+01  1.64635E+01  1.62951E+01
   1.61305E+01  1.59707E+01  1.58143E+01  1.56623E+01  1.55135E+01  1.53688E+01  1.52271E+01  1.50891E+01  1.49539E+01  1.48222E+01
   1.46930E+01  1.45673E+01  1.44438E+01  1.43235E+01  1.42053E+01  1.40902E+01  1.39772E+01  1.38671E+01
 NY background values follow
     1.662E+01    1.660E+01    1.659E+01    1.657E+01    1.656E+01    1.654E+01    1.653E+01    1.651E+01    1.649E+01    1.648E+01
     1.646E+01    1.645E+01    1.643E+01    1.642E+01    1.640E+01    1.638E+01    1.637E+01    1.635E+01    1.634E+01    1.632E+01
     1.631E+01    1.629E+01    1.627E+01    1.626E+01    1.624E+01    1.623E+01    1.621E+01    1.619E+01    1.618E+01    1.616E+01
     1.615E+01    1.613E+01    1.611E+01    1.610E+01    1.608E+01    1.607E+01    1.605E+01    1.603E+01    1.602E+01    1.600E+01
     1.599E+01    1.597E+01    1.595E+01    1.594E+01    1.592E+01    1.591E+01    1.589E+01    1.587E+01    1.586E+01    1.584E+01
     1.582E+01    1.581E+01    1.579E+01    1.578E+01    1.576E+01    1.574E+01    1.573E+01    1.571E+01    1.569E+01    1.568E+01
     1.566E+01    1.564E+01    1.563E+01    1.561E+01    1.560E+01    1.558E+01    1.556E+01    1.555E+01    1.553E+01    1.551E+01
     1.550E+01    1.548E+01    1.546E+01    1.545E+01    1.543E+01    1.541E+01    1.540E+01    1.538E+01    1.536E+01    1.535E+01
     1.533E+01    1.531E+01    1.530E+01    1.528E+01    1.527E+01    1.525E+01    1.523E+01    1.522E+01    1.520E+01    1.518E+01
     1.517E+01    1.515E+01    1.513E+01    1.512E+01    1.510E+01    1.508E+01    1.506E+01    1.505E+01    1.503E+01    1.501E+01
     1.500E+01    1.498E+01    1.496E+01    1.495E+01    1.493E+01    1.491E+01    1.490E+01    1.488E+01    1.486E+01    1.485E+01
     1.483E+01    1.481E+01    1.480E+01    1.478E+01    1.476E+01    1.475E+01    1.473E+01    1.471E+01    1.469E+01    1.468E+01
     1.466E+01    1.464E+01    1.463E+01    1.461E+01    1.459E+01    1.458E+01    1.456E+01    1.454E+01    1.453E+01    1.451E+01
     1.449E+01    1.447E+01    1.446E+01    1.444E+01    1.442E+01    1.441E+01    1.439E+01    1.437E+01    1.435E+01    1.434E+01
     1.432E+01    1.430E+01    1.429E+01    1.427E+01    1.425E+01    1.424E+01    1.422E+01    1.420E+01    1.418E+01    1.417E+01
     1.415E+01    1.413E+01    1.412E+01    1.410E+01    1.408E+01    1.406E+01    1.405E+01    1.403E+01    1.401E+01    1.400E+01
     1.398E+01    1.396E+01    1.394E+01    1.393E+01    1.391E+01    1.389E+01    1.388E+01    1.386E+01    1.384E+01    1.382E+01
     1.381E+01    1.379E+01    1.377E+01    1.376E+01    1.374E+01    1.372E+01    1.370E+01    1.369E+01    1.367E+01    1.365E+01
     1.363E+01    1.362E+01    1.360E+01    1.358E+01    1.357E+01    1.355E+01    1.353E+01    1.351E+01    1.350E+01    1.348E+01
     1.346E+01    1.344E+01    1.343E+01    1.341E+01    1.339E+01    1.338E+01    1.336E+01    1.334E+01    1.332E+01    1.331E+01
     1.329E+01    1.327E+01    1.325E+01    1.324E+01    1.322E+01    1.320E+01    1.319E+01    1.317E+01    1.315E+01    1.313E+01
     1.312E+01    1.310E+01    1.308E+01    1.306E+01    1.305E+01    1.303E+01    1.301E+01    1.299E+01    1.298E+01    1.296E+01
     1.294E+01    1.292E+01    1.291E+01    1.289E+01    1.287E+01    1.285E+01    1.284E+01    1.282E+01    1.280E+01    1.278E+01
     1.277E+01    1.275E+01    1.273E+01    1.271E+01    1.270E+01    1.268E+01    1.266E+01    1.264E+01    1.263E+01    1.261E+01
     1.259E+01    1.257E+01    1.256E+01    1.254E+01    1.252E+01    1.250E+01    1.249E+01    1.247E+01    1.245E+01    1.243E+01
     1.242E+01    1.240E+01    1.238E+01    1.236E+01    1.235E+01    1.233E+01    1.231E+01    1.229E+01    1.228E+01    1.226E+01
     1.224E+01    1.222E+01    1.221E+01    1.219E+01    1.217E+01    1.215E+01    1.214E+01    1.212E+01    1.210E+01    1.208E+01
     1.206E+01    1.205E+01    1.203E+01    1.201E+01    1.199E+01    1.198E+01    1.196E+01    1.194E+01    1.192E+01    1.190E+01
     1.189E+01    1.187E+01    1.185E+01    1.183E+01    1.182E+01    1.180E+01    1.178E+01    1.176E+01    1.174E+01    1.173E+01
     1.171E+01    1.169E+01    1.167E+01    1.166E+01    1.164E+01    1.162E+01    1.160E+01    1.158E+01    1.157E+01    1.155E+01
     1.153E+01    1.151E+01    1.149E+01    1.148E+01    1.146E+01    1.144E+01    1.142E+01    1.141E+01    1.139E+01    1.137E+01
     1.135E+01    1.133E+01    1.132E+01    1.130E+01    1.128E+01    1.126E+01    1.124E+01    1.123E+01    1.121E+01    1.119E+01
     1.117E+01    1.115E+01    1.114E+01    1.112E+01    1.110E+01    1.108E+01    1.106E+01    1.105E+01    1.103E+01    1.101E+01
     1.099E+01    1.097E+01    1.095E+01    1.094E+01    1.092E+01    1.090E+01    1.088E+01    1.086E+01    1.085E+01    1.083E+01
     1.081E+01    1.079E+01    1.077E+01    1.075E+01    1.074E+01    1.072E+01    1.070E+01    1.068E+01    1.066E+01    1.065E+01
     1.063E+01    1.061E+01    1.059E+01    1.057E+01    1.055E+01    1.054E+01    1.052E+01    1.050E+01    1.048E+01    1.046E+01
     1.044E+01    1.043E+01    1.041E+01    1.039E+01    1.037E+01    1.035E+01    1.033E+01    1.032E+01    1.030E+01    1.028E+01
     1.026E+01    1.024E+01    1.022E+01    1.020E+01    1.019E+01    1.017E+01    1.015E+01    1.013E+01    1.011E+01    1.009E+01
     1.008E+01    1.006E+01    1.004E+01    1.002E+01    1.000E+01    9.983E+00    9.964E+00    9.946E+00    9.927E+00    9.909E+00
     9.890E+00    9.872E+00    9.853E+00    9.834E+00    9.816E+00    9.797E+00    9.778E+00    9.760E+00    9.741E+00    9.723E+00
     9.704E+00    9.685E+00    9.667E+00    9.648E+00    9.629E+00    9.610E+00    9.592E+00    9.573E+00    9.554E+00    9.535E+00
     9.517E+00    9.498E+00    9.479E+00    9.460E+00    9.442E+00    9.423E+00    9.404E+00    9.385E+00    9.366E+00    9.348E+00
     9.329E+00    9.310E+00    9.291E+00    9.272E+00    9.253E+00    9.234E+00    9.216E+00    9.197E+00    9.178E+00    9.159E+00
     9.140E+00    9.121E+00    9.102E+00    9.083E+00    9.064E+00    9.045E+00    9.026E+00    9.007E+00    8.988E+00    8.969E+00
     8.950E+00    8.931E+00    8.912E+00    8.893E+00    8.874E+00    8.855E+00    8.836E+00    8.817E+00    8.798E+00    8.779E+00
     8.760E+00    8.740E+00    8.721E+00    8.702E+00    8.683E+00    8.664E+00    8.645E+00    8.626E+00    8.606E+00    8.587E+00
     8.568E+00    8.549E+00    8.530E+00    8.510E+00    8.491E+00    8.472E+00    8.453E+00    8.433E+00    8.414E+00    8.395E+00
     8.376E+00    8.356E+00    8.337E+00    8.318E+00    8.298E+00    8.279E+00    8.260E+00    8.240E+00    8.221E+00    8.202E+00
     8.182E+00    8.163E+00    8.143E+00    8.124E+00    8.105E+00    8.085E+00    8.066E+00    8.046E+00    8.027E+00    8.007E+00
     7.988E+00    7.968E+00    7.949E+00    7.929E+00    7.910E+00    7.890E+00    7.871E+00    7.851E+00
 Ala      Conc. = 4.55E+02
