 LCModel (Version 6.3-1L) Copyright: S.W. Provencher.          Ref.: Magn. Reson. Med. 30:672-679 (1993).                
 Slice#3 Row#9 Col#11  K_02_press_1_raw_act
 36 lines in following concentration table = NCONC+1
    Conc.  %SD /Cr+PCr  Metabolite                                         
  229.001  50%   0.136 Ala                                                 
    0.000 999%   0.000 Asp                                                 
    0.000 999%   0.000 Cr                                                  
 1.68E+03   4%   1.000 PCr                                                 
    0.000 999%   0.000 GABA                                                
    2.784 999% 1.7E-03 Glc                                                 
 1.08E+03  22%   0.644 Gln                                                 
 1.49E+03  18%   0.884 Glu                                                 
  452.440   5%   0.269 GPC                                                 
    0.000 999%   0.000 PCh                                                 
  256.345  30%   0.152 GSH                                                 
  556.809  48%   0.331 Ins                                                 
   49.202 260% 2.9E-02 Lac                                                 
 2.81E+03   3%   1.671 NAA                                                 
    0.000 999%   0.000 NAAG                                                
   76.124  37% 4.5E-02 Scyllo                                              
    0.000 999%   0.000 Tau                                                 
 1.10E+03  10%   0.654 -CrCH2                                              
  452.440   5%   0.269 GPC+PCh                                             
 2.81E+03   3%   1.671 NAA+NAAG                                            
 1.68E+03   4%   1.000 Cr+PCr                                              
 2.57E+03  15%   1.528 Glu+Gln                                             
 1.61E+03  38%   0.959 Lip13a                                              
    0.000 999%   0.000 Lip13b                                              
  198.370 152%   0.118 Lip09                                               
 1.46E+03  25%   0.868 MM09                                                
  225.719  91%   0.134 Lip20                                               
 3.43E+03  14%   2.037 MM20                                                
  699.832  36%   0.416 MM12                                                
  809.986  46%   0.481 MM14                                                
  372.592  68%   0.221 MM17                                                
 1.61E+03  38%   0.959 Lip13a+Lip13b                                       
 3.12E+03  17%   1.857 MM14+Lip13a+Lip13b+MM12                             
 1.66E+03  15%   0.986 MM09+Lip09                                          
 3.65E+03  13%   2.171 MM20+Lip20                                          
   6 lines in following misc. output table
  FWHM = 0.046 ppm    S/N =  14                                            
  Data shift = 0.008 ppm                                                   
  Ph: -33 deg     -19.4 deg/ppm                                            
  alphaB,S = 5.7E-01,   1.5E+02                                            
   14 spline knots.   Ns = 7(1)                                            
  ( 9) 3 infls.   ( 1) 1 extrs.                                            
  498 points on ppm-axis = NY
      4.000000     3.992357     3.984714     3.977070     3.969427     3.961784     3.954141     3.946497     3.938854     3.931211
      3.923568     3.915925     3.908281     3.900638     3.892995     3.885352     3.877708     3.870065     3.862422     3.854779
      3.847136     3.839492     3.831849     3.824206     3.816563     3.808919     3.801276     3.793633     3.785990     3.778347
      3.770703     3.763060     3.755417     3.747774     3.740130     3.732487     3.724844     3.717201     3.709558     3.701914
      3.694271     3.686628     3.678985     3.671341     3.663698     3.656055     3.648412     3.640769     3.633125     3.625482
      3.617839     3.610196     3.602552     3.594909     3.587266     3.579623     3.571980     3.564336     3.556693     3.549050
      3.541407     3.533763     3.526120     3.518477     3.510834     3.503191     3.495547     3.487904     3.480261     3.472618
      3.464974     3.457331     3.449688     3.442045     3.434402     3.426758     3.419115     3.411472     3.403829     3.396185
      3.388542     3.380899     3.373256     3.365613     3.357969     3.350326     3.342683     3.335040     3.327396     3.319753
      3.312110     3.304467     3.296824     3.289180     3.281537     3.273894     3.266251     3.258607     3.250964     3.243321
      3.235678     3.228034     3.220391     3.212748     3.205105     3.197462     3.189818     3.182175     3.174532     3.166889
      3.159245     3.151602     3.143959     3.136316     3.128673     3.121029     3.113386     3.105743     3.098100     3.090456
      3.082813     3.075170     3.067527     3.059884     3.052240     3.044597     3.036954     3.029311     3.021667     3.014024
      3.006381     2.998738     2.991095     2.983451     2.975808     2.968165     2.960522     2.952878     2.945235     2.937592
      2.929949     2.922306     2.914662     2.907019     2.899376     2.891733     2.884089     2.876446     2.868803     2.861160
      2.853517     2.845873     2.838230     2.830587     2.822944     2.815300     2.807657     2.800014     2.792371     2.784728
      2.777084     2.769441     2.761798     2.754155     2.746511     2.738868     2.731225     2.723582     2.715939     2.708295
      2.700652     2.693009     2.685366     2.677722     2.670079     2.662436     2.654793     2.647150     2.639506     2.631863
      2.624220     2.616577     2.608933     2.601290     2.593647     2.586004     2.578361     2.570717     2.563074     2.555431
      2.547788     2.540144     2.532501     2.524858     2.517215     2.509572     2.501928     2.494285     2.486642     2.478999
      2.471355     2.463712     2.456069     2.448426     2.440783     2.433139     2.425496     2.417853     2.410210     2.402566
      2.394923     2.387280     2.379637     2.371994     2.364350     2.356707     2.349064     2.341421     2.333777     2.326134
      2.318491     2.310848     2.303205     2.295561     2.287918     2.280275     2.272632     2.264988     2.257345     2.249702
      2.242059     2.234416     2.226772     2.219129     2.211486     2.203843     2.196199     2.188556     2.180913     2.173270
      2.165627     2.157983     2.150340     2.142697     2.135054     2.127410     2.119767     2.112124     2.104481     2.096838
      2.089194     2.081551     2.073908     2.066265     2.058621     2.050978     2.043335     2.035692     2.028049     2.020405
      2.012762     2.005119     1.997476     1.989833     1.982190     1.974546     1.966903     1.959260     1.951617     1.943974
      1.936331     1.928688     1.921045     1.913402     1.905759     1.898115     1.890472     1.882829     1.875186     1.867543
      1.859900     1.852257     1.844614     1.836971     1.829327     1.821684     1.814041     1.806398     1.798755     1.791112
      1.783469     1.775826     1.768183     1.760540     1.752896     1.745253     1.737610     1.729967     1.722324     1.714681
      1.707038     1.699395     1.691752     1.684108     1.676465     1.668822     1.661179     1.653536     1.645893     1.638250
      1.630607     1.622964     1.615321     1.607677     1.600034     1.592391     1.584748     1.577105     1.569462     1.561819
      1.554176     1.546533     1.538890     1.531246     1.523603     1.515960     1.508317     1.500674     1.493031     1.485388
      1.477745     1.470102     1.462458     1.454815     1.447172     1.439529     1.431886     1.424243     1.416600     1.408957
      1.401314     1.393671     1.386027     1.378384     1.370741     1.363098     1.355455     1.347812     1.340169     1.332526
      1.324883     1.317240     1.309596     1.301953     1.294310     1.286667     1.279024     1.271381     1.263738     1.256095
      1.248452     1.240808     1.233165     1.225522     1.217879     1.210236     1.202593     1.194950     1.187307     1.179664
      1.172021     1.164377     1.156734     1.149091     1.141448     1.133805     1.126162     1.118519     1.110876     1.103233
      1.095590     1.087946     1.080303     1.072660     1.065017     1.057374     1.049731     1.042088     1.034445     1.026802
      1.019158     1.011515     1.003872     0.996229     0.988586     0.980943     0.973300     0.965657     0.958014     0.950371
      0.942727     0.935084     0.927441     0.919798     0.912155     0.904512     0.896869     0.889226     0.881583     0.873940
      0.866296     0.858653     0.851010     0.843367     0.835724     0.828081     0.820438     0.812795     0.805152     0.797508
      0.789865     0.782222     0.774579     0.766936     0.759293     0.751650     0.744007     0.736364     0.728721     0.721077
      0.713434     0.705791     0.698148     0.690505     0.682862     0.675219     0.667576     0.659933     0.652290     0.644646
      0.637003     0.629360     0.621717     0.614074     0.606431     0.598788     0.591145     0.583502     0.575858     0.568215
      0.560572     0.552929     0.545286     0.537643     0.530000     0.522357     0.514714     0.507071     0.499427     0.491784
      0.484141     0.476498     0.468855     0.461212     0.453569     0.445925     0.438282     0.430639     0.422996     0.415353
      0.407710     0.400067     0.392424     0.384780     0.377137     0.369494     0.361851     0.354208     0.346565     0.338922
      0.331278     0.323635     0.315992     0.308349     0.300706     0.293063     0.285420     0.277777     0.270133     0.262490
      0.254847     0.247204     0.239561     0.231918     0.224275     0.216631     0.208988     0.201345
 NY phased data points follow
   1.81299E+01  1.49948E+01  1.51309E+01  1.72451E+01  1.81267E+01  1.54453E+01  2.35406E+01  2.21817E+01  2.40703E+01  3.00670E+01
   2.73272E+01  2.67971E+01  2.47966E+01  2.87188E+01  2.26513E+01  2.11123E+01  1.92684E+01  1.44772E+01  1.86940E+01  1.54906E+01
   1.52594E+01  1.09957E+01  1.58630E+01  1.89756E+01  1.35648E+01  1.52014E+01  1.67452E+01  1.51217E+01  1.52611E+01  1.78979E+01
   1.63190E+01  1.47345E+01  1.91169E+01  1.89462E+01  1.74878E+01  1.72323E+01  1.93190E+01  1.78531E+01  1.94586E+01  1.77555E+01
   1.88241E+01  1.37295E+01  2.06644E+01  1.26103E+01  1.83255E+01  1.83962E+01  1.88388E+01  2.15140E+01  1.58161E+01  1.95443E+01
   1.93497E+01  1.80126E+01  1.74826E+01  1.87995E+01  2.04947E+01  1.58449E+01  1.75948E+01  1.51449E+01  1.72894E+01  1.21453E+01
   9.67040E+00  8.50108E+00  9.61542E+00  2.77588E+00  4.04193E+00  3.93479E+00  2.97329E+00  2.59543E+00  5.41394E+00  3.20569E+00
   6.81410E+00  1.04700E+01  4.66099E+00  1.04076E+01  1.06694E+01  8.52099E+00  8.22233E+00  1.07853E+01  1.18318E+01  8.52724E+00
   9.95487E+00  8.05467E+00  9.00780E+00  1.15237E+01  7.45959E+00  1.15676E+01  8.69060E+00  1.11184E+01  1.20158E+01  1.20437E+01
   1.14376E+01  1.28350E+01  1.26744E+01  1.47145E+01  1.76388E+01  1.67947E+01  1.79083E+01  1.96680E+01  1.89306E+01  2.30531E+01
   2.84805E+01  3.44630E+01  4.39068E+01  4.69690E+01  4.36537E+01  4.29483E+01  3.56933E+01  3.30838E+01  2.26330E+01  2.17591E+01
   1.96873E+01  1.27244E+01  9.01029E+00  1.05390E+01  8.06963E+00  8.27876E+00  1.08726E+01  1.01858E+01  1.70123E+01  1.08945E+01
   1.47752E+01  1.68348E+01  1.76992E+01  1.83351E+01  2.99001E+01  4.23181E+01  5.61871E+01  6.00555E+01  6.09913E+01  5.50045E+01
   4.58797E+01  4.12304E+01  3.62138E+01  2.37213E+01  1.48414E+01  1.42816E+01  1.09947E+01  9.31624E+00  6.57481E+00  5.24540E+00
   1.09827E+01  8.04670E+00  7.84271E+00  6.92503E+00  5.58397E+00  7.61674E+00  4.77084E+00  4.19627E+00  5.31540E+00  4.68063E+00
   5.44588E+00  4.90009E+00  6.93345E+00  6.83435E+00  4.52600E+00  4.41654E+00  3.87031E+00  4.57331E+00  3.05566E+00  4.88962E+00
   1.37496E+00  1.53418E+00 -5.57866E-01  2.52634E-01  1.18768E-01  4.39767E+00 -8.18651E-01 -1.29798E+00 -5.45232E+00 -3.78147E+00
  -6.41672E+00 -9.17802E+00 -9.43926E+00 -1.07776E+01 -8.10740E+00 -1.21861E+01 -1.47497E+01 -1.34872E+01 -7.95675E+00 -6.09666E+00
  -6.89520E+00 -2.59554E+00 -6.40960E+00 -4.37285E+00 -4.78164E+00 -5.44616E+00 -5.09213E+00 -3.22345E+00 -2.56702E+00 -4.66059E+00
  -2.04915E+00  2.43494E+00  3.84110E+00  2.52868E+00  2.05250E+00  2.68604E+00  1.90321E+00  3.87593E-01 -4.33339E+00 -2.69248E+00
  -1.24801E+00 -2.08355E-01  2.00816E+00  4.63599E+00  5.91412E+00  9.14544E+00  9.06232E+00  3.95077E+00  2.17210E+00 -1.65778E+00
   3.64118E+00  5.16753E+00  8.17954E+00  9.88971E+00  1.30579E+01  1.92075E+01  2.20293E+01  1.90542E+01  1.58762E+01  1.31552E+01
   1.03556E+01  7.72411E+00  4.40757E+00  3.24059E+00  3.90058E+00  7.68752E+00  1.32577E+01  1.59459E+01  1.33977E+01  1.07962E+01
   1.48889E+01  1.24638E+01  1.22107E+01  9.95754E+00  1.03730E+01  1.62703E+01  1.52384E+01  9.58197E+00  1.11418E+01  1.50983E+01
   1.01055E+01  9.14216E+00  9.63766E+00  5.56093E+00  8.06919E+00  1.21930E+01  1.36504E+01  1.27464E+01  1.13515E+01  1.79672E+01
   1.89910E+01  1.80438E+01  2.24927E+01  2.18583E+01  3.28559E+01  4.07426E+01  5.18550E+01  5.66877E+01  7.12214E+01  9.07237E+01
   1.08975E+02  1.12269E+02  1.02834E+02  7.88280E+01  6.23985E+01  5.06216E+01  3.37615E+01  2.44699E+01  1.76590E+01  1.68134E+01
   1.30030E+01  1.23426E+01  1.46365E+01  1.16065E+01  1.29678E+01  7.95470E+00  1.40898E+01  1.10674E+01  1.06374E+01  9.39450E+00
   9.24618E+00  9.77075E+00  1.06646E+01  1.06517E+01  8.09529E+00  7.91873E+00  8.55054E+00  7.66457E+00  7.86310E+00  7.85792E+00
   1.06005E+01  9.33627E+00  1.11519E+01  1.14565E+01  1.00619E+01  7.58360E+00  5.71477E+00  8.44771E+00  4.87324E+00  8.30520E+00
   5.26430E+00  1.00391E+01  7.79887E+00  8.46450E+00  7.59880E+00  6.58244E+00  8.64812E+00  7.65477E+00  9.10021E+00  1.03713E+01
   1.16034E+01  9.76781E+00  1.09205E+01  1.01742E+01  1.14772E+01  1.53747E+01  1.29681E+01  1.14257E+01  1.15145E+01  1.48937E+01
   1.08436E+01  1.17834E+01  9.35119E+00  1.37906E+01  7.88947E+00  1.17669E+01  9.52622E+00  1.29074E+01  1.27729E+01  1.23376E+01
   8.36652E+00  1.17260E+01  1.19727E+01  9.74925E+00  1.19645E+01  1.14535E+01  1.44705E+01  1.36633E+01  1.85294E+01  1.83327E+01
   1.44468E+01  1.36767E+01  1.77269E+01  1.74550E+01  1.78615E+01  1.81226E+01  1.74980E+01  1.67063E+01  1.53584E+01  1.84404E+01
   1.43243E+01  1.51829E+01  1.88157E+01  1.37450E+01  1.70747E+01  1.59497E+01  1.99471E+01  1.58338E+01  1.43723E+01  1.52947E+01
   1.51830E+01  2.16162E+01  1.35876E+01  1.78492E+01  1.90987E+01  1.71787E+01  1.83055E+01  2.17507E+01  1.69917E+01  1.89792E+01
   2.03309E+01  1.79419E+01  2.06377E+01  1.61838E+01  1.74305E+01  1.85046E+01  1.75729E+01  1.63465E+01  1.64596E+01  1.51618E+01
   1.62613E+01  1.35435E+01  1.21789E+01  1.43702E+01  1.18305E+01  1.25065E+01  1.65053E+01  1.36978E+01  1.42732E+01  1.51038E+01
   1.40941E+01  1.71401E+01  1.43739E+01  1.43200E+01  1.41658E+01  1.93892E+01  1.82257E+01  2.03340E+01  1.67958E+01  2.04561E+01
   1.76513E+01  1.66020E+01  1.75402E+01  1.66387E+01  1.78878E+01  1.86436E+01  1.51540E+01  1.68143E+01  2.26011E+01  1.70316E+01
   2.14756E+01  2.01005E+01  1.97105E+01  2.12947E+01  1.89492E+01  2.03302E+01  1.74225E+01  2.20466E+01  1.82475E+01  1.67551E+01
   1.33133E+01  1.45578E+01  1.26198E+01  1.46985E+01  1.13813E+01  1.21768E+01  1.45659E+01  1.33072E+01  1.21153E+01  1.45095E+01
   1.23591E+01  1.30968E+01  1.10728E+01  1.53413E+01  1.19708E+01  1.00320E+01  1.16718E+01  1.12012E+01  1.24477E+01  1.41560E+01
   1.20860E+01  1.36848E+01  1.08766E+01  1.15956E+01  1.10270E+01  9.76752E+00  1.08640E+01  9.59969E+00  1.22468E+01  5.79856E+00
   1.13813E+01  9.85987E+00  1.17703E+01  1.09987E+01  9.50563E+00  1.04387E+01  9.37906E+00  1.18981E+01  1.02328E+01  1.30530E+01
   9.01166E+00  1.07245E+01  1.08733E+01  8.52723E+00  1.01127E+01  8.09886E+00  7.43810E+00  1.00498E+01  8.72031E+00  1.12355E+01
   7.99065E+00  8.20728E+00  1.14794E+01  7.23942E+00  7.19213E+00  1.02246E+01  8.07555E+00  6.29896E+00  5.62325E+00  6.12719E+00
   8.06039E+00  8.93834E+00  8.01926E+00  8.50675E+00  7.87469E+00  9.93543E+00  9.75979E+00  8.22738E+00  1.08025E+01  8.23643E+00
   9.92169E+00  7.87921E+00  7.12045E+00  1.05921E+01  8.75013E+00  3.86238E+00  6.55484E+00  6.97434E+00
 NY points of the fit to the data follow
   1.57008E+01  1.56329E+01  1.58474E+01  1.67691E+01  1.80262E+01  1.93708E+01  2.09115E+01  2.28420E+01  2.51944E+01  2.74762E+01
   2.88717E+01  2.88027E+01  2.73515E+01  2.51910E+01  2.30227E+01  2.11398E+01  1.95430E+01  1.82193E+01  1.72083E+01  1.67667E+01
   1.65459E+01  1.62853E+01  1.59625E+01  1.56993E+01  1.55051E+01  1.52540E+01  1.50385E+01  1.51901E+01  1.60525E+01  1.75892E+01
   1.94198E+01  2.09814E+01  2.17442E+01  2.15147E+01  2.03803E+01  1.86194E+01  1.67028E+01  1.49790E+01  1.37654E+01  1.33187E+01
   1.35708E+01  1.42037E+01  1.49399E+01  1.56676E+01  1.63530E+01  1.69426E+01  1.73984E+01  1.76131E+01  1.74235E+01  1.68070E+01
   1.58737E+01  1.48225E+01  1.38599E+01  1.30545E+01  1.24112E+01  1.19714E+01  1.17526E+01  1.17035E+01  1.17461E+01  1.18117E+01
   1.18186E+01  1.16801E+01  1.13728E+01  1.09473E+01  1.05136E+01  1.01771E+01  9.97202E+00  9.88181E+00  9.89643E+00  9.98952E+00
   1.01206E+01  1.02404E+01  1.02936E+01  1.02493E+01  1.01160E+01  9.92969E+00  9.74147E+00  9.57752E+00  9.45811E+00  9.43781E+00
   9.59823E+00  9.83233E+00  1.00702E+01  1.03774E+01  1.08335E+01  1.13984E+01  1.18682E+01  1.19921E+01  1.16703E+01  1.10364E+01
   1.03501E+01  9.79895E+00  9.43325E+00  9.24723E+00  9.30318E+00  9.99358E+00  1.22410E+01  1.55456E+01  1.90846E+01  2.32094E+01
   2.87309E+01  3.57910E+01  4.29844E+01  4.77802E+01  4.82058E+01  4.41902E+01  3.74705E+01  3.01897E+01  2.35416E+01  1.78054E+01
   1.30761E+01  9.67580E+00  8.11295E+00  7.71428E+00  7.63610E+00  7.67641E+00  7.79486E+00  7.99785E+00  8.35351E+00  9.17570E+00
   1.16428E+01  1.58898E+01  2.06195E+01  2.58770E+01  3.26639E+01  4.15321E+01  5.12478E+01  5.87256E+01  6.09373E+01  5.70711E+01
   4.89730E+01  3.95630E+01  3.07468E+01  2.29723E+01  1.62342E+01  1.08438E+01  7.65077E+00  6.42483E+00  5.94251E+00  5.82992E+00
   5.93236E+00  6.10644E+00  6.24472E+00  6.27939E+00  6.16947E+00  5.93805E+00  5.64519E+00  5.32722E+00  5.01413E+00  4.73293E+00
   4.49164E+00  4.29907E+00  4.13986E+00  3.96869E+00  3.70730E+00  3.42719E+00  3.18283E+00  2.96244E+00  2.71248E+00  2.27874E+00
   1.74792E+00  1.39026E+00  1.39701E+00  1.70088E+00  1.99350E+00  1.97322E+00  1.57675E+00  9.49303E-01  2.71925E-01 -4.32991E-01
  -1.13681E+00 -1.71149E+00 -2.19111E+00 -2.64661E+00 -3.10936E+00 -3.45139E+00 -3.45733E+00 -3.12643E+00 -2.70483E+00 -2.48747E+00
  -2.55652E+00 -2.60405E+00 -2.41794E+00 -2.07478E+00 -1.75380E+00 -1.50983E+00 -1.09072E+00 -2.31669E-01  1.02744E+00  2.41083E+00
   3.56188E+00  4.22180E+00  4.42117E+00  4.33854E+00  4.14233E+00  3.89769E+00  3.67862E+00  3.74522E+00  4.19798E+00  5.06376E+00
   6.27447E+00  7.56645E+00  8.53094E+00  8.86239E+00  8.50610E+00  7.29956E+00  5.15214E+00  2.42122E+00 -1.52638E-01 -1.74110E+00
  -1.98580E+00 -1.08415E+00  7.81625E-01  3.45506E+00  6.56119E+00  9.40954E+00  1.11481E+01  1.13267E+01  1.00508E+01  7.73562E+00
   5.05854E+00  2.56415E+00  7.95077E-01  3.71355E-01  1.43073E+00  3.62089E+00  6.23358E+00  8.54854E+00  1.01971E+01  1.11543E+01
   1.15708E+01  1.15396E+01  1.12138E+01  1.09230E+01  1.09505E+01  1.13516E+01  1.21497E+01  1.32439E+01  1.42997E+01  1.49117E+01
   1.47995E+01  1.40512E+01  1.30863E+01  1.23434E+01  1.20541E+01  1.22980E+01  1.30420E+01  1.40970E+01  1.52556E+01  1.63745E+01
   1.73878E+01  1.82895E+01  1.98513E+01  2.48409E+01  3.23646E+01  4.00892E+01  4.87108E+01  6.04473E+01  7.62533E+01  9.32193E+01
   1.05284E+02  1.07340E+02  9.87980E+01  8.36494E+01  6.70889E+01  5.18920E+01  3.85705E+01  2.72177E+01  1.85805E+01  1.43282E+01
   1.28520E+01  1.20106E+01  1.14504E+01  1.11012E+01  1.08775E+01  1.06776E+01  1.04694E+01  1.02314E+01  9.96156E+00  9.66745E+00
   9.36338E+00  9.06469E+00  8.80022E+00  8.59310E+00  8.44087E+00  8.32597E+00  8.23847E+00  8.17444E+00  8.13309E+00  8.11042E+00
   8.10220E+00  8.11046E+00  8.13773E+00  8.18369E+00  8.24822E+00  8.32848E+00  8.42196E+00  8.52485E+00  8.63494E+00  8.75005E+00
   8.86852E+00  8.98688E+00  9.10326E+00  9.21521E+00  9.32172E+00  9.42083E+00  9.51193E+00  9.59399E+00  9.66824E+00  9.73592E+00
   9.80015E+00  9.86311E+00  9.92827E+00  9.99835E+00  1.00778E+01  1.01710E+01  1.02844E+01  1.04247E+01  1.06034E+01  1.08433E+01
   1.11888E+01  1.15829E+01  1.19254E+01  1.22456E+01  1.25833E+01  1.28880E+01  1.29986E+01  1.27292E+01  1.21047E+01  1.13787E+01
   1.07521E+01  1.03691E+01  1.03179E+01  1.06679E+01  1.14694E+01  1.26445E+01  1.39678E+01  1.51079E+01  1.58538E+01  1.62689E+01
   1.64967E+01  1.66081E+01  1.66174E+01  1.65579E+01  1.65219E+01  1.65823E+01  1.66632E+01  1.66933E+01  1.66725E+01  1.66350E+01
   1.66174E+01  1.66545E+01  1.67690E+01  1.69716E+01  1.72582E+01  1.75936E+01  1.79214E+01  1.81741E+01  1.83181E+01  1.83718E+01
   1.83603E+01  1.82947E+01  1.81805E+01  1.80244E+01  1.78500E+01  1.76646E+01  1.74609E+01  1.72368E+01  1.69940E+01  1.67349E+01
   1.64639E+01  1.61851E+01  1.59039E+01  1.56244E+01  1.53518E+01  1.50902E+01  1.48446E+01  1.46192E+01  1.44181E+01  1.42442E+01
   1.41011E+01  1.39910E+01  1.39171E+01  1.38812E+01  1.38854E+01  1.39304E+01  1.40178E+01  1.41479E+01  1.43215E+01  1.45379E+01
   1.47965E+01  1.50948E+01  1.54307E+01  1.58003E+01  1.61996E+01  1.66224E+01  1.70621E+01  1.75102E+01  1.79584E+01  1.83970E+01
   1.88164E+01  1.92060E+01  1.95559E+01  1.98564E+01  2.00997E+01  2.02784E+01  2.03875E+01  2.04228E+01  2.03833E+01  2.02690E+01
   2.00835E+01  1.98308E+01  1.95175E+01  1.91506E+01  1.87392E+01  1.82920E+01  1.78192E+01  1.73294E+01  1.68319E+01  1.63340E+01
   1.58435E+01  1.53661E+01  1.49072E+01  1.44701E+01  1.40579E+01  1.36717E+01  1.33129E+01  1.29814E+01  1.26770E+01  1.23982E+01
   1.21439E+01  1.19121E+01  1.17018E+01  1.15108E+01  1.13378E+01  1.11804E+01  1.10374E+01  1.09071E+01  1.07884E+01  1.06799E+01
   1.05808E+01  1.04893E+01  1.04051E+01  1.03271E+01  1.02551E+01  1.01881E+01  1.01257E+01  1.00669E+01  1.00119E+01  9.95999E+00
   9.91127E+00  9.86496E+00  9.82108E+00  9.77896E+00  9.73894E+00  9.70054E+00  9.66402E+00  9.62867E+00  9.59470E+00  9.56162E+00
   9.52988E+00  9.49905E+00  9.46938E+00  9.44026E+00  9.41199E+00  9.38421E+00  9.35740E+00  9.33109E+00  9.30552E+00  9.28017E+00
   9.25541E+00  9.23095E+00  9.20724E+00  9.18378E+00  9.16084E+00  9.13794E+00  9.11554E+00  9.09335E+00  9.07177E+00  9.05028E+00
   9.02916E+00  9.00802E+00  8.98735E+00  8.96684E+00  8.94684E+00  8.92681E+00  8.90710E+00  8.88737E+00  8.86812E+00  8.84899E+00
   8.83028E+00  8.81149E+00  8.79301E+00  8.77453E+00  8.75656E+00  8.73866E+00  8.72113E+00  8.70349E+00
 NY background values follow
     1.250E+01    1.243E+01    1.237E+01    1.231E+01    1.224E+01    1.218E+01    1.212E+01    1.205E+01    1.199E+01    1.193E+01
     1.186E+01    1.180E+01    1.174E+01    1.167E+01    1.161E+01    1.155E+01    1.148E+01    1.142E+01    1.136E+01    1.129E+01
     1.123E+01    1.117E+01    1.110E+01    1.104E+01    1.097E+01    1.091E+01    1.085E+01    1.078E+01    1.072E+01    1.066E+01
     1.059E+01    1.053E+01    1.046E+01    1.040E+01    1.034E+01    1.027E+01    1.021E+01    1.014E+01    1.008E+01    1.001E+01
     9.948E+00    9.883E+00    9.819E+00    9.754E+00    9.688E+00    9.623E+00    9.558E+00    9.493E+00    9.427E+00    9.361E+00
     9.296E+00    9.230E+00    9.164E+00    9.098E+00    9.032E+00    8.966E+00    8.899E+00    8.833E+00    8.766E+00    8.700E+00
     8.633E+00    8.566E+00    8.499E+00    8.432E+00    8.365E+00    8.298E+00    8.230E+00    8.163E+00    8.095E+00    8.028E+00
     7.960E+00    7.892E+00    7.824E+00    7.756E+00    7.688E+00    7.620E+00    7.551E+00    7.483E+00    7.414E+00    7.346E+00
     7.277E+00    7.208E+00    7.139E+00    7.070E+00    7.001E+00    6.932E+00    6.863E+00    6.793E+00    6.724E+00    6.654E+00
     6.584E+00    6.514E+00    6.445E+00    6.375E+00    6.304E+00    6.234E+00    6.164E+00    6.094E+00    6.024E+00    5.953E+00
     5.883E+00    5.813E+00    5.743E+00    5.672E+00    5.602E+00    5.532E+00    5.462E+00    5.392E+00    5.322E+00    5.252E+00
     5.182E+00    5.112E+00    5.043E+00    4.973E+00    4.904E+00    4.835E+00    4.766E+00    4.697E+00    4.628E+00    4.560E+00
     4.491E+00    4.423E+00    4.355E+00    4.288E+00    4.220E+00    4.153E+00    4.086E+00    4.019E+00    3.953E+00    3.887E+00
     3.821E+00    3.755E+00    3.690E+00    3.625E+00    3.561E+00    3.497E+00    3.433E+00    3.369E+00    3.306E+00    3.244E+00
     3.181E+00    3.120E+00    3.059E+00    2.998E+00    2.938E+00    2.879E+00    2.820E+00    2.762E+00    2.705E+00    2.649E+00
     2.593E+00    2.538E+00    2.484E+00    2.431E+00    2.379E+00    2.327E+00    2.277E+00    2.228E+00    2.179E+00    2.132E+00
     2.086E+00    2.041E+00    1.997E+00    1.955E+00    1.913E+00    1.873E+00    1.834E+00    1.797E+00    1.761E+00    1.726E+00
     1.693E+00    1.661E+00    1.631E+00    1.602E+00    1.574E+00    1.549E+00    1.524E+00    1.502E+00    1.481E+00    1.462E+00
     1.445E+00    1.429E+00    1.415E+00    1.403E+00    1.393E+00    1.384E+00    1.377E+00    1.371E+00    1.367E+00    1.365E+00
     1.364E+00    1.365E+00    1.367E+00    1.370E+00    1.375E+00    1.381E+00    1.388E+00    1.397E+00    1.407E+00    1.418E+00
     1.430E+00    1.443E+00    1.458E+00    1.473E+00    1.490E+00    1.507E+00    1.526E+00    1.545E+00    1.565E+00    1.586E+00
     1.608E+00    1.630E+00    1.654E+00    1.678E+00    1.702E+00    1.728E+00    1.754E+00    1.780E+00    1.807E+00    1.835E+00
     1.862E+00    1.891E+00    1.919E+00    1.949E+00    1.978E+00    2.008E+00    2.037E+00    2.068E+00    2.098E+00    2.128E+00
     2.159E+00    2.190E+00    2.221E+00    2.253E+00    2.284E+00    2.316E+00    2.348E+00    2.380E+00    2.413E+00    2.445E+00
     2.478E+00    2.511E+00    2.545E+00    2.578E+00    2.612E+00    2.646E+00    2.680E+00    2.714E+00    2.749E+00    2.783E+00
     2.818E+00    2.853E+00    2.889E+00    2.924E+00    2.960E+00    2.996E+00    3.032E+00    3.069E+00    3.105E+00    3.142E+00
     3.179E+00    3.217E+00    3.254E+00    3.292E+00    3.330E+00    3.368E+00    3.406E+00    3.444E+00    3.483E+00    3.522E+00
     3.561E+00    3.600E+00    3.640E+00    3.680E+00    3.720E+00    3.760E+00    3.800E+00    3.840E+00    3.881E+00    3.922E+00
     3.963E+00    4.004E+00    4.045E+00    4.086E+00    4.128E+00    4.169E+00    4.211E+00    4.253E+00    4.295E+00    4.337E+00
     4.379E+00    4.421E+00    4.463E+00    4.505E+00    4.547E+00    4.590E+00    4.632E+00    4.674E+00    4.717E+00    4.759E+00
     4.802E+00    4.844E+00    4.886E+00    4.929E+00    4.971E+00    5.014E+00    5.056E+00    5.098E+00    5.140E+00    5.182E+00
     5.225E+00    5.267E+00    5.308E+00    5.350E+00    5.392E+00    5.434E+00    5.475E+00    5.517E+00    5.558E+00    5.599E+00
     5.640E+00    5.681E+00    5.722E+00    5.762E+00    5.803E+00    5.843E+00    5.883E+00    5.923E+00    5.963E+00    6.003E+00
     6.042E+00    6.081E+00    6.120E+00    6.159E+00    6.198E+00    6.236E+00    6.274E+00    6.312E+00    6.350E+00    6.387E+00
     6.425E+00    6.462E+00    6.498E+00    6.535E+00    6.571E+00    6.607E+00    6.643E+00    6.678E+00    6.713E+00    6.748E+00
     6.783E+00    6.817E+00    6.851E+00    6.885E+00    6.918E+00    6.951E+00    6.984E+00    7.016E+00    7.048E+00    7.080E+00
     7.111E+00    7.142E+00    7.173E+00    7.203E+00    7.233E+00    7.263E+00    7.292E+00    7.321E+00    7.349E+00    7.377E+00
     7.405E+00    7.432E+00    7.459E+00    7.486E+00    7.512E+00    7.538E+00    7.564E+00    7.589E+00    7.614E+00    7.638E+00
     7.662E+00    7.686E+00    7.709E+00    7.732E+00    7.755E+00    7.777E+00    7.799E+00    7.820E+00    7.841E+00    7.862E+00
     7.882E+00    7.902E+00    7.921E+00    7.941E+00    7.959E+00    7.978E+00    7.996E+00    8.013E+00    8.031E+00    8.048E+00
     8.064E+00    8.080E+00    8.096E+00    8.111E+00    8.126E+00    8.141E+00    8.155E+00    8.169E+00    8.182E+00    8.195E+00
     8.207E+00    8.220E+00    8.232E+00    8.243E+00    8.254E+00    8.265E+00    8.275E+00    8.285E+00    8.294E+00    8.304E+00
     8.312E+00    8.321E+00    8.329E+00    8.336E+00    8.344E+00    8.350E+00    8.357E+00    8.363E+00    8.369E+00    8.374E+00
     8.379E+00    8.384E+00    8.388E+00    8.392E+00    8.395E+00    8.399E+00    8.401E+00    8.404E+00    8.406E+00    8.408E+00
     8.409E+00    8.410E+00    8.410E+00    8.411E+00    8.411E+00    8.410E+00    8.409E+00    8.408E+00    8.407E+00    8.405E+00
     8.402E+00    8.400E+00    8.397E+00    8.394E+00    8.390E+00    8.386E+00    8.382E+00    8.377E+00    8.372E+00    8.367E+00
     8.361E+00    8.356E+00    8.350E+00    8.343E+00    8.337E+00    8.330E+00    8.323E+00    8.316E+00    8.308E+00    8.300E+00
     8.293E+00    8.284E+00    8.276E+00    8.268E+00    8.259E+00    8.251E+00    8.242E+00    8.233E+00    8.224E+00    8.215E+00
     8.205E+00    8.196E+00    8.186E+00    8.177E+00    8.167E+00    8.157E+00    8.148E+00    8.138E+00    8.128E+00    8.118E+00
     8.109E+00    8.099E+00    8.089E+00    8.079E+00    8.069E+00    8.060E+00    8.050E+00    8.040E+00
 Ala      Conc. = 2.29E+02
