 LCModel (Version 6.3-1L) Copyright: S.W. Provencher.          Ref.: Magn. Reson. Med. 30:672-679 (1993).                
 Slice#3 Row#4 Col#9  K_02_press_1_raw_act
 36 lines in following concentration table = NCONC+1
    Conc.  %SD /Cr+PCr  Metabolite                                         
  162.213  73% 6.5E-02 Ala                                                 
    0.000 999%   0.000 Asp                                                 
 1.01E+03  24%   0.407 Cr                                                  
 1.47E+03  17%   0.593 PCr                                                 
    0.000 999%   0.000 GABA                                                
    0.000 999%   0.000 Glc                                                 
  676.258  35%   0.272 Gln                                                 
 2.17E+03  12%   0.871 Glu                                                 
  693.015   4%   0.279 GPC                                                 
    0.000 999%   0.000 PCh                                                 
  590.539  14%   0.238 GSH                                                 
  773.707  34%   0.311 Ins                                                 
  144.489  88% 5.8E-02 Lac                                                 
 3.01E+03   5%   1.209 NAA                                                 
   10.920 999% 4.4E-03 NAAG                                                
    0.000 999%   0.000 Scyllo                                              
    0.000 999%   0.000 Tau                                                 
    0.000 999%   0.000 -CrCH2                                              
  693.015   4%   0.279 GPC+PCh                                             
 3.02E+03   3%   1.213 NAA+NAAG                                            
 2.49E+03   3%   1.000 Cr+PCr                                              
 2.84E+03  13%   1.143 Glu+Gln                                             
 6.14E+03  22%   2.469 Lip13a                                              
    0.000 999%   0.000 Lip13b                                              
 1.82E+03  28%   0.733 Lip09                                               
 1.09E+03  42%   0.437 MM09                                                
  979.625  36%   0.394 Lip20                                               
 2.97E+03  19%   1.196 MM20                                                
  439.881 109%   0.177 MM12                                                
 3.99E+03  18%   1.605 MM14                                                
    0.000 999%   0.000 MM17                                                
 6.14E+03  22%   2.469 Lip13a+Lip13b                                       
 1.06E+04  11%   4.251 MM14+Lip13a+Lip13b+MM12                             
 2.91E+03  14%   1.170 MM09+Lip09                                          
 3.95E+03  13%   1.590 MM20+Lip20                                          
   6 lines in following misc. output table
  FWHM = 0.038 ppm    S/N =  15                                            
  Data shift = 0.031 ppm                                                   
  Ph:   2 deg      -9.1 deg/ppm                                            
  alphaB,S = 5.1E-01,   9.7E+01                                            
   14 spline knots.   Ns = 6(1)                                            
  (12) 3 infls.   ( 5) 1 extrs.                                            
  498 points on ppm-axis = NY
      4.000000     3.992357     3.984714     3.977070     3.969427     3.961784     3.954141     3.946497     3.938854     3.931211
      3.923568     3.915925     3.908281     3.900638     3.892995     3.885352     3.877708     3.870065     3.862422     3.854779
      3.847136     3.839492     3.831849     3.824206     3.816563     3.808919     3.801276     3.793633     3.785990     3.778347
      3.770703     3.763060     3.755417     3.747774     3.740130     3.732487     3.724844     3.717201     3.709558     3.701914
      3.694271     3.686628     3.678985     3.671341     3.663698     3.656055     3.648412     3.640769     3.633125     3.625482
      3.617839     3.610196     3.602552     3.594909     3.587266     3.579623     3.571980     3.564336     3.556693     3.549050
      3.541407     3.533763     3.526120     3.518477     3.510834     3.503191     3.495547     3.487904     3.480261     3.472618
      3.464974     3.457331     3.449688     3.442045     3.434402     3.426758     3.419115     3.411472     3.403829     3.396185
      3.388542     3.380899     3.373256     3.365613     3.357969     3.350326     3.342683     3.335040     3.327396     3.319753
      3.312110     3.304467     3.296824     3.289180     3.281537     3.273894     3.266251     3.258607     3.250964     3.243321
      3.235678     3.228034     3.220391     3.212748     3.205105     3.197462     3.189818     3.182175     3.174532     3.166889
      3.159245     3.151602     3.143959     3.136316     3.128673     3.121029     3.113386     3.105743     3.098100     3.090456
      3.082813     3.075170     3.067527     3.059884     3.052240     3.044597     3.036954     3.029311     3.021667     3.014024
      3.006381     2.998738     2.991095     2.983451     2.975808     2.968165     2.960522     2.952878     2.945235     2.937592
      2.929949     2.922306     2.914662     2.907019     2.899376     2.891733     2.884089     2.876446     2.868803     2.861160
      2.853517     2.845873     2.838230     2.830587     2.822944     2.815300     2.807657     2.800014     2.792371     2.784728
      2.777084     2.769441     2.761798     2.754155     2.746511     2.738868     2.731225     2.723582     2.715939     2.708295
      2.700652     2.693009     2.685366     2.677722     2.670079     2.662436     2.654793     2.647150     2.639506     2.631863
      2.624220     2.616577     2.608933     2.601290     2.593647     2.586004     2.578361     2.570717     2.563074     2.555431
      2.547788     2.540144     2.532501     2.524858     2.517215     2.509572     2.501928     2.494285     2.486642     2.478999
      2.471355     2.463712     2.456069     2.448426     2.440783     2.433139     2.425496     2.417853     2.410210     2.402566
      2.394923     2.387280     2.379637     2.371994     2.364350     2.356707     2.349064     2.341421     2.333777     2.326134
      2.318491     2.310848     2.303205     2.295561     2.287918     2.280275     2.272632     2.264988     2.257345     2.249702
      2.242059     2.234416     2.226772     2.219129     2.211486     2.203843     2.196199     2.188556     2.180913     2.173270
      2.165627     2.157983     2.150340     2.142697     2.135054     2.127410     2.119767     2.112124     2.104481     2.096838
      2.089194     2.081551     2.073908     2.066265     2.058621     2.050978     2.043335     2.035692     2.028049     2.020405
      2.012762     2.005119     1.997476     1.989833     1.982190     1.974546     1.966903     1.959260     1.951617     1.943974
      1.936331     1.928688     1.921045     1.913402     1.905759     1.898115     1.890472     1.882829     1.875186     1.867543
      1.859900     1.852257     1.844614     1.836971     1.829327     1.821684     1.814041     1.806398     1.798755     1.791112
      1.783469     1.775826     1.768183     1.760540     1.752896     1.745253     1.737610     1.729967     1.722324     1.714681
      1.707038     1.699395     1.691752     1.684108     1.676465     1.668822     1.661179     1.653536     1.645893     1.638250
      1.630607     1.622964     1.615321     1.607677     1.600034     1.592391     1.584748     1.577105     1.569462     1.561819
      1.554176     1.546533     1.538890     1.531246     1.523603     1.515960     1.508317     1.500674     1.493031     1.485388
      1.477745     1.470102     1.462458     1.454815     1.447172     1.439529     1.431886     1.424243     1.416600     1.408957
      1.401314     1.393671     1.386027     1.378384     1.370741     1.363098     1.355455     1.347812     1.340169     1.332526
      1.324883     1.317240     1.309596     1.301953     1.294310     1.286667     1.279024     1.271381     1.263738     1.256095
      1.248452     1.240808     1.233165     1.225522     1.217879     1.210236     1.202593     1.194950     1.187307     1.179664
      1.172021     1.164377     1.156734     1.149091     1.141448     1.133805     1.126162     1.118519     1.110876     1.103233
      1.095590     1.087946     1.080303     1.072660     1.065017     1.057374     1.049731     1.042088     1.034445     1.026802
      1.019158     1.011515     1.003872     0.996229     0.988586     0.980943     0.973300     0.965657     0.958014     0.950371
      0.942727     0.935084     0.927441     0.919798     0.912155     0.904512     0.896869     0.889226     0.881583     0.873940
      0.866296     0.858653     0.851010     0.843367     0.835724     0.828081     0.820438     0.812795     0.805152     0.797508
      0.789865     0.782222     0.774579     0.766936     0.759293     0.751650     0.744007     0.736364     0.728721     0.721077
      0.713434     0.705791     0.698148     0.690505     0.682862     0.675219     0.667576     0.659933     0.652290     0.644646
      0.637003     0.629360     0.621717     0.614074     0.606431     0.598788     0.591145     0.583502     0.575858     0.568215
      0.560572     0.552929     0.545286     0.537643     0.530000     0.522357     0.514714     0.507071     0.499427     0.491784
      0.484141     0.476498     0.468855     0.461212     0.453569     0.445925     0.438282     0.430639     0.422996     0.415353
      0.407710     0.400067     0.392424     0.384780     0.377137     0.369494     0.361851     0.354208     0.346565     0.338922
      0.331278     0.323635     0.315992     0.308349     0.300706     0.293063     0.285420     0.277777     0.270133     0.262490
      0.254847     0.247204     0.239561     0.231918     0.224275     0.216631     0.208988     0.201345
 NY phased data points follow
   5.38671E+01  5.61994E+01  5.53946E+01  5.84144E+01  5.95286E+01  6.17367E+01  6.91708E+01  7.60737E+01  8.79575E+01  1.02277E+02
   1.05864E+02  1.02824E+02  9.92268E+01  8.61030E+01  7.92343E+01  6.94584E+01  6.02378E+01  5.40478E+01  4.99096E+01  4.52847E+01
   4.39667E+01  4.59347E+01  4.24433E+01  4.28235E+01  4.70685E+01  4.42758E+01  4.93378E+01  4.01965E+01  4.52580E+01  4.80928E+01
   5.02468E+01  5.39804E+01  5.11665E+01  5.09833E+01  5.12359E+01  4.80229E+01  3.50547E+01  3.95190E+01  4.05490E+01  3.85863E+01
   4.47833E+01  3.98856E+01  4.02824E+01  3.66532E+01  3.71312E+01  3.98729E+01  4.72592E+01  4.67964E+01  5.42846E+01  4.53974E+01
   3.90882E+01  3.63742E+01  3.44761E+01  3.05873E+01  2.95174E+01  3.48365E+01  3.05243E+01  3.31783E+01  3.07540E+01  3.53941E+01
   2.80663E+01  2.35726E+01  1.73858E+01  1.69003E+01  1.31910E+01  1.68072E+01  1.13662E+01  1.18750E+01  1.63005E+01  9.72992E+00
   1.52196E+01  1.37178E+01  1.42653E+01  1.34450E+01  1.77627E+01  1.52988E+01  1.79008E+01  1.31837E+01  9.87361E+00  1.36672E+01
   1.41596E+01  1.40552E+01  1.18338E+01  1.46302E+01  1.45085E+01  1.07515E+01  1.11430E+01  1.14460E+01  1.34093E+01  1.67982E+01
   1.69960E+01  1.85586E+01  1.95727E+01  1.98584E+01  2.18787E+01  2.20500E+01  2.07844E+01  2.49065E+01  2.67772E+01  2.65727E+01
   4.70927E+01  6.28404E+01  8.06295E+01  8.67273E+01  8.14287E+01  7.13346E+01  6.00124E+01  4.69694E+01  3.03653E+01  2.67644E+01
   2.43948E+01  1.88810E+01  1.98875E+01  1.64149E+01  1.64739E+01  1.57353E+01  1.73611E+01  1.37883E+01  1.56216E+01  2.11636E+01
   1.74490E+01  2.42501E+01  2.99168E+01  3.53336E+01  4.78994E+01  6.71636E+01  8.82198E+01  1.00971E+02  9.83906E+01  8.22913E+01
   7.16692E+01  5.77579E+01  4.61125E+01  3.16616E+01  2.61392E+01  2.10338E+01  1.84912E+01  1.30874E+01  1.30675E+01  1.36919E+01
   1.20649E+01  1.31849E+01  1.22117E+01  1.52486E+01  1.48315E+01  1.03140E+01  1.10261E+01  1.18135E+01  1.03154E+01  9.16671E+00
   1.17216E+01  6.82024E+00  6.04045E+00  8.49892E+00  9.67186E+00  8.69672E+00  5.03122E+00  6.39375E+00  7.55921E+00  1.14474E+01
   7.17232E+00  7.19325E+00 -3.15272E+00 -1.85911E+00  4.22577E+00  5.44838E+00  8.64532E+00  3.55328E+00 -6.05058E-01  9.33571E-01
  -6.57495E+00 -1.50926E+00 -2.61891E+00 -6.50169E+00 -1.19453E+01 -1.51735E+01 -1.09929E+01 -8.35378E+00 -6.84673E+00 -2.44641E+00
  -5.45468E+00 -9.93210E+00 -1.14135E+01 -1.23016E+01 -8.25464E+00 -9.65872E+00 -7.63997E+00 -6.55680E+00 -5.36298E+00  4.60624E+00
   5.45745E+00  6.88752E+00  9.94346E+00  7.73908E+00  1.80246E+01  1.15430E+01  7.82447E+00  1.97837E+00  1.62293E+00  2.89469E+00
  -2.17728E-01 -3.31067E+00  5.70193E+00  8.73664E+00  7.28089E+00  5.33921E+00  8.23768E-01 -2.67347E+00 -9.92181E+00 -6.58747E+00
  -7.18841E+00 -7.98593E+00  7.39382E-01  9.58095E-01  1.10591E+01  1.88207E+01  1.36148E+01  2.23370E+01  1.46038E+01  4.12118E+00
  -3.54234E+00 -7.53258E+00 -7.58341E+00 -1.43777E+00 -8.78795E+00  4.24084E+00  4.02371E+00  9.14566E+00  1.26161E+01  9.09699E+00
   7.26658E+00  3.06268E+00  8.14234E+00  8.60125E+00  7.60101E+00  6.91855E+00  4.50496E+00  3.36486E+00  4.39359E+00  9.35501E+00
  -1.57148E+00 -5.07790E+00 -2.32553E+00 -6.69102E-01  3.92189E+00  4.23799E+00  1.09204E+01  1.26632E+01  1.42093E+01  1.73439E+01
   1.12443E+01  1.62420E+01  1.18314E+01  2.44305E+01  2.54046E+01  3.27500E+01  3.38003E+01  4.40933E+01  7.22601E+01  1.12151E+02
   1.31155E+02  1.27020E+02  1.05631E+02  8.06594E+01  5.12035E+01  3.70433E+01  2.50663E+01  1.85967E+01  1.22354E+01  6.60130E+00
   7.04025E+00  4.36637E+00  4.52752E+00  5.37660E+00  1.56373E+00  1.68662E+00 -3.51157E+00 -1.18405E+00  6.31227E-01  5.25291E+00
  -3.61312E-01 -1.07004E+00  2.07104E+00  2.69174E+00  1.63303E+00 -5.15522E+00 -2.16875E+00 -1.16184E+00 -1.14805E+00 -3.64362E-01
   9.04005E-01 -2.65633E+00  1.92926E+00  3.99263E-01 -9.64247E-01 -4.62665E+00 -5.51498E+00  1.82290E+00  1.28155E+00  2.11539E+00
   4.52534E+00 -1.46415E+00  7.34716E-01  7.25602E-01  5.79769E+00 -8.13576E-01 -2.10339E+00  2.94257E+00  2.19399E+00 -2.45422E+00
   1.28200E+00  9.57510E+00  1.15805E+01  8.13210E+00  9.95266E+00  9.67346E+00  7.36684E+00  1.16404E+01  1.32384E+01  1.49840E+01
   1.66864E+01  1.86368E+01  2.49195E+01  1.99457E+01  2.11334E+01  2.25885E+01  2.66772E+01  2.43434E+01  3.26068E+01  2.82322E+01
   2.52381E+01  2.61002E+01  2.40569E+01  3.21235E+01  2.19267E+01  2.89295E+01  3.38201E+01  2.91009E+01  3.14870E+01  2.70299E+01
   2.77677E+01  2.29305E+01  2.64877E+01  3.11635E+01  3.02217E+01  3.09467E+01  2.88363E+01  2.99809E+01  1.97355E+01  2.50493E+01
   2.69594E+01  2.06478E+01  2.14336E+01  2.46769E+01  2.84235E+01  2.49736E+01  2.75846E+01  2.42215E+01  2.56169E+01  2.26777E+01
   2.71053E+01  2.36926E+01  2.65533E+01  2.56553E+01  2.23291E+01  1.94037E+01  2.53047E+01  2.52341E+01  2.11067E+01  1.82209E+01
   1.71539E+01  1.97296E+01  1.81013E+01  2.08373E+01  1.94001E+01  2.11138E+01  2.04171E+01  2.08646E+01  2.28766E+01  2.32180E+01
   1.67591E+01  1.73729E+01  1.55858E+01  1.65778E+01  1.55600E+01  1.63556E+01  1.77345E+01  2.03927E+01  1.77961E+01  1.66866E+01
   1.97599E+01  1.75765E+01  2.35979E+01  2.14470E+01  2.06782E+01  2.26770E+01  2.50560E+01  2.11731E+01  2.40999E+01  2.41098E+01
   2.20583E+01  1.85680E+01  2.05315E+01  2.07202E+01  1.75795E+01  2.17331E+01  2.05701E+01  1.52128E+01  2.12326E+01  2.23797E+01
   1.89977E+01  2.21672E+01  2.14123E+01  2.46809E+01  2.39271E+01  2.19249E+01  1.92321E+01  1.93826E+01  1.85391E+01  1.67165E+01
   1.96220E+01  1.55779E+01  1.91526E+01  1.81652E+01  1.65547E+01  1.37847E+01  1.84061E+01  1.57304E+01  1.55279E+01  9.56556E+00
   1.56309E+01  1.73927E+01  1.15460E+01  1.11461E+01  1.30755E+01  1.76408E+01  1.19818E+01  1.04923E+01  1.09480E+01  1.16283E+01
   5.35741E+00  9.14012E+00  1.23237E+01  1.19229E+01  1.04467E+01  1.27534E+01  1.15903E+01  9.94208E+00  6.51555E+00  9.24203E+00
   9.10483E+00  8.37148E+00  7.37276E+00  1.12205E+01  1.16345E+01  6.90857E+00  9.12539E+00  8.88008E+00  9.85922E+00  1.23684E+01
   4.87928E+00  1.00031E+01  7.17979E+00  9.90804E+00  8.96563E+00  7.60136E+00  9.48525E+00  7.02977E+00  9.83685E+00  1.46490E+01
   1.38428E+01  7.03473E+00  4.33527E+00  8.93317E+00  6.66408E+00  7.54332E+00  1.09524E+01  2.41679E+00  2.74067E+00  1.14344E+01
   5.08241E+00  8.34313E+00  1.11385E+01  7.09699E+00  5.72246E+00  2.23968E+00  1.05518E+01  8.44907E+00  7.98625E+00  9.66285E+00
   7.18799E+00  7.41799E+00  8.04713E+00  2.29041E+00  4.90314E+00  4.69647E+00  2.57843E+00  3.14623E+00
 NY points of the fit to the data follow
   5.06354E+01  5.05032E+01  5.10596E+01  5.31651E+01  5.64203E+01  6.08071E+01  6.78926E+01  7.76656E+01  8.88981E+01  9.88377E+01
   1.04240E+02  1.03306E+02  9.65823E+01  8.65911E+01  7.62382E+01  6.71132E+01  5.95813E+01  5.41878E+01  5.04964E+01  4.79682E+01
   4.66849E+01  4.58391E+01  4.48350E+01  4.38626E+01  4.34187E+01  4.29454E+01  4.21949E+01  4.25067E+01  4.51025E+01  4.94074E+01
   5.35111E+01  5.59184E+01  5.59746E+01  5.37399E+01  4.99589E+01  4.54495E+01  4.09647E+01  3.74032E+01  3.55033E+01  3.50574E+01
   3.55200E+01  3.64549E+01  3.73508E+01  3.79849E+01  3.86329E+01  3.95354E+01  4.03323E+01  4.03977E+01  3.95904E+01  3.80082E+01
   3.60074E+01  3.40427E+01  3.23217E+01  3.08896E+01  2.97946E+01  2.90814E+01  2.86880E+01  2.84863E+01  2.84563E+01  2.84382E+01
   2.81940E+01  2.75843E+01  2.66232E+01  2.55176E+01  2.45051E+01  2.37545E+01  2.33077E+01  2.30877E+01  2.30103E+01  2.30240E+01
   2.30772E+01  2.30488E+01  2.28438E+01  2.24473E+01  2.19204E+01  2.13657E+01  2.08467E+01  2.03929E+01  1.99770E+01  1.95849E+01
   1.92104E+01  1.87970E+01  1.83447E+01  1.78390E+01  1.72282E+01  1.64636E+01  1.56066E+01  1.48453E+01  1.43704E+01  1.42452E+01
   1.44426E+01  1.48255E+01  1.52646E+01  1.57217E+01  1.61877E+01  1.67388E+01  1.82605E+01  2.26534E+01  2.77271E+01  3.38097E+01
   4.52563E+01  6.25612E+01  7.95406E+01  8.81369E+01  8.50637E+01  7.32597E+01  5.82523E+01  4.44575E+01  3.37176E+01  2.53325E+01
   1.85407E+01  1.50576E+01  1.39563E+01  1.34888E+01  1.32313E+01  1.30930E+01  1.30520E+01  1.30939E+01  1.32552E+01  1.37338E+01
   1.53946E+01  2.05339E+01  2.74222E+01  3.49610E+01  4.78437E+01  6.79318E+01  8.91955E+01  1.02022E+02  1.01152E+02  8.87747E+01
   7.13751E+01  5.48263E+01  4.16903E+01  3.11409E+01  2.17038E+01  1.51096E+01  1.17980E+01  9.98666E+00  9.34605E+00  9.71622E+00
   1.06306E+01  1.15604E+01  1.21812E+01  1.22893E+01  1.19143E+01  1.12878E+01  1.05893E+01  9.92485E+00  9.34926E+00  8.80254E+00
   8.34697E+00  7.94895E+00  7.57704E+00  7.25303E+00  6.96154E+00  6.59404E+00  6.32861E+00  6.08359E+00  5.57610E+00  4.76060E+00
   3.73445E+00  3.11838E+00  3.34586E+00  4.07991E+00  4.58165E+00  4.35474E+00  3.45784E+00  2.35152E+00  1.38629E+00  4.93446E-01
  -3.89450E-01 -1.16125E+00 -1.78803E+00 -2.49209E+00 -3.42830E+00 -4.26342E+00 -4.34751E+00 -3.76676E+00 -3.24132E+00 -3.27896E+00
  -3.75759E+00 -4.24913E+00 -4.26151E+00 -4.05461E+00 -4.20383E+00 -4.49897E+00 -4.17323E+00 -2.81567E+00 -6.05007E-01  1.78711E+00
   3.78331E+00  4.96745E+00  4.99670E+00  4.33367E+00  3.39897E+00  2.14392E+00  7.65932E-01 -2.26182E-01 -3.11949E-01  5.55260E-01
   2.20713E+00  4.26034E+00  6.24553E+00  7.57758E+00  7.62577E+00  6.56270E+00  4.19523E+00  7.03539E-01 -2.74466E+00 -5.14140E+00
  -5.81059E+00 -5.06137E+00 -2.85352E+00  1.17563E+00  6.36315E+00  1.06996E+01  1.21999E+01  1.04560E+01  6.37107E+00  1.16308E+00
  -4.50211E+00 -9.38772E+00 -1.17536E+01 -1.08423E+01 -6.97739E+00 -1.96079E+00  2.50932E+00  5.82817E+00  7.79858E+00  8.38566E+00
   7.77687E+00  6.68244E+00  5.90562E+00  5.75085E+00  6.16511E+00  7.25113E+00  8.68186E+00  9.70014E+00  9.93790E+00  9.19545E+00
   7.55700E+00  5.60235E+00  4.29694E+00  4.19910E+00  5.20605E+00  6.94811E+00  8.89970E+00  1.05344E+01  1.14427E+01  1.16882E+01
   1.16492E+01  1.16937E+01  1.21333E+01  1.40041E+01  2.12432E+01  2.98981E+01  3.76656E+01  5.28505E+01  7.93806E+01  1.08602E+02
   1.26087E+02  1.24287E+02  1.06764E+02  8.26369E+01  5.97458E+01  4.18745E+01  2.80263E+01  1.59842E+01  8.99905E+00  6.68955E+00
   5.36626E+00  4.44810E+00  3.95584E+00  3.77127E+00  3.64445E+00  3.47464E+00  3.21521E+00  2.85932E+00  2.42803E+00  1.95884E+00
   1.48106E+00  1.05427E+00  7.28552E-01  4.95961E-01  3.22941E-01  1.79364E-01  5.15006E-02 -5.63277E-02 -1.43784E-01 -2.19261E-01
  -2.76181E-01 -3.10327E-01 -3.19202E-01 -3.02271E-01 -2.60780E-01 -1.96741E-01 -1.13474E-01 -1.08470E-02  1.15534E-01  2.68524E-01
   4.50343E-01  6.64010E-01  9.12759E-01  1.19985E+00  1.52868E+00  1.90322E+00  2.32796E+00  2.80824E+00  3.35090E+00  3.96324E+00
   4.65140E+00  5.42047E+00  6.27382E+00  7.21356E+00  8.24180E+00  9.35942E+00  1.05649E+01  1.18540E+01  1.32214E+01  1.46637E+01
   1.61876E+01  1.78160E+01  1.94514E+01  2.10154E+01  2.26237E+01  2.42078E+01  2.54658E+01  2.61356E+01  2.62326E+01  2.60940E+01
   2.60624E+01  2.61289E+01  2.63369E+01  2.68421E+01  2.77019E+01  2.87849E+01  2.97364E+01  3.02273E+01  3.02567E+01  2.99812E+01
   2.95965E+01  2.92490E+01  2.88440E+01  2.84108E+01  2.81921E+01  2.80833E+01  2.77823E+01  2.70783E+01  2.60554E+01  2.50834E+01
   2.43381E+01  2.38532E+01  2.37543E+01  2.41259E+01  2.48686E+01  2.57513E+01  2.64336E+01  2.67174E+01  2.66616E+01  2.63977E+01
   2.60387E+01  2.56115E+01  2.50916E+01  2.45675E+01  2.40700E+01  2.35666E+01  2.30469E+01  2.25101E+01  2.19595E+01  2.14005E+01
   2.08404E+01  2.02870E+01  1.97477E+01  1.92295E+01  1.87391E+01  1.82834E+01  1.78690E+01  1.75018E+01  1.71865E+01  1.69270E+01
   1.67267E+01  1.65888E+01  1.65158E+01  1.65091E+01  1.65685E+01  1.66932E+01  1.68816E+01  1.71313E+01  1.74388E+01  1.77987E+01
   1.82042E+01  1.86475E+01  1.91203E+01  1.96134E+01  2.01166E+01  2.06187E+01  2.11082E+01  2.15740E+01  2.20062E+01  2.23951E+01
   2.27321E+01  2.30092E+01  2.32204E+01  2.33615E+01  2.34305E+01  2.34265E+01  2.33501E+01  2.32030E+01  2.29886E+01  2.27119E+01
   2.23786E+01  2.19948E+01  2.15667E+01  2.11006E+01  2.06036E+01  2.00828E+01  1.95448E+01  1.89956E+01  1.84407E+01  1.78853E+01
   1.73344E+01  1.67927E+01  1.62640E+01  1.57511E+01  1.52562E+01  1.47817E+01  1.43294E+01  1.39005E+01  1.34957E+01  1.31146E+01
   1.27572E+01  1.24232E+01  1.21122E+01  1.18236E+01  1.15560E+01  1.13079E+01  1.10782E+01  1.08660E+01  1.06703E+01  1.04898E+01
   1.03230E+01  1.01684E+01  1.00254E+01  9.89306E+00  9.77068E+00  9.65708E+00  9.55111E+00  9.45202E+00  9.35941E+00  9.27293E+00
   9.19193E+00  9.11557E+00  9.04316E+00  8.97441E+00  8.90930E+00  8.84766E+00  8.78897E+00  8.73263E+00  8.67836E+00  8.62619E+00
   8.57621E+00  8.52824E+00  8.48182E+00  8.43656E+00  8.39244E+00  8.34967E+00  8.30832E+00  8.26810E+00  8.22864E+00  8.18974E+00
   8.15158E+00  8.11439E+00  8.07815E+00  8.04254E+00  8.00726E+00  7.97233E+00  7.93801E+00  7.90449E+00  7.87160E+00  7.83902E+00
   7.80659E+00  7.77449E+00  7.74301E+00  7.71220E+00  7.68182E+00  7.65160E+00  7.62153E+00  7.59191E+00  7.56297E+00  7.53461E+00
   7.50655E+00  7.47862E+00  7.45099E+00  7.42396E+00  7.39767E+00  7.37190E+00  7.34639E+00  7.32113E+00
 NY background values follow
     4.724E+01    4.682E+01    4.641E+01    4.599E+01    4.557E+01    4.515E+01    4.473E+01    4.431E+01    4.389E+01    4.347E+01
     4.305E+01    4.263E+01    4.221E+01    4.180E+01    4.138E+01    4.096E+01    4.054E+01    4.012E+01    3.971E+01    3.929E+01
     3.888E+01    3.846E+01    3.805E+01    3.764E+01    3.723E+01    3.682E+01    3.641E+01    3.600E+01    3.559E+01    3.519E+01
     3.479E+01    3.438E+01    3.398E+01    3.358E+01    3.318E+01    3.279E+01    3.239E+01    3.200E+01    3.161E+01    3.122E+01
     3.084E+01    3.045E+01    3.007E+01    2.969E+01    2.931E+01    2.894E+01    2.856E+01    2.819E+01    2.783E+01    2.746E+01
     2.710E+01    2.674E+01    2.638E+01    2.602E+01    2.567E+01    2.532E+01    2.497E+01    2.463E+01    2.429E+01    2.395E+01
     2.361E+01    2.328E+01    2.295E+01    2.262E+01    2.229E+01    2.197E+01    2.165E+01    2.134E+01    2.102E+01    2.071E+01
     2.041E+01    2.010E+01    1.980E+01    1.951E+01    1.921E+01    1.892E+01    1.863E+01    1.835E+01    1.807E+01    1.779E+01
     1.752E+01    1.724E+01    1.698E+01    1.671E+01    1.645E+01    1.619E+01    1.594E+01    1.569E+01    1.544E+01    1.520E+01
     1.496E+01    1.473E+01    1.449E+01    1.427E+01    1.404E+01    1.382E+01    1.360E+01    1.339E+01    1.317E+01    1.297E+01
     1.276E+01    1.256E+01    1.236E+01    1.216E+01    1.196E+01    1.177E+01    1.158E+01    1.139E+01    1.121E+01    1.102E+01
     1.084E+01    1.067E+01    1.049E+01    1.031E+01    1.014E+01    9.969E+00    9.799E+00    9.631E+00    9.464E+00    9.299E+00
     9.135E+00    8.972E+00    8.811E+00    8.650E+00    8.491E+00    8.332E+00    8.175E+00    8.018E+00    7.861E+00    7.706E+00
     7.550E+00    7.396E+00    7.241E+00    7.087E+00    6.933E+00    6.779E+00    6.625E+00    6.471E+00    6.317E+00    6.163E+00
     6.010E+00    5.856E+00    5.703E+00    5.549E+00    5.396E+00    5.244E+00    5.091E+00    4.939E+00    4.788E+00    4.637E+00
     4.486E+00    4.336E+00    4.186E+00    4.038E+00    3.889E+00    3.742E+00    3.595E+00    3.449E+00    3.304E+00    3.159E+00
     3.016E+00    2.873E+00    2.731E+00    2.591E+00    2.451E+00    2.313E+00    2.175E+00    2.039E+00    1.904E+00    1.770E+00
     1.637E+00    1.506E+00    1.376E+00    1.248E+00    1.121E+00    9.952E-01    8.712E-01    7.487E-01    6.277E-01    5.084E-01
     3.908E-01    2.748E-01    1.606E-01    4.812E-02   -6.270E-02   -1.719E-01   -2.794E-01   -3.853E-01   -4.897E-01   -5.925E-01
    -6.938E-01   -7.935E-01   -8.918E-01   -9.886E-01   -1.084E+00   -1.178E+00   -1.270E+00   -1.362E+00   -1.452E+00   -1.540E+00
    -1.627E+00   -1.713E+00   -1.798E+00   -1.882E+00   -1.964E+00   -2.045E+00   -2.125E+00   -2.204E+00   -2.282E+00   -2.359E+00
    -2.434E+00   -2.509E+00   -2.583E+00   -2.656E+00   -2.727E+00   -2.798E+00   -2.868E+00   -2.937E+00   -3.005E+00   -3.073E+00
    -3.139E+00   -3.205E+00   -3.270E+00   -3.335E+00   -3.398E+00   -3.461E+00   -3.523E+00   -3.585E+00   -3.646E+00   -3.706E+00
    -3.766E+00   -3.825E+00   -3.883E+00   -3.940E+00   -3.996E+00   -4.051E+00   -4.106E+00   -4.159E+00   -4.212E+00   -4.263E+00
    -4.314E+00   -4.363E+00   -4.411E+00   -4.458E+00   -4.504E+00   -4.549E+00   -4.592E+00   -4.634E+00   -4.675E+00   -4.714E+00
    -4.752E+00   -4.789E+00   -4.824E+00   -4.858E+00   -4.890E+00   -4.920E+00   -4.949E+00   -4.977E+00   -5.003E+00   -5.027E+00
    -5.049E+00   -5.070E+00   -5.088E+00   -5.105E+00   -5.121E+00   -5.134E+00   -5.145E+00   -5.155E+00   -5.162E+00   -5.168E+00
    -5.171E+00   -5.173E+00   -5.172E+00   -5.169E+00   -5.164E+00   -5.157E+00   -5.148E+00   -5.137E+00   -5.124E+00   -5.110E+00
    -5.093E+00   -5.074E+00   -5.054E+00   -5.031E+00   -5.007E+00   -4.981E+00   -4.953E+00   -4.923E+00   -4.892E+00   -4.859E+00
    -4.824E+00   -4.787E+00   -4.749E+00   -4.709E+00   -4.668E+00   -4.625E+00   -4.580E+00   -4.534E+00   -4.486E+00   -4.437E+00
    -4.386E+00   -4.334E+00   -4.281E+00   -4.226E+00   -4.169E+00   -4.111E+00   -4.052E+00   -3.992E+00   -3.930E+00   -3.867E+00
    -3.803E+00   -3.737E+00   -3.671E+00   -3.603E+00   -3.533E+00   -3.463E+00   -3.392E+00   -3.319E+00   -3.246E+00   -3.171E+00
    -3.096E+00   -3.019E+00   -2.941E+00   -2.863E+00   -2.783E+00   -2.703E+00   -2.622E+00   -2.540E+00   -2.457E+00   -2.373E+00
    -2.288E+00   -2.203E+00   -2.117E+00   -2.031E+00   -1.944E+00   -1.856E+00   -1.767E+00   -1.678E+00   -1.589E+00   -1.499E+00
    -1.408E+00   -1.317E+00   -1.225E+00   -1.134E+00   -1.041E+00   -9.485E-01   -8.555E-01   -7.622E-01   -6.686E-01   -5.747E-01
    -4.806E-01   -3.863E-01   -2.919E-01   -1.972E-01   -1.025E-01   -7.623E-03    8.730E-02    1.823E-01    2.773E-01    3.722E-01
     4.672E-01    5.621E-01    6.569E-01    7.516E-01    8.461E-01    9.405E-01    1.035E+00    1.129E+00    1.223E+00    1.316E+00
     1.409E+00    1.502E+00    1.595E+00    1.688E+00    1.780E+00    1.871E+00    1.963E+00    2.054E+00    2.144E+00    2.234E+00
     2.323E+00    2.412E+00    2.501E+00    2.589E+00    2.676E+00    2.763E+00    2.849E+00    2.935E+00    3.020E+00    3.104E+00
     3.188E+00    3.271E+00    3.353E+00    3.434E+00    3.515E+00    3.594E+00    3.673E+00    3.751E+00    3.829E+00    3.905E+00
     3.981E+00    4.055E+00    4.129E+00    4.201E+00    4.273E+00    4.344E+00    4.413E+00    4.482E+00    4.549E+00    4.616E+00
     4.681E+00    4.745E+00    4.808E+00    4.870E+00    4.931E+00    4.991E+00    5.050E+00    5.107E+00    5.164E+00    5.219E+00
     5.274E+00    5.327E+00    5.379E+00    5.430E+00    5.479E+00    5.528E+00    5.576E+00    5.622E+00    5.667E+00    5.711E+00
     5.754E+00    5.796E+00    5.836E+00    5.876E+00    5.914E+00    5.951E+00    5.987E+00    6.022E+00    6.055E+00    6.088E+00
     6.119E+00    6.149E+00    6.177E+00    6.205E+00    6.231E+00    6.256E+00    6.280E+00    6.303E+00    6.324E+00    6.345E+00
     6.364E+00    6.381E+00    6.398E+00    6.413E+00    6.427E+00    6.440E+00    6.452E+00    6.462E+00    6.472E+00    6.481E+00
     6.488E+00    6.494E+00    6.500E+00    6.504E+00    6.508E+00    6.511E+00    6.513E+00    6.514E+00    6.514E+00    6.513E+00
     6.512E+00    6.510E+00    6.508E+00    6.504E+00    6.500E+00    6.496E+00    6.491E+00    6.485E+00    6.479E+00    6.473E+00
     6.466E+00    6.458E+00    6.451E+00    6.442E+00    6.434E+00    6.425E+00    6.416E+00    6.407E+00    6.398E+00    6.388E+00
     6.378E+00    6.368E+00    6.358E+00    6.348E+00    6.338E+00    6.328E+00    6.318E+00    6.308E+00
 Ala      Conc. = 1.62E+02
