 LCModel (Version 6.3-1L) Copyright: S.W. Provencher.          Ref.: Magn. Reson. Med. 30:672-679 (1993).                
 Slice#3 Row#9 Col#3  K_02_press_1_raw_act
 36 lines in following concentration table = NCONC+1
    Conc.  %SD /Cr+PCr  Metabolite                                         
  473.676  30%   0.296 Ala                                                 
    0.000 999%   0.000 Asp                                                 
  790.345  37%   0.494 Cr                                                  
  810.852  37%   0.506 PCr                                                 
    0.000 999%   0.000 GABA                                                
    0.000 999%   0.000 Glc                                                 
 1.08E+03  32%   0.676 Gln                                                 
 1.71E+03  23%   1.068 Glu                                                 
  503.353   5%   0.314 GPC                                                 
    0.000 999%   0.000 PCh                                                 
  527.428  17%   0.329 GSH                                                 
 1.53E+03  22%   0.955 Ins                                                 
    0.000 999%   0.000 Lac                                                 
 2.15E+03   7%   1.346 NAA                                                 
  120.768 144% 7.5E-02 NAAG                                                
  118.992  26% 7.4E-02 Scyllo                                              
    0.000 999%   0.000 Tau                                                 
  204.007  64%   0.127 -CrCH2                                              
  503.353   5%   0.314 GPC+PCh                                             
 2.28E+03   4%   1.421 NAA+NAAG                                            
 1.60E+03   4%   1.000 Cr+PCr                                              
 2.79E+03  23%   1.743 Glu+Gln                                             
    0.000 999%   0.000 Lip13a                                              
  254.102  39%   0.159 Lip13b                                              
    0.000 999%   0.000 Lip09                                               
 1.34E+03  14%   0.834 MM09                                                
   52.673 287% 3.3E-02 Lip20                                               
 3.41E+03  11%   2.128 MM20                                                
  855.826  16%   0.534 MM12                                                
    0.000 999%   0.000 MM14                                                
  861.701  25%   0.538 MM17                                                
  254.102  39%   0.159 Lip13a+Lip13b                                       
 1.11E+03  13%   0.693 MM14+Lip13a+Lip13b+MM12                             
 1.34E+03  14%   0.834 MM09+Lip09                                          
 3.46E+03  10%   2.161 MM20+Lip20                                          
   6 lines in following misc. output table
  FWHM = 0.076 ppm    S/N =  13                                            
  Data shift = 0.008 ppm                                                   
  Ph: -26 deg     -13.1 deg/ppm                                            
  alphaB,S = 7.6E-01,   1.9E+02                                            
   14 spline knots.   Ns =10(1)                                            
  (16) 4 infls.   (21) 1 extrs.                                            
  498 points on ppm-axis = NY
      4.000000     3.992357     3.984714     3.977070     3.969427     3.961784     3.954141     3.946497     3.938854     3.931211
      3.923568     3.915925     3.908281     3.900638     3.892995     3.885352     3.877708     3.870065     3.862422     3.854779
      3.847136     3.839492     3.831849     3.824206     3.816563     3.808919     3.801276     3.793633     3.785990     3.778347
      3.770703     3.763060     3.755417     3.747774     3.740130     3.732487     3.724844     3.717201     3.709558     3.701914
      3.694271     3.686628     3.678985     3.671341     3.663698     3.656055     3.648412     3.640769     3.633125     3.625482
      3.617839     3.610196     3.602552     3.594909     3.587266     3.579623     3.571980     3.564336     3.556693     3.549050
      3.541407     3.533763     3.526120     3.518477     3.510834     3.503191     3.495547     3.487904     3.480261     3.472618
      3.464974     3.457331     3.449688     3.442045     3.434402     3.426758     3.419115     3.411472     3.403829     3.396185
      3.388542     3.380899     3.373256     3.365613     3.357969     3.350326     3.342683     3.335040     3.327396     3.319753
      3.312110     3.304467     3.296824     3.289180     3.281537     3.273894     3.266251     3.258607     3.250964     3.243321
      3.235678     3.228034     3.220391     3.212748     3.205105     3.197462     3.189818     3.182175     3.174532     3.166889
      3.159245     3.151602     3.143959     3.136316     3.128673     3.121029     3.113386     3.105743     3.098100     3.090456
      3.082813     3.075170     3.067527     3.059884     3.052240     3.044597     3.036954     3.029311     3.021667     3.014024
      3.006381     2.998738     2.991095     2.983451     2.975808     2.968165     2.960522     2.952878     2.945235     2.937592
      2.929949     2.922306     2.914662     2.907019     2.899376     2.891733     2.884089     2.876446     2.868803     2.861160
      2.853517     2.845873     2.838230     2.830587     2.822944     2.815300     2.807657     2.800014     2.792371     2.784728
      2.777084     2.769441     2.761798     2.754155     2.746511     2.738868     2.731225     2.723582     2.715939     2.708295
      2.700652     2.693009     2.685366     2.677722     2.670079     2.662436     2.654793     2.647150     2.639506     2.631863
      2.624220     2.616577     2.608933     2.601290     2.593647     2.586004     2.578361     2.570717     2.563074     2.555431
      2.547788     2.540144     2.532501     2.524858     2.517215     2.509572     2.501928     2.494285     2.486642     2.478999
      2.471355     2.463712     2.456069     2.448426     2.440783     2.433139     2.425496     2.417853     2.410210     2.402566
      2.394923     2.387280     2.379637     2.371994     2.364350     2.356707     2.349064     2.341421     2.333777     2.326134
      2.318491     2.310848     2.303205     2.295561     2.287918     2.280275     2.272632     2.264988     2.257345     2.249702
      2.242059     2.234416     2.226772     2.219129     2.211486     2.203843     2.196199     2.188556     2.180913     2.173270
      2.165627     2.157983     2.150340     2.142697     2.135054     2.127410     2.119767     2.112124     2.104481     2.096838
      2.089194     2.081551     2.073908     2.066265     2.058621     2.050978     2.043335     2.035692     2.028049     2.020405
      2.012762     2.005119     1.997476     1.989833     1.982190     1.974546     1.966903     1.959260     1.951617     1.943974
      1.936331     1.928688     1.921045     1.913402     1.905759     1.898115     1.890472     1.882829     1.875186     1.867543
      1.859900     1.852257     1.844614     1.836971     1.829327     1.821684     1.814041     1.806398     1.798755     1.791112
      1.783469     1.775826     1.768183     1.760540     1.752896     1.745253     1.737610     1.729967     1.722324     1.714681
      1.707038     1.699395     1.691752     1.684108     1.676465     1.668822     1.661179     1.653536     1.645893     1.638250
      1.630607     1.622964     1.615321     1.607677     1.600034     1.592391     1.584748     1.577105     1.569462     1.561819
      1.554176     1.546533     1.538890     1.531246     1.523603     1.515960     1.508317     1.500674     1.493031     1.485388
      1.477745     1.470102     1.462458     1.454815     1.447172     1.439529     1.431886     1.424243     1.416600     1.408957
      1.401314     1.393671     1.386027     1.378384     1.370741     1.363098     1.355455     1.347812     1.340169     1.332526
      1.324883     1.317240     1.309596     1.301953     1.294310     1.286667     1.279024     1.271381     1.263738     1.256095
      1.248452     1.240808     1.233165     1.225522     1.217879     1.210236     1.202593     1.194950     1.187307     1.179664
      1.172021     1.164377     1.156734     1.149091     1.141448     1.133805     1.126162     1.118519     1.110876     1.103233
      1.095590     1.087946     1.080303     1.072660     1.065017     1.057374     1.049731     1.042088     1.034445     1.026802
      1.019158     1.011515     1.003872     0.996229     0.988586     0.980943     0.973300     0.965657     0.958014     0.950371
      0.942727     0.935084     0.927441     0.919798     0.912155     0.904512     0.896869     0.889226     0.881583     0.873940
      0.866296     0.858653     0.851010     0.843367     0.835724     0.828081     0.820438     0.812795     0.805152     0.797508
      0.789865     0.782222     0.774579     0.766936     0.759293     0.751650     0.744007     0.736364     0.728721     0.721077
      0.713434     0.705791     0.698148     0.690505     0.682862     0.675219     0.667576     0.659933     0.652290     0.644646
      0.637003     0.629360     0.621717     0.614074     0.606431     0.598788     0.591145     0.583502     0.575858     0.568215
      0.560572     0.552929     0.545286     0.537643     0.530000     0.522357     0.514714     0.507071     0.499427     0.491784
      0.484141     0.476498     0.468855     0.461212     0.453569     0.445925     0.438282     0.430639     0.422996     0.415353
      0.407710     0.400067     0.392424     0.384780     0.377137     0.369494     0.361851     0.354208     0.346565     0.338922
      0.331278     0.323635     0.315992     0.308349     0.300706     0.293063     0.285420     0.277777     0.270133     0.262490
      0.254847     0.247204     0.239561     0.231918     0.224275     0.216631     0.208988     0.201345
 NY phased data points follow
  -4.05759E+01 -4.07607E+01 -3.89249E+01 -3.31301E+01 -2.84131E+01 -2.68437E+01 -2.51843E+01 -2.21334E+01 -1.77133E+01 -1.39859E+01
  -1.31397E+01 -1.38822E+01 -1.40150E+01 -1.82173E+01 -1.97362E+01 -2.23410E+01 -2.53924E+01 -2.49139E+01 -2.86490E+01 -3.43045E+01
  -2.92976E+01 -2.98669E+01 -3.22640E+01 -2.86132E+01 -2.83962E+01 -3.21926E+01 -2.54042E+01 -2.69400E+01 -2.36137E+01 -2.57734E+01
  -2.09771E+01 -2.50980E+01 -2.16235E+01 -2.57295E+01 -2.36250E+01 -2.26162E+01 -2.10432E+01 -2.59531E+01 -1.98654E+01 -2.35223E+01
  -2.43568E+01 -2.42690E+01 -2.39847E+01 -2.12236E+01 -1.91757E+01 -2.11434E+01 -1.46135E+01 -2.21075E+01 -1.90159E+01 -1.75750E+01
  -2.19320E+01 -2.16980E+01 -1.77459E+01 -2.16176E+01 -2.39711E+01 -2.16770E+01 -2.15352E+01 -2.51752E+01 -2.26935E+01 -2.39483E+01
  -2.53368E+01 -2.49973E+01 -2.42500E+01 -2.71006E+01 -2.71185E+01 -2.79521E+01 -2.48890E+01 -2.64893E+01 -2.29876E+01 -2.57303E+01
  -2.24164E+01 -2.57591E+01 -2.26276E+01 -2.43354E+01 -2.20482E+01 -2.46670E+01 -2.24487E+01 -2.15629E+01 -2.09306E+01 -2.14362E+01
  -2.40323E+01 -2.29551E+01 -1.70160E+01 -2.12149E+01 -1.98043E+01 -2.11999E+01 -2.25420E+01 -1.67122E+01 -1.80630E+01 -1.67868E+01
  -1.66349E+01 -1.83144E+01 -1.17852E+01 -1.38978E+01 -1.11820E+01 -1.43020E+01 -8.80183E+00 -4.79785E+00 -4.32981E+00  2.03487E+00
   7.67978E+00  1.05070E+01  1.03070E+01  1.09896E+01  1.17469E+01  6.11236E+00  7.13427E+00  2.32812E+00 -6.87903E-01 -2.06693E+00
  -6.58598E+00 -6.07360E+00 -8.01888E+00 -1.05047E+01 -1.30980E+01 -8.92205E+00 -8.73114E+00 -1.20623E+01 -9.69071E+00 -5.91352E+00
  -3.22307E+00  2.28167E+00  3.25159E+00  7.50996E+00  1.45705E+01  1.57847E+01  2.32169E+01  2.78898E+01  2.40189E+01  1.91039E+01
   1.50872E+01  1.17956E+01  1.01196E+01  4.33875E+00  1.20459E+00 -5.02239E+00 -5.86277E+00 -9.58494E+00 -6.42281E+00 -1.23369E+01
  -1.12079E+01 -1.29276E+01 -1.01140E+01 -1.44619E+01 -1.11732E+01 -9.22202E+00 -1.15302E+01 -1.21949E+01 -1.23136E+01 -1.20540E+01
  -1.37601E+01 -1.43604E+01 -1.10085E+01 -1.17029E+01 -1.13350E+01 -1.42408E+01 -1.15533E+01 -1.35364E+01 -9.49359E+00 -1.10753E+01
  -1.36971E+01 -1.49415E+01 -1.55009E+01 -1.27867E+01 -1.29088E+01 -9.30368E+00 -1.35103E+01 -1.68814E+01 -1.55544E+01 -1.41492E+01
  -1.34475E+01 -1.79980E+01 -1.48119E+01 -1.59850E+01 -1.47054E+01 -1.66952E+01 -1.58144E+01 -1.93368E+01 -1.50568E+01 -2.04343E+01
  -1.72405E+01 -1.97891E+01 -1.48071E+01 -1.31013E+01 -1.62716E+01 -1.28388E+01 -1.35706E+01 -1.51267E+01 -1.02818E+01 -9.24796E+00
  -7.02047E+00 -4.54982E+00 -2.21110E+00 -5.10492E+00 -3.79924E+00 -2.56770E+00 -3.80692E+00 -3.80413E+00 -3.16704E+00 -5.78842E+00
  -4.99210E+00 -7.29302E+00 -6.76865E+00 -6.76326E+00 -7.90408E+00 -6.82780E+00 -7.56064E+00 -9.40767E+00 -7.05321E+00 -5.65544E+00
  -6.66979E+00 -5.20375E+00 -3.87961E+00  4.06015E-01 -2.13239E+00  1.43841E+00 -7.52075E-01 -1.11183E+00 -1.92155E+00 -2.56885E+00
  -4.49905E+00 -5.22243E+00 -4.56770E+00 -6.24012E+00 -3.38682E+00 -7.88404E-01 -3.01081E-01  1.77943E+00  1.20009E+00 -2.20311E-01
   1.16396E+00  3.05986E+00  1.78569E+00  2.55531E+00  3.63897E+00  1.38044E+00  6.53296E-01  1.07428E+00  2.71681E+00  3.72504E-01
   3.43768E-01  2.54784E+00  1.47835E+00  9.69441E-01  4.28206E+00  6.16076E+00  5.50109E+00  7.69549E+00  1.05499E+01  1.19078E+01
   1.13611E+01  1.20776E+01  2.13397E+01  2.31100E+01  2.91342E+01  3.59069E+01  4.26850E+01  4.35265E+01  4.99936E+01  5.85278E+01
   6.06967E+01  5.86903E+01  4.73276E+01  4.34490E+01  3.44158E+01  3.48580E+01  2.54148E+01  2.03717E+01  1.33354E+01  7.92803E+00
   8.19178E+00  3.38124E+00  4.42411E+00  2.76909E+00  3.35488E+00  1.56436E+00  1.83050E+00  1.71672E+00  2.62345E+00  2.84266E+00
   1.11687E+00  2.21435E+00 -8.38136E-01  2.15850E+00 -3.01112E-01 -5.92024E+00 -4.11212E+00 -3.81738E-01  9.29020E-02 -2.31670E+00
  -3.02439E+00 -8.84377E-01 -1.55956E-01 -5.71329E-01 -1.49420E-01  1.09147E+00 -8.58566E-01  1.36242E+00 -2.68285E-01  2.76339E+00
   1.60145E+00  1.28561E+00 -1.84258E+00  2.14588E+00  1.08605E+00  2.88810E+00 -3.92309E+00 -3.75898E-02 -1.59473E+00 -1.98836E+00
  -1.60456E+00 -2.55134E+00 -3.41471E+00 -3.43707E+00 -1.55763E-01 -2.18668E+00 -2.92262E+00 -4.57090E+00 -2.39485E+00 -3.97844E+00
  -5.13144E+00 -3.63512E+00 -4.05544E+00 -3.61067E+00 -3.13094E+00 -6.61675E+00 -6.27521E+00 -7.92224E+00 -9.17143E+00 -7.79825E+00
  -9.93318E+00 -9.81861E+00 -1.14289E+01 -7.65254E+00 -1.06299E+01 -7.11704E+00 -4.89173E+00 -3.11132E+00 -3.69880E+00 -1.63176E+00
  -4.23107E+00 -2.06124E+00 -1.40780E+00 -7.26104E+00 -3.16663E+00 -3.64471E+00 -2.20398E+00 -3.20325E+00 -3.57723E+00 -5.50115E+00
  -3.46165E+00 -2.01464E+00 -3.84592E+00  2.36021E+00  1.30416E+00  3.51120E+00  3.35295E+00  3.72070E+00  1.17133E+00  2.85437E+00
   7.63968E+00  3.97878E+00  6.37265E+00  6.43521E+00  9.35223E+00  4.82843E+00  6.45373E+00  3.27273E+00  4.71802E+00  7.31594E+00
   4.23912E+00  8.36587E+00  5.55109E+00  8.44210E+00  4.37546E+00  5.03455E+00  5.65027E+00  5.74941E+00  3.69268E+00  4.13755E+00
   5.51328E+00  2.99790E+00  5.54917E+00  2.24545E+00  2.83958E+00  5.91835E+00  4.70624E+00  5.47083E+00  2.27378E+00  4.54364E+00
   4.12169E+00  3.96060E+00  5.00989E+00  4.36703E+00  3.67939E+00  4.64503E+00  5.24654E+00  5.32260E+00  4.84081E+00  6.12053E+00
   4.12177E+00  4.83696E+00  5.17109E+00  3.33581E+00  4.86699E+00  1.79868E+00  3.73193E+00  4.37769E+00  5.97445E+00  1.44409E-01
   2.04172E+00  4.78665E+00  4.60372E+00  4.46249E+00  4.61784E+00  1.68875E+00  3.71525E+00  5.71906E+00  4.88736E+00  5.19560E+00
   7.76467E+00  5.27964E+00  2.67298E+00  3.53063E+00  4.21407E+00  3.75878E+00  1.27849E+00  2.76146E+00  3.95380E+00  5.32517E+00
   5.88536E+00  5.85935E+00  5.16161E+00  2.62195E+00  2.49650E+00  2.31422E+00  4.94060E+00  5.22140E+00  5.02495E+00  4.68678E+00
   3.58015E+00  2.28187E+00  6.22442E+00  2.47952E+00  3.17126E+00  3.29790E+00  5.61231E+00  4.21038E+00  2.01388E+00  3.34371E+00
   4.37261E+00  5.37195E+00  3.35811E+00  5.09242E+00  4.05283E+00  4.80836E+00  2.72402E+00  5.26295E+00  2.08678E+00  4.93239E+00
   5.17328E-01  1.23875E+00  5.09037E+00  6.40324E+00  2.00422E+00  4.25624E+00  5.07019E+00  5.27329E+00  4.76612E+00  1.31316E+00
   5.32416E+00  6.24072E+00  1.70897E+00  6.19886E+00  4.45185E+00  2.15211E+00  4.46255E+00  3.64957E+00  2.84490E+00  5.81883E+00
   2.65609E+00  1.72255E+00  1.62236E+00  1.91569E+00  5.23269E+00  7.32912E+00  3.31801E+00  4.21342E+00  2.83368E+00  2.12829E+00
   1.30764E+00  5.28157E+00  1.57681E+00  2.58408E+00  7.11659E+00  4.80854E+00  3.01585E+00  5.44107E+00
 NY points of the fit to the data follow
  -3.74642E+01 -3.62312E+01 -3.44407E+01 -3.23576E+01 -3.00014E+01 -2.74161E+01 -2.46366E+01 -2.16173E+01 -1.85244E+01 -1.58628E+01
  -1.43294E+01 -1.43657E+01 -1.57319E+01 -1.76784E+01 -1.95793E+01 -2.13582E+01 -2.32324E+01 -2.52582E+01 -2.72460E+01 -2.88995E+01
  -3.00232E+01 -3.05881E+01 -3.06850E+01 -3.03797E+01 -2.97309E+01 -2.89169E+01 -2.79341E+01 -2.66399E+01 -2.49741E+01 -2.32136E+01
  -2.18528E+01 -2.13351E+01 -2.16368E+01 -2.23611E+01 -2.31930E+01 -2.40431E+01 -2.48111E+01 -2.52958E+01 -2.53752E+01 -2.51268E+01
  -2.47715E+01 -2.43931E+01 -2.37799E+01 -2.28265E+01 -2.17882E+01 -2.08375E+01 -2.02021E+01 -2.01944E+01 -2.08455E+01 -2.17498E+01
  -2.25120E+01 -2.30458E+01 -2.34480E+01 -2.38606E+01 -2.42199E+01 -2.43746E+01 -2.43311E+01 -2.42249E+01 -2.40903E+01 -2.39032E+01
  -2.37911E+01 -2.38279E+01 -2.39275E+01 -2.39702E+01 -2.39035E+01 -2.37451E+01 -2.35304E+01 -2.32701E+01 -2.29707E+01 -2.26685E+01
  -2.23841E+01 -2.21325E+01 -2.19560E+01 -2.18404E+01 -2.17552E+01 -2.16720E+01 -2.15834E+01 -2.14112E+01 -2.11877E+01 -2.09593E+01
  -2.07137E+01 -2.04458E+01 -2.01629E+01 -1.98168E+01 -1.93979E+01 -1.89535E+01 -1.85794E+01 -1.84160E+01 -1.84833E+01 -1.86343E+01
  -1.86931E+01 -1.85735E+01 -1.81305E+01 -1.67883E+01 -1.45326E+01 -1.18603E+01 -8.95817E+00 -5.87423E+00 -2.55156E+00  1.23243E+00
   5.43587E+00  9.60686E+00  1.27903E+01  1.38271E+01  1.23150E+01  9.13299E+00  5.63242E+00  2.51021E+00 -4.22425E-01 -3.57818E+00
  -6.81467E+00 -9.58388E+00 -1.16460E+01 -1.32947E+01 -1.46955E+01 -1.52962E+01 -1.49172E+01 -1.33022E+01 -1.04100E+01 -6.95996E+00
  -3.25147E+00  6.69105E-01  4.83277E+00  9.36571E+00  1.43272E+01  1.93297E+01  2.33097E+01  2.48818E+01  2.34090E+01  1.97822E+01
   1.56555E+01  1.19540E+01  8.48599E+00  4.65704E+00  5.03711E-01 -3.27320E+00 -6.17047E+00 -8.37325E+00 -1.01731E+01 -1.11228E+01
  -1.12000E+01 -1.10924E+01 -1.10141E+01 -1.10037E+01 -1.10570E+01 -1.11368E+01 -1.11970E+01 -1.12653E+01 -1.13802E+01 -1.15256E+01
  -1.16958E+01 -1.19142E+01 -1.21472E+01 -1.23597E+01 -1.24959E+01 -1.25385E+01 -1.25434E+01 -1.25777E+01 -1.26682E+01 -1.28082E+01
  -1.29438E+01 -1.29924E+01 -1.29281E+01 -1.28258E+01 -1.28061E+01 -1.29480E+01 -1.32361E+01 -1.35589E+01 -1.37952E+01 -1.39552E+01
  -1.41048E+01 -1.42893E+01 -1.44912E+01 -1.46904E+01 -1.48512E+01 -1.49344E+01 -1.49082E+01 -1.47826E+01 -1.46430E+01 -1.45399E+01
  -1.44180E+01 -1.41556E+01 -1.36996E+01 -1.31420E+01 -1.26003E+01 -1.20907E+01 -1.14924E+01 -1.07147E+01 -9.90378E+00 -9.21969E+00
  -8.68175E+00 -8.28986E+00 -8.01642E+00 -7.81446E+00 -7.55671E+00 -7.19552E+00 -6.72541E+00 -6.16642E+00 -5.57471E+00 -5.07488E+00
  -4.72682E+00 -4.55507E+00 -4.63029E+00 -4.97739E+00 -5.54254E+00 -6.27196E+00 -6.96526E+00 -7.46408E+00 -7.56857E+00 -7.13249E+00
  -6.32206E+00 -5.38865E+00 -4.49060E+00 -3.65804E+00 -2.89050E+00 -2.36534E+00 -2.35834E+00 -2.95207E+00 -3.86026E+00 -4.72512E+00
  -5.38977E+00 -5.85803E+00 -5.96403E+00 -5.46391E+00 -4.48676E+00 -3.46688E+00 -2.62051E+00 -1.87617E+00 -1.00932E+00 -8.99897E-02
   6.88331E-01  1.26546E+00  1.73196E+00  2.18625E+00  2.61414E+00  2.99479E+00  3.37598E+00  3.66505E+00  3.67946E+00  3.40249E+00
   2.99214E+00  2.69288E+00  2.70119E+00  3.05300E+00  3.66478E+00  4.47283E+00  5.42288E+00  6.39783E+00  7.37680E+00  8.59084E+00
   1.10311E+01  1.52118E+01  2.01473E+01  2.53153E+01  3.05391E+01  3.57224E+01  4.09663E+01  4.64871E+01  5.21355E+01  5.67744E+01
   5.84785E+01  5.60545E+01  5.04144E+01  4.38181E+01  3.77958E+01  3.22871E+01  2.65069E+01  2.04387E+01  1.50075E+01  1.07922E+01
   7.35822E+00  4.18944E+00  1.96493E+00  1.09509E+00  6.31473E-01  2.53769E-01 -7.20729E-02 -3.58078E-01 -6.19432E-01 -8.45944E-01
  -1.04175E+00 -1.20158E+00 -1.31419E+00 -1.37985E+00 -1.41129E+00 -1.40763E+00 -1.35744E+00 -1.25847E+00 -1.11895E+00 -9.49278E-01
  -7.55039E-01 -5.41072E-01 -3.18566E-01 -1.01597E-01  1.01598E-01  2.83425E-01  4.35747E-01  5.50012E-01  6.19861E-01  6.41034E-01
   6.10665E-01  5.27517E-01  3.92179E-01  2.07205E-01 -2.19097E-02 -2.88130E-01 -5.83243E-01 -8.98166E-01 -1.22339E+00 -1.54927E+00
  -1.86659E+00 -2.16666E+00 -2.44021E+00 -2.67763E+00 -2.86796E+00 -2.99464E+00 -3.02315E+00 -2.89680E+00 -2.70878E+00 -2.58843E+00
  -2.54430E+00 -2.57132E+00 -2.67491E+00 -2.87582E+00 -3.23050E+00 -3.73011E+00 -4.36579E+00 -5.21431E+00 -6.16811E+00 -6.96025E+00
  -7.40031E+00 -7.47962E+00 -7.26521E+00 -6.76337E+00 -5.95161E+00 -4.96248E+00 -4.09610E+00 -3.55751E+00 -3.25511E+00 -2.94447E+00
  -2.62666E+00 -2.45503E+00 -2.46007E+00 -2.56211E+00 -2.64871E+00 -2.69390E+00 -2.74660E+00 -2.73310E+00 -2.53862E+00 -2.19162E+00
  -1.71266E+00 -1.11352E+00 -4.10951E-01  3.68810E-01  1.18982E+00  2.00936E+00  2.78330E+00  3.47244E+00  4.04846E+00  4.49783E+00
   4.82262E+00  5.03824E+00  5.16851E+00  5.23963E+00  5.27449E+00  5.28891E+00  5.29015E+00  5.27784E+00  5.24642E+00  5.18827E+00
   5.09658E+00  4.96764E+00  4.80198E+00  4.60459E+00  4.38426E+00  4.15244E+00  3.92188E+00  3.70549E+00  3.51521E+00  3.36130E+00
   3.25169E+00  3.19171E+00  3.18394E+00  3.22844E+00  3.32298E+00  3.46340E+00  3.64391E+00  3.85751E+00  4.09630E+00  4.35201E+00
   4.61624E+00  4.88079E+00  5.13782E+00  5.38009E+00  5.60110E+00  5.79534E+00  5.95833E+00  6.08672E+00  6.17822E+00  6.23164E+00
   6.24692E+00  6.22509E+00  6.16810E+00  6.07873E+00  5.96033E+00  5.81682E+00  5.65243E+00  5.47163E+00  5.27889E+00  5.07854E+00
   4.87461E+00  4.67082E+00  4.47047E+00  4.27645E+00  4.09110E+00  3.91628E+00  3.75334E+00  3.60321E+00  3.46648E+00  3.34339E+00
   3.23387E+00  3.13758E+00  3.05401E+00  2.98253E+00  2.92246E+00  2.87305E+00  2.83348E+00  2.80290E+00  2.78051E+00  2.76557E+00
   2.75738E+00  2.75528E+00  2.75859E+00  2.76671E+00  2.77909E+00  2.79527E+00  2.81483E+00  2.83735E+00  2.86243E+00  2.88971E+00
   2.91891E+00  2.94977E+00  2.98206E+00  3.01553E+00  3.04994E+00  3.08509E+00  3.12083E+00  3.15704E+00  3.19355E+00  3.23022E+00
   3.26688E+00  3.30345E+00  3.33984E+00  3.37598E+00  3.41182E+00  3.44730E+00  3.48239E+00  3.51709E+00  3.55142E+00  3.58536E+00
   3.61888E+00  3.65196E+00  3.68459E+00  3.71683E+00  3.74867E+00  3.78013E+00  3.81117E+00  3.84180E+00  3.87205E+00  3.90197E+00
   3.93156E+00  3.96084E+00  3.98978E+00  4.01842E+00  4.04680E+00  4.07497E+00  4.10293E+00  4.13069E+00  4.15824E+00  4.18565E+00
   4.21295E+00  4.24018E+00  4.26735E+00  4.29446E+00  4.32154E+00  4.34866E+00  4.37584E+00  4.40313E+00  4.43052E+00  4.45804E+00
   4.48573E+00  4.51366E+00  4.54186E+00  4.57037E+00  4.59918E+00  4.62836E+00  4.65794E+00  4.68802E+00
 NY background values follow
    -4.366E+01   -4.340E+01   -4.314E+01   -4.288E+01   -4.262E+01   -4.237E+01   -4.211E+01   -4.185E+01   -4.159E+01   -4.133E+01
    -4.107E+01   -4.082E+01   -4.056E+01   -4.030E+01   -4.005E+01   -3.979E+01   -3.953E+01   -3.928E+01   -3.902E+01   -3.877E+01
    -3.851E+01   -3.826E+01   -3.801E+01   -3.775E+01   -3.750E+01   -3.725E+01   -3.700E+01   -3.675E+01   -3.650E+01   -3.625E+01
    -3.600E+01   -3.575E+01   -3.550E+01   -3.525E+01   -3.501E+01   -3.476E+01   -3.452E+01   -3.427E+01   -3.403E+01   -3.378E+01
    -3.354E+01   -3.330E+01   -3.306E+01   -3.282E+01   -3.258E+01   -3.235E+01   -3.211E+01   -3.187E+01   -3.164E+01   -3.140E+01
    -3.117E+01   -3.094E+01   -3.071E+01   -3.048E+01   -3.025E+01   -3.002E+01   -2.980E+01   -2.957E+01   -2.935E+01   -2.912E+01
    -2.890E+01   -2.868E+01   -2.846E+01   -2.824E+01   -2.802E+01   -2.780E+01   -2.759E+01   -2.737E+01   -2.716E+01   -2.695E+01
    -2.673E+01   -2.652E+01   -2.631E+01   -2.611E+01   -2.590E+01   -2.569E+01   -2.549E+01   -2.528E+01   -2.508E+01   -2.488E+01
    -2.468E+01   -2.448E+01   -2.429E+01   -2.409E+01   -2.389E+01   -2.370E+01   -2.351E+01   -2.332E+01   -2.313E+01   -2.294E+01
    -2.275E+01   -2.256E+01   -2.238E+01   -2.220E+01   -2.201E+01   -2.183E+01   -2.165E+01   -2.148E+01   -2.130E+01   -2.112E+01
    -2.095E+01   -2.077E+01   -2.060E+01   -2.043E+01   -2.026E+01   -2.009E+01   -1.993E+01   -1.976E+01   -1.960E+01   -1.943E+01
    -1.927E+01   -1.911E+01   -1.895E+01   -1.879E+01   -1.864E+01   -1.848E+01   -1.833E+01   -1.817E+01   -1.802E+01   -1.787E+01
    -1.772E+01   -1.757E+01   -1.743E+01   -1.728E+01   -1.714E+01   -1.699E+01   -1.685E+01   -1.671E+01   -1.657E+01   -1.643E+01
    -1.629E+01   -1.616E+01   -1.602E+01   -1.589E+01   -1.576E+01   -1.562E+01   -1.549E+01   -1.536E+01   -1.524E+01   -1.511E+01
    -1.498E+01   -1.486E+01   -1.474E+01   -1.461E+01   -1.449E+01   -1.437E+01   -1.425E+01   -1.413E+01   -1.402E+01   -1.390E+01
    -1.378E+01   -1.367E+01   -1.355E+01   -1.344E+01   -1.333E+01   -1.322E+01   -1.311E+01   -1.300E+01   -1.289E+01   -1.278E+01
    -1.267E+01   -1.257E+01   -1.246E+01   -1.236E+01   -1.225E+01   -1.215E+01   -1.204E+01   -1.194E+01   -1.184E+01   -1.174E+01
    -1.164E+01   -1.154E+01   -1.144E+01   -1.134E+01   -1.124E+01   -1.114E+01   -1.104E+01   -1.095E+01   -1.085E+01   -1.075E+01
    -1.066E+01   -1.056E+01   -1.047E+01   -1.037E+01   -1.028E+01   -1.018E+01   -1.009E+01   -9.997E+00   -9.905E+00   -9.813E+00
    -9.722E+00   -9.631E+00   -9.541E+00   -9.452E+00   -9.363E+00   -9.276E+00   -9.189E+00   -9.102E+00   -9.017E+00   -8.933E+00
    -8.849E+00   -8.766E+00   -8.685E+00   -8.604E+00   -8.524E+00   -8.445E+00   -8.368E+00   -8.291E+00   -8.216E+00   -8.142E+00
    -8.069E+00   -7.997E+00   -7.927E+00   -7.857E+00   -7.789E+00   -7.723E+00   -7.658E+00   -7.594E+00   -7.531E+00   -7.470E+00
    -7.411E+00   -7.353E+00   -7.297E+00   -7.242E+00   -7.189E+00   -7.137E+00   -7.087E+00   -7.039E+00   -6.992E+00   -6.947E+00
    -6.904E+00   -6.863E+00   -6.822E+00   -6.784E+00   -6.747E+00   -6.711E+00   -6.678E+00   -6.645E+00   -6.614E+00   -6.585E+00
    -6.556E+00   -6.530E+00   -6.504E+00   -6.481E+00   -6.458E+00   -6.437E+00   -6.417E+00   -6.398E+00   -6.380E+00   -6.364E+00
    -6.349E+00   -6.336E+00   -6.323E+00   -6.312E+00   -6.301E+00   -6.292E+00   -6.284E+00   -6.277E+00   -6.271E+00   -6.266E+00
    -6.262E+00   -6.260E+00   -6.258E+00   -6.257E+00   -6.257E+00   -6.258E+00   -6.260E+00   -6.262E+00   -6.266E+00   -6.270E+00
    -6.276E+00   -6.282E+00   -6.289E+00   -6.296E+00   -6.304E+00   -6.313E+00   -6.323E+00   -6.333E+00   -6.343E+00   -6.354E+00
    -6.365E+00   -6.376E+00   -6.388E+00   -6.400E+00   -6.412E+00   -6.425E+00   -6.437E+00   -6.449E+00   -6.461E+00   -6.473E+00
    -6.485E+00   -6.497E+00   -6.509E+00   -6.520E+00   -6.531E+00   -6.541E+00   -6.551E+00   -6.560E+00   -6.569E+00   -6.577E+00
    -6.585E+00   -6.592E+00   -6.598E+00   -6.603E+00   -6.607E+00   -6.611E+00   -6.613E+00   -6.614E+00   -6.614E+00   -6.614E+00
    -6.611E+00   -6.608E+00   -6.603E+00   -6.597E+00   -6.590E+00   -6.581E+00   -6.571E+00   -6.559E+00   -6.545E+00   -6.530E+00
    -6.513E+00   -6.495E+00   -6.476E+00   -6.454E+00   -6.432E+00   -6.407E+00   -6.382E+00   -6.355E+00   -6.326E+00   -6.296E+00
    -6.264E+00   -6.231E+00   -6.197E+00   -6.161E+00   -6.124E+00   -6.086E+00   -6.046E+00   -6.004E+00   -5.962E+00   -5.918E+00
    -5.872E+00   -5.826E+00   -5.778E+00   -5.729E+00   -5.678E+00   -5.626E+00   -5.573E+00   -5.519E+00   -5.463E+00   -5.407E+00
    -5.349E+00   -5.289E+00   -5.229E+00   -5.167E+00   -5.105E+00   -5.041E+00   -4.976E+00   -4.909E+00   -4.842E+00   -4.773E+00
    -4.704E+00   -4.633E+00   -4.561E+00   -4.488E+00   -4.415E+00   -4.340E+00   -4.264E+00   -4.187E+00   -4.109E+00   -4.030E+00
    -3.951E+00   -3.871E+00   -3.789E+00   -3.708E+00   -3.625E+00   -3.541E+00   -3.457E+00   -3.373E+00   -3.287E+00   -3.202E+00
    -3.115E+00   -3.028E+00   -2.941E+00   -2.853E+00   -2.764E+00   -2.675E+00   -2.586E+00   -2.497E+00   -2.407E+00   -2.317E+00
    -2.226E+00   -2.136E+00   -2.045E+00   -1.954E+00   -1.863E+00   -1.771E+00   -1.680E+00   -1.589E+00   -1.497E+00   -1.406E+00
    -1.314E+00   -1.223E+00   -1.132E+00   -1.041E+00   -9.499E-01   -8.592E-01   -7.687E-01   -6.784E-01   -5.885E-01   -4.988E-01
    -4.094E-01   -3.204E-01   -2.318E-01   -1.435E-01   -5.569E-02    3.172E-02    1.187E-01    2.051E-01    2.911E-01    3.766E-01
     4.615E-01    5.458E-01    6.296E-01    7.127E-01    7.952E-01    8.770E-01    9.582E-01    1.039E+00    1.118E+00    1.197E+00
     1.276E+00    1.353E+00    1.430E+00    1.505E+00    1.580E+00    1.654E+00    1.727E+00    1.800E+00    1.871E+00    1.941E+00
     2.010E+00    2.079E+00    2.146E+00    2.212E+00    2.277E+00    2.341E+00    2.404E+00    2.466E+00    2.526E+00    2.586E+00
     2.644E+00    2.701E+00    2.756E+00    2.810E+00    2.864E+00    2.915E+00    2.966E+00    3.016E+00    3.064E+00    3.112E+00
     3.158E+00    3.203E+00    3.248E+00    3.291E+00    3.334E+00    3.376E+00    3.417E+00    3.457E+00    3.496E+00    3.535E+00
     3.573E+00    3.610E+00    3.647E+00    3.683E+00    3.719E+00    3.754E+00    3.788E+00    3.822E+00    3.856E+00    3.890E+00
     3.923E+00    3.956E+00    3.988E+00    4.020E+00    4.052E+00    4.084E+00    4.116E+00    4.148E+00    4.180E+00    4.211E+00
     4.243E+00    4.275E+00    4.307E+00    4.338E+00    4.371E+00    4.403E+00    4.435E+00    4.468E+00
 Ala      Conc. = 4.74E+02
