 LCModel (Version 6.3-1L) Copyright: S.W. Provencher.          Ref.: Magn. Reson. Med. 30:672-679 (1993).                
 Slice#3 Row#11 Col#6  K_02_press_1_raw_act
 36 lines in following concentration table = NCONC+1
    Conc.  %SD /Cr+PCr  Metabolite                                         
  507.464  41%   0.196 Ala                                                 
    0.000 999%   0.000 Asp                                                 
    0.000 999%   0.000 Cr                                                  
 2.59E+03   3%   1.000 PCr                                                 
    0.000 999%   0.000 GABA                                                
    0.000 999%   0.000 Glc                                                 
  619.537  94%   0.240 Gln                                                 
   66.765 999% 2.6E-02 Glu                                                 
  624.609  14%   0.242 GPC                                                 
  296.053  33%   0.114 PCh                                                 
  939.753  13%   0.363 GSH                                                 
 3.05E+03  14%   1.179 Ins                                                 
   42.393 611% 1.6E-02 Lac                                                 
 3.09E+03   3%   1.194 NAA                                                 
    0.000 999%   0.000 NAAG                                                
  420.830  10%   0.163 Scyllo                                              
  455.145  71%   0.176 Tau                                                 
  423.972  40%   0.164 -CrCH2                                              
  920.662   4%   0.356 GPC+PCh                                             
 3.09E+03   3%   1.194 NAA+NAAG                                            
 2.59E+03   3%   1.000 Cr+PCr                                              
  686.302 170%   0.265 Glu+Gln                                             
 1.11E+03  42%   0.430 Lip13a                                              
    0.000 999%   0.000 Lip13b                                              
  202.504 119% 7.8E-02 Lip09                                               
  990.250  27%   0.383 MM09                                                
  119.805 132% 4.6E-02 Lip20                                               
 2.24E+03  18%   0.867 MM20                                                
  341.617  67%   0.132 MM12                                                
 1.10E+03  31%   0.424 MM14                                                
    0.000 999%   0.000 MM17                                                
 1.11E+03  42%   0.430 Lip13a+Lip13b                                       
 2.55E+03  19%   0.986 MM14+Lip13a+Lip13b+MM12                             
 1.19E+03  17%   0.461 MM09+Lip09                                          
 2.36E+03  16%   0.913 MM20+Lip20                                          
   6 lines in following misc. output table
  FWHM = 0.092 ppm    S/N =  12                                            
  Data shift = 0.069 ppm                                                   
  Ph: -55 deg     -27.0 deg/ppm                                            
  alphaB,S = 7.4E-01,   6.4E+02                                            
   14 spline knots.   Ns =11(1)                                            
  ( 9) 4 infls.   ( 1) 1 extrs.                                            
  498 points on ppm-axis = NY
      4.000000     3.992357     3.984714     3.977070     3.969427     3.961784     3.954141     3.946497     3.938854     3.931211
      3.923568     3.915925     3.908281     3.900638     3.892995     3.885352     3.877708     3.870065     3.862422     3.854779
      3.847136     3.839492     3.831849     3.824206     3.816563     3.808919     3.801276     3.793633     3.785990     3.778347
      3.770703     3.763060     3.755417     3.747774     3.740130     3.732487     3.724844     3.717201     3.709558     3.701914
      3.694271     3.686628     3.678985     3.671341     3.663698     3.656055     3.648412     3.640769     3.633125     3.625482
      3.617839     3.610196     3.602552     3.594909     3.587266     3.579623     3.571980     3.564336     3.556693     3.549050
      3.541407     3.533763     3.526120     3.518477     3.510834     3.503191     3.495547     3.487904     3.480261     3.472618
      3.464974     3.457331     3.449688     3.442045     3.434402     3.426758     3.419115     3.411472     3.403829     3.396185
      3.388542     3.380899     3.373256     3.365613     3.357969     3.350326     3.342683     3.335040     3.327396     3.319753
      3.312110     3.304467     3.296824     3.289180     3.281537     3.273894     3.266251     3.258607     3.250964     3.243321
      3.235678     3.228034     3.220391     3.212748     3.205105     3.197462     3.189818     3.182175     3.174532     3.166889
      3.159245     3.151602     3.143959     3.136316     3.128673     3.121029     3.113386     3.105743     3.098100     3.090456
      3.082813     3.075170     3.067527     3.059884     3.052240     3.044597     3.036954     3.029311     3.021667     3.014024
      3.006381     2.998738     2.991095     2.983451     2.975808     2.968165     2.960522     2.952878     2.945235     2.937592
      2.929949     2.922306     2.914662     2.907019     2.899376     2.891733     2.884089     2.876446     2.868803     2.861160
      2.853517     2.845873     2.838230     2.830587     2.822944     2.815300     2.807657     2.800014     2.792371     2.784728
      2.777084     2.769441     2.761798     2.754155     2.746511     2.738868     2.731225     2.723582     2.715939     2.708295
      2.700652     2.693009     2.685366     2.677722     2.670079     2.662436     2.654793     2.647150     2.639506     2.631863
      2.624220     2.616577     2.608933     2.601290     2.593647     2.586004     2.578361     2.570717     2.563074     2.555431
      2.547788     2.540144     2.532501     2.524858     2.517215     2.509572     2.501928     2.494285     2.486642     2.478999
      2.471355     2.463712     2.456069     2.448426     2.440783     2.433139     2.425496     2.417853     2.410210     2.402566
      2.394923     2.387280     2.379637     2.371994     2.364350     2.356707     2.349064     2.341421     2.333777     2.326134
      2.318491     2.310848     2.303205     2.295561     2.287918     2.280275     2.272632     2.264988     2.257345     2.249702
      2.242059     2.234416     2.226772     2.219129     2.211486     2.203843     2.196199     2.188556     2.180913     2.173270
      2.165627     2.157983     2.150340     2.142697     2.135054     2.127410     2.119767     2.112124     2.104481     2.096838
      2.089194     2.081551     2.073908     2.066265     2.058621     2.050978     2.043335     2.035692     2.028049     2.020405
      2.012762     2.005119     1.997476     1.989833     1.982190     1.974546     1.966903     1.959260     1.951617     1.943974
      1.936331     1.928688     1.921045     1.913402     1.905759     1.898115     1.890472     1.882829     1.875186     1.867543
      1.859900     1.852257     1.844614     1.836971     1.829327     1.821684     1.814041     1.806398     1.798755     1.791112
      1.783469     1.775826     1.768183     1.760540     1.752896     1.745253     1.737610     1.729967     1.722324     1.714681
      1.707038     1.699395     1.691752     1.684108     1.676465     1.668822     1.661179     1.653536     1.645893     1.638250
      1.630607     1.622964     1.615321     1.607677     1.600034     1.592391     1.584748     1.577105     1.569462     1.561819
      1.554176     1.546533     1.538890     1.531246     1.523603     1.515960     1.508317     1.500674     1.493031     1.485388
      1.477745     1.470102     1.462458     1.454815     1.447172     1.439529     1.431886     1.424243     1.416600     1.408957
      1.401314     1.393671     1.386027     1.378384     1.370741     1.363098     1.355455     1.347812     1.340169     1.332526
      1.324883     1.317240     1.309596     1.301953     1.294310     1.286667     1.279024     1.271381     1.263738     1.256095
      1.248452     1.240808     1.233165     1.225522     1.217879     1.210236     1.202593     1.194950     1.187307     1.179664
      1.172021     1.164377     1.156734     1.149091     1.141448     1.133805     1.126162     1.118519     1.110876     1.103233
      1.095590     1.087946     1.080303     1.072660     1.065017     1.057374     1.049731     1.042088     1.034445     1.026802
      1.019158     1.011515     1.003872     0.996229     0.988586     0.980943     0.973300     0.965657     0.958014     0.950371
      0.942727     0.935084     0.927441     0.919798     0.912155     0.904512     0.896869     0.889226     0.881583     0.873940
      0.866296     0.858653     0.851010     0.843367     0.835724     0.828081     0.820438     0.812795     0.805152     0.797508
      0.789865     0.782222     0.774579     0.766936     0.759293     0.751650     0.744007     0.736364     0.728721     0.721077
      0.713434     0.705791     0.698148     0.690505     0.682862     0.675219     0.667576     0.659933     0.652290     0.644646
      0.637003     0.629360     0.621717     0.614074     0.606431     0.598788     0.591145     0.583502     0.575858     0.568215
      0.560572     0.552929     0.545286     0.537643     0.530000     0.522357     0.514714     0.507071     0.499427     0.491784
      0.484141     0.476498     0.468855     0.461212     0.453569     0.445925     0.438282     0.430639     0.422996     0.415353
      0.407710     0.400067     0.392424     0.384780     0.377137     0.369494     0.361851     0.354208     0.346565     0.338922
      0.331278     0.323635     0.315992     0.308349     0.300706     0.293063     0.285420     0.277777     0.270133     0.262490
      0.254847     0.247204     0.239561     0.231918     0.224275     0.216631     0.208988     0.201345
 NY phased data points follow
  -9.32914E+01 -9.09603E+01 -8.80221E+01 -8.09372E+01 -7.75636E+01 -7.53184E+01 -7.19140E+01 -7.01695E+01 -6.93211E+01 -7.32749E+01
  -7.19745E+01 -7.60310E+01 -7.56347E+01 -8.15281E+01 -8.58758E+01 -8.75087E+01 -8.86020E+01 -9.44378E+01 -9.35662E+01 -9.06885E+01
  -9.21540E+01 -9.19172E+01 -8.75732E+01 -8.74005E+01 -8.65250E+01 -7.90761E+01 -8.44456E+01 -8.07400E+01 -7.76395E+01 -7.78590E+01
  -7.52312E+01 -7.49238E+01 -7.36780E+01 -7.73636E+01 -7.25567E+01 -7.35961E+01 -7.39320E+01 -7.01000E+01 -6.75313E+01 -6.78910E+01
  -6.74791E+01 -6.56284E+01 -6.55463E+01 -6.42775E+01 -7.06637E+01 -6.58556E+01 -6.71333E+01 -6.64176E+01 -7.06355E+01 -7.01476E+01
  -6.69300E+01 -6.91710E+01 -6.62725E+01 -6.99184E+01 -6.96742E+01 -6.54456E+01 -6.85464E+01 -6.96694E+01 -7.00125E+01 -6.82358E+01
  -6.94127E+01 -7.11296E+01 -6.72703E+01 -6.59948E+01 -6.80781E+01 -6.46157E+01 -6.69997E+01 -6.35240E+01 -6.30597E+01 -6.10144E+01
  -5.63811E+01 -6.30945E+01 -6.11360E+01 -5.92914E+01 -6.29630E+01 -5.49425E+01 -5.89100E+01 -5.47135E+01 -5.54989E+01 -5.49406E+01
  -5.12178E+01 -5.21718E+01 -5.07918E+01 -5.18191E+01 -4.86777E+01 -4.43314E+01 -4.52523E+01 -4.08056E+01 -4.37624E+01 -4.07828E+01
  -3.91248E+01 -3.79477E+01 -3.56471E+01 -3.47345E+01 -2.95137E+01 -2.33755E+01 -1.80295E+01 -1.33174E+01 -9.32893E+00 -6.25698E+00
  -9.23692E+00 -7.80115E+00 -3.40437E+00 -8.33477E+00 -8.25871E+00 -1.37829E+01 -1.53864E+01 -1.71002E+01 -1.98675E+01 -2.84136E+01
  -3.07140E+01 -3.30904E+01 -3.49058E+01 -3.65075E+01 -3.44612E+01 -3.08947E+01 -3.37976E+01 -2.90981E+01 -2.53034E+01 -1.99061E+01
  -1.37733E+01 -7.28173E+00 -3.85319E+00  2.09811E+00  9.43218E-01  8.15782E+00  6.64131E+00  3.56246E+00  6.50508E+00  4.41712E+00
  -2.92241E+00 -4.91897E+00 -1.10865E+01 -1.65195E+01 -1.87704E+01 -2.68795E+01 -2.84142E+01 -2.94891E+01 -3.27781E+01 -3.09300E+01
  -3.48096E+01 -3.70488E+01 -3.46315E+01 -3.60472E+01 -3.48004E+01 -3.33125E+01 -3.33683E+01 -3.33320E+01 -3.37632E+01 -3.36354E+01
  -3.51210E+01 -3.38367E+01 -2.92552E+01 -3.26392E+01 -3.30093E+01 -3.19469E+01 -3.45746E+01 -3.35421E+01 -3.22816E+01 -3.72390E+01
  -3.33777E+01 -3.28185E+01 -3.30612E+01 -3.17770E+01 -3.05282E+01 -3.48067E+01 -3.09113E+01 -3.36590E+01 -3.16172E+01 -3.45413E+01
  -3.48618E+01 -3.25250E+01 -3.43583E+01 -3.56120E+01 -3.72910E+01 -3.72081E+01 -3.82353E+01 -3.34896E+01 -3.87042E+01 -3.76596E+01
  -3.19792E+01 -3.65162E+01 -3.38772E+01 -3.22243E+01 -2.88688E+01 -2.51122E+01 -2.78391E+01 -2.51789E+01 -2.43659E+01 -1.93623E+01
  -1.73353E+01 -1.95142E+01 -1.58018E+01 -1.84976E+01 -1.77714E+01 -1.43925E+01 -1.82267E+01 -2.04117E+01 -1.28348E+01 -1.84300E+01
  -1.63198E+01 -1.62381E+01 -1.58430E+01 -1.74886E+01 -1.92459E+01 -1.75539E+01 -1.40047E+01 -1.84118E+01 -1.71063E+01 -1.61785E+01
  -1.61912E+01 -1.26725E+01 -1.30157E+01 -1.15618E+01 -1.00034E+01 -9.18829E+00 -4.59131E+00 -7.29909E+00 -1.20038E+01 -7.59498E+00
  -1.15582E+01 -6.00089E+00 -1.18288E+01 -4.65579E+00 -1.09741E+01 -6.72264E+00 -5.82087E+00 -6.50117E+00 -4.27857E+00 -4.66833E+00
  -3.09131E+00 -4.07618E+00 -2.84211E+00 -5.99673E+00 -2.67738E+00 -6.32258E+00 -6.48662E+00 -2.96800E-01 -3.75322E+00 -5.53240E+00
  -4.26087E+00 -4.54984E+00 -5.22397E+00 -1.82492E+00 -1.34416E+00 -6.73620E-01  5.62316E+00  2.47205E+00  8.23711E+00  1.09020E+01
   1.18019E+01  1.93782E+01  2.69889E+01  2.75561E+01  3.47697E+01  4.10928E+01  4.48451E+01  5.49396E+01  5.91614E+01  6.61099E+01
   6.95858E+01  7.13988E+01  6.31452E+01  5.39224E+01  4.83329E+01  3.90142E+01  3.25928E+01  2.54439E+01  2.05457E+01  1.87348E+01
   1.03403E+01  1.03471E+01  5.81000E+00  5.71874E+00  8.59421E+00  5.53189E+00  5.16873E+00  4.23603E+00  6.05216E+00  4.70354E+00
   2.56675E+00  5.10037E+00  3.28438E+00  4.24945E+00  2.65134E+00  2.54036E+00  1.25834E+00  2.07313E+00  2.49187E+00  6.50830E+00
   2.41845E+00  1.41481E+00  3.00312E+00  2.78982E+00  1.76650E+00  7.86101E+00  1.17246E+00  2.40117E+00 -1.78406E-01  3.56736E+00
   4.89459E+00  4.58339E+00  4.43911E+00  7.31937E+00  9.13481E+00  6.18699E+00  1.29432E+01  9.82702E+00  4.82000E+00  6.46735E+00
   4.25365E+00  4.77222E+00  9.31138E+00  3.84112E+00  8.44360E+00  1.15521E+01  1.34958E+01  1.37517E+01  8.38323E+00  1.22528E+01
   1.20275E+01  1.05667E+01  1.09678E+01  1.45162E+01  1.55749E+01  8.41885E+00  1.33141E+01  1.26112E+01  1.24845E+01  1.21136E+01
   1.37512E+01  1.32325E+01  1.40012E+01  1.33719E+01  1.45454E+01  1.67057E+01  1.87075E+01  1.81114E+01  1.85494E+01  2.02726E+01
   2.10935E+01  1.93156E+01  1.88251E+01  1.85354E+01  2.03758E+01  1.91615E+01  2.03466E+01  1.97925E+01  2.00692E+01  1.58849E+01
   2.13076E+01  1.99221E+01  2.16757E+01  2.18809E+01  2.29010E+01  2.01342E+01  1.97767E+01  2.26488E+01  1.82474E+01  1.96160E+01
   1.87348E+01  1.93172E+01  1.84811E+01  2.15292E+01  2.21483E+01  2.06867E+01  1.94073E+01  2.02498E+01  2.10035E+01  2.27857E+01
   1.90285E+01  2.02707E+01  1.84349E+01  1.79661E+01  1.31846E+01  1.95438E+01  1.57274E+01  1.65357E+01  1.98527E+01  1.80191E+01
   1.48794E+01  1.72396E+01  1.57495E+01  1.69834E+01  1.79565E+01  1.80593E+01  1.50769E+01  1.66290E+01  1.82945E+01  1.99663E+01
   1.99208E+01  1.96971E+01  1.99372E+01  2.09787E+01  1.96639E+01  2.05852E+01  2.28181E+01  2.07260E+01  2.02608E+01  2.01756E+01
   2.17633E+01  2.63974E+01  2.12527E+01  2.44499E+01  2.45764E+01  2.75999E+01  2.41328E+01  2.51393E+01  2.50040E+01  2.47195E+01
   2.59002E+01  2.70913E+01  2.70934E+01  2.49420E+01  2.50704E+01  2.56550E+01  2.52842E+01  2.28169E+01  2.47574E+01  2.50774E+01
   2.31223E+01  2.18144E+01  2.23388E+01  2.36105E+01  2.44520E+01  2.32448E+01  2.20387E+01  2.23940E+01  1.91188E+01  2.05131E+01
   2.10050E+01  1.80859E+01  2.38110E+01  1.82684E+01  2.18855E+01  2.29189E+01  1.87716E+01  1.83849E+01  2.08064E+01  1.78598E+01
   2.49413E+01  1.96043E+01  1.85689E+01  1.89122E+01  1.78359E+01  1.96583E+01  1.85948E+01  2.07479E+01  2.28176E+01  1.92451E+01
   1.74810E+01  2.22826E+01  2.18186E+01  2.14449E+01  1.90143E+01  2.02058E+01  1.83028E+01  1.84087E+01  1.94333E+01  2.02619E+01
   1.93022E+01  2.04430E+01  2.10685E+01  2.05849E+01  2.01191E+01  1.83729E+01  1.78519E+01  1.70876E+01  2.25045E+01  1.84350E+01
   1.82260E+01  1.83318E+01  2.12573E+01  1.83123E+01  2.20724E+01  1.90914E+01  1.81900E+01  2.07896E+01  2.15249E+01  1.92338E+01
   1.98405E+01  1.68559E+01  1.98577E+01  1.89706E+01  1.68078E+01  1.93581E+01  1.98524E+01  1.73338E+01  1.99293E+01  1.69680E+01
   2.27806E+01  1.72605E+01  1.97194E+01  1.83249E+01  1.41756E+01  1.65058E+01  1.68159E+01  2.04259E+01
 NY points of the fit to the data follow
  -9.03190E+01 -8.76820E+01 -8.48908E+01 -8.19888E+01 -7.90225E+01 -7.62026E+01 -7.39061E+01 -7.23850E+01 -7.17958E+01 -7.22215E+01
  -7.35610E+01 -7.55754E+01 -7.79597E+01 -8.04154E+01 -8.27482E+01 -8.49109E+01 -8.69284E+01 -8.88219E+01 -9.05559E+01 -9.18650E+01
  -9.21103E+01 -9.10657E+01 -8.93822E+01 -8.75932E+01 -8.57362E+01 -8.37592E+01 -8.16325E+01 -7.94478E+01 -7.73458E+01 -7.54661E+01
  -7.39400E+01 -7.29232E+01 -7.24827E+01 -7.25542E+01 -7.29362E+01 -7.32402E+01 -7.31703E+01 -7.27632E+01 -7.22413E+01 -7.17387E+01
  -7.12592E+01 -7.07707E+01 -7.02308E+01 -6.95264E+01 -6.85889E+01 -6.77646E+01 -6.73239E+01 -6.72517E+01 -6.74518E+01 -6.78037E+01
  -6.82038E+01 -6.86123E+01 -6.89448E+01 -6.91178E+01 -6.91179E+01 -6.89874E+01 -6.87848E+01 -6.85456E+01 -6.82445E+01 -6.77582E+01
  -6.70712E+01 -6.63542E+01 -6.57289E+01 -6.51852E+01 -6.46339E+01 -6.39949E+01 -6.32840E+01 -6.25545E+01 -6.18638E+01 -6.12734E+01
  -6.07845E+01 -6.03170E+01 -5.98335E+01 -5.93474E+01 -5.89105E+01 -5.85117E+01 -5.77832E+01 -5.66864E+01 -5.54817E+01 -5.42716E+01
  -5.30374E+01 -5.17112E+01 -5.02726E+01 -4.87743E+01 -4.72824E+01 -4.59542E+01 -4.49432E+01 -4.43037E+01 -4.38777E+01 -4.30905E+01
  -4.12344E+01 -3.87180E+01 -3.60248E+01 -3.30822E+01 -2.94079E+01 -2.51146E+01 -2.06031E+01 -1.61913E+01 -1.21476E+01 -8.66595E+00
  -5.85175E+00 -4.11237E+00 -3.78758E+00 -4.87623E+00 -7.19708E+00 -1.04603E+01 -1.43295E+01 -1.85010E+01 -2.27379E+01 -2.69305E+01
  -3.09977E+01 -3.47830E+01 -3.79991E+01 -4.01255E+01 -4.05175E+01 -3.86921E+01 -3.51176E+01 -3.05850E+01 -2.54544E+01 -2.00776E+01
  -1.45676E+01 -8.98580E+00 -3.51371E+00  1.54964E+00  5.75240E+00  8.53267E+00  9.46948E+00  8.44693E+00  5.66166E+00  1.57350E+00
  -3.25248E+00 -8.26652E+00 -1.30557E+01 -1.74766E+01 -2.15739E+01 -2.54401E+01 -2.90858E+01 -3.23202E+01 -3.46010E+01 -3.53906E+01
  -3.52861E+01 -3.49324E+01 -3.45355E+01 -3.41898E+01 -3.39389E+01 -3.37794E+01 -3.36546E+01 -3.34939E+01 -3.32959E+01 -3.31443E+01
  -3.31179E+01 -3.32065E+01 -3.33532E+01 -3.34665E+01 -3.34710E+01 -3.33917E+01 -3.32761E+01 -3.31661E+01 -3.30635E+01 -3.29579E+01
  -3.28418E+01 -3.27110E+01 -3.25682E+01 -3.24279E+01 -3.23282E+01 -3.23275E+01 -3.24184E+01 -3.25231E+01 -3.26072E+01 -3.26732E+01
  -3.27497E+01 -3.28142E+01 -3.28253E+01 -3.27880E+01 -3.27352E+01 -3.26859E+01 -3.26443E+01 -3.25267E+01 -3.22598E+01 -3.18675E+01
  -3.13513E+01 -3.06913E+01 -2.98892E+01 -2.89798E+01 -2.79860E+01 -2.69081E+01 -2.57449E+01 -2.46007E+01 -2.35793E+01 -2.26665E+01
  -2.18023E+01 -2.09758E+01 -2.02310E+01 -1.95843E+01 -1.90590E+01 -1.86188E+01 -1.82043E+01 -1.77753E+01 -1.73374E+01 -1.69456E+01
  -1.65766E+01 -1.61990E+01 -1.58893E+01 -1.56849E+01 -1.55680E+01 -1.55171E+01 -1.55112E+01 -1.55247E+01 -1.55061E+01 -1.54024E+01
  -1.51939E+01 -1.49325E+01 -1.46226E+01 -1.42080E+01 -1.36834E+01 -1.30794E+01 -1.24091E+01 -1.16813E+01 -1.09356E+01 -1.02074E+01
  -9.52867E+00 -8.95910E+00 -8.53861E+00 -8.22198E+00 -7.93972E+00 -7.69540E+00 -7.47042E+00 -7.16740E+00 -6.74611E+00 -6.27997E+00
  -5.81444E+00 -5.37142E+00 -4.94791E+00 -4.52597E+00 -4.10961E+00 -3.68349E+00 -3.23213E+00 -2.79344E+00 -2.42276E+00 -2.13530E+00
  -1.89340E+00 -1.64057E+00 -1.32090E+00 -8.83546E-01 -3.08644E-01  3.81988E-01  1.17805E+00  2.11887E+00  3.49436E+00  6.68329E+00
   1.21194E+01  1.85432E+01  2.51028E+01  3.15533E+01  3.79825E+01  4.43961E+01  5.06222E+01  5.63130E+01  6.09488E+01  6.39915E+01
   6.49896E+01  6.37059E+01  6.02627E+01  5.51067E+01  4.88657E+01  4.22075E+01  3.57021E+01  2.96815E+01  2.41919E+01  1.91034E+01
   1.42911E+01  9.80636E+00  6.13086E+00  4.14896E+00  3.53261E+00  3.26801E+00  3.10740E+00  3.00060E+00  2.92951E+00  2.88537E+00
   2.86393E+00  2.86198E+00  2.87738E+00  2.90849E+00  2.95450E+00  3.01443E+00  3.08750E+00  3.17266E+00  3.26896E+00  3.37554E+00
   3.49184E+00  3.61703E+00  3.75042E+00  3.89112E+00  4.03858E+00  4.19233E+00  4.35224E+00  4.51799E+00  4.68950E+00  4.86667E+00
   5.04984E+00  5.23932E+00  5.43568E+00  5.63933E+00  5.85094E+00  6.07127E+00  6.30160E+00  6.54332E+00  6.79833E+00  7.06859E+00
   7.35686E+00  7.66680E+00  8.00392E+00  8.37659E+00  8.80035E+00  9.31118E+00  9.96197E+00  1.06547E+01  1.12617E+01  1.17588E+01
   1.21622E+01  1.24774E+01  1.26785E+01  1.27264E+01  1.26990E+01  1.26961E+01  1.26962E+01  1.26683E+01  1.26274E+01  1.26349E+01
   1.27643E+01  1.30737E+01  1.35911E+01  1.43003E+01  1.51423E+01  1.60330E+01  1.68929E+01  1.76617E+01  1.83152E+01  1.88796E+01
   1.93847E+01  1.97726E+01  2.00241E+01  2.01786E+01  2.02631E+01  2.02807E+01  2.02189E+01  2.00926E+01  1.99990E+01  1.99922E+01
   2.00355E+01  2.01083E+01  2.02006E+01  2.03027E+01  2.04036E+01  2.04910E+01  2.05544E+01  2.05864E+01  2.05844E+01  2.05505E+01
   2.04886E+01  2.03959E+01  2.02707E+01  2.01179E+01  1.99421E+01  1.97465E+01  1.95346E+01  1.93129E+01  1.90940E+01  1.88838E+01
   1.86827E+01  1.84922E+01  1.83148E+01  1.81528E+01  1.80082E+01  1.78827E+01  1.77778E+01  1.76946E+01  1.76341E+01  1.75970E+01
   1.75841E+01  1.75960E+01  1.76333E+01  1.76966E+01  1.77868E+01  1.79046E+01  1.80509E+01  1.82266E+01  1.84328E+01  1.86702E+01
   1.89396E+01  1.92414E+01  1.95755E+01  1.99411E+01  2.03369E+01  2.07604E+01  2.12084E+01  2.16762E+01  2.21581E+01  2.26471E+01
   2.31354E+01  2.36141E+01  2.40740E+01  2.45053E+01  2.48984E+01  2.52442E+01  2.55347E+01  2.57632E+01  2.59245E+01  2.60155E+01
   2.60351E+01  2.59845E+01  2.58670E+01  2.56876E+01  2.54532E+01  2.51716E+01  2.48519E+01  2.45033E+01  2.41354E+01  2.37571E+01
   2.33767E+01  2.30016E+01  2.26381E+01  2.22915E+01  2.19656E+01  2.16631E+01  2.13857E+01  2.11340E+01  2.09079E+01  2.07068E+01
   2.05293E+01  2.03739E+01  2.02388E+01  2.01219E+01  2.00216E+01  1.99359E+01  1.98630E+01  1.98012E+01  1.97492E+01  1.97054E+01
   1.96688E+01  1.96382E+01  1.96128E+01  1.95916E+01  1.95741E+01  1.95595E+01  1.95475E+01  1.95374E+01  1.95289E+01  1.95217E+01
   1.95154E+01  1.95098E+01  1.95046E+01  1.94997E+01  1.94950E+01  1.94902E+01  1.94853E+01  1.94803E+01  1.94750E+01  1.94695E+01
   1.94636E+01  1.94573E+01  1.94507E+01  1.94436E+01  1.94361E+01  1.94282E+01  1.94197E+01  1.94108E+01  1.94015E+01  1.93916E+01
   1.93814E+01  1.93707E+01  1.93595E+01  1.93479E+01  1.93359E+01  1.93236E+01  1.93109E+01  1.92978E+01  1.92843E+01  1.92706E+01
   1.92566E+01  1.92423E+01  1.92279E+01  1.92131E+01  1.91982E+01  1.91832E+01  1.91681E+01  1.91528E+01  1.91375E+01  1.91221E+01
   1.91068E+01  1.90915E+01  1.90763E+01  1.90612E+01  1.90462E+01  1.90314E+01  1.90168E+01  1.90026E+01
 NY background values follow
    -1.115E+02   -1.109E+02   -1.103E+02   -1.097E+02   -1.091E+02   -1.085E+02   -1.079E+02   -1.073E+02   -1.067E+02   -1.061E+02
    -1.055E+02   -1.049E+02   -1.043E+02   -1.037E+02   -1.031E+02   -1.026E+02   -1.020E+02   -1.014E+02   -1.008E+02   -1.002E+02
    -9.956E+01   -9.897E+01   -9.837E+01   -9.777E+01   -9.718E+01   -9.659E+01   -9.599E+01   -9.540E+01   -9.481E+01   -9.421E+01
    -9.362E+01   -9.303E+01   -9.244E+01   -9.185E+01   -9.126E+01   -9.068E+01   -9.009E+01   -8.950E+01   -8.892E+01   -8.833E+01
    -8.775E+01   -8.717E+01   -8.659E+01   -8.601E+01   -8.543E+01   -8.485E+01   -8.427E+01   -8.370E+01   -8.312E+01   -8.255E+01
    -8.197E+01   -8.140E+01   -8.083E+01   -8.026E+01   -7.970E+01   -7.913E+01   -7.857E+01   -7.800E+01   -7.744E+01   -7.688E+01
    -7.632E+01   -7.577E+01   -7.521E+01   -7.466E+01   -7.411E+01   -7.356E+01   -7.301E+01   -7.246E+01   -7.192E+01   -7.138E+01
    -7.084E+01   -7.030E+01   -6.976E+01   -6.923E+01   -6.870E+01   -6.817E+01   -6.764E+01   -6.712E+01   -6.660E+01   -6.608E+01
    -6.556E+01   -6.504E+01   -6.453E+01   -6.402E+01   -6.351E+01   -6.301E+01   -6.250E+01   -6.200E+01   -6.151E+01   -6.101E+01
    -6.052E+01   -6.003E+01   -5.955E+01   -5.906E+01   -5.858E+01   -5.811E+01   -5.763E+01   -5.716E+01   -5.669E+01   -5.622E+01
    -5.576E+01   -5.530E+01   -5.484E+01   -5.439E+01   -5.394E+01   -5.349E+01   -5.304E+01   -5.259E+01   -5.215E+01   -5.172E+01
    -5.128E+01   -5.085E+01   -5.042E+01   -4.999E+01   -4.956E+01   -4.914E+01   -4.872E+01   -4.831E+01   -4.789E+01   -4.748E+01
    -4.707E+01   -4.666E+01   -4.626E+01   -4.586E+01   -4.546E+01   -4.507E+01   -4.467E+01   -4.428E+01   -4.390E+01   -4.351E+01
    -4.313E+01   -4.275E+01   -4.237E+01   -4.200E+01   -4.163E+01   -4.126E+01   -4.089E+01   -4.053E+01   -4.017E+01   -3.981E+01
    -3.945E+01   -3.909E+01   -3.874E+01   -3.839E+01   -3.804E+01   -3.770E+01   -3.735E+01   -3.701E+01   -3.667E+01   -3.633E+01
    -3.600E+01   -3.566E+01   -3.533E+01   -3.500E+01   -3.467E+01   -3.434E+01   -3.401E+01   -3.368E+01   -3.336E+01   -3.303E+01
    -3.271E+01   -3.239E+01   -3.207E+01   -3.174E+01   -3.142E+01   -3.111E+01   -3.079E+01   -3.047E+01   -3.015E+01   -2.984E+01
    -2.952E+01   -2.920E+01   -2.889E+01   -2.857E+01   -2.826E+01   -2.794E+01   -2.763E+01   -2.731E+01   -2.699E+01   -2.668E+01
    -2.636E+01   -2.605E+01   -2.573E+01   -2.541E+01   -2.510E+01   -2.478E+01   -2.446E+01   -2.414E+01   -2.383E+01   -2.351E+01
    -2.319E+01   -2.287E+01   -2.256E+01   -2.224E+01   -2.192E+01   -2.161E+01   -2.129E+01   -2.098E+01   -2.066E+01   -2.035E+01
    -2.004E+01   -1.972E+01   -1.941E+01   -1.910E+01   -1.879E+01   -1.848E+01   -1.818E+01   -1.787E+01   -1.757E+01   -1.726E+01
    -1.696E+01   -1.666E+01   -1.636E+01   -1.606E+01   -1.576E+01   -1.547E+01   -1.517E+01   -1.488E+01   -1.459E+01   -1.430E+01
    -1.402E+01   -1.373E+01   -1.345E+01   -1.317E+01   -1.289E+01   -1.261E+01   -1.234E+01   -1.207E+01   -1.180E+01   -1.153E+01
    -1.127E+01   -1.100E+01   -1.074E+01   -1.048E+01   -1.023E+01   -9.973E+00   -9.721E+00   -9.471E+00   -9.222E+00   -8.976E+00
    -8.731E+00   -8.488E+00   -8.248E+00   -8.009E+00   -7.771E+00   -7.536E+00   -7.302E+00   -7.070E+00   -6.840E+00   -6.612E+00
    -6.385E+00   -6.159E+00   -5.936E+00   -5.713E+00   -5.493E+00   -5.274E+00   -5.056E+00   -4.840E+00   -4.625E+00   -4.411E+00
    -4.199E+00   -3.988E+00   -3.779E+00   -3.571E+00   -3.364E+00   -3.158E+00   -2.953E+00   -2.750E+00   -2.547E+00   -2.346E+00
    -2.146E+00   -1.947E+00   -1.749E+00   -1.552E+00   -1.356E+00   -1.161E+00   -9.666E-01   -7.736E-01   -5.816E-01   -3.906E-01
    -2.005E-01   -1.153E-02    1.765E-01    3.635E-01    5.495E-01    7.345E-01    9.185E-01    1.102E+00    1.284E+00    1.465E+00
     1.645E+00    1.824E+00    2.002E+00    2.179E+00    2.355E+00    2.530E+00    2.704E+00    2.877E+00    3.049E+00    3.220E+00
     3.390E+00    3.559E+00    3.727E+00    3.894E+00    4.061E+00    4.226E+00    4.390E+00    4.553E+00    4.715E+00    4.877E+00
     5.037E+00    5.196E+00    5.355E+00    5.512E+00    5.668E+00    5.824E+00    5.978E+00    6.132E+00    6.284E+00    6.436E+00
     6.586E+00    6.736E+00    6.884E+00    7.032E+00    7.179E+00    7.325E+00    7.470E+00    7.613E+00    7.757E+00    7.899E+00
     8.040E+00    8.180E+00    8.319E+00    8.458E+00    8.595E+00    8.732E+00    8.868E+00    9.002E+00    9.136E+00    9.269E+00
     9.402E+00    9.533E+00    9.663E+00    9.793E+00    9.922E+00    1.005E+01    1.018E+01    1.030E+01    1.043E+01    1.055E+01
     1.068E+01    1.080E+01    1.092E+01    1.104E+01    1.116E+01    1.128E+01    1.140E+01    1.152E+01    1.163E+01    1.175E+01
     1.187E+01    1.198E+01    1.209E+01    1.221E+01    1.232E+01    1.243E+01    1.254E+01    1.265E+01    1.276E+01    1.287E+01
     1.298E+01    1.308E+01    1.319E+01    1.329E+01    1.340E+01    1.350E+01    1.360E+01    1.370E+01    1.380E+01    1.390E+01
     1.400E+01    1.410E+01    1.420E+01    1.430E+01    1.439E+01    1.449E+01    1.458E+01    1.467E+01    1.477E+01    1.486E+01
     1.495E+01    1.504E+01    1.513E+01    1.522E+01    1.530E+01    1.539E+01    1.548E+01    1.556E+01    1.565E+01    1.573E+01
     1.581E+01    1.589E+01    1.597E+01    1.605E+01    1.613E+01    1.621E+01    1.629E+01    1.636E+01    1.644E+01    1.651E+01
     1.658E+01    1.666E+01    1.673E+01    1.680E+01    1.687E+01    1.694E+01    1.700E+01    1.707E+01    1.714E+01    1.720E+01
     1.726E+01    1.733E+01    1.739E+01    1.745E+01    1.751E+01    1.756E+01    1.762E+01    1.768E+01    1.773E+01    1.778E+01
     1.784E+01    1.789E+01    1.794E+01    1.798E+01    1.803E+01    1.808E+01    1.812E+01    1.816E+01    1.821E+01    1.825E+01
     1.829E+01    1.832E+01    1.836E+01    1.839E+01    1.843E+01    1.846E+01    1.849E+01    1.852E+01    1.855E+01    1.857E+01
     1.860E+01    1.862E+01    1.864E+01    1.866E+01    1.868E+01    1.870E+01    1.872E+01    1.873E+01    1.874E+01    1.876E+01
     1.877E+01    1.878E+01    1.878E+01    1.879E+01    1.880E+01    1.880E+01    1.881E+01    1.881E+01    1.881E+01    1.881E+01
     1.881E+01    1.881E+01    1.881E+01    1.880E+01    1.880E+01    1.880E+01    1.879E+01    1.879E+01    1.878E+01    1.878E+01
     1.877E+01    1.876E+01    1.875E+01    1.874E+01    1.874E+01    1.873E+01    1.872E+01    1.871E+01    1.870E+01    1.869E+01
     1.868E+01    1.867E+01    1.866E+01    1.865E+01    1.864E+01    1.863E+01    1.862E+01    1.860E+01
 Ala      Conc. = 5.07E+02
