 LCModel (Version 6.3-1L) Copyright: S.W. Provencher.          Ref.: Magn. Reson. Med. 30:672-679 (1993).                
 Slice#1 Row#3 Col#11  K_02_press_1_raw_act
 36 lines in following concentration table = NCONC+1
    Conc.  %SD /Cr+PCr  Metabolite                                         
   36.920 363% 6.0E-02 Ala                                                 
   29.207 491% 4.8E-02 Asp                                                 
  156.960 136%   0.257 Cr                                                  
  453.691  49%   0.743 PCr                                                 
    0.000 999%   0.000 GABA                                                
   12.375 710% 2.0E-02 Glc                                                 
    0.000 999%   0.000 Gln                                                 
  535.743  58%   0.877 Glu                                                 
    0.000 999%   0.000 GPC                                                 
   85.857  31%   0.141 PCh                                                 
    0.000 999%   0.000 GSH                                                 
  777.344  40%   1.273 Ins                                                 
   96.391 153%   0.158 Lac                                                 
    0.000 999%   0.000 NAA                                                 
  303.588  30%   0.497 NAAG                                                
    0.000 999%   0.000 Scyllo                                              
    0.000 999%   0.000 Tau                                                 
  614.377  21%   1.006 -CrCH2                                              
   85.857  31%   0.141 GPC+PCh                                             
  303.588  30%   0.497 NAA+NAAG                                            
  610.650  19%   1.000 Cr+PCr                                              
  535.743  58%   0.877 Glu+Gln                                             
 1.86E+04  13%  30.463 Lip13a                                              
    0.000 999%   0.000 Lip13b                                              
 3.60E+03  23%   5.890 Lip09                                               
    0.000 999%   0.000 MM09                                                
 5.63E+03  12%   9.212 Lip20                                               
  729.052 102%   1.194 MM20                                                
    0.000 999%   0.000 MM12                                                
 1.17E+04  11%  19.156 MM14                                                
    0.000 999%   0.000 MM17                                                
 1.86E+04  13%  30.463 Lip13a+Lip13b                                       
 3.03E+04   7%  49.620 MM14+Lip13a+Lip13b+MM12                             
 3.60E+03  23%   5.890 MM09+Lip09                                          
 6.35E+03   8%  10.406 MM20+Lip20                                          
   6 lines in following misc. output table
  FWHM = 0.076 ppm    S/N =  10                                            
  Data shift = 0.099 ppm                                                   
  Ph: -69 deg     123.4 deg/ppm                                            
  alphaB,S = 3.1E-01,   1.2E+01                                            
   14 spline knots.   Ns =11(1)                                            
  (18) 3 infls.   (17) 2 extrs.                                            
  498 points on ppm-axis = NY
      4.000000     3.992357     3.984714     3.977070     3.969427     3.961784     3.954141     3.946497     3.938854     3.931211
      3.923568     3.915925     3.908281     3.900638     3.892995     3.885352     3.877708     3.870065     3.862422     3.854779
      3.847136     3.839492     3.831849     3.824206     3.816563     3.808919     3.801276     3.793633     3.785990     3.778347
      3.770703     3.763060     3.755417     3.747774     3.740130     3.732487     3.724844     3.717201     3.709558     3.701914
      3.694271     3.686628     3.678985     3.671341     3.663698     3.656055     3.648412     3.640769     3.633125     3.625482
      3.617839     3.610196     3.602552     3.594909     3.587266     3.579623     3.571980     3.564336     3.556693     3.549050
      3.541407     3.533763     3.526120     3.518477     3.510834     3.503191     3.495547     3.487904     3.480261     3.472618
      3.464974     3.457331     3.449688     3.442045     3.434402     3.426758     3.419115     3.411472     3.403829     3.396185
      3.388542     3.380899     3.373256     3.365613     3.357969     3.350326     3.342683     3.335040     3.327396     3.319753
      3.312110     3.304467     3.296824     3.289180     3.281537     3.273894     3.266251     3.258607     3.250964     3.243321
      3.235678     3.228034     3.220391     3.212748     3.205105     3.197462     3.189818     3.182175     3.174532     3.166889
      3.159245     3.151602     3.143959     3.136316     3.128673     3.121029     3.113386     3.105743     3.098100     3.090456
      3.082813     3.075170     3.067527     3.059884     3.052240     3.044597     3.036954     3.029311     3.021667     3.014024
      3.006381     2.998738     2.991095     2.983451     2.975808     2.968165     2.960522     2.952878     2.945235     2.937592
      2.929949     2.922306     2.914662     2.907019     2.899376     2.891733     2.884089     2.876446     2.868803     2.861160
      2.853517     2.845873     2.838230     2.830587     2.822944     2.815300     2.807657     2.800014     2.792371     2.784728
      2.777084     2.769441     2.761798     2.754155     2.746511     2.738868     2.731225     2.723582     2.715939     2.708295
      2.700652     2.693009     2.685366     2.677722     2.670079     2.662436     2.654793     2.647150     2.639506     2.631863
      2.624220     2.616577     2.608933     2.601290     2.593647     2.586004     2.578361     2.570717     2.563074     2.555431
      2.547788     2.540144     2.532501     2.524858     2.517215     2.509572     2.501928     2.494285     2.486642     2.478999
      2.471355     2.463712     2.456069     2.448426     2.440783     2.433139     2.425496     2.417853     2.410210     2.402566
      2.394923     2.387280     2.379637     2.371994     2.364350     2.356707     2.349064     2.341421     2.333777     2.326134
      2.318491     2.310848     2.303205     2.295561     2.287918     2.280275     2.272632     2.264988     2.257345     2.249702
      2.242059     2.234416     2.226772     2.219129     2.211486     2.203843     2.196199     2.188556     2.180913     2.173270
      2.165627     2.157983     2.150340     2.142697     2.135054     2.127410     2.119767     2.112124     2.104481     2.096838
      2.089194     2.081551     2.073908     2.066265     2.058621     2.050978     2.043335     2.035692     2.028049     2.020405
      2.012762     2.005119     1.997476     1.989833     1.982190     1.974546     1.966903     1.959260     1.951617     1.943974
      1.936331     1.928688     1.921045     1.913402     1.905759     1.898115     1.890472     1.882829     1.875186     1.867543
      1.859900     1.852257     1.844614     1.836971     1.829327     1.821684     1.814041     1.806398     1.798755     1.791112
      1.783469     1.775826     1.768183     1.760540     1.752896     1.745253     1.737610     1.729967     1.722324     1.714681
      1.707038     1.699395     1.691752     1.684108     1.676465     1.668822     1.661179     1.653536     1.645893     1.638250
      1.630607     1.622964     1.615321     1.607677     1.600034     1.592391     1.584748     1.577105     1.569462     1.561819
      1.554176     1.546533     1.538890     1.531246     1.523603     1.515960     1.508317     1.500674     1.493031     1.485388
      1.477745     1.470102     1.462458     1.454815     1.447172     1.439529     1.431886     1.424243     1.416600     1.408957
      1.401314     1.393671     1.386027     1.378384     1.370741     1.363098     1.355455     1.347812     1.340169     1.332526
      1.324883     1.317240     1.309596     1.301953     1.294310     1.286667     1.279024     1.271381     1.263738     1.256095
      1.248452     1.240808     1.233165     1.225522     1.217879     1.210236     1.202593     1.194950     1.187307     1.179664
      1.172021     1.164377     1.156734     1.149091     1.141448     1.133805     1.126162     1.118519     1.110876     1.103233
      1.095590     1.087946     1.080303     1.072660     1.065017     1.057374     1.049731     1.042088     1.034445     1.026802
      1.019158     1.011515     1.003872     0.996229     0.988586     0.980943     0.973300     0.965657     0.958014     0.950371
      0.942727     0.935084     0.927441     0.919798     0.912155     0.904512     0.896869     0.889226     0.881583     0.873940
      0.866296     0.858653     0.851010     0.843367     0.835724     0.828081     0.820438     0.812795     0.805152     0.797508
      0.789865     0.782222     0.774579     0.766936     0.759293     0.751650     0.744007     0.736364     0.728721     0.721077
      0.713434     0.705791     0.698148     0.690505     0.682862     0.675219     0.667576     0.659933     0.652290     0.644646
      0.637003     0.629360     0.621717     0.614074     0.606431     0.598788     0.591145     0.583502     0.575858     0.568215
      0.560572     0.552929     0.545286     0.537643     0.530000     0.522357     0.514714     0.507071     0.499427     0.491784
      0.484141     0.476498     0.468855     0.461212     0.453569     0.445925     0.438282     0.430639     0.422996     0.415353
      0.407710     0.400067     0.392424     0.384780     0.377137     0.369494     0.361851     0.354208     0.346565     0.338922
      0.331278     0.323635     0.315992     0.308349     0.300706     0.293063     0.285420     0.277777     0.270133     0.262490
      0.254847     0.247204     0.239561     0.231918     0.224275     0.216631     0.208988     0.201345
 NY phased data points follow
  -7.43228E+00 -7.10929E+00 -4.96950E+00 -8.82334E+00 -8.65800E+00 -8.28112E+00 -7.65949E+00 -6.27688E+00 -1.05714E+01 -9.84854E+00
  -7.29080E+00 -6.79695E+00 -4.12134E+00 -4.89559E+00 -1.67045E+00 -2.91487E+00 -2.72421E+00 -3.42653E+00 -1.38080E+00 -3.39962E+00
  -2.89954E+00 -2.67409E+00 -4.53423E+00 -4.46570E+00 -9.59976E+00 -1.43903E+00 -3.18104E+00 -2.39495E+00 -7.13601E+00 -4.57560E+00
  -7.64379E+00 -3.20885E+00 -4.48135E+00 -2.80367E+00 -6.21419E-01 -5.17389E+00 -4.74690E+00 -6.87527E+00 -6.76734E+00 -6.89174E+00
  -4.22606E+00 -6.20887E+00 -5.51569E+00 -4.47361E+00 -3.05822E-01  8.78336E-01 -4.27024E+00 -1.05315E+00  1.10725E+00 -8.02220E-01
  -2.87916E-01 -1.51417E+00 -2.22147E+00 -4.79995E+00  2.05304E+00  2.69661E+00  8.34131E-01  1.45176E+00  3.46305E+00  2.17035E+00
   3.31892E+00  3.91226E+00  2.77639E+00  9.81076E-01  7.06159E-01  1.31484E+00  2.94641E+00 -2.23321E+00  2.97829E-02 -3.42741E+00
   4.95588E-01 -3.95671E+00 -2.15355E+00 -1.17936E+00  1.08506E+00 -1.48955E+00 -3.07335E+00 -5.29321E+00 -8.04893E-01 -5.91935E+00
  -5.52255E+00 -6.40294E-01  1.16688E-01 -2.07089E+00 -4.31279E+00 -2.50170E+00 -7.40907E+00 -5.38399E+00 -4.99231E+00 -2.68155E+00
  -3.29882E+00 -7.54080E+00 -2.16000E+00 -3.32734E+00 -1.09373E+01 -9.40706E+00 -8.97103E+00 -3.46223E+00 -4.34265E+00 -6.17840E-01
   7.11219E-01  5.77514E+00  2.11550E+00  4.05443E+00  7.01933E+00  2.86295E+00  1.14225E+01  6.74065E+00  8.75906E+00  9.53168E+00
   5.07448E+00  2.62319E+00  6.93274E+00  7.90406E+00  8.20185E+00  7.88001E+00  8.93711E+00 -1.14476E-01 -5.39417E-01 -1.64280E+00
   1.45765E+00  4.44858E+00  7.87542E+00  5.24207E+00  1.21332E+01  1.36930E+01  1.53080E+01  1.86133E+01  2.10883E+01  1.69513E+01
   1.75017E+01  2.07153E+01  1.92891E+01  1.80778E+01  1.66876E+01  1.89786E+01  9.45716E+00  1.59174E+01  1.05730E+01  1.04102E+01
   1.14946E+01  1.27500E+01  1.16395E+01  1.16250E+01  1.11763E+01  7.93851E+00  1.34450E+01  8.75912E+00  6.60752E+00  9.07280E+00
   7.38124E+00  8.19911E+00  6.82889E+00  1.11203E+01  5.12816E+00  6.27123E+00  7.49743E+00  6.41507E+00  6.83168E+00  7.04910E+00
   6.07674E+00  2.21885E+00  5.76037E+00  8.87233E-01  1.44154E+00  2.45860E+00  9.23842E-01 -3.13130E-01  1.32748E+00 -4.89696E+00
  -1.10300E+00 -3.25010E+00 -2.22440E+00 -7.14575E+00 -4.65719E+00 -7.19879E+00 -7.19242E+00 -4.37052E+00 -4.97212E+00 -8.67348E+00
  -7.51590E+00 -4.27153E+00 -1.06888E+01 -1.14127E+01 -5.69331E+00 -7.84564E+00 -9.41990E+00 -5.47743E+00 -8.36828E+00 -3.89215E+00
  -5.11390E+00 -9.29859E+00 -6.32622E+00 -1.03436E+01 -1.20725E+01 -1.23256E+01 -7.92344E+00 -9.22668E+00 -9.84578E+00 -1.22343E+01
  -7.87107E+00 -1.00950E+01 -1.03261E+01 -7.92122E+00 -9.25226E+00 -7.80039E+00 -6.56774E+00 -1.45285E+01 -9.15810E+00 -7.70813E+00
  -6.62676E+00 -4.16907E+00 -3.81645E+00 -6.97979E+00 -3.90142E+00 -7.36269E+00 -3.85182E+00 -7.00106E+00 -5.91941E+00 -7.99617E+00
  -7.34928E+00 -6.04778E+00 -6.38632E+00 -9.22898E+00 -6.89107E+00 -6.53275E+00 -1.21978E+01 -8.06177E+00 -7.74681E+00 -6.34587E+00
  -3.01900E+00 -3.29768E+00 -7.27548E+00 -7.92004E+00 -4.04433E+00 -2.67762E+00 -4.59960E+00 -9.46199E+00 -4.45999E+00 -3.28551E+00
  -1.54515E-01 -6.77555E+00 -1.60216E+00 -6.97805E-01  1.69527E+00  4.60168E+00  7.81245E+00 -4.93440E-01 -7.31944E-01 -3.95772E+00
   1.31181E+00  2.74310E+00  8.89636E+00  1.12043E+01  9.67460E+00  1.20061E+01  1.38819E+01  1.39802E+01  7.54530E+00  6.23820E+00
   3.45890E+00  1.52791E+00 -3.73384E+00 -5.74598E+00 -1.38246E+01 -1.63506E+01 -1.72889E+01 -1.93976E+01 -2.02293E+01 -2.69829E+01
  -2.96545E+01 -2.63798E+01 -2.84177E+01 -2.84006E+01 -2.78012E+01 -3.01242E+01 -3.26331E+01 -2.99125E+01 -3.54344E+01 -2.85435E+01
  -3.10585E+01 -3.04723E+01 -2.74515E+01 -3.12075E+01 -3.35097E+01 -3.18501E+01 -2.68283E+01 -3.42485E+01 -2.99685E+01 -3.27107E+01
  -2.92177E+01 -2.98684E+01 -2.80755E+01 -3.43286E+01 -3.52679E+01 -2.86669E+01 -3.01154E+01 -3.33422E+01 -2.70648E+01 -2.96709E+01
  -3.02342E+01 -2.98053E+01 -3.41108E+01 -3.44098E+01 -3.05736E+01 -2.94174E+01 -3.48027E+01 -3.11388E+01 -3.17016E+01 -2.97646E+01
  -2.74491E+01 -2.57044E+01 -2.10921E+01 -2.40119E+01 -1.95554E+01 -1.71245E+01 -1.18509E+01 -7.84412E+00 -7.36292E+00 -3.91088E+00
  -7.91962E-03 -1.04079E+00  5.54865E+00  8.05521E+00  1.56050E+01  1.88497E+01  2.13219E+01  2.03871E+01  3.05094E+01  2.82626E+01
   3.34250E+01  3.95211E+01  3.68831E+01  3.82210E+01  4.08809E+01  4.60980E+01  4.52453E+01  4.21753E+01  4.61658E+01  4.31272E+01
   4.14955E+01  3.97389E+01  4.07402E+01  3.70953E+01  4.02418E+01  3.47214E+01  3.61551E+01  3.88678E+01  3.51351E+01  3.12800E+01
   2.98181E+01  2.76115E+01  2.94248E+01  2.77804E+01  2.41917E+01  2.40053E+01  2.48759E+01  2.07323E+01  2.11201E+01  2.24093E+01
   2.18955E+01  1.99474E+01  2.00884E+01  2.04419E+01  2.01688E+01  1.84237E+01  2.16565E+01  1.81944E+01  1.59949E+01  1.45232E+01
   1.73027E+01  1.94687E+01  1.90586E+01  1.80755E+01  2.00654E+01  1.86129E+01  1.67093E+01  1.67850E+01  1.66893E+01  2.07553E+01
   2.01773E+01  1.56011E+01  1.49639E+01  1.72278E+01  1.90595E+01  1.41510E+01  1.67411E+01  1.62561E+01  1.70610E+01  1.57307E+01
   1.27560E+01  1.61432E+01  1.24963E+01  1.25964E+01  1.00368E+01  1.11725E+01  1.11396E+01  7.74413E+00  1.20609E+01  1.03781E+01
   5.47832E+00  1.00617E+01  9.34422E+00  6.40359E+00  5.47536E+00  8.14532E+00  5.18848E+00  3.64644E+00  1.46989E+00  2.36774E+00
   3.46115E+00  7.48142E+00 -2.68890E+00  3.30668E+00  2.40469E+00  2.33567E+00  7.17171E-01 -1.20165E-01  3.42699E+00  5.80517E+00
   3.17930E+00  1.10073E+00  3.46122E+00  3.87838E+00  4.69199E+00  2.96737E+00  3.38092E+00  1.81961E+00  1.30930E+00 -9.13355E-01
   3.14259E-01 -2.73227E-01  9.15326E-02  2.99696E+00 -1.41000E+00  1.82994E-01  1.20270E+00  7.35140E-01 -3.86757E-01 -2.11208E+00
   3.07086E+00 -7.94437E-01 -2.22608E+00  2.39233E+00 -4.07101E+00 -6.95847E-01  6.30350E-01  1.98576E+00  5.49763E-01  4.11674E-01
   2.91894E+00 -1.83044E+00 -2.66808E+00 -1.21739E+00  3.86451E-02 -1.87484E+00  6.51338E-03 -2.53535E+00 -3.69113E+00 -2.88993E-01
   1.47041E-01  5.69936E-01 -3.13087E+00 -2.34339E+00 -2.75835E+00 -2.61267E+00 -2.67254E+00 -2.87057E+00 -5.07542E+00  1.03042E-02
  -4.43655E+00 -6.18762E+00 -1.74455E+00 -4.85207E+00 -6.77994E-02 -2.01600E+00 -1.41680E+00 -8.10295E+00 -1.81519E+00 -3.16756E+00
  -2.03259E+00 -5.69513E+00 -3.71413E+00 -6.07099E+00 -4.76678E-01 -4.36082E+00 -3.97344E+00 -6.61779E+00 -3.03069E+00 -6.95409E+00
  -5.19694E+00 -1.15083E+00 -4.33179E+00 -3.26415E+00 -5.89282E+00 -6.07614E+00 -6.09430E+00 -6.52251E+00
 NY points of the fit to the data follow
  -2.73571E+00 -5.23192E+00 -7.23771E+00 -8.11933E+00 -8.60161E+00 -8.55459E+00 -7.64285E+00 -7.24649E+00 -7.58863E+00 -6.85404E+00
  -5.32821E+00 -4.57443E+00 -4.65210E+00 -4.51427E+00 -3.91880E+00 -3.55910E+00 -3.47025E+00 -3.49698E+00 -3.78364E+00 -3.63918E+00
  -2.67636E+00 -2.74764E+00 -3.81334E+00 -4.76203E+00 -5.34500E+00 -5.11868E+00 -4.72689E+00 -4.43982E+00 -4.15725E+00 -3.68573E+00
  -3.31696E+00 -3.06966E+00 -2.88783E+00 -2.66445E+00 -2.54953E+00 -2.42234E+00 -2.30385E+00 -2.92575E+00 -4.24824E+00 -4.86186E+00
  -4.30472E+00 -3.13306E+00 -1.95955E+00 -1.01238E+00 -4.15529E-01 -1.98023E-01 -6.28592E-02  4.46920E-01  7.72363E-01  2.14931E-01
  -7.01349E-01 -1.22151E+00 -1.56594E+00 -1.89606E+00 -2.15748E+00 -2.21178E+00 -2.04249E+00 -1.79058E+00 -1.73819E+00 -2.10845E+00
  -2.40024E+00 -2.24384E+00 -2.08121E+00 -1.96553E+00 -1.81030E+00 -1.64632E+00 -1.49455E+00 -1.40879E+00 -1.34446E+00 -1.19160E+00
  -1.08284E+00 -1.00580E+00 -8.91747E-01 -8.38073E-01 -8.17021E-01 -7.38691E-01 -6.46125E-01 -4.25242E-01 -1.53492E-01  1.94190E-02
  -5.13297E-02 -2.98785E-01 -6.01872E-01 -1.03250E+00 -1.55779E+00 -1.87972E+00 -2.18511E+00 -2.45092E+00 -2.44907E+00 -2.15324E+00
  -1.76611E+00 -1.39191E+00 -8.10329E-01 -2.38620E-01 -1.52712E+00 -2.88361E+00 -2.63498E+00 -1.46697E+00 -8.63449E-02  1.45491E+00
   3.04803E+00  4.20939E+00  4.67708E+00  5.57236E+00  6.75865E+00  6.86216E+00  6.26351E+00  6.09264E+00  6.10565E+00  5.68637E+00
   4.95523E+00  4.21789E+00  3.38957E+00  2.96118E+00  3.10177E+00  3.10872E+00  3.01161E+00  1.46620E-01 -3.97367E+00 -4.73261E+00
  -2.48835E+00  7.81510E-01  4.33483E+00  8.05190E+00  1.12579E+01  1.30686E+01  1.53064E+01  1.86644E+01  2.00510E+01  1.90700E+01
   1.84846E+01  1.87494E+01  1.81261E+01  1.63538E+01  1.44025E+01  1.23091E+01  1.08036E+01  1.06627E+01  9.83162E+00  7.21047E+00
   6.05585E+00  6.64495E+00  7.37938E+00  8.02707E+00  8.64919E+00  9.22695E+00  9.66570E+00  9.96086E+00  1.00970E+01  1.00740E+01
   1.00075E+01  9.90279E+00  9.70511E+00  9.38305E+00  8.93288E+00  8.40971E+00  7.81417E+00  7.11106E+00  6.32900E+00  5.51042E+00
   4.71412E+00  3.86127E+00  2.91744E+00  1.92302E+00  8.88022E-01 -3.53025E-02 -8.03245E-01 -1.55159E+00 -2.29776E+00 -3.05615E+00
  -3.81137E+00 -4.44384E+00 -4.90522E+00 -5.27702E+00 -5.73533E+00 -6.26464E+00 -6.72998E+00 -7.09242E+00 -7.41425E+00 -7.73605E+00
  -7.99513E+00 -8.15599E+00 -8.37977E+00 -8.59586E+00 -8.66257E+00 -8.70519E+00 -8.78273E+00 -8.80526E+00 -8.78773E+00 -8.84741E+00
  -9.03377E+00 -9.21599E+00 -9.37875E+00 -9.55680E+00 -9.69368E+00 -9.84334E+00 -1.00902E+01 -1.02470E+01 -1.04045E+01 -1.03857E+01
  -1.02022E+01 -1.00485E+01 -9.94466E+00 -9.92348E+00 -9.95067E+00 -1.01747E+01 -1.09443E+01 -1.14293E+01 -1.12760E+01 -1.07799E+01
  -1.01173E+01 -9.19581E+00 -7.73038E+00 -6.11296E+00 -5.07801E+00 -4.36413E+00 -3.88725E+00 -3.90379E+00 -4.01402E+00 -3.92019E+00
  -3.79972E+00 -3.78710E+00 -3.98899E+00 -4.05646E+00 -3.93394E+00 -3.97949E+00 -4.36408E+00 -4.96757E+00 -5.46243E+00 -5.64837E+00
  -5.77807E+00 -6.06867E+00 -6.35634E+00 -6.34670E+00 -6.25293E+00 -6.49227E+00 -6.92405E+00 -7.19831E+00 -7.26644E+00 -7.03363E+00
  -6.35805E+00 -5.32049E+00 -4.12595E+00 -2.79096E+00 -8.78558E-01  1.31614E+00  9.08178E-01 -3.65343E-01  4.62822E-02  1.65875E+00
   3.40319E+00  5.07917E+00  6.78229E+00  7.95881E+00  8.10301E+00  8.54798E+00  9.33595E+00  8.66050E+00  6.71713E+00  4.98161E+00
   3.46242E+00  1.29339E+00 -1.45055E+00 -4.29875E+00 -7.47721E+00 -1.03803E+01 -1.24439E+01 -1.49366E+01 -1.82690E+01 -2.05342E+01
  -2.19221E+01 -2.30577E+01 -2.40751E+01 -2.49646E+01 -2.57409E+01 -2.64490E+01 -2.70822E+01 -2.75879E+01 -2.80268E+01 -2.84123E+01
  -2.87542E+01 -2.90643E+01 -2.93522E+01 -2.96142E+01 -2.98688E+01 -3.01279E+01 -3.03841E+01 -3.06289E+01 -3.08326E+01 -3.09739E+01
  -3.11089E+01 -3.12479E+01 -3.13566E+01 -3.14438E+01 -3.15347E+01 -3.16296E+01 -3.16953E+01 -3.17195E+01 -3.17223E+01 -3.16972E+01
  -3.16313E+01 -3.15144E+01 -3.13314E+01 -3.10848E+01 -3.07756E+01 -3.03759E+01 -2.98672E+01 -2.92321E+01 -2.84582E+01 -2.75326E+01
  -2.64264E+01 -2.51157E+01 -2.35950E+01 -2.18465E+01 -1.98521E+01 -1.75959E+01 -1.50652E+01 -1.23604E+01 -9.46271E+00 -6.21159E+00
  -2.63665E+00  1.15002E+00  5.08004E+00  9.10465E+00  1.32245E+01  1.73368E+01  2.12455E+01  2.49558E+01  2.84248E+01  3.15910E+01
   3.44839E+01  3.70852E+01  3.93147E+01  4.10933E+01  4.24101E+01  4.33609E+01  4.40210E+01  4.41478E+01  4.35463E+01  4.27661E+01
   4.20897E+01  4.13450E+01  4.03949E+01  3.92751E+01  3.81913E+01  3.70466E+01  3.55466E+01  3.39360E+01  3.23003E+01  3.06142E+01
   2.90809E+01  2.78675E+01  2.68816E+01  2.59095E+01  2.49607E+01  2.42841E+01  2.38861E+01  2.35931E+01  2.32908E+01  2.29392E+01
   2.26922E+01  2.26347E+01  2.25713E+01  2.24302E+01  2.21728E+01  2.19296E+01  2.17678E+01  2.14513E+01  2.09434E+01  2.04481E+01
   1.99672E+01  1.94831E+01  1.89923E+01  1.84941E+01  1.79917E+01  1.74877E+01  1.69872E+01  1.64931E+01  1.60107E+01  1.55423E+01
   1.50926E+01  1.46631E+01  1.42573E+01  1.38754E+01  1.35197E+01  1.31889E+01  1.28838E+01  1.26022E+01  1.23436E+01  1.21044E+01
   1.18833E+01  1.16760E+01  1.14805E+01  1.12920E+01  1.11084E+01  1.09249E+01  1.07395E+01  1.05476E+01  1.03479E+01  1.01367E+01
   9.91329E+00  9.67466E+00  9.42114E+00  9.15075E+00  8.86482E+00  8.56223E+00  8.24511E+00  7.91303E+00  7.56887E+00  7.21278E+00
   6.84809E+00  6.47520E+00  6.09758E+00  5.71571E+00  5.33313E+00  4.95027E+00  4.57046E+00  4.19381E+00  3.82335E+00  3.45890E+00
   3.10326E+00  2.75589E+00  2.41921E+00  2.09227E+00  1.77717E+00  1.47275E+00  1.18091E+00  9.00191E-01  6.32223E-01  3.75324E-01
   1.31000E-01 -1.02510E-01 -3.23777E-01 -5.34725E-01 -7.34055E-01 -9.23761E-01 -1.10250E+00 -1.27226E+00 -1.43173E+00 -1.58298E+00
  -1.72474E+00 -1.85904E+00 -1.98452E+00 -2.10320E+00 -2.21373E+00 -2.31820E+00 -2.41522E+00 -2.50682E+00 -2.59153E+00 -2.67135E+00
  -2.74487E+00 -2.81412E+00 -2.87763E+00 -2.93733E+00 -2.99164E+00 -3.04254E+00 -3.08847E+00 -3.13139E+00 -3.16968E+00 -3.20523E+00
  -3.23640E+00 -3.26513E+00 -3.28981E+00 -3.31237E+00 -3.33109E+00 -3.34786E+00 -3.36100E+00 -3.37244E+00 -3.38052E+00 -3.38712E+00
  -3.39048E+00 -3.39248E+00 -3.39140E+00 -3.38921E+00 -3.38414E+00 -3.37807E+00 -3.36919E+00 -3.35942E+00 -3.34701E+00 -3.33390E+00
  -3.31828E+00 -3.30203E+00 -3.28331E+00 -3.26407E+00 -3.24253E+00 -3.22061E+00 -3.19647E+00 -3.17199E+00 -3.14531E+00 -3.11843E+00
  -3.08951E+00 -3.06049E+00 -3.02947E+00 -2.99835E+00 -2.96531E+00 -2.93232E+00 -2.89754E+00 -2.86288E+00
 NY background values follow
    -1.516E+01   -1.514E+01   -1.513E+01   -1.511E+01   -1.509E+01   -1.506E+01   -1.504E+01   -1.502E+01   -1.499E+01   -1.496E+01
    -1.494E+01   -1.491E+01   -1.488E+01   -1.485E+01   -1.481E+01   -1.478E+01   -1.474E+01   -1.471E+01   -1.467E+01   -1.463E+01
    -1.459E+01   -1.455E+01   -1.451E+01   -1.447E+01   -1.442E+01   -1.438E+01   -1.433E+01   -1.428E+01   -1.424E+01   -1.419E+01
    -1.414E+01   -1.409E+01   -1.404E+01   -1.399E+01   -1.393E+01   -1.388E+01   -1.382E+01   -1.377E+01   -1.371E+01   -1.366E+01
    -1.360E+01   -1.354E+01   -1.348E+01   -1.342E+01   -1.336E+01   -1.330E+01   -1.324E+01   -1.318E+01   -1.311E+01   -1.305E+01
    -1.299E+01   -1.292E+01   -1.286E+01   -1.279E+01   -1.273E+01   -1.266E+01   -1.260E+01   -1.253E+01   -1.246E+01   -1.240E+01
    -1.233E+01   -1.226E+01   -1.219E+01   -1.212E+01   -1.205E+01   -1.199E+01   -1.192E+01   -1.185E+01   -1.178E+01   -1.171E+01
    -1.164E+01   -1.157E+01   -1.150E+01   -1.143E+01   -1.136E+01   -1.129E+01   -1.122E+01   -1.115E+01   -1.108E+01   -1.102E+01
    -1.095E+01   -1.088E+01   -1.081E+01   -1.074E+01   -1.067E+01   -1.060E+01   -1.054E+01   -1.047E+01   -1.040E+01   -1.034E+01
    -1.027E+01   -1.020E+01   -1.014E+01   -1.007E+01   -1.001E+01   -9.947E+00   -9.884E+00   -9.822E+00   -9.761E+00   -9.700E+00
    -9.641E+00   -9.583E+00   -9.525E+00   -9.469E+00   -9.414E+00   -9.361E+00   -9.308E+00   -9.258E+00   -9.208E+00   -9.160E+00
    -9.114E+00   -9.069E+00   -9.026E+00   -8.985E+00   -8.946E+00   -8.909E+00   -8.873E+00   -8.840E+00   -8.809E+00   -8.780E+00
    -8.754E+00   -8.729E+00   -8.708E+00   -8.688E+00   -8.671E+00   -8.657E+00   -8.646E+00   -8.637E+00   -8.631E+00   -8.628E+00
    -8.628E+00   -8.631E+00   -8.637E+00   -8.646E+00   -8.659E+00   -8.674E+00   -8.694E+00   -8.716E+00   -8.742E+00   -8.772E+00
    -8.805E+00   -8.841E+00   -8.881E+00   -8.924E+00   -8.970E+00   -9.020E+00   -9.074E+00   -9.130E+00   -9.190E+00   -9.254E+00
    -9.321E+00   -9.391E+00   -9.465E+00   -9.542E+00   -9.622E+00   -9.705E+00   -9.792E+00   -9.883E+00   -9.976E+00   -1.007E+01
    -1.017E+01   -1.028E+01   -1.038E+01   -1.049E+01   -1.061E+01   -1.072E+01   -1.084E+01   -1.097E+01   -1.109E+01   -1.122E+01
    -1.135E+01   -1.149E+01   -1.163E+01   -1.177E+01   -1.191E+01   -1.206E+01   -1.221E+01   -1.237E+01   -1.252E+01   -1.268E+01
    -1.285E+01   -1.301E+01   -1.318E+01   -1.335E+01   -1.353E+01   -1.371E+01   -1.389E+01   -1.407E+01   -1.425E+01   -1.444E+01
    -1.463E+01   -1.483E+01   -1.502E+01   -1.522E+01   -1.542E+01   -1.562E+01   -1.582E+01   -1.603E+01   -1.624E+01   -1.645E+01
    -1.666E+01   -1.688E+01   -1.709E+01   -1.731E+01   -1.753E+01   -1.775E+01   -1.797E+01   -1.819E+01   -1.842E+01   -1.864E+01
    -1.887E+01   -1.910E+01   -1.933E+01   -1.956E+01   -1.979E+01   -2.002E+01   -2.026E+01   -2.049E+01   -2.073E+01   -2.096E+01
    -2.120E+01   -2.144E+01   -2.167E+01   -2.191E+01   -2.215E+01   -2.239E+01   -2.262E+01   -2.286E+01   -2.310E+01   -2.334E+01
    -2.358E+01   -2.382E+01   -2.405E+01   -2.429E+01   -2.453E+01   -2.476E+01   -2.500E+01   -2.523E+01   -2.547E+01   -2.570E+01
    -2.593E+01   -2.616E+01   -2.639E+01   -2.662E+01   -2.685E+01   -2.708E+01   -2.730E+01   -2.752E+01   -2.775E+01   -2.797E+01
    -2.818E+01   -2.840E+01   -2.862E+01   -2.883E+01   -2.904E+01   -2.925E+01   -2.945E+01   -2.966E+01   -2.986E+01   -3.006E+01
    -3.025E+01   -3.045E+01   -3.064E+01   -3.082E+01   -3.101E+01   -3.119E+01   -3.137E+01   -3.155E+01   -3.172E+01   -3.189E+01
    -3.205E+01   -3.222E+01   -3.238E+01   -3.253E+01   -3.269E+01   -3.283E+01   -3.298E+01   -3.312E+01   -3.326E+01   -3.340E+01
    -3.353E+01   -3.365E+01   -3.378E+01   -3.390E+01   -3.402E+01   -3.413E+01   -3.424E+01   -3.435E+01   -3.446E+01   -3.456E+01
    -3.466E+01   -3.475E+01   -3.484E+01   -3.493E+01   -3.501E+01   -3.509E+01   -3.517E+01   -3.525E+01   -3.532E+01   -3.539E+01
    -3.545E+01   -3.551E+01   -3.557E+01   -3.563E+01   -3.568E+01   -3.573E+01   -3.577E+01   -3.581E+01   -3.585E+01   -3.589E+01
    -3.592E+01   -3.595E+01   -3.598E+01   -3.600E+01   -3.602E+01   -3.604E+01   -3.606E+01   -3.607E+01   -3.608E+01   -3.608E+01
    -3.609E+01   -3.609E+01   -3.608E+01   -3.608E+01   -3.607E+01   -3.606E+01   -3.604E+01   -3.603E+01   -3.601E+01   -3.598E+01
    -3.596E+01   -3.593E+01   -3.590E+01   -3.587E+01   -3.583E+01   -3.579E+01   -3.575E+01   -3.571E+01   -3.567E+01   -3.562E+01
    -3.557E+01   -3.551E+01   -3.546E+01   -3.540E+01   -3.534E+01   -3.528E+01   -3.522E+01   -3.515E+01   -3.508E+01   -3.501E+01
    -3.494E+01   -3.486E+01   -3.478E+01   -3.470E+01   -3.462E+01   -3.454E+01   -3.446E+01   -3.437E+01   -3.428E+01   -3.419E+01
    -3.410E+01   -3.400E+01   -3.390E+01   -3.381E+01   -3.371E+01   -3.360E+01   -3.350E+01   -3.340E+01   -3.329E+01   -3.318E+01
    -3.307E+01   -3.296E+01   -3.285E+01   -3.273E+01   -3.262E+01   -3.250E+01   -3.238E+01   -3.226E+01   -3.214E+01   -3.201E+01
    -3.189E+01   -3.176E+01   -3.164E+01   -3.151E+01   -3.138E+01   -3.125E+01   -3.111E+01   -3.098E+01   -3.085E+01   -3.071E+01
    -3.057E+01   -3.044E+01   -3.030E+01   -3.016E+01   -3.002E+01   -2.988E+01   -2.973E+01   -2.959E+01   -2.945E+01   -2.930E+01
    -2.915E+01   -2.901E+01   -2.886E+01   -2.871E+01   -2.856E+01   -2.841E+01   -2.826E+01   -2.811E+01   -2.796E+01   -2.780E+01
    -2.765E+01   -2.749E+01   -2.734E+01   -2.719E+01   -2.703E+01   -2.687E+01   -2.672E+01   -2.656E+01   -2.640E+01   -2.625E+01
    -2.609E+01   -2.593E+01   -2.578E+01   -2.562E+01   -2.546E+01   -2.530E+01   -2.514E+01   -2.499E+01   -2.483E+01   -2.467E+01
    -2.451E+01   -2.436E+01   -2.420E+01   -2.404E+01   -2.389E+01   -2.373E+01   -2.357E+01   -2.342E+01   -2.326E+01   -2.311E+01
    -2.295E+01   -2.280E+01   -2.264E+01   -2.249E+01   -2.234E+01   -2.219E+01   -2.203E+01   -2.188E+01   -2.173E+01   -2.158E+01
    -2.143E+01   -2.129E+01   -2.114E+01   -2.099E+01   -2.085E+01   -2.070E+01   -2.056E+01   -2.041E+01   -2.027E+01   -2.012E+01
    -1.998E+01   -1.984E+01   -1.970E+01   -1.956E+01   -1.942E+01   -1.928E+01   -1.914E+01   -1.900E+01   -1.887E+01   -1.873E+01
    -1.859E+01   -1.846E+01   -1.832E+01   -1.819E+01   -1.805E+01   -1.792E+01   -1.778E+01   -1.765E+01   -1.752E+01   -1.738E+01
    -1.725E+01   -1.712E+01   -1.699E+01   -1.686E+01   -1.673E+01   -1.660E+01   -1.647E+01   -1.634E+01   -1.621E+01   -1.608E+01
    -1.595E+01   -1.582E+01   -1.569E+01   -1.556E+01   -1.544E+01   -1.531E+01   -1.518E+01   -1.505E+01
 Ala      Conc. = 3.69E+01
