 LCModel (Version 6.3-1L) Copyright: S.W. Provencher.          Ref.: Magn. Reson. Med. 30:672-679 (1993).                
 Slice#1 Row#4 Col#3  K_02_press_1_raw_act
 36 lines in following concentration table = NCONC+1
    Conc.  %SD /Cr+PCr  Metabolite                                         
 1.42E+03  12%   3.924 Ala                                                 
   33.841 181% 9.4E-02 Asp                                                 
    0.000 999%   0.000 Cr                                                  
  361.783  12%   1.000 PCr                                                 
   50.712  74%   0.140 GABA                                                
   40.150  92%   0.111 Glc                                                 
  685.731  50%   1.895 Gln                                                 
  829.930  45%   2.294 Glu                                                 
  105.435  17%   0.291 GPC                                                 
    0.000 999%   0.000 PCh                                                 
  302.508  24%   0.836 GSH                                                 
  393.645  59%   1.088 Ins                                                 
    0.000 999%   0.000 Lac                                                 
  681.308  13%   1.883 NAA                                                 
  176.824  52%   0.489 NAAG                                                
    9.719 117% 2.7E-02 Scyllo                                              
    9.156 657% 2.5E-02 Tau                                                 
    0.000 999%   0.000 -CrCH2                                              
  105.435  17%   0.291 GPC+PCh                                             
  858.133   7%   2.372 NAA+NAAG                                            
  361.783  12%   1.000 Cr+PCr                                              
 1.52E+03  41%   4.189 Glu+Gln                                             
    0.000 999%   0.000 Lip13a                                              
    0.000 999%   0.000 Lip13b                                              
    0.000 999%   0.000 Lip09                                               
  241.720  45%   0.668 MM09                                                
    0.115 999% 3.2E-04 Lip20                                               
  431.545  47%   1.193 MM20                                                
   57.254  98%   0.158 MM12                                                
  779.130  18%   2.154 MM14                                                
  362.822  31%   1.003 MM17                                                
    0.000 999%   0.000 Lip13a+Lip13b                                       
  836.384  20%   2.312 MM14+Lip13a+Lip13b+MM12                             
  241.720  45%   0.668 MM09+Lip09                                          
  431.661  47%   1.193 MM20+Lip20                                          
   6 lines in following misc. output table
  FWHM = 0.084 ppm    S/N =   4                                            
  Data shift = 0.084 ppm                                                   
  Ph:  82 deg      26.7 deg/ppm                                            
  alphaB,S = 9.6E-01,   1.0E+02                                            
   14 spline knots.   Ns = 9(1)                                            
  (13) 4 infls.   (11) 1 extrs.                                            
  498 points on ppm-axis = NY
      4.000000     3.992357     3.984714     3.977070     3.969427     3.961784     3.954141     3.946497     3.938854     3.931211
      3.923568     3.915925     3.908281     3.900638     3.892995     3.885352     3.877708     3.870065     3.862422     3.854779
      3.847136     3.839492     3.831849     3.824206     3.816563     3.808919     3.801276     3.793633     3.785990     3.778347
      3.770703     3.763060     3.755417     3.747774     3.740130     3.732487     3.724844     3.717201     3.709558     3.701914
      3.694271     3.686628     3.678985     3.671341     3.663698     3.656055     3.648412     3.640769     3.633125     3.625482
      3.617839     3.610196     3.602552     3.594909     3.587266     3.579623     3.571980     3.564336     3.556693     3.549050
      3.541407     3.533763     3.526120     3.518477     3.510834     3.503191     3.495547     3.487904     3.480261     3.472618
      3.464974     3.457331     3.449688     3.442045     3.434402     3.426758     3.419115     3.411472     3.403829     3.396185
      3.388542     3.380899     3.373256     3.365613     3.357969     3.350326     3.342683     3.335040     3.327396     3.319753
      3.312110     3.304467     3.296824     3.289180     3.281537     3.273894     3.266251     3.258607     3.250964     3.243321
      3.235678     3.228034     3.220391     3.212748     3.205105     3.197462     3.189818     3.182175     3.174532     3.166889
      3.159245     3.151602     3.143959     3.136316     3.128673     3.121029     3.113386     3.105743     3.098100     3.090456
      3.082813     3.075170     3.067527     3.059884     3.052240     3.044597     3.036954     3.029311     3.021667     3.014024
      3.006381     2.998738     2.991095     2.983451     2.975808     2.968165     2.960522     2.952878     2.945235     2.937592
      2.929949     2.922306     2.914662     2.907019     2.899376     2.891733     2.884089     2.876446     2.868803     2.861160
      2.853517     2.845873     2.838230     2.830587     2.822944     2.815300     2.807657     2.800014     2.792371     2.784728
      2.777084     2.769441     2.761798     2.754155     2.746511     2.738868     2.731225     2.723582     2.715939     2.708295
      2.700652     2.693009     2.685366     2.677722     2.670079     2.662436     2.654793     2.647150     2.639506     2.631863
      2.624220     2.616577     2.608933     2.601290     2.593647     2.586004     2.578361     2.570717     2.563074     2.555431
      2.547788     2.540144     2.532501     2.524858     2.517215     2.509572     2.501928     2.494285     2.486642     2.478999
      2.471355     2.463712     2.456069     2.448426     2.440783     2.433139     2.425496     2.417853     2.410210     2.402566
      2.394923     2.387280     2.379637     2.371994     2.364350     2.356707     2.349064     2.341421     2.333777     2.326134
      2.318491     2.310848     2.303205     2.295561     2.287918     2.280275     2.272632     2.264988     2.257345     2.249702
      2.242059     2.234416     2.226772     2.219129     2.211486     2.203843     2.196199     2.188556     2.180913     2.173270
      2.165627     2.157983     2.150340     2.142697     2.135054     2.127410     2.119767     2.112124     2.104481     2.096838
      2.089194     2.081551     2.073908     2.066265     2.058621     2.050978     2.043335     2.035692     2.028049     2.020405
      2.012762     2.005119     1.997476     1.989833     1.982190     1.974546     1.966903     1.959260     1.951617     1.943974
      1.936331     1.928688     1.921045     1.913402     1.905759     1.898115     1.890472     1.882829     1.875186     1.867543
      1.859900     1.852257     1.844614     1.836971     1.829327     1.821684     1.814041     1.806398     1.798755     1.791112
      1.783469     1.775826     1.768183     1.760540     1.752896     1.745253     1.737610     1.729967     1.722324     1.714681
      1.707038     1.699395     1.691752     1.684108     1.676465     1.668822     1.661179     1.653536     1.645893     1.638250
      1.630607     1.622964     1.615321     1.607677     1.600034     1.592391     1.584748     1.577105     1.569462     1.561819
      1.554176     1.546533     1.538890     1.531246     1.523603     1.515960     1.508317     1.500674     1.493031     1.485388
      1.477745     1.470102     1.462458     1.454815     1.447172     1.439529     1.431886     1.424243     1.416600     1.408957
      1.401314     1.393671     1.386027     1.378384     1.370741     1.363098     1.355455     1.347812     1.340169     1.332526
      1.324883     1.317240     1.309596     1.301953     1.294310     1.286667     1.279024     1.271381     1.263738     1.256095
      1.248452     1.240808     1.233165     1.225522     1.217879     1.210236     1.202593     1.194950     1.187307     1.179664
      1.172021     1.164377     1.156734     1.149091     1.141448     1.133805     1.126162     1.118519     1.110876     1.103233
      1.095590     1.087946     1.080303     1.072660     1.065017     1.057374     1.049731     1.042088     1.034445     1.026802
      1.019158     1.011515     1.003872     0.996229     0.988586     0.980943     0.973300     0.965657     0.958014     0.950371
      0.942727     0.935084     0.927441     0.919798     0.912155     0.904512     0.896869     0.889226     0.881583     0.873940
      0.866296     0.858653     0.851010     0.843367     0.835724     0.828081     0.820438     0.812795     0.805152     0.797508
      0.789865     0.782222     0.774579     0.766936     0.759293     0.751650     0.744007     0.736364     0.728721     0.721077
      0.713434     0.705791     0.698148     0.690505     0.682862     0.675219     0.667576     0.659933     0.652290     0.644646
      0.637003     0.629360     0.621717     0.614074     0.606431     0.598788     0.591145     0.583502     0.575858     0.568215
      0.560572     0.552929     0.545286     0.537643     0.530000     0.522357     0.514714     0.507071     0.499427     0.491784
      0.484141     0.476498     0.468855     0.461212     0.453569     0.445925     0.438282     0.430639     0.422996     0.415353
      0.407710     0.400067     0.392424     0.384780     0.377137     0.369494     0.361851     0.354208     0.346565     0.338922
      0.331278     0.323635     0.315992     0.308349     0.300706     0.293063     0.285420     0.277777     0.270133     0.262490
      0.254847     0.247204     0.239561     0.231918     0.224275     0.216631     0.208988     0.201345
 NY phased data points follow
   3.14551E+01  3.46853E+01  3.17366E+01  2.80232E+01  3.00207E+01  2.96125E+01  2.97590E+01  3.10722E+01  3.40978E+01  3.28716E+01
   2.80513E+01  2.98756E+01  3.08584E+01  3.16631E+01  3.05402E+01  2.40596E+01  2.79380E+01  2.19188E+01  2.76503E+01  2.27497E+01
   2.69755E+01  2.57882E+01  2.40252E+01  2.97783E+01  2.58379E+01  2.33824E+01  2.40862E+01  2.44218E+01  2.61551E+01  2.29430E+01
   2.40046E+01  2.59806E+01  2.35424E+01  2.15613E+01  2.13672E+01  2.16632E+01  2.37555E+01  2.04325E+01  2.02304E+01  2.01010E+01
   2.27194E+01  2.13227E+01  1.87277E+01  1.79221E+01  2.13792E+01  2.04106E+01  1.73956E+01  2.15951E+01  1.86137E+01  1.92574E+01
   1.68883E+01  1.80109E+01  1.69584E+01  1.79625E+01  1.43010E+01  1.68050E+01  1.64932E+01  1.83393E+01  1.75285E+01  1.22471E+01
   1.71571E+01  1.76967E+01  1.30334E+01  1.23182E+01  8.43127E+00  1.59787E+01  1.06115E+01  1.45587E+01  1.66217E+01  1.22451E+01
   9.18797E+00  1.03171E+01  1.48732E+01  1.27465E+01  1.26364E+01  1.02442E+01  1.14572E+01  1.09130E+01  1.17852E+01  1.40122E+01
   1.45699E+01  1.56051E+01  1.06320E+01  9.32816E+00  8.22773E+00  1.33580E+01  1.00464E+01  9.06318E+00  1.18384E+01  1.07557E+01
   6.29504E+00  6.65459E+00  9.28748E+00  9.05976E+00  1.04504E+01  8.38629E+00  9.20437E+00  9.03259E+00  8.18769E+00  1.38585E+01
   1.24453E+01  1.51133E+01  1.51702E+01  1.75647E+01  1.54575E+01  1.85942E+01  1.76721E+01  9.08349E+00  9.01652E+00  8.85204E+00
   6.64626E+00  1.20444E+01  4.19132E+00  1.02067E+01  5.59146E+00  8.47983E+00  1.10434E+01  1.02944E+00  7.46813E+00  3.41582E+00
   6.30696E+00  5.70123E+00  8.12976E+00  9.57376E+00  9.64107E+00  1.23126E+01  1.34453E+01  1.26577E+01  1.44876E+01  1.83085E+01
   9.86063E+00  1.45367E+01  7.84803E+00  5.47648E+00  9.59316E+00  9.11402E+00  2.68363E+00  6.40834E+00  7.70211E+00  7.70544E+00
   4.22332E+00  5.53074E+00  3.29920E+00  4.08370E+00  4.19072E+00  7.88068E+00  7.47345E+00  7.84699E+00  5.26340E+00  2.95316E+00
   5.76048E+00  7.33011E+00  1.71169E+00  7.27207E+00  3.09948E+00  3.97211E+00  1.08607E+00  1.12151E+00  5.63044E+00  2.81539E+00
   3.82861E+00  4.74556E+00  3.70210E+00  3.69654E+00  4.23402E+00  3.88069E+00 -5.64898E-01  2.19629E+00  6.01523E+00 -1.33227E+00
  -3.25202E+00  3.31189E+00  7.25771E-01  3.90858E-01  2.06451E+00 -3.47321E+00 -2.02081E+00 -3.40537E+00 -1.54363E+00 -3.99456E+00
  -4.00967E+00 -1.99877E-01 -1.92472E+00 -3.06728E+00 -6.27687E+00 -3.53630E+00 -5.06153E+00  4.78823E-01  2.24036E+00 -2.61023E+00
   5.12213E-01 -2.66026E+00  1.80316E+00 -5.83448E+00  2.38888E+00 -3.70061E+00 -3.33985E+00 -3.74968E+00 -5.14212E+00 -7.08582E+00
  -2.03486E+00 -2.73584E+00  6.30376E-01 -4.72376E+00 -6.26125E+00 -2.10881E+00  4.54141E-01 -4.90746E+00 -2.78801E+00 -2.89932E+00
   9.47295E-01 -1.90927E+00 -1.08545E+00  2.83556E+00  3.93459E-01 -1.81449E+00  1.98750E+00  3.39263E+00  7.93970E-01  4.20350E+00
   6.61850E-01 -3.54887E+00 -2.09804E+00 -3.00401E+00 -2.74101E+00 -5.49387E-01 -1.68953E+00  4.62011E-02  8.42029E-01 -4.80117E+00
  -9.46842E-01 -6.37458E-01 -2.28410E+00  1.52953E+00  2.47212E+00 -9.15331E-01 -2.29841E+00 -3.89610E+00 -1.09198E+00 -1.23334E+00
   2.68644E+00 -3.29203E+00 -3.44297E+00 -4.87302E+00 -1.32631E+00 -2.31921E-01  3.08160E+00 -8.40620E-01  3.16062E+00  2.77128E+00
   7.45253E+00  1.02509E+00  4.20323E+00  1.94727E+00  1.20486E+01  9.74882E+00  9.25337E+00  1.44086E+01  1.65064E+01  1.99561E+01
   1.89225E+01  1.65832E+01  1.34099E+01  1.60191E+01  1.27370E+01  9.86097E+00  5.55624E+00  2.36251E+00 -9.03490E-01  2.46705E+00
  -2.24986E-01 -2.91951E+00 -1.12551E+00 -2.85856E+00 -1.77865E+00 -3.19990E+00 -3.41199E+00 -2.16674E+00 -2.42006E+00 -4.31189E+00
  -1.31623E+00  1.37602E+00 -8.36337E+00 -3.40204E+00 -3.51686E+00 -3.24375E+00 -1.53209E+00 -1.96993E+00 -2.32589E+00  1.31321E+00
  -3.41867E+00 -2.60109E+00 -4.68494E-02 -1.36118E+00 -1.01952E-01  1.22764E+00 -7.95574E-01  3.04321E-02 -4.58652E+00 -5.57910E-01
  -1.91281E+00  1.09444E+00 -2.39459E+00 -1.45737E+00 -3.53479E+00 -4.52562E+00 -3.35458E+00  5.08294E+00 -2.29170E+00  5.07175E+00
  -5.99380E-01  2.46352E-01  2.22586E+00  3.68921E+00  6.39631E-02  2.93132E+00  5.04980E+00  7.14296E+00  5.44310E+00  1.68823E+00
   8.59997E+00  6.73573E+00  9.80476E+00  5.97790E+00  4.77771E+00  3.38421E+00 -2.04784E+00 -1.54941E+00 -3.70190E+00 -1.33923E+00
  -4.87087E+00 -7.39168E+00 -4.75986E+00 -3.41474E+00 -1.09213E+00 -6.83394E-01  2.72339E-02  1.94742E+00  6.95546E+00  7.39796E+00
   6.24710E+00  9.40913E+00  4.39195E+00 -9.69956E-02  3.01478E-01 -2.74596E+00 -1.07393E+00 -2.29709E+00 -4.17054E+00 -2.19682E+00
   1.44044E+00 -5.26289E-01  6.52835E-01  5.60034E-01 -6.43917E+00 -2.08419E+00 -2.52972E+00 -6.41549E+00 -5.40960E+00 -6.69879E+00
  -9.10770E+00 -7.09171E+00 -7.97868E+00 -7.72243E+00 -1.15697E+01 -7.04058E+00 -5.33310E+00 -4.98055E+00 -6.06363E+00 -6.51169E+00
  -2.83729E+00 -1.42997E+00 -2.62868E+00 -4.72656E+00 -5.76809E+00 -6.62323E+00 -3.54683E+00 -5.95461E+00 -2.36762E+00 -7.44446E+00
  -4.45761E+00 -7.31428E+00 -7.91536E+00 -7.95687E+00 -3.92903E+00 -6.24982E-01 -7.81720E+00 -3.83321E+00 -5.78532E+00 -4.85729E+00
  -2.33627E+00 -5.03426E+00 -8.48272E+00 -5.81992E+00 -6.65835E+00 -6.03951E+00 -5.10053E+00 -6.71938E+00 -6.19923E+00 -3.32981E+00
  -6.77590E+00 -5.83519E+00 -3.73998E+00 -6.09529E+00 -4.45000E+00 -6.39770E+00 -8.28957E+00 -5.20366E+00 -3.43038E+00 -4.82321E+00
  -7.10396E+00 -4.66269E+00 -2.66345E+00 -8.22002E+00 -5.48357E+00 -3.47757E+00 -7.08566E+00 -4.63082E+00 -5.13268E+00 -8.85172E+00
  -7.49269E+00 -5.51030E+00 -7.14564E+00 -5.38588E+00 -2.44521E+00 -8.41902E+00 -5.92789E+00 -4.91726E+00 -4.46087E+00 -1.11132E+01
  -5.01432E+00 -2.38496E+00 -7.92720E+00 -9.37245E+00 -3.58731E+00 -5.41266E+00 -5.83882E+00 -7.36743E+00 -9.04781E+00 -7.88638E+00
  -2.95985E+00 -3.81789E+00 -4.44458E+00 -8.19682E+00 -4.13380E+00 -9.96953E+00 -7.39187E+00 -6.24269E+00 -3.64228E+00 -6.32540E+00
  -6.97048E+00 -6.42899E+00 -7.12395E+00 -4.22685E+00 -5.87784E+00 -6.15123E+00 -5.89547E+00 -9.05821E+00 -4.60888E+00 -5.67000E+00
  -3.73076E+00 -4.98921E+00 -5.77598E+00 -5.66803E+00 -6.67268E+00 -7.20483E+00 -5.14659E+00 -7.89232E+00 -3.71493E+00 -3.59957E+00
  -7.45203E+00 -9.76413E+00 -8.76810E+00 -1.04739E+01 -5.25602E+00 -8.82512E+00 -7.02201E+00 -5.48105E+00 -3.85622E+00 -8.37346E+00
  -3.48139E+00 -5.38491E+00 -7.09596E+00 -4.26173E+00 -5.03142E+00 -7.16768E+00 -7.73610E+00 -9.62991E+00 -6.28025E+00 -7.50079E+00
  -9.26517E+00 -3.27872E+00 -7.11362E+00 -6.29962E+00 -8.62820E+00 -8.06661E+00 -6.39982E+00 -1.01756E+01
 NY points of the fit to the data follow
   2.64732E+01  2.66064E+01  2.69074E+01  2.73076E+01  2.77466E+01  2.82363E+01  2.88085E+01  2.93584E+01  2.96585E+01  2.96097E+01
   2.93446E+01  2.89846E+01  2.84928E+01  2.77699E+01  2.68736E+01  2.60478E+01  2.54629E+01  2.50250E+01  2.46195E+01  2.41828E+01
   2.39028E+01  2.39179E+01  2.39651E+01  2.39041E+01  2.37855E+01  2.37757E+01  2.39926E+01  2.42780E+01  2.44181E+01  2.44431E+01
   2.45851E+01  2.48548E+01  2.50153E+01  2.48702E+01  2.44671E+01  2.39659E+01  2.33393E+01  2.24568E+01  2.14397E+01  2.05081E+01
   1.98421E+01  1.94570E+01  1.91958E+01  1.90829E+01  1.91793E+01  1.93689E+01  1.94868E+01  1.94427E+01  1.92666E+01  1.90108E+01
   1.86875E+01  1.82746E+01  1.78012E+01  1.73375E+01  1.69291E+01  1.65832E+01  1.62926E+01  1.60612E+01  1.58916E+01  1.57567E+01
   1.56170E+01  1.54555E+01  1.52742E+01  1.50810E+01  1.48748E+01  1.46622E+01  1.44565E+01  1.42723E+01  1.41189E+01  1.39944E+01
   1.38924E+01  1.37968E+01  1.36928E+01  1.35779E+01  1.34447E+01  1.32849E+01  1.30977E+01  1.28992E+01  1.26951E+01  1.24783E+01
   1.22417E+01  1.19902E+01  1.17400E+01  1.15016E+01  1.12605E+01  1.10078E+01  1.07586E+01  1.05407E+01  1.03593E+01  1.01944E+01
   1.00373E+01  9.90244E+00  9.81791E+00  9.83922E+00  1.01281E+01  1.06681E+01  1.13401E+01  1.20367E+01  1.27075E+01  1.34315E+01
   1.42175E+01  1.48767E+01  1.51829E+01  1.51382E+01  1.49229E+01  1.45932E+01  1.40006E+01  1.30438E+01  1.18671E+01  1.07145E+01
   9.70686E+00  8.84173E+00  8.09867E+00  7.52734E+00  7.22717E+00  7.10126E+00  7.03077E+00  7.04110E+00  7.32150E+00  7.94222E+00
   8.76766E+00  9.66762E+00  1.05657E+01  1.15517E+01  1.26878E+01  1.37712E+01  1.44621E+01  1.46569E+01  1.45282E+01  1.42018E+01
   1.35679E+01  1.24595E+01  1.09856E+01  9.45605E+00  8.09078E+00  6.93943E+00  5.96649E+00  5.19615E+00  4.75842E+00  4.60901E+00
   4.56992E+00  4.57716E+00  4.60052E+00  4.61083E+00  4.58503E+00  4.48979E+00  4.30652E+00  4.06684E+00  3.79849E+00  3.52314E+00
   3.26688E+00  3.03221E+00  2.81702E+00  2.61937E+00  2.43690E+00  2.27233E+00  2.12936E+00  1.99335E+00  1.85169E+00  1.70894E+00
   1.57555E+00  1.45089E+00  1.32236E+00  1.17903E+00  1.02800E+00  8.85142E-01  7.49536E-01  6.00486E-01  4.23301E-01  2.38186E-01
   6.59536E-02 -9.46655E-02 -2.72776E-01 -4.69182E-01 -6.48159E-01 -7.79588E-01 -8.74446E-01 -9.75449E-01 -1.10464E+00 -1.21979E+00
  -1.26276E+00 -1.22384E+00 -1.12733E+00 -9.93297E-01 -8.23726E-01 -6.14057E-01 -3.75061E-01 -1.65062E-01 -3.03434E-02  1.40805E-02
  -1.28915E-02 -8.69664E-02 -1.82315E-01 -2.86851E-01 -3.88483E-01 -4.44843E-01 -3.94984E-01 -2.11449E-01  6.52399E-02  3.69866E-01
   6.35937E-01  7.67321E-01  7.72785E-01  6.42261E-01  3.37130E-01 -1.42477E-01 -7.43370E-01 -1.30709E+00 -1.69474E+00 -1.86133E+00
  -1.85008E+00 -1.71561E+00 -1.40666E+00 -9.27223E-01 -4.40719E-01 -1.27277E-01 -9.57725E-03 -2.20372E-02 -1.65545E-01 -5.15169E-01
  -1.05204E+00 -1.61054E+00 -1.98768E+00 -2.17377E+00 -2.23371E+00 -2.13018E+00 -1.80990E+00 -1.34362E+00 -8.85755E-01 -5.35410E-01
  -2.61862E-01 -4.79871E-02  6.11418E-02  2.75206E-02 -1.04417E-01 -2.17190E-01 -3.02114E-01 -4.11503E-01 -5.50116E-01 -7.11246E-01
  -9.12708E-01 -1.14640E+00 -1.37417E+00 -1.56523E+00 -1.70315E+00 -1.75658E+00 -1.63557E+00 -1.22399E+00 -5.52039E-01  2.52829E-01
   1.13272E+00  2.37852E+00  4.29327E+00  6.58808E+00  8.86722E+00  1.08423E+01  1.26650E+01  1.45901E+01  1.63718E+01  1.73551E+01
   1.72331E+01  1.64132E+01  1.53496E+01  1.39288E+01  1.18058E+01  9.06451E+00  6.26326E+00  3.85796E+00  1.86438E+00  1.76054E-01
  -1.18479E+00 -1.99905E+00 -2.27359E+00 -2.37790E+00 -2.43750E+00 -2.46935E+00 -2.48885E+00 -2.51540E+00 -2.55378E+00 -2.60478E+00
  -2.66165E+00 -2.71781E+00 -2.76981E+00 -2.81464E+00 -2.84438E+00 -2.85235E+00 -2.84061E+00 -2.81477E+00 -2.77788E+00 -2.73041E+00
  -2.67339E+00 -2.60865E+00 -2.53741E+00 -2.45677E+00 -2.36421E+00 -2.26092E+00 -2.14935E+00 -2.02970E+00 -1.90194E+00 -1.76724E+00
  -1.62747E+00 -1.48449E+00 -1.33933E+00 -1.19195E+00 -1.04362E+00 -8.96125E-01 -7.49818E-01 -6.03616E-01 -4.55075E-01 -3.00518E-01
  -1.34657E-01  5.08781E-02  2.67382E-01  5.30345E-01  8.62922E-01  1.30346E+00  1.92906E+00  2.90899E+00  4.22408E+00  5.40139E+00
   6.19330E+00  6.49424E+00  6.43831E+00  6.02902E+00  4.85170E+00  2.64997E+00  7.66162E-02 -2.15364E+00 -3.80027E+00 -5.28239E+00
  -6.79363E+00 -7.67247E+00 -7.17610E+00 -5.47453E+00 -3.38760E+00 -1.33679E+00  8.64507E-01  3.35117E+00  5.52952E+00  6.54792E+00
   6.44868E+00  5.69250E+00  4.61046E+00  3.32191E+00  1.84800E+00  4.02411E-01 -6.42071E-01 -1.37062E+00 -1.93265E+00 -2.38953E+00
  -2.77096E+00 -3.09421E+00 -3.37056E+00 -3.60810E+00 -3.81299E+00 -3.99016E+00 -4.14366E+00 -4.27699E+00 -4.39317E+00 -4.49486E+00
  -4.58438E+00 -4.66371E+00 -4.73455E+00 -4.79835E+00 -4.85634E+00 -4.90955E+00 -4.95878E+00 -5.00466E+00 -5.04763E+00 -5.08799E+00
  -5.12595E+00 -5.16161E+00 -5.19494E+00 -5.22583E+00 -5.25411E+00 -5.27956E+00 -5.30193E+00 -5.32092E+00 -5.33620E+00 -5.34738E+00
  -5.35410E+00 -5.35598E+00 -5.35265E+00 -5.34375E+00 -5.32892E+00 -5.30787E+00 -5.28037E+00 -5.24633E+00 -5.20577E+00 -5.15885E+00
  -5.10593E+00 -5.04757E+00 -4.98463E+00 -4.91817E+00 -4.84953E+00 -4.78026E+00 -4.71210E+00 -4.64698E+00 -4.58692E+00 -4.53393E+00
  -4.48996E+00 -4.45677E+00 -4.43589E+00 -4.42852E+00 -4.43547E+00 -4.45709E+00 -4.49328E+00 -4.54345E+00 -4.60663E+00 -4.68147E+00
  -4.76632E+00 -4.85929E+00 -4.95836E+00 -5.06149E+00 -5.16670E+00 -5.27214E+00 -5.37614E+00 -5.47726E+00 -5.57430E+00 -5.66636E+00
  -5.75281E+00 -5.83326E+00 -5.90753E+00 -5.97561E+00 -6.03768E+00 -6.09401E+00 -6.14497E+00 -6.19099E+00 -6.23248E+00 -6.26990E+00
  -6.30368E+00 -6.33423E+00 -6.36196E+00 -6.38719E+00 -6.41025E+00 -6.43141E+00 -6.45090E+00 -6.46895E+00 -6.48576E+00 -6.50148E+00
  -6.51623E+00 -6.53013E+00 -6.54330E+00 -6.55582E+00 -6.56777E+00 -6.57922E+00 -6.59021E+00 -6.60079E+00 -6.61102E+00 -6.62094E+00
  -6.63059E+00 -6.63998E+00 -6.64913E+00 -6.65808E+00 -6.66686E+00 -6.67547E+00 -6.68394E+00 -6.69225E+00 -6.70043E+00 -6.70849E+00
  -6.71645E+00 -6.72431E+00 -6.73207E+00 -6.73974E+00 -6.74732E+00 -6.75483E+00 -6.76228E+00 -6.76967E+00 -6.77698E+00 -6.78423E+00
  -6.79142E+00 -6.79856E+00 -6.80566E+00 -6.81271E+00 -6.81970E+00 -6.82664E+00 -6.83355E+00 -6.84041E+00 -6.84724E+00 -6.85401E+00
  -6.86074E+00 -6.86743E+00 -6.87408E+00 -6.88070E+00 -6.88727E+00 -6.89379E+00 -6.90026E+00 -6.90669E+00 -6.91307E+00 -6.91940E+00
  -6.92567E+00 -6.93187E+00 -6.93800E+00 -6.94406E+00 -6.95004E+00 -6.95594E+00 -6.96172E+00 -6.96738E+00
 NY background values follow
     2.435E+01    2.417E+01    2.400E+01    2.383E+01    2.366E+01    2.349E+01    2.331E+01    2.314E+01    2.297E+01    2.280E+01
     2.262E+01    2.245E+01    2.228E+01    2.211E+01    2.194E+01    2.177E+01    2.159E+01    2.142E+01    2.125E+01    2.108E+01
     2.091E+01    2.074E+01    2.057E+01    2.040E+01    2.023E+01    2.005E+01    1.988E+01    1.971E+01    1.955E+01    1.938E+01
     1.921E+01    1.904E+01    1.887E+01    1.870E+01    1.853E+01    1.836E+01    1.820E+01    1.803E+01    1.786E+01    1.770E+01
     1.753E+01    1.736E+01    1.720E+01    1.703E+01    1.687E+01    1.671E+01    1.654E+01    1.638E+01    1.621E+01    1.605E+01
     1.589E+01    1.573E+01    1.557E+01    1.541E+01    1.525E+01    1.509E+01    1.493E+01    1.477E+01    1.461E+01    1.445E+01
     1.429E+01    1.414E+01    1.398E+01    1.383E+01    1.367E+01    1.352E+01    1.336E+01    1.321E+01    1.306E+01    1.290E+01
     1.275E+01    1.260E+01    1.245E+01    1.230E+01    1.215E+01    1.200E+01    1.186E+01    1.171E+01    1.156E+01    1.142E+01
     1.127E+01    1.113E+01    1.098E+01    1.084E+01    1.070E+01    1.056E+01    1.042E+01    1.028E+01    1.014E+01    9.999E+00
     9.862E+00    9.725E+00    9.589E+00    9.454E+00    9.319E+00    9.186E+00    9.053E+00    8.921E+00    8.789E+00    8.659E+00
     8.529E+00    8.400E+00    8.271E+00    8.144E+00    8.017E+00    7.891E+00    7.766E+00    7.641E+00    7.518E+00    7.394E+00
     7.272E+00    7.151E+00    7.030E+00    6.910E+00    6.790E+00    6.672E+00    6.554E+00    6.437E+00    6.320E+00    6.204E+00
     6.089E+00    5.975E+00    5.861E+00    5.748E+00    5.636E+00    5.525E+00    5.414E+00    5.304E+00    5.194E+00    5.085E+00
     4.977E+00    4.870E+00    4.763E+00    4.657E+00    4.552E+00    4.447E+00    4.343E+00    4.240E+00    4.137E+00    4.035E+00
     3.934E+00    3.833E+00    3.733E+00    3.634E+00    3.535E+00    3.437E+00    3.340E+00    3.243E+00    3.147E+00    3.052E+00
     2.957E+00    2.864E+00    2.770E+00    2.678E+00    2.586E+00    2.495E+00    2.405E+00    2.315E+00    2.226E+00    2.138E+00
     2.050E+00    1.963E+00    1.877E+00    1.791E+00    1.707E+00    1.622E+00    1.539E+00    1.456E+00    1.374E+00    1.293E+00
     1.213E+00    1.133E+00    1.054E+00    9.753E-01    8.976E-01    8.206E-01    7.444E-01    6.688E-01    5.940E-01    5.199E-01
     4.466E-01    3.740E-01    3.021E-01    2.309E-01    1.604E-01    9.069E-02    2.166E-02   -4.666E-02   -1.143E-01   -1.812E-01
    -2.474E-01   -3.129E-01   -3.778E-01   -4.419E-01   -5.054E-01   -5.682E-01   -6.303E-01   -6.918E-01   -7.525E-01   -8.127E-01
    -8.721E-01   -9.309E-01   -9.891E-01   -1.047E+00   -1.103E+00   -1.160E+00   -1.215E+00   -1.270E+00   -1.325E+00   -1.378E+00
    -1.431E+00   -1.484E+00   -1.536E+00   -1.587E+00   -1.638E+00   -1.688E+00   -1.737E+00   -1.786E+00   -1.834E+00   -1.882E+00
    -1.929E+00   -1.975E+00   -2.021E+00   -2.067E+00   -2.112E+00   -2.156E+00   -2.199E+00   -2.243E+00   -2.285E+00   -2.327E+00
    -2.369E+00   -2.410E+00   -2.450E+00   -2.490E+00   -2.530E+00   -2.569E+00   -2.607E+00   -2.645E+00   -2.683E+00   -2.720E+00
    -2.756E+00   -2.792E+00   -2.828E+00   -2.864E+00   -2.898E+00   -2.933E+00   -2.967E+00   -3.001E+00   -3.034E+00   -3.067E+00
    -3.099E+00   -3.132E+00   -3.163E+00   -3.195E+00   -3.226E+00   -3.257E+00   -3.287E+00   -3.318E+00   -3.347E+00   -3.377E+00
    -3.406E+00   -3.435E+00   -3.464E+00   -3.492E+00   -3.520E+00   -3.548E+00   -3.576E+00   -3.604E+00   -3.631E+00   -3.658E+00
    -3.685E+00   -3.711E+00   -3.737E+00   -3.764E+00   -3.790E+00   -3.815E+00   -3.841E+00   -3.867E+00   -3.892E+00   -3.917E+00
    -3.942E+00   -3.967E+00   -3.991E+00   -4.016E+00   -4.040E+00   -4.064E+00   -4.088E+00   -4.112E+00   -4.136E+00   -4.160E+00
    -4.183E+00   -4.207E+00   -4.230E+00   -4.253E+00   -4.276E+00   -4.299E+00   -4.322E+00   -4.345E+00   -4.368E+00   -4.390E+00
    -4.413E+00   -4.436E+00   -4.458E+00   -4.480E+00   -4.503E+00   -4.525E+00   -4.547E+00   -4.569E+00   -4.591E+00   -4.613E+00
    -4.635E+00   -4.657E+00   -4.679E+00   -4.701E+00   -4.723E+00   -4.745E+00   -4.766E+00   -4.788E+00   -4.810E+00   -4.832E+00
    -4.854E+00   -4.875E+00   -4.897E+00   -4.919E+00   -4.941E+00   -4.962E+00   -4.984E+00   -5.005E+00   -5.027E+00   -5.048E+00
    -5.070E+00   -5.091E+00   -5.112E+00   -5.134E+00   -5.155E+00   -5.176E+00   -5.197E+00   -5.218E+00   -5.239E+00   -5.260E+00
    -5.280E+00   -5.301E+00   -5.322E+00   -5.342E+00   -5.362E+00   -5.383E+00   -5.403E+00   -5.423E+00   -5.443E+00   -5.463E+00
    -5.482E+00   -5.502E+00   -5.521E+00   -5.541E+00   -5.560E+00   -5.579E+00   -5.598E+00   -5.616E+00   -5.635E+00   -5.653E+00
    -5.672E+00   -5.690E+00   -5.708E+00   -5.726E+00   -5.743E+00   -5.761E+00   -5.778E+00   -5.795E+00   -5.812E+00   -5.829E+00
    -5.846E+00   -5.862E+00   -5.879E+00   -5.895E+00   -5.911E+00   -5.927E+00   -5.942E+00   -5.958E+00   -5.973E+00   -5.988E+00
    -6.003E+00   -6.018E+00   -6.033E+00   -6.047E+00   -6.062E+00   -6.076E+00   -6.090E+00   -6.103E+00   -6.117E+00   -6.131E+00
    -6.144E+00   -6.157E+00   -6.170E+00   -6.182E+00   -6.195E+00   -6.207E+00   -6.220E+00   -6.232E+00   -6.243E+00   -6.255E+00
    -6.266E+00   -6.278E+00   -6.289E+00   -6.300E+00   -6.310E+00   -6.321E+00   -6.331E+00   -6.342E+00   -6.352E+00   -6.361E+00
    -6.371E+00   -6.380E+00   -6.390E+00   -6.399E+00   -6.408E+00   -6.417E+00   -6.425E+00   -6.434E+00   -6.442E+00   -6.450E+00
    -6.458E+00   -6.466E+00   -6.474E+00   -6.482E+00   -6.490E+00   -6.497E+00   -6.505E+00   -6.512E+00   -6.519E+00   -6.526E+00
    -6.533E+00   -6.540E+00   -6.547E+00   -6.554E+00   -6.560E+00   -6.567E+00   -6.574E+00   -6.580E+00   -6.586E+00   -6.593E+00
    -6.599E+00   -6.605E+00   -6.612E+00   -6.618E+00   -6.624E+00   -6.630E+00   -6.636E+00   -6.643E+00   -6.649E+00   -6.655E+00
    -6.661E+00   -6.667E+00   -6.673E+00   -6.679E+00   -6.685E+00   -6.691E+00   -6.697E+00   -6.704E+00   -6.710E+00   -6.716E+00
    -6.722E+00   -6.728E+00   -6.734E+00   -6.740E+00   -6.747E+00   -6.753E+00   -6.759E+00   -6.765E+00   -6.771E+00   -6.778E+00
    -6.784E+00   -6.790E+00   -6.796E+00   -6.802E+00   -6.809E+00   -6.815E+00   -6.821E+00   -6.828E+00   -6.834E+00   -6.840E+00
    -6.846E+00   -6.853E+00   -6.859E+00   -6.865E+00   -6.872E+00   -6.878E+00   -6.884E+00   -6.891E+00   -6.897E+00   -6.904E+00
    -6.910E+00   -6.916E+00   -6.923E+00   -6.929E+00   -6.936E+00   -6.942E+00   -6.949E+00   -6.955E+00
 Ala      Conc. = 1.42E+03
