 LCModel (Version 6.3-1L) Copyright: S.W. Provencher.          Ref.: Magn. Reson. Med. 30:672-679 (1993).                
 Slice#2 Row#7 Col#7  K_02_press_1_raw_act
 36 lines in following concentration table = NCONC+1
    Conc.  %SD /Cr+PCr  Metabolite                                         
  115.222 134% 5.1E-02 Ala                                                 
    0.000 999%   0.000 Asp                                                 
  847.175  34%   0.374 Cr                                                  
 1.42E+03  21%   0.626 PCr                                                 
    0.852 999% 3.8E-04 GABA                                                
    0.000 999%   0.000 Glc                                                 
 1.11E+03  29%   0.489 Gln                                                 
 2.15E+03  18%   0.949 Glu                                                 
  826.995   5%   0.365 GPC                                                 
    0.000 999%   0.000 PCh                                                 
  781.015  14%   0.345 GSH                                                 
 2.36E+03  17%   1.041 Ins                                                 
  238.624  71%   0.105 Lac                                                 
 3.24E+03   4%   1.432 NAA                                                 
    0.000 999%   0.000 NAAG                                                
  131.567  33% 5.8E-02 Scyllo                                              
   50.713 617% 2.2E-02 Tau                                                 
  195.475  91% 8.6E-02 -CrCH2                                              
  826.995   5%   0.365 GPC+PCh                                             
 3.24E+03   4%   1.432 NAA+NAAG                                            
 2.27E+03   4%   1.000 Cr+PCr                                              
 3.26E+03  16%   1.439 Glu+Gln                                             
  186.154 195% 8.2E-02 Lip13a                                              
    0.000 999%   0.000 Lip13b                                              
    0.000 999%   0.000 Lip09                                               
 2.16E+03  17%   0.954 MM09                                                
   39.562 249% 1.7E-02 Lip20                                               
 4.88E+03  12%   2.154 MM20                                                
  727.308  35%   0.321 MM12                                                
 2.98E+03  20%   1.315 MM14                                                
    0.000 999%   0.000 MM17                                                
  186.154 195% 8.2E-02 Lip13a+Lip13b                                       
 3.89E+03  18%   1.719 MM14+Lip13a+Lip13b+MM12                             
 2.16E+03  17%   0.954 MM09+Lip09                                          
 4.92E+03  12%   2.171 MM20+Lip20                                          
   6 lines in following misc. output table
  FWHM = 0.038 ppm    S/N =  12                                            
  Data shift = 0.000 ppm                                                   
  Ph: -54 deg     -12.4 deg/ppm                                            
  alphaB,S = 8.4E-01,   2.7E+01                                            
   14 spline knots.   Ns = 6(1)                                            
  ( 9) 5 infls.   (13) 3 extrs.                                            
  498 points on ppm-axis = NY
      4.000000     3.992357     3.984714     3.977070     3.969427     3.961784     3.954141     3.946497     3.938854     3.931211
      3.923568     3.915925     3.908281     3.900638     3.892995     3.885352     3.877708     3.870065     3.862422     3.854779
      3.847136     3.839492     3.831849     3.824206     3.816563     3.808919     3.801276     3.793633     3.785990     3.778347
      3.770703     3.763060     3.755417     3.747774     3.740130     3.732487     3.724844     3.717201     3.709558     3.701914
      3.694271     3.686628     3.678985     3.671341     3.663698     3.656055     3.648412     3.640769     3.633125     3.625482
      3.617839     3.610196     3.602552     3.594909     3.587266     3.579623     3.571980     3.564336     3.556693     3.549050
      3.541407     3.533763     3.526120     3.518477     3.510834     3.503191     3.495547     3.487904     3.480261     3.472618
      3.464974     3.457331     3.449688     3.442045     3.434402     3.426758     3.419115     3.411472     3.403829     3.396185
      3.388542     3.380899     3.373256     3.365613     3.357969     3.350326     3.342683     3.335040     3.327396     3.319753
      3.312110     3.304467     3.296824     3.289180     3.281537     3.273894     3.266251     3.258607     3.250964     3.243321
      3.235678     3.228034     3.220391     3.212748     3.205105     3.197462     3.189818     3.182175     3.174532     3.166889
      3.159245     3.151602     3.143959     3.136316     3.128673     3.121029     3.113386     3.105743     3.098100     3.090456
      3.082813     3.075170     3.067527     3.059884     3.052240     3.044597     3.036954     3.029311     3.021667     3.014024
      3.006381     2.998738     2.991095     2.983451     2.975808     2.968165     2.960522     2.952878     2.945235     2.937592
      2.929949     2.922306     2.914662     2.907019     2.899376     2.891733     2.884089     2.876446     2.868803     2.861160
      2.853517     2.845873     2.838230     2.830587     2.822944     2.815300     2.807657     2.800014     2.792371     2.784728
      2.777084     2.769441     2.761798     2.754155     2.746511     2.738868     2.731225     2.723582     2.715939     2.708295
      2.700652     2.693009     2.685366     2.677722     2.670079     2.662436     2.654793     2.647150     2.639506     2.631863
      2.624220     2.616577     2.608933     2.601290     2.593647     2.586004     2.578361     2.570717     2.563074     2.555431
      2.547788     2.540144     2.532501     2.524858     2.517215     2.509572     2.501928     2.494285     2.486642     2.478999
      2.471355     2.463712     2.456069     2.448426     2.440783     2.433139     2.425496     2.417853     2.410210     2.402566
      2.394923     2.387280     2.379637     2.371994     2.364350     2.356707     2.349064     2.341421     2.333777     2.326134
      2.318491     2.310848     2.303205     2.295561     2.287918     2.280275     2.272632     2.264988     2.257345     2.249702
      2.242059     2.234416     2.226772     2.219129     2.211486     2.203843     2.196199     2.188556     2.180913     2.173270
      2.165627     2.157983     2.150340     2.142697     2.135054     2.127410     2.119767     2.112124     2.104481     2.096838
      2.089194     2.081551     2.073908     2.066265     2.058621     2.050978     2.043335     2.035692     2.028049     2.020405
      2.012762     2.005119     1.997476     1.989833     1.982190     1.974546     1.966903     1.959260     1.951617     1.943974
      1.936331     1.928688     1.921045     1.913402     1.905759     1.898115     1.890472     1.882829     1.875186     1.867543
      1.859900     1.852257     1.844614     1.836971     1.829327     1.821684     1.814041     1.806398     1.798755     1.791112
      1.783469     1.775826     1.768183     1.760540     1.752896     1.745253     1.737610     1.729967     1.722324     1.714681
      1.707038     1.699395     1.691752     1.684108     1.676465     1.668822     1.661179     1.653536     1.645893     1.638250
      1.630607     1.622964     1.615321     1.607677     1.600034     1.592391     1.584748     1.577105     1.569462     1.561819
      1.554176     1.546533     1.538890     1.531246     1.523603     1.515960     1.508317     1.500674     1.493031     1.485388
      1.477745     1.470102     1.462458     1.454815     1.447172     1.439529     1.431886     1.424243     1.416600     1.408957
      1.401314     1.393671     1.386027     1.378384     1.370741     1.363098     1.355455     1.347812     1.340169     1.332526
      1.324883     1.317240     1.309596     1.301953     1.294310     1.286667     1.279024     1.271381     1.263738     1.256095
      1.248452     1.240808     1.233165     1.225522     1.217879     1.210236     1.202593     1.194950     1.187307     1.179664
      1.172021     1.164377     1.156734     1.149091     1.141448     1.133805     1.126162     1.118519     1.110876     1.103233
      1.095590     1.087946     1.080303     1.072660     1.065017     1.057374     1.049731     1.042088     1.034445     1.026802
      1.019158     1.011515     1.003872     0.996229     0.988586     0.980943     0.973300     0.965657     0.958014     0.950371
      0.942727     0.935084     0.927441     0.919798     0.912155     0.904512     0.896869     0.889226     0.881583     0.873940
      0.866296     0.858653     0.851010     0.843367     0.835724     0.828081     0.820438     0.812795     0.805152     0.797508
      0.789865     0.782222     0.774579     0.766936     0.759293     0.751650     0.744007     0.736364     0.728721     0.721077
      0.713434     0.705791     0.698148     0.690505     0.682862     0.675219     0.667576     0.659933     0.652290     0.644646
      0.637003     0.629360     0.621717     0.614074     0.606431     0.598788     0.591145     0.583502     0.575858     0.568215
      0.560572     0.552929     0.545286     0.537643     0.530000     0.522357     0.514714     0.507071     0.499427     0.491784
      0.484141     0.476498     0.468855     0.461212     0.453569     0.445925     0.438282     0.430639     0.422996     0.415353
      0.407710     0.400067     0.392424     0.384780     0.377137     0.369494     0.361851     0.354208     0.346565     0.338922
      0.331278     0.323635     0.315992     0.308349     0.300706     0.293063     0.285420     0.277777     0.270133     0.262490
      0.254847     0.247204     0.239561     0.231918     0.224275     0.216631     0.208988     0.201345
 NY phased data points follow
  -1.06637E+02 -1.00660E+02 -9.63350E+01 -9.14009E+01 -8.40087E+01 -8.00056E+01 -6.95304E+01 -6.26225E+01 -4.91822E+01 -3.47075E+01
  -3.20426E+01 -2.95222E+01 -3.47060E+01 -5.40688E+01 -5.36095E+01 -5.95845E+01 -7.17841E+01 -6.99885E+01 -8.64961E+01 -8.17617E+01
  -7.01039E+01 -7.14072E+01 -7.90876E+01 -6.17583E+01 -6.66362E+01 -6.90808E+01 -6.73111E+01 -6.21588E+01 -5.93191E+01 -6.05886E+01
  -4.80137E+01 -4.52217E+01 -4.68292E+01 -5.76957E+01 -5.15081E+01 -5.99631E+01 -5.35214E+01 -5.60671E+01 -5.40820E+01 -5.67314E+01
  -5.12053E+01 -5.28470E+01 -4.63203E+01 -5.22687E+01 -5.13804E+01 -4.38522E+01 -3.44673E+01 -3.34135E+01 -3.37500E+01 -3.75836E+01
  -4.30956E+01 -4.57184E+01 -5.21798E+01 -4.83769E+01 -5.04573E+01 -4.21727E+01 -4.53765E+01 -4.37915E+01 -4.30195E+01 -4.71613E+01
  -4.95653E+01 -4.37510E+01 -5.08270E+01 -5.30646E+01 -5.48465E+01 -4.87756E+01 -5.99457E+01 -6.40861E+01 -5.19274E+01 -5.54677E+01
  -4.89800E+01 -5.31687E+01 -5.19859E+01 -4.43428E+01 -4.66773E+01 -4.54051E+01 -4.86425E+01 -4.21049E+01 -5.01949E+01 -4.61488E+01
  -5.08249E+01 -5.20898E+01 -4.66190E+01 -4.15504E+01 -3.76771E+01 -4.38472E+01 -5.00743E+01 -4.58211E+01 -3.96928E+01 -3.24174E+01
  -3.31263E+01 -3.21381E+01 -3.36937E+01 -2.84845E+01 -2.98504E+01 -2.71576E+01 -2.60713E+01 -3.08796E+01 -1.52588E+01 -1.54762E+01
   1.17010E+01  1.68881E+01  4.06030E+01  5.15141E+01  3.62179E+01  2.24459E+01  6.94368E+00  1.14608E+00 -1.11112E+01 -1.83960E+01
  -2.26989E+01 -3.03626E+01 -2.68076E+01 -2.96843E+01 -1.87480E+01 -3.03823E+01 -2.65742E+01 -2.91471E+01 -1.94353E+01 -1.94562E+01
  -1.88987E+01 -2.10769E+01 -1.00938E+01 -1.41802E+01  2.02790E+00  2.76981E+01  5.03314E+01  6.02690E+01  5.99842E+01  4.32382E+01
   1.88401E+01  1.58322E+01  5.50403E+00 -1.95200E+01 -1.75167E+01 -1.84766E+01 -2.72034E+01 -2.39069E+01 -2.65956E+01 -2.92709E+01
  -1.54519E+01 -2.10121E+01 -1.62862E+01 -2.26645E+01 -1.99076E+01 -2.28652E+01 -2.77285E+01 -2.50016E+01 -2.28923E+01 -3.08249E+01
  -2.17589E+01 -2.25626E+01 -2.05694E+01 -1.58314E+01 -2.10607E+01 -2.17232E+01 -3.22331E+01 -1.44089E+01 -2.78840E+01 -2.37366E+01
  -2.08086E+01 -2.35043E+01 -3.00825E+01 -2.37755E+01 -1.49334E+01 -1.61827E+01 -2.42767E+01 -2.01232E+01 -2.33809E+01 -2.65646E+01
  -3.09784E+01 -2.91415E+01 -2.84101E+01 -3.10486E+01 -4.49292E+01 -4.27718E+01 -4.37802E+01 -3.75477E+01 -4.31412E+01 -3.45525E+01
  -3.65533E+01 -3.18407E+01 -2.62747E+01 -3.47620E+01 -2.70445E+01 -3.54444E+01 -2.93757E+01 -2.27759E+01 -3.09751E+01 -2.19028E+01
  -1.48944E+01 -1.47518E+01 -1.56419E+01 -1.06473E+01 -1.17153E+01 -9.12120E+00 -1.95096E+01 -1.89669E+01 -1.53452E+01 -1.70503E+01
  -1.19482E+01 -2.50790E+01 -1.84981E+01 -7.08016E+00 -4.22536E+00 -1.26217E+01 -4.55189E-01 -1.38201E+01 -2.80435E+01 -2.05703E+01
  -2.46250E+01 -1.00461E+01 -1.96093E+01 -9.88392E+00 -9.40847E+00 -3.23073E+00  1.46203E+01  1.30769E+01  1.95938E+00 -7.60451E+00
  -1.34526E+01 -1.73310E+01 -1.37810E+01 -1.75685E+01 -1.79428E+01 -3.86490E+00 -4.58416E+00  5.31049E+00  2.22414E+00  2.68911E+00
  -8.60800E+00  7.52886E-01  4.21709E+00  1.21124E+00  1.03396E+00 -2.47259E+00 -6.44204E-01  6.56301E+00 -2.75176E+00 -6.59180E-01
  -8.71483E+00 -1.53881E+00 -5.97469E+00  9.01156E-01  1.97108E+00  1.71698E+00  7.21181E+00  5.58317E+00  3.47585E+00  1.12804E+01
   1.14578E+01  9.52664E+00  1.62433E+01  2.01428E+01  3.16889E+01  3.62554E+01  3.46537E+01  3.59862E+01  6.10999E+01  1.03541E+02
   1.29733E+02  1.33171E+02  1.06965E+02  8.49038E+01  6.08034E+01  5.23688E+01  2.39155E+01  2.69311E+01  8.52170E+00  1.34986E+01
   6.48566E+00  8.09598E+00  8.24590E+00  9.41354E+00  7.98285E+00  1.28632E+00 -2.07480E+00 -7.58888E-01 -5.09648E+00 -4.03967E+00
   1.68550E+00 -1.28708E+00 -6.10778E+00 -5.87751E+00 -9.76609E+00 -1.14107E+01 -2.95228E+00 -1.49276E+00  4.73542E+00 -6.36650E+00
  -5.69192E+00 -8.14817E+00 -4.35898E+00 -6.12592E+00 -4.02865E+00 -9.82322E+00 -1.41991E+01 -4.22776E+00  4.62965E-01 -9.59965E+00
  -6.47234E-01 -8.95780E+00 -3.82410E+00 -3.30306E+00 -3.14344E-01 -7.62811E+00 -6.94029E+00 -5.42636E+00  9.51657E-01  1.33015E+00
   1.74246E+00  8.94960E+00  3.10051E+00  6.19522E+00  2.33894E+00  1.20567E+01  1.52141E+01  4.51573E+00  1.20496E+01  4.13436E+00
   1.01608E+01  5.42234E+00  2.98350E+00  1.01542E+01  7.56540E+00  8.23125E+00  3.90426E+00  1.11988E+01  7.07720E+00  1.47365E+01
   1.74316E+01  8.49788E+00  9.34168E+00  1.54174E+01  1.56811E+01  1.95759E+01  1.89956E+01  1.95812E+01  2.22716E+01  1.99324E+01
   1.56313E+01  8.02166E+00  1.97888E+01  1.32036E+01  1.30924E+01  9.73748E+00  1.63161E+01  1.34815E+01  1.88027E+01  1.63303E+01
   1.43901E+01  1.00742E+01  5.11126E+00  9.71016E+00  4.57589E+00  8.66068E-01  1.36265E+01  7.68733E+00  1.05988E+01  9.82234E+00
   1.48435E+01  1.19791E+01  1.19966E+01  1.27179E+01  1.24387E+01  1.41022E+01  9.11451E+00  5.34572E+00  1.01556E+01  1.20155E+01
   1.31587E+01  7.04485E+00  9.01205E+00  1.09943E+01  1.18806E+01  1.43692E+01  9.28984E+00  7.54552E+00  1.28163E+01  1.34569E+01
   3.07870E+00  1.09178E+01  1.18948E+01  8.82790E+00  1.43844E+01  1.42727E+01  1.33402E+01  6.61719E+00  1.15096E+01  6.28531E+00
   1.78234E+01  1.42155E+01  1.51252E+01  1.50507E+01  1.31018E+01  9.50593E+00  9.73168E+00  1.15822E+01  1.80706E+01  1.46873E+01
   2.30298E+01  1.91816E+01  1.64933E+01  1.86646E+01  2.02134E+01  2.76497E+01  2.39642E+01  2.61145E+01  1.75313E+01  2.72331E+01
   2.45885E+01  2.40371E+01  1.87812E+01  2.94419E+01  2.01995E+01  2.29537E+01  1.99907E+01  1.60981E+01  1.34783E+01  1.93518E+01
   1.81991E+01  2.00824E+01  1.62492E+01  2.70636E+01  1.79190E+01  1.69948E+01  1.83611E+01  1.81019E+01  1.79255E+01  1.10155E+01
   1.23478E+01  1.37021E+01  1.82220E+01  2.07166E+01  7.51869E+00  1.33964E+01  1.33828E+01  1.71717E+01  2.16510E+01  6.96409E+00
   1.79194E+01  8.70745E+00  1.78879E+01  8.97530E+00  1.55967E+01  2.16090E+01  1.27746E+01  1.84923E+01  1.48597E+01  8.99530E+00
   1.14558E+01  1.88315E+01  1.55805E+01  1.87864E+01  1.43178E+01  1.17946E+01  1.75801E+01  1.12182E+01  1.42736E+01  1.37185E+01
   1.01548E+01  1.27364E+01  1.78408E+01  1.02038E+01  1.67991E+01  1.48611E+01  1.64527E+01  1.54219E+01  1.68721E+01  1.51701E+01
   1.61902E+01  1.95644E+01  1.15962E+01  1.78927E+01  1.15946E+01  2.28438E+01  2.28466E+01  2.69144E+01  1.78160E+01  9.45301E+00
   1.19012E+01  2.05594E+01  1.55329E+01  1.89320E+01  1.56775E+01  2.37992E+01  1.12470E+01  2.15467E+01  1.49207E+01  2.37175E+01
   1.07491E+01  1.58188E+01  2.17750E+01  1.97207E+01  1.44403E+01  2.19577E+01  1.92343E+01  1.50967E+01
 NY points of the fit to the data follow
  -8.96816E+01 -8.94573E+01 -8.83493E+01 -8.45863E+01 -8.01605E+01 -7.63784E+01 -7.15271E+01 -6.26244E+01 -4.95567E+01 -3.67487E+01
  -3.01050E+01 -3.19551E+01 -3.96513E+01 -4.80090E+01 -5.48878E+01 -6.04007E+01 -6.54753E+01 -6.94076E+01 -7.17545E+01 -7.23456E+01
  -7.22559E+01 -7.22346E+01 -7.24364E+01 -7.13712E+01 -6.92951E+01 -6.92674E+01 -6.90432E+01 -6.58724E+01 -6.02429E+01 -5.37581E+01
  -4.87616E+01 -4.66185E+01 -4.71135E+01 -4.85768E+01 -5.06004E+01 -5.41719E+01 -5.82246E+01 -6.14824E+01 -6.34818E+01 -6.40645E+01
  -6.21999E+01 -5.89260E+01 -5.66882E+01 -5.49457E+01 -5.12911E+01 -4.53960E+01 -3.96463E+01 -3.71287E+01 -3.90444E+01 -4.35868E+01
  -4.79624E+01 -5.11585E+01 -5.34347E+01 -5.48272E+01 -5.54246E+01 -5.49908E+01 -5.37160E+01 -5.18074E+01 -4.93630E+01 -4.71593E+01
  -4.61574E+01 -4.66668E+01 -4.81796E+01 -4.97585E+01 -5.08498E+01 -5.09101E+01 -5.02979E+01 -4.93972E+01 -4.82226E+01 -4.66875E+01
  -4.50545E+01 -4.37734E+01 -4.31873E+01 -4.32440E+01 -4.35733E+01 -4.37128E+01 -4.37453E+01 -4.37967E+01 -4.38784E+01 -4.38354E+01
  -4.37278E+01 -4.30118E+01 -4.23832E+01 -4.24862E+01 -4.23142E+01 -4.13906E+01 -4.02248E+01 -3.93312E+01 -3.92507E+01 -3.98032E+01
  -4.01175E+01 -3.97723E+01 -3.90933E+01 -3.82663E+01 -3.74291E+01 -3.58155E+01 -3.02359E+01 -2.31898E+01 -2.17479E+01 -1.70991E+01
  -1.23578E-01  2.41828E+01  4.44380E+01  5.06343E+01  4.05916E+01  2.30825E+01  8.48023E+00 -2.04659E+00 -1.26061E+01 -2.22766E+01
  -2.86752E+01 -3.08327E+01 -3.13764E+01 -3.14809E+01 -3.14137E+01 -3.12020E+01 -3.09029E+01 -3.05633E+01 -3.00883E+01 -2.90917E+01
  -2.51017E+01 -1.59100E+01 -1.16750E+01 -9.75440E+00  2.85842E+00  2.63457E+01  5.00005E+01  6.24747E+01  5.71171E+01  3.97345E+01
   2.32243E+01  1.31182E+01  3.54153E+00 -6.90767E+00 -1.65842E+01 -2.22895E+01 -2.50382E+01 -2.60550E+01 -2.56344E+01 -2.42595E+01
  -2.25870E+01 -2.12087E+01 -2.05151E+01 -2.05198E+01 -2.09936E+01 -2.15207E+01 -2.20756E+01 -2.26008E+01 -2.30995E+01 -2.34886E+01
  -2.37547E+01 -2.39945E+01 -2.42037E+01 -2.43159E+01 -2.43705E+01 -2.45695E+01 -2.45361E+01 -2.42000E+01 -2.41569E+01 -2.45964E+01
  -2.56151E+01 -2.65509E+01 -2.63083E+01 -2.50370E+01 -2.38391E+01 -2.35742E+01 -2.41705E+01 -2.50474E+01 -2.56928E+01 -2.61325E+01
  -2.67502E+01 -2.72894E+01 -2.73556E+01 -2.76281E+01 -2.85276E+01 -2.95577E+01 -2.96757E+01 -2.85680E+01 -2.73309E+01 -2.70320E+01
  -2.74965E+01 -2.79899E+01 -2.75333E+01 -2.64227E+01 -2.59374E+01 -2.62033E+01 -2.58943E+01 -2.42581E+01 -2.13441E+01 -1.79184E+01
  -1.53454E+01 -1.43293E+01 -1.45569E+01 -1.53781E+01 -1.66535E+01 -1.81021E+01 -1.92332E+01 -1.95304E+01 -1.85179E+01 -1.64090E+01
  -1.38876E+01 -1.13702E+01 -8.97991E+00 -7.09189E+00 -6.88780E+00 -7.59932E+00 -9.55037E+00 -1.36636E+01 -1.82032E+01 -2.11823E+01
  -2.16964E+01 -2.06811E+01 -1.84567E+01 -1.41988E+01 -8.37957E+00 -2.74273E+00 -6.01838E-02 -1.24045E+00 -4.56651E+00 -8.64268E+00
  -1.35518E+01 -1.86693E+01 -2.17579E+01 -2.11398E+01 -1.69708E+01 -1.17355E+01 -7.43646E+00 -4.07009E+00 -1.68181E+00 -8.29715E-01
  -1.45179E+00 -1.93998E+00 -1.90551E+00 -1.61650E+00 -8.76290E-01  4.50769E-01  1.94385E+00  2.98939E+00  3.75899E+00  3.91657E+00
   2.89207E+00  1.31349E+00  1.46235E-01 -5.45739E-03  1.13434E+00  3.37522E+00  5.61222E+00  7.18026E+00  8.34566E+00  9.17275E+00
   9.66547E+00  1.01644E+01  1.12538E+01  1.43237E+01  2.46313E+01  3.55894E+01  3.62326E+01  4.24945E+01  6.73977E+01  1.01557E+02
   1.27668E+02  1.31919E+02  1.12814E+02  8.51185E+01  6.39124E+01  4.84532E+01  3.22266E+01  1.75196E+01  8.20213E+00  4.79292E+00
   3.03368E+00  1.93388E+00  1.36006E+00  1.15327E+00  1.03638E+00  8.48537E-01  5.50662E-01  1.98125E-01 -1.97509E-01 -6.51232E-01
  -1.14282E+00 -1.58578E+00 -1.90994E+00 -2.13242E+00 -2.30416E+00 -2.45348E+00 -2.57284E+00 -2.66207E+00 -2.73182E+00 -2.79368E+00
  -2.83680E+00 -2.85644E+00 -2.85445E+00 -2.82979E+00 -2.78321E+00 -2.72010E+00 -2.64351E+00 -2.55021E+00 -2.43953E+00 -2.31482E+00
  -2.17634E+00 -2.02071E+00 -1.84589E+00 -1.65132E+00 -1.43858E+00 -1.20864E+00 -9.59941E-01 -6.88190E-01 -3.90193E-01 -6.34745E-02
   2.94017E-01  6.84799E-01  1.11144E+00  1.57693E+00  2.08433E+00  2.63613E+00  3.23367E+00  3.87881E+00  4.57492E+00  5.33031E+00
   6.16782E+00  7.09712E+00  7.90906E+00  8.67675E+00  9.67134E+00  1.07485E+01  1.15576E+01  1.19149E+01  1.18780E+01  1.18871E+01
   1.21623E+01  1.24601E+01  1.27455E+01  1.32914E+01  1.42067E+01  1.53242E+01  1.62440E+01  1.66794E+01  1.67258E+01  1.66608E+01
   1.65873E+01  1.65183E+01  1.63591E+01  1.57862E+01  1.53977E+01  1.55220E+01  1.55660E+01  1.48828E+01  1.32861E+01  1.13141E+01
   9.81780E+00  8.67459E+00  7.82296E+00  7.55561E+00  8.20191E+00  9.56427E+00  1.10283E+01  1.17989E+01  1.18314E+01  1.16275E+01
   1.14823E+01  1.12270E+01  1.08429E+01  1.04398E+01  1.01880E+01  1.00319E+01  9.91842E+00  9.82697E+00  9.74788E+00  9.67722E+00
   9.61341E+00  9.55642E+00  9.50648E+00  9.46499E+00  9.43400E+00  9.41664E+00  9.41573E+00  9.43406E+00  9.47388E+00  9.53801E+00
   9.62937E+00  9.75131E+00  9.90647E+00  1.00974E+01  1.03261E+01  1.05954E+01  1.09079E+01  1.12663E+01  1.16723E+01  1.21271E+01
   1.26314E+01  1.31857E+01  1.37893E+01  1.44405E+01  1.51353E+01  1.58684E+01  1.66328E+01  1.74202E+01  1.82202E+01  1.90207E+01
   1.98077E+01  2.05663E+01  2.12813E+01  2.19381E+01  2.25218E+01  2.30192E+01  2.34183E+01  2.37102E+01  2.38888E+01  2.39518E+01
   2.38995E+01  2.37357E+01  2.34672E+01  2.31040E+01  2.26584E+01  2.21448E+01  2.15778E+01  2.09726E+01  2.03441E+01  1.97070E+01
   1.90744E+01  1.84581E+01  1.78672E+01  1.73093E+01  1.67902E+01  1.63140E+01  1.58830E+01  1.54980E+01  1.51581E+01  1.48618E+01
   1.46069E+01  1.43911E+01  1.42114E+01  1.40645E+01  1.39469E+01  1.38556E+01  1.37878E+01  1.37411E+01  1.37129E+01  1.37008E+01
   1.37025E+01  1.37165E+01  1.37414E+01  1.37760E+01  1.38189E+01  1.38689E+01  1.39250E+01  1.39867E+01  1.40534E+01  1.41246E+01
   1.41995E+01  1.42776E+01  1.43584E+01  1.44420E+01  1.45280E+01  1.46163E+01  1.47062E+01  1.47977E+01  1.48905E+01  1.49850E+01
   1.50807E+01  1.51776E+01  1.52752E+01  1.53737E+01  1.54730E+01  1.55733E+01  1.56744E+01  1.57760E+01  1.58779E+01  1.59804E+01
   1.60835E+01  1.61872E+01  1.62913E+01  1.63957E+01  1.65003E+01  1.66054E+01  1.67108E+01  1.68168E+01  1.69230E+01  1.70293E+01
   1.71357E+01  1.72427E+01  1.73499E+01  1.74576E+01  1.75653E+01  1.76732E+01  1.77813E+01  1.78899E+01  1.79988E+01  1.81081E+01
   1.82174E+01  1.83269E+01  1.84369E+01  1.85474E+01  1.86582E+01  1.87694E+01  1.88808E+01  1.89927E+01
 NY background values follow
    -9.435E+01   -9.369E+01   -9.302E+01   -9.235E+01   -9.168E+01   -9.102E+01   -9.035E+01   -8.969E+01   -8.902E+01   -8.836E+01
    -8.769E+01   -8.703E+01   -8.636E+01   -8.570E+01   -8.504E+01   -8.438E+01   -8.372E+01   -8.307E+01   -8.241E+01   -8.176E+01
    -8.110E+01   -8.045E+01   -7.980E+01   -7.916E+01   -7.851E+01   -7.787E+01   -7.723E+01   -7.659E+01   -7.595E+01   -7.532E+01
    -7.469E+01   -7.406E+01   -7.343E+01   -7.281E+01   -7.219E+01   -7.157E+01   -7.096E+01   -7.035E+01   -6.974E+01   -6.913E+01
    -6.853E+01   -6.793E+01   -6.734E+01   -6.675E+01   -6.616E+01   -6.558E+01   -6.500E+01   -6.443E+01   -6.386E+01   -6.329E+01
    -6.273E+01   -6.217E+01   -6.161E+01   -6.106E+01   -6.052E+01   -5.997E+01   -5.944E+01   -5.890E+01   -5.837E+01   -5.784E+01
    -5.732E+01   -5.680E+01   -5.629E+01   -5.578E+01   -5.528E+01   -5.477E+01   -5.428E+01   -5.378E+01   -5.329E+01   -5.281E+01
    -5.233E+01   -5.185E+01   -5.138E+01   -5.091E+01   -5.044E+01   -4.998E+01   -4.953E+01   -4.908E+01   -4.863E+01   -4.818E+01
    -4.774E+01   -4.731E+01   -4.688E+01   -4.645E+01   -4.603E+01   -4.561E+01   -4.520E+01   -4.479E+01   -4.438E+01   -4.398E+01
    -4.358E+01   -4.319E+01   -4.280E+01   -4.241E+01   -4.203E+01   -4.166E+01   -4.128E+01   -4.092E+01   -4.055E+01   -4.019E+01
    -3.984E+01   -3.948E+01   -3.914E+01   -3.879E+01   -3.845E+01   -3.812E+01   -3.779E+01   -3.746E+01   -3.713E+01   -3.682E+01
    -3.650E+01   -3.619E+01   -3.588E+01   -3.558E+01   -3.528E+01   -3.498E+01   -3.469E+01   -3.440E+01   -3.411E+01   -3.383E+01
    -3.356E+01   -3.328E+01   -3.301E+01   -3.275E+01   -3.249E+01   -3.223E+01   -3.197E+01   -3.172E+01   -3.147E+01   -3.123E+01
    -3.099E+01   -3.075E+01   -3.052E+01   -3.029E+01   -3.007E+01   -2.984E+01   -2.963E+01   -2.941E+01   -2.920E+01   -2.899E+01
    -2.879E+01   -2.858E+01   -2.838E+01   -2.819E+01   -2.799E+01   -2.780E+01   -2.761E+01   -2.743E+01   -2.725E+01   -2.706E+01
    -2.688E+01   -2.671E+01   -2.653E+01   -2.636E+01   -2.619E+01   -2.602E+01   -2.585E+01   -2.568E+01   -2.551E+01   -2.535E+01
    -2.519E+01   -2.502E+01   -2.486E+01   -2.470E+01   -2.454E+01   -2.438E+01   -2.422E+01   -2.406E+01   -2.390E+01   -2.374E+01
    -2.358E+01   -2.342E+01   -2.327E+01   -2.311E+01   -2.295E+01   -2.279E+01   -2.262E+01   -2.246E+01   -2.230E+01   -2.214E+01
    -2.197E+01   -2.181E+01   -2.164E+01   -2.147E+01   -2.130E+01   -2.113E+01   -2.096E+01   -2.079E+01   -2.062E+01   -2.045E+01
    -2.027E+01   -2.010E+01   -1.992E+01   -1.975E+01   -1.957E+01   -1.940E+01   -1.922E+01   -1.905E+01   -1.887E+01   -1.869E+01
    -1.852E+01   -1.834E+01   -1.816E+01   -1.799E+01   -1.781E+01   -1.764E+01   -1.746E+01   -1.729E+01   -1.711E+01   -1.694E+01
    -1.677E+01   -1.660E+01   -1.643E+01   -1.626E+01   -1.609E+01   -1.592E+01   -1.575E+01   -1.559E+01   -1.542E+01   -1.526E+01
    -1.510E+01   -1.494E+01   -1.478E+01   -1.462E+01   -1.447E+01   -1.431E+01   -1.416E+01   -1.401E+01   -1.386E+01   -1.371E+01
    -1.357E+01   -1.343E+01   -1.328E+01   -1.314E+01   -1.301E+01   -1.287E+01   -1.273E+01   -1.260E+01   -1.247E+01   -1.233E+01
    -1.220E+01   -1.207E+01   -1.195E+01   -1.182E+01   -1.169E+01   -1.157E+01   -1.145E+01   -1.132E+01   -1.120E+01   -1.108E+01
    -1.096E+01   -1.084E+01   -1.072E+01   -1.060E+01   -1.048E+01   -1.037E+01   -1.025E+01   -1.014E+01   -1.002E+01   -9.905E+00
    -9.790E+00   -9.676E+00   -9.561E+00   -9.448E+00   -9.334E+00   -9.220E+00   -9.107E+00   -8.993E+00   -8.880E+00   -8.766E+00
    -8.653E+00   -8.539E+00   -8.425E+00   -8.311E+00   -8.197E+00   -8.082E+00   -7.967E+00   -7.853E+00   -7.737E+00   -7.622E+00
    -7.507E+00   -7.391E+00   -7.275E+00   -7.159E+00   -7.043E+00   -6.926E+00   -6.809E+00   -6.692E+00   -6.575E+00   -6.458E+00
    -6.340E+00   -6.222E+00   -6.104E+00   -5.986E+00   -5.867E+00   -5.748E+00   -5.629E+00   -5.510E+00   -5.390E+00   -5.270E+00
    -5.150E+00   -5.030E+00   -4.909E+00   -4.788E+00   -4.667E+00   -4.545E+00   -4.423E+00   -4.301E+00   -4.179E+00   -4.056E+00
    -3.934E+00   -3.810E+00   -3.687E+00   -3.563E+00   -3.439E+00   -3.315E+00   -3.190E+00   -3.065E+00   -2.940E+00   -2.814E+00
    -2.688E+00   -2.562E+00   -2.436E+00   -2.309E+00   -2.182E+00   -2.055E+00   -1.928E+00   -1.801E+00   -1.673E+00   -1.546E+00
    -1.418E+00   -1.290E+00   -1.162E+00   -1.034E+00   -9.056E-01   -7.774E-01   -6.491E-01   -5.207E-01   -3.924E-01   -2.640E-01
    -1.357E-01   -7.317E-03    1.210E-01    2.492E-01    3.774E-01    5.056E-01    6.336E-01    7.615E-01    8.893E-01    1.017E+00
     1.145E+00    1.272E+00    1.399E+00    1.526E+00    1.653E+00    1.780E+00    1.906E+00    2.032E+00    2.158E+00    2.284E+00
     2.409E+00    2.534E+00    2.659E+00    2.783E+00    2.907E+00    3.031E+00    3.155E+00    3.278E+00    3.401E+00    3.524E+00
     3.647E+00    3.769E+00    3.892E+00    4.014E+00    4.136E+00    4.258E+00    4.379E+00    4.501E+00    4.622E+00    4.744E+00
     4.865E+00    4.986E+00    5.107E+00    5.229E+00    5.350E+00    5.471E+00    5.592E+00    5.713E+00    5.834E+00    5.956E+00
     6.077E+00    6.199E+00    6.320E+00    6.442E+00    6.563E+00    6.685E+00    6.807E+00    6.929E+00    7.052E+00    7.174E+00
     7.297E+00    7.420E+00    7.543E+00    7.667E+00    7.790E+00    7.914E+00    8.039E+00    8.163E+00    8.288E+00    8.413E+00
     8.539E+00    8.664E+00    8.790E+00    8.916E+00    9.043E+00    9.169E+00    9.296E+00    9.423E+00    9.550E+00    9.677E+00
     9.804E+00    9.931E+00    1.006E+01    1.019E+01    1.031E+01    1.044E+01    1.057E+01    1.070E+01    1.082E+01    1.095E+01
     1.108E+01    1.121E+01    1.133E+01    1.146E+01    1.159E+01    1.171E+01    1.184E+01    1.197E+01    1.209E+01    1.222E+01
     1.235E+01    1.247E+01    1.260E+01    1.272E+01    1.285E+01    1.297E+01    1.310E+01    1.322E+01    1.335E+01    1.347E+01
     1.359E+01    1.372E+01    1.384E+01    1.396E+01    1.408E+01    1.420E+01    1.432E+01    1.444E+01    1.456E+01    1.468E+01
     1.480E+01    1.492E+01    1.504E+01    1.516E+01    1.528E+01    1.539E+01    1.551E+01    1.563E+01    1.575E+01    1.586E+01
     1.598E+01    1.609E+01    1.621E+01    1.633E+01    1.644E+01    1.656E+01    1.667E+01    1.679E+01    1.690E+01    1.702E+01
     1.713E+01    1.725E+01    1.736E+01    1.747E+01    1.759E+01    1.770E+01    1.782E+01    1.793E+01    1.804E+01    1.816E+01
     1.827E+01    1.839E+01    1.850E+01    1.861E+01    1.873E+01    1.884E+01    1.895E+01    1.907E+01
 Ala      Conc. = 1.15E+02
