 LCModel (Version 6.3-1L) Copyright: S.W. Provencher.          Ref.: Magn. Reson. Med. 30:672-679 (1993).                
 Slice#2 Row#9 Col#13  K_02_press_1_raw_act
 36 lines in following concentration table = NCONC+1
    Conc.  %SD /Cr+PCr  Metabolite                                         
    0.000 999%   0.000 Ala                                                 
   44.193 102%   0.000 Asp                                                 
    0.000 999%   0.000 Cr                                                  
    0.000 999%   0.000 PCr                                                 
   21.946 126%   0.000 GABA                                                
   14.440 189%   0.000 Glc                                                 
    0.000 999%   0.000 Gln                                                 
  393.222  29%   0.000 Glu                                                 
    0.000 999%   0.000 GPC                                                 
    0.000 999%   0.000 PCh                                                 
    0.000 999%   0.000 GSH                                                 
    0.000 999%   0.000 Ins                                                 
    0.000 999%   0.000 Lac                                                 
  883.852   5%   0.000 NAA                                                 
    0.000 999%   0.000 NAAG                                                
    0.000 999%   0.000 Scyllo                                              
   24.816 170%   0.000 Tau                                                 
 3.73E-02 999%   0.000 -CrCH2                                              
    0.000 999%   0.000 GPC+PCh                                             
  883.852   5%   0.000 NAA+NAAG                                            
    0.000 999%   0.000 Cr+PCr                                              
  393.222  29%   0.000 Glu+Gln                                             
 4.83E+03  13%   0.000 Lip13a                                              
    0.000 999%   0.000 Lip13b                                              
 1.12E+03  18%   0.000 Lip09                                               
  351.500  62%   0.000 MM09                                                
  887.711  16%   0.000 Lip20                                               
  811.286  27%   0.000 MM20                                                
   25.452 520%   0.000 MM12                                                
 1.92E+03  18%   0.000 MM14                                                
 1.17E+03  18%   0.000 MM17                                                
 4.83E+03  13%   0.000 Lip13a+Lip13b                                       
 6.77E+03   7%   0.000 MM14+Lip13a+Lip13b+MM12                             
 1.47E+03   9%   0.000 MM09+Lip09                                          
 1.70E+03  11%   0.000 MM20+Lip20                                          
   6 lines in following misc. output table
  FWHM = 0.054 ppm    S/N =  11                                            
  Data shift =-0.015 ppm                                                   
  Ph: -43 deg     -25.2 deg/ppm                                            
  alphaB,S = 8.5E+01,   1.0E+02                                            
   14 spline knots.   Ns = 8(1)                                            
   2 inflections.     1 extrema                                            
  498 points on ppm-axis = NY
      4.000000     3.992357     3.984714     3.977070     3.969427     3.961784     3.954141     3.946497     3.938854     3.931211
      3.923568     3.915925     3.908281     3.900638     3.892995     3.885352     3.877708     3.870065     3.862422     3.854779
      3.847136     3.839492     3.831849     3.824206     3.816563     3.808919     3.801276     3.793633     3.785990     3.778347
      3.770703     3.763060     3.755417     3.747774     3.740130     3.732487     3.724844     3.717201     3.709558     3.701914
      3.694271     3.686628     3.678985     3.671341     3.663698     3.656055     3.648412     3.640769     3.633125     3.625482
      3.617839     3.610196     3.602552     3.594909     3.587266     3.579623     3.571980     3.564336     3.556693     3.549050
      3.541407     3.533763     3.526120     3.518477     3.510834     3.503191     3.495547     3.487904     3.480261     3.472618
      3.464974     3.457331     3.449688     3.442045     3.434402     3.426758     3.419115     3.411472     3.403829     3.396185
      3.388542     3.380899     3.373256     3.365613     3.357969     3.350326     3.342683     3.335040     3.327396     3.319753
      3.312110     3.304467     3.296824     3.289180     3.281537     3.273894     3.266251     3.258607     3.250964     3.243321
      3.235678     3.228034     3.220391     3.212748     3.205105     3.197462     3.189818     3.182175     3.174532     3.166889
      3.159245     3.151602     3.143959     3.136316     3.128673     3.121029     3.113386     3.105743     3.098100     3.090456
      3.082813     3.075170     3.067527     3.059884     3.052240     3.044597     3.036954     3.029311     3.021667     3.014024
      3.006381     2.998738     2.991095     2.983451     2.975808     2.968165     2.960522     2.952878     2.945235     2.937592
      2.929949     2.922306     2.914662     2.907019     2.899376     2.891733     2.884089     2.876446     2.868803     2.861160
      2.853517     2.845873     2.838230     2.830587     2.822944     2.815300     2.807657     2.800014     2.792371     2.784728
      2.777084     2.769441     2.761798     2.754155     2.746511     2.738868     2.731225     2.723582     2.715939     2.708295
      2.700652     2.693009     2.685366     2.677722     2.670079     2.662436     2.654793     2.647150     2.639506     2.631863
      2.624220     2.616577     2.608933     2.601290     2.593647     2.586004     2.578361     2.570717     2.563074     2.555431
      2.547788     2.540144     2.532501     2.524858     2.517215     2.509572     2.501928     2.494285     2.486642     2.478999
      2.471355     2.463712     2.456069     2.448426     2.440783     2.433139     2.425496     2.417853     2.410210     2.402566
      2.394923     2.387280     2.379637     2.371994     2.364350     2.356707     2.349064     2.341421     2.333777     2.326134
      2.318491     2.310848     2.303205     2.295561     2.287918     2.280275     2.272632     2.264988     2.257345     2.249702
      2.242059     2.234416     2.226772     2.219129     2.211486     2.203843     2.196199     2.188556     2.180913     2.173270
      2.165627     2.157983     2.150340     2.142697     2.135054     2.127410     2.119767     2.112124     2.104481     2.096838
      2.089194     2.081551     2.073908     2.066265     2.058621     2.050978     2.043335     2.035692     2.028049     2.020405
      2.012762     2.005119     1.997476     1.989833     1.982190     1.974546     1.966903     1.959260     1.951617     1.943974
      1.936331     1.928688     1.921045     1.913402     1.905759     1.898115     1.890472     1.882829     1.875186     1.867543
      1.859900     1.852257     1.844614     1.836971     1.829327     1.821684     1.814041     1.806398     1.798755     1.791112
      1.783469     1.775826     1.768183     1.760540     1.752896     1.745253     1.737610     1.729967     1.722324     1.714681
      1.707038     1.699395     1.691752     1.684108     1.676465     1.668822     1.661179     1.653536     1.645893     1.638250
      1.630607     1.622964     1.615321     1.607677     1.600034     1.592391     1.584748     1.577105     1.569462     1.561819
      1.554176     1.546533     1.538890     1.531246     1.523603     1.515960     1.508317     1.500674     1.493031     1.485388
      1.477745     1.470102     1.462458     1.454815     1.447172     1.439529     1.431886     1.424243     1.416600     1.408957
      1.401314     1.393671     1.386027     1.378384     1.370741     1.363098     1.355455     1.347812     1.340169     1.332526
      1.324883     1.317240     1.309596     1.301953     1.294310     1.286667     1.279024     1.271381     1.263738     1.256095
      1.248452     1.240808     1.233165     1.225522     1.217879     1.210236     1.202593     1.194950     1.187307     1.179664
      1.172021     1.164377     1.156734     1.149091     1.141448     1.133805     1.126162     1.118519     1.110876     1.103233
      1.095590     1.087946     1.080303     1.072660     1.065017     1.057374     1.049731     1.042088     1.034445     1.026802
      1.019158     1.011515     1.003872     0.996229     0.988586     0.980943     0.973300     0.965657     0.958014     0.950371
      0.942727     0.935084     0.927441     0.919798     0.912155     0.904512     0.896869     0.889226     0.881583     0.873940
      0.866296     0.858653     0.851010     0.843367     0.835724     0.828081     0.820438     0.812795     0.805152     0.797508
      0.789865     0.782222     0.774579     0.766936     0.759293     0.751650     0.744007     0.736364     0.728721     0.721077
      0.713434     0.705791     0.698148     0.690505     0.682862     0.675219     0.667576     0.659933     0.652290     0.644646
      0.637003     0.629360     0.621717     0.614074     0.606431     0.598788     0.591145     0.583502     0.575858     0.568215
      0.560572     0.552929     0.545286     0.537643     0.530000     0.522357     0.514714     0.507071     0.499427     0.491784
      0.484141     0.476498     0.468855     0.461212     0.453569     0.445925     0.438282     0.430639     0.422996     0.415353
      0.407710     0.400067     0.392424     0.384780     0.377137     0.369494     0.361851     0.354208     0.346565     0.338922
      0.331278     0.323635     0.315992     0.308349     0.300706     0.293063     0.285420     0.277777     0.270133     0.262490
      0.254847     0.247204     0.239561     0.231918     0.224275     0.216631     0.208988     0.201345
 NY phased data points follow
   4.11186E+00  4.19859E+00  4.50328E+00  4.21789E+00  5.56471E+00  2.96649E+00  5.28950E+00  6.61532E+00  7.78353E+00  3.33056E+00
   7.99214E+00  4.65381E+00  4.28453E+00  6.40727E+00  7.41095E+00  8.13648E+00  7.86259E+00  4.71703E+00  6.11154E+00  6.99948E+00
   6.04422E+00  5.28605E+00  7.77594E+00  5.34219E+00  7.30143E+00  5.61291E+00  9.14904E+00  6.45380E+00  5.40151E+00  6.43490E+00
   6.50033E+00  7.01138E+00  3.60408E+00  5.38698E+00  3.01633E+00  4.72107E+00  4.22541E+00  5.51923E+00  5.00683E+00  4.14555E+00
   6.65945E+00  5.16506E+00  5.34218E+00  5.68652E+00  6.06351E+00  5.74752E+00  3.59187E+00  5.27324E+00  4.52071E+00  5.84184E+00
   4.75163E+00  6.36691E+00  5.12730E+00  6.80552E+00  7.48720E+00  5.34378E+00  4.49512E+00  6.93386E+00  7.97539E+00  6.14694E+00
   7.58484E+00  7.57406E+00  6.14393E+00  6.14895E+00  5.59358E+00  4.58263E+00  6.56802E+00  7.11995E+00  5.59783E+00  6.36447E+00
   5.29026E+00  4.53554E+00  4.83180E+00  5.42275E+00  3.84616E+00  4.48463E+00  5.93391E+00  3.86636E+00  4.62746E+00  3.18631E+00
   7.05459E+00  4.22822E+00  5.77084E+00  4.68206E+00  4.99535E+00  2.64753E+00  5.55530E+00  4.03071E+00  3.96493E+00  4.37691E+00
   5.11146E+00  3.86219E+00  4.48310E+00  6.01878E+00  4.86270E+00  4.75594E+00  5.01261E+00  4.15226E+00  4.93295E+00  3.71136E+00
   6.53106E+00  3.52336E+00  5.13135E+00  3.21075E+00  2.38798E+00  6.13175E+00  8.00759E+00  6.23366E+00  7.69621E+00  5.83719E+00
   8.21179E+00  6.76067E+00  5.37337E+00  8.62939E+00  4.25943E+00  2.98209E+00  6.43541E+00  4.46240E+00  2.12668E+00  4.14183E+00
   3.70666E+00  4.83351E+00  4.56321E+00  6.60608E+00  4.53778E+00  7.01326E+00  6.18327E+00  3.53669E+00  4.44352E+00  4.85662E+00
   6.59658E+00  5.84380E+00  7.31498E+00  6.14325E+00  8.09753E+00  7.43410E+00  7.77847E+00  5.81075E+00  6.06544E+00  8.50040E+00
   5.75477E+00  5.85876E+00  6.43718E+00  5.28203E+00  5.49888E+00  6.08186E+00  7.10729E+00  3.99769E+00  6.88754E+00  5.41903E+00
   3.45618E+00  6.24355E+00  5.82988E+00  8.17942E+00  4.68563E+00  8.55288E+00  8.10106E+00  6.96629E+00  7.63737E+00  7.01418E+00
   8.17277E+00  4.25979E+00  6.54579E+00  6.62736E+00  5.37022E+00  6.12670E+00  5.33409E+00  4.04915E+00  6.02855E+00  7.22346E+00
   5.99488E+00  8.30574E+00  5.09748E+00  6.72648E+00  4.81983E+00  5.55732E+00  4.20165E+00  3.73483E+00  5.37743E+00  6.40904E+00
   4.99379E+00  4.50699E+00  6.04293E+00  7.25699E+00  2.66593E+00  3.41954E+00  4.55208E+00  5.60728E+00  4.65781E+00  4.60145E+00
   3.45270E+00  3.84967E+00  6.17394E+00  6.89020E+00  3.34067E+00  5.14749E+00  4.88273E+00  4.65998E+00  5.27267E+00  7.60173E+00
   4.67290E+00  5.06900E+00  4.85487E+00  3.46562E+00  8.54674E+00  4.91043E+00  5.14150E+00  4.82118E+00  6.94982E+00  4.83966E+00
   5.78647E+00  5.53651E+00  7.63040E+00  6.18699E+00  9.44223E+00  7.48019E+00  7.34440E+00  8.78367E+00  6.52960E+00  5.28624E+00
   5.57280E+00  5.14829E+00  3.33370E+00  6.02650E+00  5.13549E+00  6.49892E+00  5.62475E+00  6.44695E+00  8.03232E+00  7.85970E+00
   6.40601E+00  6.58127E+00  7.48007E+00  6.55701E+00  9.36896E+00  4.90905E+00  7.07791E+00  9.47856E+00  1.07015E+01  7.41726E+00
   6.77294E+00  9.82784E+00  8.18538E+00  9.54556E+00  9.48616E+00  8.67607E+00  1.02649E+01  1.23736E+01  1.15476E+01  9.31539E+00
   8.32798E+00  1.11845E+01  1.21921E+01  1.14152E+01  1.59584E+01  1.63770E+01  1.88099E+01  2.45302E+01  3.26182E+01  3.87777E+01
   4.13302E+01  3.71888E+01  3.57201E+01  2.89735E+01  2.50619E+01  1.94608E+01  1.56448E+01  1.33718E+01  1.27439E+01  9.08561E+00
   6.90710E+00  1.01924E+01  1.03810E+01  7.44750E+00  9.69911E+00  8.59909E+00  8.87595E+00  7.12186E+00  9.64569E+00  8.10270E+00
   6.37594E+00  7.79270E+00  5.80984E+00  7.91031E+00  7.85593E+00  7.35935E+00  7.04977E+00  7.72383E+00  9.29672E+00  7.35043E+00
   9.74045E+00  7.77643E+00  1.08802E+01  7.95125E+00  1.02568E+01  9.24807E+00  8.07253E+00  9.48350E+00  1.02654E+01  1.19120E+01
   8.59569E+00  1.00697E+01  1.19921E+01  1.24228E+01  1.21182E+01  1.17725E+01  1.25135E+01  1.36448E+01  1.31709E+01  1.45156E+01
   1.17304E+01  1.27203E+01  1.49604E+01  1.37018E+01  1.35747E+01  1.42000E+01  1.37032E+01  1.50675E+01  1.37863E+01  1.58456E+01
   1.25827E+01  1.48072E+01  1.49131E+01  1.61896E+01  1.66127E+01  1.75920E+01  1.97500E+01  1.88222E+01  1.92125E+01  1.83630E+01
   1.80965E+01  2.06527E+01  2.27692E+01  2.06338E+01  2.06821E+01  2.07576E+01  2.05570E+01  1.96064E+01  1.98978E+01  2.11604E+01
   2.17711E+01  2.39156E+01  2.42086E+01  2.25344E+01  2.46546E+01  2.55928E+01  2.51330E+01  2.50227E+01  2.37579E+01  2.11355E+01
   2.21133E+01  2.13643E+01  1.98065E+01  1.71120E+01  1.96107E+01  1.76616E+01  1.53706E+01  1.57017E+01  1.22242E+01  1.49281E+01
   1.30967E+01  1.32302E+01  1.39159E+01  1.37640E+01  1.32558E+01  1.31062E+01  1.44026E+01  1.41889E+01  1.50762E+01  1.40969E+01
   1.35079E+01  1.36959E+01  1.51722E+01  1.48134E+01  1.24566E+01  1.31911E+01  1.37465E+01  1.22959E+01  1.15198E+01  1.18544E+01
   1.15630E+01  1.29092E+01  9.73839E+00  1.16049E+01  9.15758E+00  1.10273E+01  1.31118E+01  1.04143E+01  1.12795E+01  1.09500E+01
   1.10927E+01  1.13239E+01  1.15937E+01  1.05382E+01  1.17651E+01  1.25836E+01  9.51868E+00  1.29492E+01  1.42144E+01  1.26747E+01
   1.26222E+01  1.40250E+01  1.00927E+01  1.20421E+01  1.41956E+01  1.06868E+01  1.47022E+01  1.26996E+01  1.31383E+01  1.18204E+01
   1.16484E+01  1.28191E+01  1.23332E+01  1.17017E+01  1.16874E+01  8.80136E+00  9.49493E+00  9.36516E+00  8.50373E+00  8.51305E+00
   6.31353E+00  5.80224E+00  5.98093E+00  8.51336E+00  5.20921E+00  5.37860E+00  5.88241E+00  7.41639E+00  8.48491E+00  6.62103E+00
   6.26673E+00  6.57947E+00  5.26992E+00  5.94082E+00  5.44508E+00  5.17616E+00  1.20624E+00  5.18231E+00  6.81948E+00  2.66348E+00
   4.42875E+00  3.23083E+00  4.75174E+00  4.00896E+00  3.94467E+00  2.41690E+00  3.79328E+00  2.77658E+00  3.48505E+00  4.04250E+00
   3.72107E+00  3.55360E+00  1.79959E+00  3.20201E+00  2.40049E+00  4.34709E+00  1.97795E+00  2.16419E+00  3.00926E+00  5.11523E+00
   1.46466E+00  3.82479E+00  3.05483E+00  2.47036E+00  2.57133E+00  2.30064E+00  2.14946E+00  3.34905E+00  1.70966E+00  3.17103E-01
   1.74001E+00  9.12064E-01  3.58357E+00  3.39838E+00  1.40482E+00  4.90093E-01  4.94493E+00  1.55882E+00  2.85363E+00  2.27371E+00
   9.65093E-01  1.98530E+00  1.16805E+00  4.01573E+00  4.56328E-01  3.47774E+00  2.89589E+00  6.64834E-01  9.36193E-01  4.18676E+00
   2.69144E+00  3.44872E+00  1.87308E+00  4.68819E+00 -9.87982E-01  2.99839E+00  2.05170E+00  2.98034E+00
 NY points of the fit to the data follow
   5.89318E+00  5.89223E+00  5.89141E+00  5.88886E+00  5.88020E+00  5.86116E+00  5.83335E+00  5.80586E+00  5.78923E+00  5.78663E+00
   5.79292E+00  5.80143E+00  5.80930E+00  5.81676E+00  5.82201E+00  5.82115E+00  5.81433E+00  5.80992E+00  5.82220E+00  5.86006E+00
   5.91625E+00  5.98322E+00  6.05294E+00  6.09914E+00  6.08175E+00  5.97885E+00  5.81650E+00  5.66420E+00  5.60200E+00  5.68048E+00
   5.89073E+00  6.15832E+00  6.37474E+00  6.44244E+00  6.32291E+00  6.06598E+00  5.78378E+00  5.57719E+00  5.49021E+00  5.51368E+00
   5.59690E+00  5.68648E+00  5.75235E+00  5.78698E+00  5.79311E+00  5.77603E+00  5.74669E+00  5.71425E+00  5.67670E+00  5.63608E+00
   5.60212E+00  5.57542E+00  5.55340E+00  5.53433E+00  5.51683E+00  5.50031E+00  5.48509E+00  5.47197E+00  5.46187E+00  5.45514E+00
   5.45107E+00  5.44962E+00  5.45077E+00  5.45323E+00  5.45476E+00  5.45287E+00  5.44559E+00  5.43349E+00  5.41987E+00  5.40828E+00
   5.40305E+00  5.40905E+00  5.42788E+00  5.45357E+00  5.47355E+00  5.47576E+00  5.45628E+00  5.42073E+00  5.38061E+00  5.34741E+00
   5.32576E+00  5.31456E+00  5.30955E+00  5.30528E+00  5.29897E+00  5.29199E+00  5.28533E+00  5.27881E+00  5.27316E+00  5.26660E+00
   5.25505E+00  5.23688E+00  5.21482E+00  5.19620E+00  5.19089E+00  5.20468E+00  5.23409E+00  5.26858E+00  5.29661E+00  5.31126E+00
   5.31257E+00  5.30554E+00  5.29700E+00  5.29218E+00  5.29399E+00  5.30269E+00  5.31525E+00  5.32826E+00  5.34139E+00  5.35504E+00
   5.36816E+00  5.38163E+00  5.39643E+00  5.41242E+00  5.42992E+00  5.44845E+00  5.46615E+00  5.48269E+00  5.49967E+00  5.51820E+00
   5.53907E+00  5.56351E+00  5.59433E+00  5.63440E+00  5.68351E+00  5.73806E+00  5.79313E+00  5.84457E+00  5.88917E+00  5.92261E+00
   5.94146E+00  5.94777E+00  5.94751E+00  5.94662E+00  5.94915E+00  5.95754E+00  5.97368E+00  5.99710E+00  6.02357E+00  6.04818E+00
   6.07070E+00  6.09600E+00  6.12917E+00  6.16948E+00  6.20998E+00  6.24357E+00  6.26763E+00  6.28321E+00  6.29379E+00  6.30364E+00
   6.31581E+00  6.33112E+00  6.34618E+00  6.35046E+00  6.33726E+00  6.30444E+00  6.24028E+00  6.12616E+00  5.95591E+00  5.76581E+00
   5.63113E+00  5.61088E+00  5.69174E+00  5.79589E+00  5.83904E+00  5.78179E+00  5.63557E+00  5.43156E+00  5.19938E+00  4.96514E+00
   4.74585E+00  4.53143E+00  4.30488E+00  4.06800E+00  3.87350E+00  3.78970E+00  3.81463E+00  3.88086E+00  3.91913E+00  3.91087E+00
   3.89214E+00  3.90217E+00  3.93238E+00  3.95599E+00  3.98533E+00  4.06836E+00  4.24054E+00  4.50119E+00  4.81587E+00  5.13308E+00
   5.40932E+00  5.62252E+00  5.78950E+00  5.93458E+00  6.05451E+00  6.12202E+00  6.10545E+00  5.99880E+00  5.85566E+00  5.75326E+00
   5.75135E+00  5.86634E+00  6.04684E+00  6.20295E+00  6.25516E+00  6.16551E+00  5.95417E+00  5.67553E+00  5.38537E+00  5.13699E+00
   5.00173E+00  5.07007E+00  5.39955E+00  5.93561E+00  6.48884E+00  6.83489E+00  6.85453E+00  6.55122E+00  5.99739E+00  5.32280E+00
   4.72742E+00  4.43104E+00  4.54075E+00  4.99272E+00  5.63681E+00  6.33329E+00  6.97774E+00  7.47726E+00  7.79571E+00  7.96693E+00
   8.06171E+00  8.13535E+00  8.20141E+00  8.26833E+00  8.35200E+00  8.44348E+00  8.51923E+00  8.56871E+00  8.59451E+00  8.61626E+00
   8.67119E+00  8.79602E+00  9.00578E+00  9.28236E+00  9.58457E+00  9.87075E+00  1.01037E+01  1.02603E+01  1.03495E+01  1.04181E+01
   1.05258E+01  1.07494E+01  1.13046E+01  1.24112E+01  1.40639E+01  1.64903E+01  2.03140E+01  2.58227E+01  3.20900E+01  3.71780E+01
   3.93825E+01  3.83036E+01  3.47430E+01  2.98724E+01  2.47153E+01  2.00101E+01  1.62344E+01  1.34734E+01  1.13958E+01  9.76922E+00
   8.76585E+00  8.34240E+00  8.11901E+00  7.96887E+00  7.85436E+00  7.74965E+00  7.64097E+00  7.52734E+00  7.41281E+00  7.30647E+00
   7.21878E+00  7.15682E+00  7.12371E+00  7.12202E+00  7.15195E+00  7.21070E+00  7.29559E+00  7.40518E+00  7.53900E+00  7.69714E+00
   7.87946E+00  8.08604E+00  8.31749E+00  8.57341E+00  8.85242E+00  9.15267E+00  9.47155E+00  9.80523E+00  1.01489E+01  1.04977E+01
   1.08461E+01  1.11883E+01  1.15188E+01  1.18319E+01  1.21226E+01  1.23869E+01  1.26221E+01  1.28266E+01  1.30007E+01  1.31457E+01
   1.32649E+01  1.33628E+01  1.34454E+01  1.35200E+01  1.35947E+01  1.36780E+01  1.37786E+01  1.39052E+01  1.40655E+01  1.42665E+01
   1.45137E+01  1.48110E+01  1.51604E+01  1.55620E+01  1.60135E+01  1.65109E+01  1.70479E+01  1.76163E+01  1.82064E+01  1.88074E+01
   1.94075E+01  1.99943E+01  2.05555E+01  2.10793E+01  2.15547E+01  2.19722E+01  2.23239E+01  2.26035E+01  2.28073E+01  2.29333E+01
   2.29819E+01  2.29555E+01  2.28583E+01  2.26958E+01  2.24750E+01  2.22034E+01  2.18892E+01  2.15406E+01  2.11653E+01  2.07708E+01
   2.03637E+01  1.99496E+01  1.95333E+01  1.91186E+01  1.87083E+01  1.83042E+01  1.79076E+01  1.75189E+01  1.71382E+01  1.67654E+01
   1.64000E+01  1.60415E+01  1.56894E+01  1.53436E+01  1.50039E+01  1.46703E+01  1.43433E+01  1.40232E+01  1.37110E+01  1.34076E+01
   1.31141E+01  1.28316E+01  1.25616E+01  1.23054E+01  1.20644E+01  1.18402E+01  1.16341E+01  1.14476E+01  1.12819E+01  1.11386E+01
   1.10187E+01  1.09234E+01  1.08537E+01  1.08105E+01  1.07944E+01  1.08057E+01  1.08445E+01  1.09103E+01  1.10024E+01  1.11193E+01
   1.12590E+01  1.14188E+01  1.15955E+01  1.17849E+01  1.19824E+01  1.21826E+01  1.23796E+01  1.25675E+01  1.27398E+01  1.28902E+01
   1.30128E+01  1.31021E+01  1.31532E+01  1.31625E+01  1.31271E+01  1.30454E+01  1.29174E+01  1.27438E+01  1.25271E+01  1.22704E+01
   1.19780E+01  1.16548E+01  1.13062E+01  1.09379E+01  1.05558E+01  1.01652E+01  9.77149E+00  9.37941E+00  8.99317E+00  8.61634E+00
   8.25184E+00  7.90192E+00  7.56821E+00  7.25181E+00  6.95330E+00  6.67286E+00  6.41029E+00  6.16511E+00  5.93664E+00  5.72406E+00
   5.52647E+00  5.34291E+00  5.17236E+00  5.01385E+00  4.86643E+00  4.72919E+00  4.60130E+00  4.48196E+00  4.37041E+00  4.26598E+00
   4.16805E+00  4.07607E+00  3.98954E+00  3.90797E+00  3.83095E+00  3.75808E+00  3.68905E+00  3.62354E+00  3.56127E+00  3.50199E+00
   3.44545E+00  3.39145E+00  3.33982E+00  3.29038E+00  3.24298E+00  3.19746E+00  3.15370E+00  3.11157E+00  3.07099E+00  3.03185E+00
   2.99406E+00  2.95751E+00  2.92214E+00  2.88788E+00  2.85469E+00  2.82248E+00  2.79120E+00  2.76079E+00  2.73120E+00  2.70241E+00
   2.67437E+00  2.64704E+00  2.62037E+00  2.59432E+00  2.56888E+00  2.54404E+00  2.51974E+00  2.49596E+00  2.47267E+00  2.44984E+00
   2.42748E+00  2.40556E+00  2.38406E+00  2.36295E+00  2.34220E+00  2.32182E+00  2.30180E+00  2.28212E+00  2.26276E+00  2.24370E+00
   2.22493E+00  2.20646E+00  2.18827E+00  2.17035E+00  2.15268E+00  2.13525E+00  2.11806E+00  2.10111E+00
 NY background values follow
     5.745E+00    5.737E+00    5.728E+00    5.720E+00    5.712E+00    5.703E+00    5.695E+00    5.686E+00    5.678E+00    5.670E+00
     5.661E+00    5.653E+00    5.644E+00    5.636E+00    5.628E+00    5.619E+00    5.611E+00    5.602E+00    5.594E+00    5.586E+00
     5.577E+00    5.569E+00    5.560E+00    5.552E+00    5.544E+00    5.535E+00    5.527E+00    5.518E+00    5.510E+00    5.501E+00
     5.493E+00    5.485E+00    5.476E+00    5.468E+00    5.459E+00    5.451E+00    5.443E+00    5.434E+00    5.426E+00    5.417E+00
     5.409E+00    5.401E+00    5.392E+00    5.384E+00    5.375E+00    5.367E+00    5.359E+00    5.350E+00    5.342E+00    5.333E+00
     5.325E+00    5.317E+00    5.308E+00    5.300E+00    5.291E+00    5.283E+00    5.275E+00    5.266E+00    5.258E+00    5.249E+00
     5.241E+00    5.232E+00    5.224E+00    5.216E+00    5.207E+00    5.199E+00    5.190E+00    5.182E+00    5.174E+00    5.165E+00
     5.157E+00    5.148E+00    5.140E+00    5.132E+00    5.123E+00    5.115E+00    5.106E+00    5.098E+00    5.090E+00    5.081E+00
     5.073E+00    5.064E+00    5.056E+00    5.048E+00    5.039E+00    5.031E+00    5.022E+00    5.014E+00    5.006E+00    4.997E+00
     4.989E+00    4.980E+00    4.972E+00    4.963E+00    4.955E+00    4.947E+00    4.938E+00    4.930E+00    4.921E+00    4.913E+00
     4.905E+00    4.896E+00    4.888E+00    4.879E+00    4.871E+00    4.863E+00    4.854E+00    4.846E+00    4.837E+00    4.829E+00
     4.821E+00    4.812E+00    4.804E+00    4.795E+00    4.787E+00    4.779E+00    4.770E+00    4.762E+00    4.753E+00    4.745E+00
     4.736E+00    4.728E+00    4.720E+00    4.711E+00    4.703E+00    4.694E+00    4.686E+00    4.678E+00    4.669E+00    4.661E+00
     4.652E+00    4.644E+00    4.636E+00    4.627E+00    4.619E+00    4.610E+00    4.602E+00    4.594E+00    4.585E+00    4.577E+00
     4.568E+00    4.560E+00    4.552E+00    4.543E+00    4.535E+00    4.526E+00    4.518E+00    4.509E+00    4.501E+00    4.493E+00
     4.484E+00    4.476E+00    4.467E+00    4.459E+00    4.451E+00    4.442E+00    4.434E+00    4.425E+00    4.417E+00    4.409E+00
     4.400E+00    4.392E+00    4.383E+00    4.375E+00    4.367E+00    4.358E+00    4.350E+00    4.341E+00    4.333E+00    4.325E+00
     4.316E+00    4.308E+00    4.299E+00    4.291E+00    4.282E+00    4.274E+00    4.266E+00    4.257E+00    4.249E+00    4.240E+00
     4.232E+00    4.224E+00    4.215E+00    4.207E+00    4.198E+00    4.190E+00    4.182E+00    4.173E+00    4.165E+00    4.156E+00
     4.148E+00    4.139E+00    4.131E+00    4.123E+00    4.114E+00    4.106E+00    4.097E+00    4.089E+00    4.081E+00    4.072E+00
     4.064E+00    4.055E+00    4.047E+00    4.039E+00    4.030E+00    4.022E+00    4.013E+00    4.005E+00    3.997E+00    3.988E+00
     3.980E+00    3.971E+00    3.963E+00    3.954E+00    3.946E+00    3.938E+00    3.929E+00    3.921E+00    3.912E+00    3.904E+00
     3.896E+00    3.887E+00    3.879E+00    3.870E+00    3.862E+00    3.854E+00    3.845E+00    3.837E+00    3.828E+00    3.820E+00
     3.811E+00    3.803E+00    3.795E+00    3.786E+00    3.778E+00    3.769E+00    3.761E+00    3.753E+00    3.744E+00    3.736E+00
     3.727E+00    3.719E+00    3.710E+00    3.702E+00    3.694E+00    3.685E+00    3.677E+00    3.668E+00    3.660E+00    3.652E+00
     3.643E+00    3.635E+00    3.626E+00    3.618E+00    3.610E+00    3.601E+00    3.593E+00    3.584E+00    3.576E+00    3.567E+00
     3.559E+00    3.551E+00    3.542E+00    3.534E+00    3.525E+00    3.517E+00    3.509E+00    3.500E+00    3.492E+00    3.483E+00
     3.475E+00    3.466E+00    3.458E+00    3.450E+00    3.441E+00    3.433E+00    3.424E+00    3.416E+00    3.408E+00    3.399E+00
     3.391E+00    3.382E+00    3.374E+00    3.366E+00    3.357E+00    3.349E+00    3.340E+00    3.332E+00    3.323E+00    3.315E+00
     3.307E+00    3.298E+00    3.290E+00    3.281E+00    3.273E+00    3.265E+00    3.256E+00    3.248E+00    3.239E+00    3.231E+00
     3.222E+00    3.214E+00    3.206E+00    3.197E+00    3.189E+00    3.180E+00    3.172E+00    3.164E+00    3.155E+00    3.147E+00
     3.138E+00    3.130E+00    3.121E+00    3.113E+00    3.105E+00    3.096E+00    3.088E+00    3.079E+00    3.071E+00    3.063E+00
     3.054E+00    3.046E+00    3.037E+00    3.029E+00    3.020E+00    3.012E+00    3.004E+00    2.995E+00    2.987E+00    2.978E+00
     2.970E+00    2.962E+00    2.953E+00    2.945E+00    2.936E+00    2.928E+00    2.919E+00    2.911E+00    2.903E+00    2.894E+00
     2.886E+00    2.877E+00    2.869E+00    2.861E+00    2.852E+00    2.844E+00    2.835E+00    2.827E+00    2.818E+00    2.810E+00
     2.802E+00    2.793E+00    2.785E+00    2.776E+00    2.768E+00    2.760E+00    2.751E+00    2.743E+00    2.734E+00    2.726E+00
     2.717E+00    2.709E+00    2.701E+00    2.692E+00    2.684E+00    2.675E+00    2.667E+00    2.658E+00    2.650E+00    2.642E+00
     2.633E+00    2.625E+00    2.616E+00    2.608E+00    2.600E+00    2.591E+00    2.583E+00    2.574E+00    2.566E+00    2.557E+00
     2.549E+00    2.541E+00    2.532E+00    2.524E+00    2.515E+00    2.507E+00    2.499E+00    2.490E+00    2.482E+00    2.473E+00
     2.465E+00    2.456E+00    2.448E+00    2.440E+00    2.431E+00    2.423E+00    2.414E+00    2.406E+00    2.398E+00    2.389E+00
     2.381E+00    2.372E+00    2.364E+00    2.355E+00    2.347E+00    2.339E+00    2.330E+00    2.322E+00    2.313E+00    2.305E+00
     2.296E+00    2.288E+00    2.280E+00    2.271E+00    2.263E+00    2.254E+00    2.246E+00    2.238E+00    2.229E+00    2.221E+00
     2.212E+00    2.204E+00    2.195E+00    2.187E+00    2.179E+00    2.170E+00    2.162E+00    2.153E+00    2.145E+00    2.137E+00
     2.128E+00    2.120E+00    2.111E+00    2.103E+00    2.094E+00    2.086E+00    2.078E+00    2.069E+00    2.061E+00    2.052E+00
     2.044E+00    2.035E+00    2.027E+00    2.019E+00    2.010E+00    2.002E+00    1.993E+00    1.985E+00    1.977E+00    1.968E+00
     1.960E+00    1.951E+00    1.943E+00    1.934E+00    1.926E+00    1.918E+00    1.909E+00    1.901E+00    1.892E+00    1.884E+00
     1.875E+00    1.867E+00    1.859E+00    1.850E+00    1.842E+00    1.833E+00    1.825E+00    1.817E+00    1.808E+00    1.800E+00
     1.791E+00    1.783E+00    1.774E+00    1.766E+00    1.758E+00    1.749E+00    1.741E+00    1.732E+00    1.724E+00    1.716E+00
     1.707E+00    1.699E+00    1.690E+00    1.682E+00    1.673E+00    1.665E+00    1.657E+00    1.648E+00    1.640E+00    1.631E+00
     1.623E+00    1.614E+00    1.606E+00    1.598E+00    1.589E+00    1.581E+00    1.572E+00    1.564E+00
 Asp      Conc. = 4.42E+01
