 LCModel (Version 6.3-1L) Copyright: S.W. Provencher.          Ref.: Magn. Reson. Med. 30:672-679 (1993).                
 Slice#2 Row#9 Col#14  K_02_press_1_raw_act
 36 lines in following concentration table = NCONC+1
    Conc.  %SD /Cr+PCr  Metabolite                                         
    0.000 999%   0.000 Ala                                                 
   10.421 110%   0.245 Asp                                                 
   42.524  30%   1.000 Cr                                                  
    0.000 999%   0.000 PCr                                                 
    6.471 106%   0.152 GABA                                                
    6.935 100%   0.163 Glc                                                 
   42.410  99%   0.997 Gln                                                 
   65.104  72%   1.531 Glu                                                 
   27.495  19%   0.647 GPC                                                 
    0.000 999%   0.000 PCh                                                 
    1.541 999% 3.6E-02 GSH                                                 
   71.233  74%   1.675 Ins                                                 
    8.780 261%   0.206 Lac                                                 
   99.924  16%   2.350 NAA                                                 
    0.000 999%   0.000 NAAG                                                
    3.016  74% 7.1E-02 Scyllo                                              
   11.365 100%   0.267 Tau                                                 
    9.197 122%   0.216 -CrCH2                                              
   27.495  19%   0.647 GPC+PCh                                             
   99.924  16%   2.350 NAA+NAAG                                            
   42.524  30%   1.000 Cr+PCr                                              
  107.514  55%   2.528 Glu+Gln                                             
 4.14E+03  18%  97.266 Lip13a                                              
    0.000 999%   0.000 Lip13b                                              
  885.676  30%  20.828 Lip09                                               
  922.548  21%  21.695 MM09                                                
  291.509  72%   6.855 Lip20                                               
  295.372  67%   6.946 MM20                                                
  618.940  42%  14.555 MM12                                                
 1.65E+03  25%  38.841 MM14                                                
 1.92E+03  20%  45.059 MM17                                                
 4.14E+03  18%  97.266 Lip13a+Lip13b                                       
 6.41E+03  10% 150.662 MM14+Lip13a+Lip13b+MM12                             
 1.81E+03  16%  42.523 MM09+Lip09                                          
  586.881  30%  13.801 MM20+Lip20                                          
   6 lines in following misc. output table
  FWHM = 0.054 ppm    S/N =   8                                            
  Data shift = 0.008 ppm                                                   
  Ph:-117 deg     -24.9 deg/ppm                                            
  alphaB,S = 5.3E-01,   2.2E+01                                            
   14 spline knots.   Ns = 5(1)                                            
  (10) 1 infls.   ( 4) 2 extrs.                                            
  498 points on ppm-axis = NY
      4.000000     3.992357     3.984714     3.977070     3.969427     3.961784     3.954141     3.946497     3.938854     3.931211
      3.923568     3.915925     3.908281     3.900638     3.892995     3.885352     3.877708     3.870065     3.862422     3.854779
      3.847136     3.839492     3.831849     3.824206     3.816563     3.808919     3.801276     3.793633     3.785990     3.778347
      3.770703     3.763060     3.755417     3.747774     3.740130     3.732487     3.724844     3.717201     3.709558     3.701914
      3.694271     3.686628     3.678985     3.671341     3.663698     3.656055     3.648412     3.640769     3.633125     3.625482
      3.617839     3.610196     3.602552     3.594909     3.587266     3.579623     3.571980     3.564336     3.556693     3.549050
      3.541407     3.533763     3.526120     3.518477     3.510834     3.503191     3.495547     3.487904     3.480261     3.472618
      3.464974     3.457331     3.449688     3.442045     3.434402     3.426758     3.419115     3.411472     3.403829     3.396185
      3.388542     3.380899     3.373256     3.365613     3.357969     3.350326     3.342683     3.335040     3.327396     3.319753
      3.312110     3.304467     3.296824     3.289180     3.281537     3.273894     3.266251     3.258607     3.250964     3.243321
      3.235678     3.228034     3.220391     3.212748     3.205105     3.197462     3.189818     3.182175     3.174532     3.166889
      3.159245     3.151602     3.143959     3.136316     3.128673     3.121029     3.113386     3.105743     3.098100     3.090456
      3.082813     3.075170     3.067527     3.059884     3.052240     3.044597     3.036954     3.029311     3.021667     3.014024
      3.006381     2.998738     2.991095     2.983451     2.975808     2.968165     2.960522     2.952878     2.945235     2.937592
      2.929949     2.922306     2.914662     2.907019     2.899376     2.891733     2.884089     2.876446     2.868803     2.861160
      2.853517     2.845873     2.838230     2.830587     2.822944     2.815300     2.807657     2.800014     2.792371     2.784728
      2.777084     2.769441     2.761798     2.754155     2.746511     2.738868     2.731225     2.723582     2.715939     2.708295
      2.700652     2.693009     2.685366     2.677722     2.670079     2.662436     2.654793     2.647150     2.639506     2.631863
      2.624220     2.616577     2.608933     2.601290     2.593647     2.586004     2.578361     2.570717     2.563074     2.555431
      2.547788     2.540144     2.532501     2.524858     2.517215     2.509572     2.501928     2.494285     2.486642     2.478999
      2.471355     2.463712     2.456069     2.448426     2.440783     2.433139     2.425496     2.417853     2.410210     2.402566
      2.394923     2.387280     2.379637     2.371994     2.364350     2.356707     2.349064     2.341421     2.333777     2.326134
      2.318491     2.310848     2.303205     2.295561     2.287918     2.280275     2.272632     2.264988     2.257345     2.249702
      2.242059     2.234416     2.226772     2.219129     2.211486     2.203843     2.196199     2.188556     2.180913     2.173270
      2.165627     2.157983     2.150340     2.142697     2.135054     2.127410     2.119767     2.112124     2.104481     2.096838
      2.089194     2.081551     2.073908     2.066265     2.058621     2.050978     2.043335     2.035692     2.028049     2.020405
      2.012762     2.005119     1.997476     1.989833     1.982190     1.974546     1.966903     1.959260     1.951617     1.943974
      1.936331     1.928688     1.921045     1.913402     1.905759     1.898115     1.890472     1.882829     1.875186     1.867543
      1.859900     1.852257     1.844614     1.836971     1.829327     1.821684     1.814041     1.806398     1.798755     1.791112
      1.783469     1.775826     1.768183     1.760540     1.752896     1.745253     1.737610     1.729967     1.722324     1.714681
      1.707038     1.699395     1.691752     1.684108     1.676465     1.668822     1.661179     1.653536     1.645893     1.638250
      1.630607     1.622964     1.615321     1.607677     1.600034     1.592391     1.584748     1.577105     1.569462     1.561819
      1.554176     1.546533     1.538890     1.531246     1.523603     1.515960     1.508317     1.500674     1.493031     1.485388
      1.477745     1.470102     1.462458     1.454815     1.447172     1.439529     1.431886     1.424243     1.416600     1.408957
      1.401314     1.393671     1.386027     1.378384     1.370741     1.363098     1.355455     1.347812     1.340169     1.332526
      1.324883     1.317240     1.309596     1.301953     1.294310     1.286667     1.279024     1.271381     1.263738     1.256095
      1.248452     1.240808     1.233165     1.225522     1.217879     1.210236     1.202593     1.194950     1.187307     1.179664
      1.172021     1.164377     1.156734     1.149091     1.141448     1.133805     1.126162     1.118519     1.110876     1.103233
      1.095590     1.087946     1.080303     1.072660     1.065017     1.057374     1.049731     1.042088     1.034445     1.026802
      1.019158     1.011515     1.003872     0.996229     0.988586     0.980943     0.973300     0.965657     0.958014     0.950371
      0.942727     0.935084     0.927441     0.919798     0.912155     0.904512     0.896869     0.889226     0.881583     0.873940
      0.866296     0.858653     0.851010     0.843367     0.835724     0.828081     0.820438     0.812795     0.805152     0.797508
      0.789865     0.782222     0.774579     0.766936     0.759293     0.751650     0.744007     0.736364     0.728721     0.721077
      0.713434     0.705791     0.698148     0.690505     0.682862     0.675219     0.667576     0.659933     0.652290     0.644646
      0.637003     0.629360     0.621717     0.614074     0.606431     0.598788     0.591145     0.583502     0.575858     0.568215
      0.560572     0.552929     0.545286     0.537643     0.530000     0.522357     0.514714     0.507071     0.499427     0.491784
      0.484141     0.476498     0.468855     0.461212     0.453569     0.445925     0.438282     0.430639     0.422996     0.415353
      0.407710     0.400067     0.392424     0.384780     0.377137     0.369494     0.361851     0.354208     0.346565     0.338922
      0.331278     0.323635     0.315992     0.308349     0.300706     0.293063     0.285420     0.277777     0.270133     0.262490
      0.254847     0.247204     0.239561     0.231918     0.224275     0.216631     0.208988     0.201345
 NY phased data points follow
  -1.65617E+00 -3.50450E+00 -4.04079E+00 -1.98253E+00 -2.15975E+00 -3.62566E+00 -2.48540E+00 -2.52695E+00 -3.11785E+00 -3.68433E+00
  -2.15015E+00 -2.45586E+00 -1.27752E-01 -2.37118E+00 -2.79643E+00 -1.17116E+00 -2.16375E+00 -2.55904E+00 -2.14639E+00 -2.80463E+00
  -2.79729E+00 -2.15288E+00 -2.04153E+00 -1.98339E+00 -4.03113E+00 -1.57787E+00 -1.30371E+00 -2.79924E+00 -2.57618E+00 -2.83516E+00
  -1.41388E+00 -2.64987E+00 -2.47219E-01 -2.34893E+00 -1.53167E+00 -1.32525E+00 -1.22715E+00 -1.63693E-01 -5.53545E-01 -2.06235E+00
  -8.68535E-01 -1.02994E+00 -1.51567E+00 -1.42397E+00  4.75230E-03  3.76577E-01 -1.31517E+00 -1.06164E+00 -3.10075E-01 -3.75425E-01
  -5.84418E-01  3.41642E-01 -3.88103E-01  5.54186E-01  1.75330E+00 -6.37791E-01  2.87855E-01 -1.52941E+00 -1.07922E+00 -6.29230E-01
   1.59761E+00 -1.82094E+00  7.59100E-01  1.46641E+00  4.98222E-02  5.57297E-01 -2.87575E+00 -5.37974E-01 -7.58114E-01 -5.57020E-01
   9.25528E-01  4.99545E-01  7.76807E-01  1.30613E-01  1.01980E+00  4.66736E-01  1.48117E+00  8.18027E-01  1.05417E+00 -7.95812E-01
   3.44263E-01 -5.03057E-01  1.07389E+00 -3.87476E-01  8.82656E-01  5.67540E-01  6.82186E-01  7.38437E-01  1.70083E+00  3.20928E+00
   5.36545E-01 -2.40604E-01  1.61565E+00 -1.34707E-01  9.99669E-01  2.01793E+00  1.18853E+00  2.28026E+00  1.41888E-01  1.45538E+00
   1.26986E+00  3.19945E+00  4.81959E+00  4.70323E+00  3.96643E+00  4.37660E+00  4.94045E+00  3.30716E+00  7.89823E-01  1.25025E+00
   3.81931E+00  6.45196E-01  1.81020E+00  1.03023E+00  1.85436E+00  1.10117E+00  1.07627E+00  2.15815E+00  2.22844E+00  3.25843E+00
   2.40484E+00  2.22340E+00  1.34924E+00  1.19134E+00  1.03186E+00  4.93223E+00  4.60007E+00  2.74129E+00  5.00106E+00  4.36137E+00
   4.15750E+00  3.87044E+00  9.10097E-01  2.19293E+00  3.32367E+00  3.51667E+00  3.95012E+00  2.25767E+00  3.63652E+00  1.95485E+00
   2.09811E+00  3.35041E+00  2.81655E+00  2.27555E+00  1.33303E+00  3.82154E+00  1.83086E+00  4.31182E+00  2.98644E+00  2.31847E+00
   4.30018E+00  3.25714E+00  4.68714E+00  3.40573E+00  4.03490E+00  2.50431E+00  3.65979E+00  3.43825E+00  3.52285E+00  3.13709E+00
   2.41742E+00  2.70728E+00  3.06727E+00  2.83862E+00  3.24135E+00  3.92624E+00  3.20201E+00  4.86847E+00  3.53483E+00  3.55102E+00
   2.89851E+00  1.91072E+00  3.72379E+00  2.82470E+00  2.54259E+00  3.03049E+00  3.34943E+00  3.08083E+00  4.42968E+00  4.23947E+00
   4.17579E+00  1.82468E+00  5.03722E+00  4.39559E+00  3.33866E+00  3.77806E+00  2.22305E+00  3.31566E+00  3.23820E+00  5.33370E+00
   3.52020E+00  4.22320E+00  4.97495E+00  4.81030E+00  4.72731E+00  6.50460E+00  5.03030E+00  4.67879E+00  4.14596E+00  3.13030E+00
   4.03525E+00  4.53723E+00  4.38645E+00  3.92964E+00  5.63961E+00  5.07923E+00  3.93054E+00  5.72959E+00  4.04189E+00  4.93001E+00
   4.14844E+00  5.91304E+00  2.89409E+00  4.17456E+00  4.97367E+00  6.17614E+00  5.63831E+00  7.44506E+00  4.08987E+00  5.77301E+00
   5.71928E+00  5.41195E+00  5.62109E+00  4.41594E+00  6.12457E+00  6.41376E+00  7.72991E+00  5.17425E+00  5.17836E+00  6.24692E+00
   8.12070E+00  6.76214E+00  6.69045E+00  6.71743E+00  7.36769E+00  7.43985E+00  6.37453E+00  7.03298E+00  7.66932E+00  7.61430E+00
   7.58576E+00  7.48263E+00  6.29368E+00  7.14569E+00  7.81888E+00  6.13947E+00  6.20624E+00  7.49383E+00  7.50844E+00  7.91120E+00
   8.62211E+00  9.05451E+00  8.65365E+00  9.01930E+00  9.36012E+00  8.65894E+00  6.86292E+00  6.15467E+00  8.71834E+00  1.04792E+01
   1.32348E+01  1.26747E+01  1.14856E+01  1.16298E+01  1.33776E+01  1.19978E+01  1.16303E+01  1.23157E+01  1.23152E+01  1.04030E+01
   1.11801E+01  1.03122E+01  1.04229E+01  9.83214E+00  1.04164E+01  1.30326E+01  9.74468E+00  1.09088E+01  1.06789E+01  1.09024E+01
   1.22754E+01  1.12686E+01  1.16667E+01  1.07337E+01  1.21176E+01  1.10696E+01  1.26262E+01  1.26343E+01  1.08337E+01  1.11334E+01
   1.24998E+01  1.38616E+01  1.24785E+01  1.30364E+01  1.36487E+01  1.49595E+01  1.19053E+01  1.32294E+01  1.40791E+01  1.41698E+01
   1.47880E+01  1.40512E+01  1.37307E+01  1.52959E+01  1.37616E+01  1.41000E+01  1.44414E+01  1.24171E+01  1.50040E+01  1.51405E+01
   1.30577E+01  1.49859E+01  1.29475E+01  1.47799E+01  1.44475E+01  1.49296E+01  1.49956E+01  1.40354E+01  1.61075E+01  1.57543E+01
   1.47801E+01  1.65542E+01  1.77077E+01  1.55252E+01  1.64045E+01  1.67926E+01  1.66281E+01  1.53688E+01  1.66018E+01  1.58815E+01
   1.54340E+01  1.81333E+01  1.77905E+01  1.70309E+01  1.71627E+01  1.71213E+01  1.81642E+01  1.84726E+01  1.71415E+01  1.73569E+01
   1.83457E+01  1.84013E+01  1.74791E+01  1.83690E+01  1.84663E+01  1.83645E+01  1.84211E+01  1.80862E+01  2.03361E+01  1.81138E+01
   1.95777E+01  2.03430E+01  1.84531E+01  2.09744E+01  2.15758E+01  1.98860E+01  2.17850E+01  2.11262E+01  2.33883E+01  2.10723E+01
   2.14590E+01  2.08109E+01  2.33249E+01  2.19343E+01  2.03685E+01  2.20314E+01  2.06306E+01  1.99790E+01  2.08112E+01  1.88537E+01
   1.90471E+01  1.87319E+01  1.70666E+01  1.67289E+01  1.64126E+01  1.67708E+01  1.71838E+01  1.64996E+01  1.59289E+01  1.62231E+01
   1.57790E+01  1.53067E+01  1.67432E+01  1.55505E+01  1.42682E+01  1.42940E+01  1.43945E+01  1.37617E+01  1.42750E+01  1.35828E+01
   1.26670E+01  1.35750E+01  1.16584E+01  1.22395E+01  1.45457E+01  1.33529E+01  1.17159E+01  1.18841E+01  1.04097E+01  9.36145E+00
   1.19299E+01  9.01409E+00  9.13845E+00  8.52264E+00  9.13682E+00  1.00239E+01  8.19086E+00  7.49725E+00  8.58389E+00  9.01833E+00
   5.74871E+00  7.87553E+00  5.51101E+00  7.01069E+00  5.86477E+00  4.75879E+00  2.72992E+00  4.20294E+00  3.47438E+00  4.48762E+00
   4.11162E+00  3.20968E+00  2.15612E+00  3.32500E+00  3.84365E+00  2.82246E+00  2.02706E+00  2.83754E+00  1.75276E+00  7.17623E-01
   1.51239E+00  8.87385E-01 -2.46524E+00 -1.13468E+00  2.00776E+00  1.12855E+00 -1.59294E+00 -1.82107E+00 -8.78876E-01 -4.96620E-01
  -1.85482E+00 -2.47974E+00 -2.37022E+00 -1.40690E+00 -2.32017E+00 -2.28656E+00 -3.43493E+00 -3.15104E+00 -5.47360E+00 -3.82907E+00
  -4.31028E+00 -1.60383E+00 -4.12242E+00 -4.31436E+00 -4.02698E+00 -4.99847E+00 -6.78021E+00 -4.70926E+00 -4.66707E+00 -8.65320E+00
  -6.11889E+00 -5.60436E+00 -6.29975E+00 -7.71153E+00 -6.93596E+00 -7.14392E+00 -7.11702E+00 -7.82860E+00 -7.95935E+00 -8.29789E+00
  -9.14790E+00 -1.05493E+01 -6.38515E+00 -7.85234E+00 -9.68672E+00 -8.05975E+00 -9.31012E+00 -7.13883E+00 -8.48671E+00 -9.11273E+00
  -8.50244E+00 -9.12475E+00 -6.78140E+00 -9.46346E+00 -9.36332E+00 -8.41996E+00 -9.14741E+00 -8.90877E+00 -1.02488E+01 -8.50433E+00
  -1.00691E+01 -9.11573E+00 -9.45760E+00 -9.84860E+00 -8.22488E+00 -8.94357E+00 -9.45862E+00 -1.32361E+01
 NY points of the fit to the data follow
  -3.17055E+00 -3.18250E+00 -3.18666E+00 -3.14997E+00 -3.06069E+00 -2.99537E+00 -3.06111E+00 -3.12207E+00 -2.95579E+00 -2.53887E+00
  -2.08084E+00 -1.80007E+00 -1.70037E+00 -1.64027E+00 -1.57363E+00 -1.60632E+00 -1.81246E+00 -2.06487E+00 -2.17739E+00 -2.18892E+00
  -2.17370E+00 -2.14467E+00 -2.09386E+00 -2.01133E+00 -1.92735E+00 -1.89181E+00 -1.92021E+00 -1.99614E+00 -2.05920E+00 -2.04149E+00
  -1.92199E+00 -1.72339E+00 -1.50012E+00 -1.31346E+00 -1.19720E+00 -1.15008E+00 -1.15211E+00 -1.19980E+00 -1.28015E+00 -1.32805E+00
  -1.31218E+00 -1.25882E+00 -1.20748E+00 -1.18011E+00 -1.11812E+00 -9.41302E-01 -6.55611E-01 -3.73384E-01 -1.90698E-01 -1.18063E-01
  -1.19094E-01 -1.77631E-01 -2.87731E-01 -4.28004E-01 -5.59094E-01 -6.32850E-01 -6.30611E-01 -5.63994E-01 -4.44760E-01 -2.96276E-01
  -1.62791E-01 -7.37879E-02 -3.16178E-02 -2.15255E-02 -3.32590E-02 -6.00279E-02 -7.87957E-02 -7.76967E-02 -5.35257E-02  6.52903E-03
   9.30247E-02  1.84993E-01  2.71217E-01  3.50688E-01  4.25385E-01  4.88203E-01  5.27252E-01  5.35471E-01  5.24765E-01  5.22043E-01
   5.28372E-01  5.26761E-01  5.43449E-01  6.19276E-01  7.40074E-01  8.44083E-01  8.77802E-01  8.45052E-01  7.98049E-01  7.74592E-01
   7.64635E-01  7.49459E-01  7.43099E-01  7.85070E-01  8.63518E-01  9.41541E-01  9.74945E-01  8.20780E-01  5.52799E-01  7.56836E-01
   1.70654E+00  3.02453E+00  4.05406E+00  4.48603E+00  4.52795E+00  4.43689E+00  4.15363E+00  3.50072E+00  2.62364E+00  1.99657E+00
   1.81359E+00  1.77535E+00  1.77124E+00  1.78192E+00  1.80030E+00  1.82677E+00  1.85571E+00  1.88222E+00  1.90708E+00  1.93195E+00
   1.95080E+00  1.91272E+00  1.77971E+00  1.81392E+00  2.23987E+00  2.95041E+00  3.60487E+00  3.96056E+00  4.06193E+00  4.06262E+00
   3.97830E+00  3.70820E+00  3.27157E+00  2.88496E+00  2.73846E+00  2.70613E+00  2.70094E+00  2.71292E+00  2.74024E+00  2.77465E+00
   2.80876E+00  2.84075E+00  2.87557E+00  2.91908E+00  2.96572E+00  3.00719E+00  3.04280E+00  3.07621E+00  3.11018E+00  3.14301E+00
   3.17219E+00  3.19888E+00  3.22603E+00  3.25679E+00  3.29037E+00  3.32570E+00  3.36689E+00  3.40824E+00  3.42760E+00  3.41481E+00
   3.38053E+00  3.35745E+00  3.37483E+00  3.42432E+00  3.47763E+00  3.51838E+00  3.55145E+00  3.58305E+00  3.60301E+00  3.60090E+00
   3.58443E+00  3.57075E+00  3.57461E+00  3.57048E+00  3.54084E+00  3.51111E+00  3.51701E+00  3.56184E+00  3.60465E+00  3.61834E+00
   3.62043E+00  3.64840E+00  3.71008E+00  3.76559E+00  3.77208E+00  3.75775E+00  3.76998E+00  3.82969E+00  3.91623E+00  3.99733E+00
   4.06387E+00  4.12457E+00  4.18360E+00  4.23422E+00  4.27153E+00  4.29700E+00  4.31532E+00  4.32341E+00  4.34030E+00  4.38579E+00
   4.46379E+00  4.57350E+00  4.71713E+00  4.87957E+00  5.03337E+00  5.15432E+00  5.17877E+00  5.07028E+00  4.88352E+00  4.70479E+00
   4.58360E+00  4.52677E+00  4.57313E+00  4.77831E+00  5.12574E+00  5.50765E+00  5.79857E+00  5.95102E+00  6.01173E+00  5.96776E+00
   5.77780E+00  5.52936E+00  5.37781E+00  5.40733E+00  5.55830E+00  5.75082E+00  5.97508E+00  6.22602E+00  6.45179E+00  6.58844E+00
   6.64353E+00  6.68704E+00  6.73413E+00  6.75272E+00  6.75358E+00  6.78314E+00  6.87254E+00  7.01442E+00  7.18962E+00  7.35717E+00
   7.49115E+00  7.58768E+00  7.65611E+00  7.70155E+00  7.74336E+00  7.79151E+00  7.85206E+00  7.93679E+00  8.04491E+00  8.15899E+00
   8.26256E+00  8.37892E+00  8.50709E+00  8.62650E+00  8.70467E+00  8.60933E+00  8.28098E+00  8.35491E+00  9.32264E+00  1.08959E+01
   1.22877E+01  1.29795E+01  1.31019E+01  1.30026E+01  1.26993E+01  1.19662E+01  1.08794E+01  9.96107E+00  9.61147E+00  9.51532E+00
   9.49027E+00  9.51433E+00  9.57699E+00  9.66749E+00  9.78428E+00  9.92178E+00  1.00747E+01  1.02371E+01  1.04040E+01  1.05730E+01
   1.07477E+01  1.09330E+01  1.11309E+01  1.13426E+01  1.15676E+01  1.18022E+01  1.20420E+01  1.22830E+01  1.25205E+01  1.27515E+01
   1.29723E+01  1.31789E+01  1.33693E+01  1.35422E+01  1.36959E+01  1.38287E+01  1.39398E+01  1.40293E+01  1.40969E+01  1.41437E+01
   1.41716E+01  1.41824E+01  1.41790E+01  1.41644E+01  1.41423E+01  1.41167E+01  1.40917E+01  1.40713E+01  1.40596E+01  1.40599E+01
   1.40758E+01  1.41101E+01  1.41649E+01  1.42416E+01  1.43410E+01  1.44627E+01  1.46060E+01  1.47692E+01  1.49498E+01  1.51448E+01
   1.53504E+01  1.55627E+01  1.57775E+01  1.59905E+01  1.61974E+01  1.63943E+01  1.65778E+01  1.67450E+01  1.68940E+01  1.70236E+01
   1.71335E+01  1.72245E+01  1.72984E+01  1.73577E+01  1.74059E+01  1.74472E+01  1.74860E+01  1.75274E+01  1.75763E+01  1.76375E+01
   1.77154E+01  1.78128E+01  1.79314E+01  1.80903E+01  1.83075E+01  1.85637E+01  1.88209E+01  1.90577E+01  1.92852E+01  1.95219E+01
   1.97547E+01  1.99732E+01  2.02037E+01  2.04811E+01  2.08051E+01  2.11233E+01  2.13890E+01  2.15984E+01  2.17546E+01  2.18457E+01
   2.18546E+01  2.17814E+01  2.16509E+01  2.14729E+01  2.12432E+01  2.09622E+01  2.06337E+01  2.02634E+01  1.98580E+01  1.94255E+01
   1.89743E+01  1.85133E+01  1.80513E+01  1.75969E+01  1.71580E+01  1.67417E+01  1.63537E+01  1.59985E+01  1.56791E+01  1.53967E+01
   1.51508E+01  1.49393E+01  1.47585E+01  1.46034E+01  1.44678E+01  1.43447E+01  1.42269E+01  1.41067E+01  1.39771E+01  1.38317E+01
   1.36652E+01  1.34734E+01  1.32537E+01  1.30048E+01  1.27271E+01  1.24223E+01  1.20934E+01  1.17441E+01  1.13789E+01  1.10025E+01
   1.06197E+01  1.02351E+01  9.85248E+00  9.47511E+00  9.10537E+00  8.74482E+00  8.39415E+00  8.05321E+00  7.72121E+00  7.39678E+00
   7.07825E+00  6.76374E+00  6.45133E+00  6.13918E+00  5.82563E+00  5.50937E+00  5.18947E+00  4.86539E+00  4.53699E+00  4.20445E+00
   3.86832E+00  3.52942E+00  3.18880E+00  2.84766E+00  2.50727E+00  2.16887E+00  1.83372E+00  1.50297E+00  1.17770E+00  8.58811E-01
   5.47038E-01  2.42944E-01 -5.30500E-02 -3.40657E-01 -6.19732E-01 -8.90274E-01 -1.15240E+00 -1.40632E+00 -1.65229E+00 -1.89060E+00
  -2.12160E+00 -2.34568E+00 -2.56324E+00 -2.77469E+00 -2.98040E+00 -3.18074E+00 -3.37607E+00 -3.56676E+00 -3.75314E+00 -3.93553E+00
  -4.11419E+00 -4.28938E+00 -4.46134E+00 -4.63033E+00 -4.79656E+00 -4.96021E+00 -5.12144E+00 -5.28043E+00 -5.43732E+00 -5.59227E+00
  -5.74541E+00 -5.89684E+00 -6.04664E+00 -6.19492E+00 -6.34179E+00 -6.48733E+00 -6.63160E+00 -6.77466E+00 -6.91657E+00 -7.05740E+00
  -7.19720E+00 -7.33604E+00 -7.47395E+00 -7.61094E+00 -7.74706E+00 -7.88236E+00 -8.01688E+00 -8.15065E+00 -8.28368E+00 -8.41597E+00
  -8.54758E+00 -8.67853E+00 -8.80884E+00 -8.93853E+00 -9.06759E+00 -9.19604E+00 -9.32391E+00 -9.45122E+00 -9.57798E+00 -9.70418E+00
  -9.82983E+00 -9.95494E+00 -1.00795E+01 -1.02036E+01 -1.03272E+01 -1.04503E+01 -1.05729E+01 -1.06950E+01
 NY background values follow
    -3.083E+00   -3.036E+00   -2.988E+00   -2.940E+00   -2.892E+00   -2.843E+00   -2.795E+00   -2.747E+00   -2.698E+00   -2.649E+00
    -2.601E+00   -2.552E+00   -2.503E+00   -2.454E+00   -2.405E+00   -2.356E+00   -2.307E+00   -2.258E+00   -2.209E+00   -2.160E+00
    -2.111E+00   -2.062E+00   -2.013E+00   -1.963E+00   -1.914E+00   -1.865E+00   -1.816E+00   -1.767E+00   -1.718E+00   -1.669E+00
    -1.620E+00   -1.571E+00   -1.522E+00   -1.473E+00   -1.425E+00   -1.376E+00   -1.327E+00   -1.279E+00   -1.231E+00   -1.182E+00
    -1.134E+00   -1.086E+00   -1.038E+00   -9.905E-01   -9.428E-01   -8.953E-01   -8.480E-01   -8.008E-01   -7.538E-01   -7.069E-01
    -6.602E-01   -6.136E-01   -5.673E-01   -5.211E-01   -4.751E-01   -4.292E-01   -3.836E-01   -3.382E-01   -2.930E-01   -2.479E-01
    -2.031E-01   -1.585E-01   -1.141E-01   -6.997E-02   -2.603E-02    1.767E-02    6.114E-02    1.044E-01    1.474E-01    1.901E-01
     2.326E-01    2.748E-01    3.168E-01    3.585E-01    3.999E-01    4.411E-01    4.820E-01    5.226E-01    5.629E-01    6.029E-01
     6.426E-01    6.820E-01    7.211E-01    7.600E-01    7.985E-01    8.366E-01    8.745E-01    9.120E-01    9.492E-01    9.861E-01
     1.023E+00    1.059E+00    1.095E+00    1.130E+00    1.165E+00    1.200E+00    1.235E+00    1.269E+00    1.303E+00    1.337E+00
     1.370E+00    1.403E+00    1.436E+00    1.469E+00    1.501E+00    1.533E+00    1.565E+00    1.597E+00    1.628E+00    1.659E+00
     1.690E+00    1.721E+00    1.752E+00    1.782E+00    1.813E+00    1.843E+00    1.873E+00    1.903E+00    1.932E+00    1.962E+00
     1.991E+00    2.021E+00    2.050E+00    2.079E+00    2.108E+00    2.137E+00    2.166E+00    2.194E+00    2.223E+00    2.252E+00
     2.280E+00    2.309E+00    2.337E+00    2.366E+00    2.394E+00    2.423E+00    2.451E+00    2.480E+00    2.508E+00    2.537E+00
     2.565E+00    2.594E+00    2.622E+00    2.651E+00    2.679E+00    2.708E+00    2.737E+00    2.765E+00    2.794E+00    2.823E+00
     2.852E+00    2.880E+00    2.909E+00    2.938E+00    2.967E+00    2.996E+00    3.025E+00    3.055E+00    3.084E+00    3.113E+00
     3.143E+00    3.172E+00    3.202E+00    3.231E+00    3.261E+00    3.291E+00    3.321E+00    3.351E+00    3.381E+00    3.411E+00
     3.442E+00    3.472E+00    3.503E+00    3.533E+00    3.564E+00    3.595E+00    3.626E+00    3.657E+00    3.689E+00    3.720E+00
     3.752E+00    3.784E+00    3.816E+00    3.848E+00    3.880E+00    3.912E+00    3.945E+00    3.977E+00    4.010E+00    4.042E+00
     4.075E+00    4.108E+00    4.141E+00    4.174E+00    4.207E+00    4.241E+00    4.274E+00    4.307E+00    4.340E+00    4.374E+00
     4.407E+00    4.441E+00    4.474E+00    4.507E+00    4.541E+00    4.574E+00    4.608E+00    4.641E+00    4.674E+00    4.708E+00
     4.741E+00    4.774E+00    4.808E+00    4.841E+00    4.874E+00    4.907E+00    4.940E+00    4.972E+00    5.005E+00    5.038E+00
     5.070E+00    5.103E+00    5.135E+00    5.167E+00    5.199E+00    5.231E+00    5.263E+00    5.294E+00    5.326E+00    5.357E+00
     5.388E+00    5.419E+00    5.450E+00    5.480E+00    5.510E+00    5.539E+00    5.569E+00    5.598E+00    5.626E+00    5.655E+00
     5.683E+00    5.710E+00    5.737E+00    5.763E+00    5.790E+00    5.815E+00    5.840E+00    5.865E+00    5.889E+00    5.912E+00
     5.935E+00    5.957E+00    5.978E+00    5.999E+00    6.019E+00    6.039E+00    6.058E+00    6.076E+00    6.093E+00    6.109E+00
     6.125E+00    6.140E+00    6.154E+00    6.167E+00    6.180E+00    6.191E+00    6.202E+00    6.211E+00    6.220E+00    6.228E+00
     6.235E+00    6.240E+00    6.245E+00    6.249E+00    6.251E+00    6.253E+00    6.254E+00    6.254E+00    6.252E+00    6.250E+00
     6.246E+00    6.242E+00    6.237E+00    6.230E+00    6.223E+00    6.215E+00    6.206E+00    6.195E+00    6.184E+00    6.172E+00
     6.159E+00    6.145E+00    6.130E+00    6.114E+00    6.097E+00    6.079E+00    6.060E+00    6.040E+00    6.019E+00    5.997E+00
     5.975E+00    5.951E+00    5.927E+00    5.901E+00    5.875E+00    5.847E+00    5.819E+00    5.790E+00    5.760E+00    5.729E+00
     5.697E+00    5.664E+00    5.631E+00    5.596E+00    5.561E+00    5.525E+00    5.487E+00    5.449E+00    5.410E+00    5.370E+00
     5.330E+00    5.288E+00    5.246E+00    5.202E+00    5.158E+00    5.113E+00    5.067E+00    5.020E+00    4.973E+00    4.925E+00
     4.875E+00    4.825E+00    4.774E+00    4.723E+00    4.670E+00    4.617E+00    4.563E+00    4.508E+00    4.452E+00    4.396E+00
     4.338E+00    4.280E+00    4.221E+00    4.162E+00    4.101E+00    4.040E+00    3.978E+00    3.915E+00    3.852E+00    3.788E+00
     3.723E+00    3.657E+00    3.590E+00    3.523E+00    3.455E+00    3.386E+00    3.317E+00    3.247E+00    3.176E+00    3.104E+00
     3.032E+00    2.959E+00    2.885E+00    2.811E+00    2.736E+00    2.660E+00    2.584E+00    2.507E+00    2.429E+00    2.350E+00
     2.271E+00    2.191E+00    2.111E+00    2.029E+00    1.947E+00    1.865E+00    1.782E+00    1.698E+00    1.613E+00    1.528E+00
     1.442E+00    1.356E+00    1.269E+00    1.181E+00    1.093E+00    1.004E+00    9.140E-01    8.238E-01    7.329E-01    6.414E-01
     5.492E-01    4.565E-01    3.632E-01    2.692E-01    1.746E-01    7.948E-02   -1.628E-02   -1.126E-01   -2.096E-01   -3.071E-01
    -4.053E-01   -5.040E-01   -6.033E-01   -7.031E-01   -8.036E-01   -9.046E-01   -1.006E+00   -1.108E+00   -1.211E+00   -1.314E+00
    -1.418E+00   -1.522E+00   -1.627E+00   -1.733E+00   -1.838E+00   -1.945E+00   -2.051E+00   -2.159E+00   -2.266E+00   -2.374E+00
    -2.483E+00   -2.592E+00   -2.701E+00   -2.811E+00   -2.921E+00   -3.031E+00   -3.142E+00   -3.253E+00   -3.365E+00   -3.477E+00
    -3.589E+00   -3.701E+00   -3.814E+00   -3.927E+00   -4.040E+00   -4.153E+00   -4.267E+00   -4.381E+00   -4.495E+00   -4.609E+00
    -4.724E+00   -4.838E+00   -4.953E+00   -5.068E+00   -5.183E+00   -5.299E+00   -5.414E+00   -5.530E+00   -5.645E+00   -5.761E+00
    -5.877E+00   -5.992E+00   -6.108E+00   -6.224E+00   -6.340E+00   -6.456E+00   -6.572E+00   -6.688E+00   -6.804E+00   -6.920E+00
    -7.036E+00   -7.152E+00   -7.268E+00   -7.384E+00   -7.500E+00   -7.616E+00   -7.732E+00   -7.848E+00   -7.964E+00   -8.080E+00
    -8.195E+00   -8.311E+00   -8.427E+00   -8.542E+00   -8.657E+00   -8.773E+00   -8.888E+00   -9.003E+00   -9.118E+00   -9.233E+00
    -9.348E+00   -9.463E+00   -9.577E+00   -9.691E+00   -9.806E+00   -9.920E+00   -1.003E+01   -1.015E+01   -1.026E+01   -1.037E+01
    -1.049E+01   -1.060E+01   -1.071E+01   -1.083E+01   -1.094E+01   -1.105E+01   -1.116E+01   -1.128E+01
 Asp      Conc. = 1.04E+01
