 LCModel (Version 6.3-1L) Copyright: S.W. Provencher.          Ref.: Magn. Reson. Med. 30:672-679 (1993).                
 Slice#1 Row#10 Col#13  K_02_press_1_raw_act
 36 lines in following concentration table = NCONC+1
    Conc.  %SD /Cr+PCr  Metabolite                                         
  114.981  32%   0.000 Ala                                                 
   21.196  85%   0.000 Asp                                                 
    0.000 999%   0.000 Cr                                                  
    0.000 999%   0.000 PCr                                                 
    9.907 109%   0.000 GABA                                                
    8.820 122%   0.000 Glc                                                 
    0.000 999%   0.000 Gln                                                 
   93.577  82%   0.000 Glu                                                 
    0.000 999%   0.000 GPC                                                 
    0.447 999%   0.000 PCh                                                 
    0.000 999%   0.000 GSH                                                 
    0.000 999%   0.000 Ins                                                 
  144.183  29%   0.000 Lac                                                 
  305.269  12%   0.000 NAA                                                 
   40.140  96%   0.000 NAAG                                                
    3.924  86%   0.000 Scyllo                                              
   20.347  87%   0.000 Tau                                                 
    0.000 999%   0.000 -CrCH2                                              
    0.447 999%   0.000 GPC+PCh                                             
  345.409   9%   0.000 NAA+NAAG                                            
    0.000 999%   0.000 Cr+PCr                                              
   93.577  82%   0.000 Glu+Gln                                             
 4.76E+03   7%   0.000 Lip13a                                              
    0.000 999%   0.000 Lip13b                                              
 1.30E+03  15%   0.000 Lip09                                               
    0.000 999%   0.000 MM09                                                
  640.444  30%   0.000 Lip20                                               
   47.371 370%   0.000 MM20                                                
   41.019 319%   0.000 MM12                                                
    0.000 999%   0.000 MM14                                                
  110.235  81%   0.000 MM17                                                
 4.76E+03   7%   0.000 Lip13a+Lip13b                                       
 4.80E+03   6%   0.000 MM14+Lip13a+Lip13b+MM12                             
 1.30E+03  15%   0.000 MM09+Lip09                                          
  687.815  23%   0.000 MM20+Lip20                                          
   6 lines in following misc. output table
  FWHM = 0.038 ppm    S/N =   8                                            
  Data shift =-0.031 ppm                                                   
  Ph: 126 deg      43.8 deg/ppm                                            
  alphaB,S = 8.5E+01,   2.6E+01                                            
   14 spline knots.   Ns = 5(1)                                            
   2 inflections.     1 extrema                                            
  498 points on ppm-axis = NY
      4.000000     3.992357     3.984714     3.977070     3.969427     3.961784     3.954141     3.946497     3.938854     3.931211
      3.923568     3.915925     3.908281     3.900638     3.892995     3.885352     3.877708     3.870065     3.862422     3.854779
      3.847136     3.839492     3.831849     3.824206     3.816563     3.808919     3.801276     3.793633     3.785990     3.778347
      3.770703     3.763060     3.755417     3.747774     3.740130     3.732487     3.724844     3.717201     3.709558     3.701914
      3.694271     3.686628     3.678985     3.671341     3.663698     3.656055     3.648412     3.640769     3.633125     3.625482
      3.617839     3.610196     3.602552     3.594909     3.587266     3.579623     3.571980     3.564336     3.556693     3.549050
      3.541407     3.533763     3.526120     3.518477     3.510834     3.503191     3.495547     3.487904     3.480261     3.472618
      3.464974     3.457331     3.449688     3.442045     3.434402     3.426758     3.419115     3.411472     3.403829     3.396185
      3.388542     3.380899     3.373256     3.365613     3.357969     3.350326     3.342683     3.335040     3.327396     3.319753
      3.312110     3.304467     3.296824     3.289180     3.281537     3.273894     3.266251     3.258607     3.250964     3.243321
      3.235678     3.228034     3.220391     3.212748     3.205105     3.197462     3.189818     3.182175     3.174532     3.166889
      3.159245     3.151602     3.143959     3.136316     3.128673     3.121029     3.113386     3.105743     3.098100     3.090456
      3.082813     3.075170     3.067527     3.059884     3.052240     3.044597     3.036954     3.029311     3.021667     3.014024
      3.006381     2.998738     2.991095     2.983451     2.975808     2.968165     2.960522     2.952878     2.945235     2.937592
      2.929949     2.922306     2.914662     2.907019     2.899376     2.891733     2.884089     2.876446     2.868803     2.861160
      2.853517     2.845873     2.838230     2.830587     2.822944     2.815300     2.807657     2.800014     2.792371     2.784728
      2.777084     2.769441     2.761798     2.754155     2.746511     2.738868     2.731225     2.723582     2.715939     2.708295
      2.700652     2.693009     2.685366     2.677722     2.670079     2.662436     2.654793     2.647150     2.639506     2.631863
      2.624220     2.616577     2.608933     2.601290     2.593647     2.586004     2.578361     2.570717     2.563074     2.555431
      2.547788     2.540144     2.532501     2.524858     2.517215     2.509572     2.501928     2.494285     2.486642     2.478999
      2.471355     2.463712     2.456069     2.448426     2.440783     2.433139     2.425496     2.417853     2.410210     2.402566
      2.394923     2.387280     2.379637     2.371994     2.364350     2.356707     2.349064     2.341421     2.333777     2.326134
      2.318491     2.310848     2.303205     2.295561     2.287918     2.280275     2.272632     2.264988     2.257345     2.249702
      2.242059     2.234416     2.226772     2.219129     2.211486     2.203843     2.196199     2.188556     2.180913     2.173270
      2.165627     2.157983     2.150340     2.142697     2.135054     2.127410     2.119767     2.112124     2.104481     2.096838
      2.089194     2.081551     2.073908     2.066265     2.058621     2.050978     2.043335     2.035692     2.028049     2.020405
      2.012762     2.005119     1.997476     1.989833     1.982190     1.974546     1.966903     1.959260     1.951617     1.943974
      1.936331     1.928688     1.921045     1.913402     1.905759     1.898115     1.890472     1.882829     1.875186     1.867543
      1.859900     1.852257     1.844614     1.836971     1.829327     1.821684     1.814041     1.806398     1.798755     1.791112
      1.783469     1.775826     1.768183     1.760540     1.752896     1.745253     1.737610     1.729967     1.722324     1.714681
      1.707038     1.699395     1.691752     1.684108     1.676465     1.668822     1.661179     1.653536     1.645893     1.638250
      1.630607     1.622964     1.615321     1.607677     1.600034     1.592391     1.584748     1.577105     1.569462     1.561819
      1.554176     1.546533     1.538890     1.531246     1.523603     1.515960     1.508317     1.500674     1.493031     1.485388
      1.477745     1.470102     1.462458     1.454815     1.447172     1.439529     1.431886     1.424243     1.416600     1.408957
      1.401314     1.393671     1.386027     1.378384     1.370741     1.363098     1.355455     1.347812     1.340169     1.332526
      1.324883     1.317240     1.309596     1.301953     1.294310     1.286667     1.279024     1.271381     1.263738     1.256095
      1.248452     1.240808     1.233165     1.225522     1.217879     1.210236     1.202593     1.194950     1.187307     1.179664
      1.172021     1.164377     1.156734     1.149091     1.141448     1.133805     1.126162     1.118519     1.110876     1.103233
      1.095590     1.087946     1.080303     1.072660     1.065017     1.057374     1.049731     1.042088     1.034445     1.026802
      1.019158     1.011515     1.003872     0.996229     0.988586     0.980943     0.973300     0.965657     0.958014     0.950371
      0.942727     0.935084     0.927441     0.919798     0.912155     0.904512     0.896869     0.889226     0.881583     0.873940
      0.866296     0.858653     0.851010     0.843367     0.835724     0.828081     0.820438     0.812795     0.805152     0.797508
      0.789865     0.782222     0.774579     0.766936     0.759293     0.751650     0.744007     0.736364     0.728721     0.721077
      0.713434     0.705791     0.698148     0.690505     0.682862     0.675219     0.667576     0.659933     0.652290     0.644646
      0.637003     0.629360     0.621717     0.614074     0.606431     0.598788     0.591145     0.583502     0.575858     0.568215
      0.560572     0.552929     0.545286     0.537643     0.530000     0.522357     0.514714     0.507071     0.499427     0.491784
      0.484141     0.476498     0.468855     0.461212     0.453569     0.445925     0.438282     0.430639     0.422996     0.415353
      0.407710     0.400067     0.392424     0.384780     0.377137     0.369494     0.361851     0.354208     0.346565     0.338922
      0.331278     0.323635     0.315992     0.308349     0.300706     0.293063     0.285420     0.277777     0.270133     0.262490
      0.254847     0.247204     0.239561     0.231918     0.224275     0.216631     0.208988     0.201345
 NY phased data points follow
  -3.37486E+00 -2.17678E+00 -1.03436E+00 -6.36791E-01 -1.87867E+00 -4.62088E+00 -1.71880E+00 -1.79978E-01 -9.80019E-01  5.44415E-01
  -4.93354E-01  6.60948E-01 -3.40181E+00 -1.71169E+00 -1.02371E-01 -1.18083E+00 -1.56865E+00 -9.77767E-01 -1.49473E+00 -9.76078E-01
  -2.02356E+00 -2.63293E+00 -1.01847E+00 -1.76191E+00 -1.73796E+00 -1.27390E+00 -1.30860E+00 -3.63681E+00 -2.62252E+00 -1.51713E+00
  -2.89545E+00 -2.54860E+00 -3.84139E-01 -1.14249E+00 -7.66189E-01 -1.59073E+00  1.24959E-02 -2.29919E+00 -1.16433E+00 -2.64467E+00
  -1.48193E+00  6.28032E-01 -2.89146E+00 -1.14708E-01 -1.63588E+00 -1.44582E+00 -2.12100E+00 -2.37681E+00 -1.06783E+00 -1.33940E+00
  -1.34465E+00 -2.56790E+00  8.34998E-02 -2.05222E+00 -7.65576E-01 -3.13024E+00 -1.70466E+00 -8.82031E-01 -1.14314E+00 -5.62633E+00
   9.87885E-01 -4.26146E+00 -6.30294E-01 -5.58082E-01 -6.65296E-01 -3.39623E+00  3.75115E-02 -1.21313E+00 -8.25584E-01 -1.03797E+00
  -1.01569E+00 -4.22281E+00 -1.10264E+00  5.28170E-03  1.60549E+00 -1.21400E+00  8.28780E-01 -1.29838E+00 -1.08166E+00 -3.41982E+00
  -8.42180E-01  3.94271E-01 -1.18947E+00  2.32917E+00 -8.47252E-01 -2.16869E+00 -9.63149E-01 -1.18261E+00 -1.08386E+00  8.96446E-01
  -1.86295E+00 -1.08188E+00 -3.29971E+00 -7.99951E-01 -9.21731E-01  1.05360E+00 -1.47593E+00 -8.64332E-01 -2.18310E+00 -2.00704E+00
  -2.11762E+00 -8.95842E-01 -1.43043E+00 -9.61500E-01 -4.41498E-01 -1.43631E+00 -1.13792E+00 -1.69365E+00 -2.00618E-01 -4.49309E-02
   3.28089E-01  1.54585E-01  3.10748E-01  1.08051E-01  5.82628E-01 -1.67045E+00  2.23178E-01 -2.18746E+00 -6.40256E-01 -1.71651E+00
  -2.47872E+00 -1.51419E+00 -1.81169E+00  5.88533E-02 -1.18977E+00 -1.97516E+00  3.71542E-01 -2.65130E+00 -1.36359E+00 -6.02605E-01
  -2.44009E+00 -2.71268E+00 -1.77501E+00 -9.91500E-01  1.68690E+00 -1.03715E+00  1.16323E+00  3.05629E-01 -1.92007E+00 -1.08148E+00
  -2.99265E+00 -3.75362E-01 -6.28693E-01 -3.39214E+00 -1.15790E+00 -1.55748E+00 -3.52157E+00 -2.37106E+00  9.52429E-01 -1.60187E+00
  -2.04115E+00 -1.38063E+00 -1.56620E+00  5.20549E-01 -2.09678E+00  8.90008E-01 -8.38175E-01 -2.47653E-01  8.59631E-01 -1.22822E+00
  -3.69211E+00 -4.78241E-01  1.06029E-01 -1.30727E-01 -8.08938E-01 -7.58650E-01  1.64023E+00 -1.14971E+00 -1.68902E+00 -2.08050E+00
  -8.33198E-01  7.85241E-01 -2.58795E+00  1.05060E+00  1.20946E+00  2.01195E+00 -4.28492E-01  2.25304E+00 -7.34828E-01 -3.65137E-01
   1.43774E+00  4.59627E-01  1.57461E+00  1.19786E+00 -1.20109E+00  6.30895E-01 -4.70841E-01 -2.32456E+00 -1.08867E+00 -1.09942E+00
  -1.32757E+00 -1.20911E-02 -8.91681E-01 -2.40768E+00 -4.21005E-01 -1.22878E+00 -4.45473E-01 -1.18235E+00 -1.75919E+00 -1.38559E+00
  -9.17121E-01  1.11134E+00  1.08485E+00 -7.44604E-01  1.11918E-01  2.21312E-01 -4.09642E-02 -1.71002E-01 -2.67485E-01 -7.07996E-01
  -3.37571E-01  6.15060E-01  1.55764E+00 -2.27633E+00  6.98431E-02  2.33022E-01 -6.79036E-01 -4.91261E-01 -3.79877E-01  9.83023E-02
   1.28668E+00 -2.08471E+00 -4.51602E-01 -1.99073E+00 -1.02939E+00 -3.65080E-01 -1.66047E+00 -9.86661E-01  1.18216E+00 -1.25163E+00
   1.64284E+00 -9.70483E-01 -8.11956E-01 -7.38076E-01  1.44512E-01  8.02152E-01  2.86119E+00  1.01512E+00 -2.00976E+00  1.94068E+00
   2.47697E+00 -3.27082E-01 -2.10026E+00  1.85518E+00  1.22327E+00  1.12260E+00  2.81443E+00  2.46719E+00  2.80263E-01  2.38241E+00
   2.43230E+00 -4.59199E-01  1.20402E+00  3.81743E+00  3.30113E+00  4.17056E+00  4.14454E+00  7.16548E+00  7.59484E+00  9.78330E+00
   1.22902E+01  1.62170E+01  1.27208E+01  8.87528E+00  4.80017E+00  6.05088E+00  1.33086E+00  5.33158E-01 -4.38545E-01 -1.01690E+00
  -2.70573E+00 -1.81665E+00 -2.38310E+00 -5.73452E-01 -2.48026E+00 -4.35934E+00  1.48905E+00 -1.52083E+00  7.80382E-01 -8.34899E-01
   1.36853E+00 -6.30069E-01 -4.17898E-01 -1.89605E+00 -1.71194E+00  1.63433E+00  3.94300E-01 -2.06514E-01  1.26085E+00  1.63454E+00
   1.71598E+00 -1.42625E+00  1.76314E+00  8.14162E-01 -3.57867E-01 -1.09269E+00 -6.12256E-01 -7.47469E-01 -1.74789E+00 -3.60605E-01
   6.49876E-01 -2.03732E-01 -1.49608E+00  3.38465E+00  8.90679E-01  5.24933E-01  1.41219E+00 -1.16879E+00  3.64332E+00  2.31429E+00
   1.17023E+00  5.00318E-01  5.99083E-01  2.78577E-01  5.88347E-01 -1.38054E+00 -1.83714E+00 -7.16111E-01  3.94415E-01  1.09105E+00
  -4.81844E-01  3.79192E-01  4.16751E-01  1.14562E+00  1.35288E+00  1.58827E+00  2.89472E+00  1.68747E+00  8.92834E-01  8.67518E-01
   2.11733E+00  7.31139E-01 -3.36042E-01  8.25325E-01  5.88235E+00  6.77992E+00  5.38349E+00  5.52864E+00  8.69130E+00  7.65772E+00
   1.28572E+01  1.29167E+01  1.15516E+01  1.51177E+01  1.60212E+01  1.45374E+01  1.47950E+01  1.70460E+01  1.72062E+01  1.50508E+01
   1.57963E+01  1.59220E+01  1.92398E+01  1.72720E+01  1.74608E+01  1.90610E+01  1.99455E+01  1.95608E+01  2.10804E+01  1.96128E+01
   2.05732E+01  1.92535E+01  1.93150E+01  1.93579E+01  1.51397E+01  1.69262E+01  1.67200E+01  1.50541E+01  1.40234E+01  1.04865E+01
   1.22443E+01  1.38940E+01  9.50064E+00  1.20984E+01  1.05964E+01  7.20462E+00  9.27051E+00  8.20293E+00  8.38642E+00  6.41887E+00
   8.54413E+00  6.62011E+00  5.36976E+00  8.18223E+00  8.12415E+00  5.57381E+00  7.31658E+00  7.98347E+00  8.40135E+00  7.23681E+00
   5.92468E+00  7.12456E+00  1.02161E+01  9.04003E+00  1.00056E+01  6.50036E+00  6.82584E+00  7.92890E+00  4.18771E+00  6.17928E+00
   7.82145E+00  7.93140E+00  5.47561E+00  4.70216E+00  4.46108E+00  5.15199E+00  5.25193E+00  5.66121E+00  3.81893E+00  2.63107E+00
   3.65364E+00  4.32895E+00  4.49604E+00  2.02330E+00  1.89456E+00  3.03689E+00  3.65097E+00  2.75436E-01  2.03739E+00  3.12594E+00
   1.13707E+00  3.01231E+00  2.68471E-01  3.17111E+00  3.15783E+00  2.27826E+00  1.59336E-01  1.05965E+00  4.07554E+00  2.00748E+00
   2.40107E+00  4.69961E-01  1.37751E-01  1.57031E+00 -3.28763E-01  2.18980E+00  5.15938E-01 -3.56693E-01  3.43328E-01  4.67477E-01
   8.74375E-01  1.92466E+00 -2.90217E+00  1.34013E+00 -2.20895E-01 -3.10018E-01  2.09987E-01  1.90344E+00  4.22255E-02 -3.16559E+00
   5.07064E-01 -1.88298E-01 -2.57799E+00 -3.57125E-01 -9.07403E-01 -3.13449E+00  1.48694E+00 -6.89759E-01 -6.43875E-01 -1.56773E+00
  -1.22205E+00 -2.56434E+00 -1.10234E+00 -2.26973E+00 -1.11907E+00 -1.52682E+00 -1.07923E+00 -5.44685E-01 -6.40023E-02 -2.96249E+00
   9.63109E-02 -1.34956E+00 -1.57040E+00 -1.65323E-02 -3.32017E-01 -5.20613E-01 -1.62970E+00 -1.67953E+00  5.29615E-01 -2.31793E+00
  -1.58830E-01 -1.80749E+00  4.31845E-01 -1.28026E+00 -1.46539E+00 -9.94447E-01 -3.77747E+00 -4.46652E-01 -1.82905E+00 -2.21693E+00
  -1.20385E-01 -1.38884E+00 -2.16566E+00 -3.06249E+00 -1.31916E+00 -2.00704E+00 -1.67467E+00 -5.41755E-02
 NY points of the fit to the data follow
  -1.40052E+00 -1.35323E+00 -1.30950E+00 -1.26960E+00 -1.23973E+00 -1.23255E+00 -1.24005E+00 -1.25553E+00 -1.27379E+00 -1.28481E+00
  -1.28249E+00 -1.27165E+00 -1.26712E+00 -1.27934E+00 -1.30052E+00 -1.32353E+00 -1.34717E+00 -1.36690E+00 -1.35739E+00 -1.28963E+00
  -1.16745E+00 -1.03703E+00 -9.33868E-01 -8.73139E-01 -8.82872E-01 -1.00331E+00 -1.23239E+00 -1.50103E+00 -1.69105E+00 -1.74153E+00
  -1.67525E+00 -1.50606E+00 -1.23888E+00 -9.53274E-01 -7.73075E-01 -7.72412E-01 -9.01269E-01 -1.06291E+00 -1.21404E+00 -1.33841E+00
  -1.39794E+00 -1.39005E+00 -1.35050E+00 -1.30796E+00 -1.27461E+00 -1.25643E+00 -1.25017E+00 -1.24946E+00 -1.25157E+00 -1.25137E+00
  -1.25011E+00 -1.24945E+00 -1.24942E+00 -1.24990E+00 -1.25140E+00 -1.25354E+00 -1.25569E+00 -1.25811E+00 -1.25965E+00 -1.25818E+00
  -1.25330E+00 -1.24588E+00 -1.23668E+00 -1.22692E+00 -1.21580E+00 -1.20569E+00 -1.20098E+00 -1.20365E+00 -1.21197E+00 -1.22288E+00
  -1.22850E+00 -1.22111E+00 -1.20213E+00 -1.17437E+00 -1.14205E+00 -1.11556E+00 -1.11003E+00 -1.13629E+00 -1.18055E+00 -1.21701E+00
  -1.23148E+00 -1.21433E+00 -1.16373E+00 -1.09749E+00 -1.03049E+00 -9.63280E-01 -9.13687E-01 -9.15185E-01 -9.71335E-01 -1.04685E+00
  -1.11169E+00 -1.16863E+00 -1.22487E+00 -1.26547E+00 -1.28315E+00 -1.28108E+00 -1.25793E+00 -1.21635E+00 -1.16731E+00 -1.12955E+00
  -1.11726E+00 -1.12389E+00 -1.13304E+00 -1.13979E+00 -1.14922E+00 -1.15634E+00 -1.15551E+00 -1.15303E+00 -1.15191E+00 -1.15338E+00
  -1.15828E+00 -1.16331E+00 -1.16528E+00 -1.16603E+00 -1.16620E+00 -1.16398E+00 -1.16059E+00 -1.15656E+00 -1.15338E+00 -1.15145E+00
  -1.14833E+00 -1.14114E+00 -1.12983E+00 -1.11530E+00 -1.09596E+00 -1.06878E+00 -1.03569E+00 -1.00348E+00 -9.75309E-01 -9.51295E-01
  -9.32281E-01 -9.18385E-01 -9.10331E-01 -9.05209E-01 -8.95417E-01 -8.76476E-01 -8.50151E-01 -8.20227E-01 -7.87553E-01 -7.51544E-01
  -7.15001E-01 -6.81995E-01 -6.50958E-01 -6.14596E-01 -5.71389E-01 -5.26933E-01 -4.89098E-01 -4.62214E-01 -4.43477E-01 -4.29608E-01
  -4.17723E-01 -4.06672E-01 -3.96824E-01 -3.86579E-01 -3.75458E-01 -3.66478E-01 -3.72571E-01 -3.99764E-01 -4.46418E-01 -5.17055E-01
  -6.03770E-01 -6.80116E-01 -7.02513E-01 -6.54151E-01 -5.80827E-01 -5.53267E-01 -5.99620E-01 -6.98049E-01 -8.16739E-01 -9.26205E-01
  -1.02393E+00 -1.11542E+00 -1.19204E+00 -1.25978E+00 -1.33256E+00 -1.40758E+00 -1.46330E+00 -1.46055E+00 -1.39837E+00 -1.34479E+00
  -1.35363E+00 -1.39345E+00 -1.40521E+00 -1.37989E+00 -1.33650E+00 -1.29443E+00 -1.25771E+00 -1.18551E+00 -1.05738E+00 -9.02601E-01
  -7.76687E-01 -7.01588E-01 -6.46927E-01 -6.07408E-01 -5.99529E-01 -5.96880E-01 -5.84100E-01 -5.99810E-01 -6.60805E-01 -7.24755E-01
  -7.53497E-01 -7.37589E-01 -6.83583E-01 -5.91560E-01 -4.91346E-01 -4.61621E-01 -5.22635E-01 -6.32487E-01 -7.64772E-01 -9.03751E-01
  -1.00567E+00 -1.02115E+00 -9.64308E-01 -8.39015E-01 -6.28683E-01 -3.67767E-01 -1.76860E-01 -1.65988E-01 -3.03793E-01 -4.86811E-01
  -6.63384E-01 -8.14814E-01 -8.79606E-01 -7.74552E-01 -5.21141E-01 -2.26976E-01  1.17531E-02  1.74026E-01  2.76331E-01  3.12362E-01
   2.90721E-01  2.61794E-01  2.63844E-01  2.95603E-01  3.46292E-01  3.96788E-01  4.32607E-01  4.45635E-01  4.31952E-01  4.08544E-01
   3.91245E-01  3.88545E-01  4.15649E-01  4.90362E-01  6.07493E-01  7.32604E-01  8.33262E-01  9.00735E-01  9.48699E-01  9.84521E-01
   1.03413E+00  1.18789E+00  1.46671E+00  1.83870E+00  2.35690E+00  3.33845E+00  4.92691E+00  6.64506E+00  8.42146E+00  1.06132E+01
   1.28237E+01  1.35732E+01  1.20481E+01  9.25025E+00  6.58561E+00  4.37844E+00  2.36535E+00  1.00417E+00  5.30476E-01  3.25692E-01
   1.89103E-01  9.58273E-02  3.13091E-02 -1.60315E-02 -5.26518E-02 -9.01432E-02 -1.37184E-01 -1.92427E-01 -2.47456E-01 -2.97449E-01
  -3.39984E-01 -3.70800E-01 -3.86884E-01 -3.89981E-01 -3.85460E-01 -3.76571E-01 -3.63485E-01 -3.46204E-01 -3.25760E-01 -3.01365E-01
  -2.70809E-01 -2.33135E-01 -1.89396E-01 -1.41999E-01 -9.46502E-02 -4.85679E-02 -3.00037E-03  4.11563E-02  8.27739E-02  1.23335E-01
   1.64056E-01  2.04311E-01  2.42614E-01  2.77888E-01  3.10082E-01  3.39141E-01  3.64911E-01  3.88551E-01  4.11497E-01  4.35045E-01
   4.60642E-01  4.89743E-01  5.23859E-01  5.64665E-01  6.14027E-01  6.74035E-01  7.47082E-01  8.36101E-01  9.45125E-01  1.08045E+00
   1.25365E+00  1.49164E+00  1.82723E+00  2.18927E+00  2.50972E+00  2.78869E+00  2.96285E+00  2.85620E+00  2.39776E+00  1.81548E+00
   1.49477E+00  1.57996E+00  1.94584E+00  2.61546E+00  3.73758E+00  5.16174E+00  6.54175E+00  7.62675E+00  8.44280E+00  9.18092E+00
   9.90910E+00  1.06311E+01  1.15206E+01  1.26052E+01  1.37089E+01  1.47723E+01  1.57410E+01  1.64017E+01  1.65333E+01  1.62564E+01
   1.60601E+01  1.62538E+01  1.67185E+01  1.73829E+01  1.84284E+01  1.97378E+01  2.08072E+01  2.13060E+01  2.12648E+01  2.09201E+01
   2.03605E+01  1.95764E+01  1.87309E+01  1.79249E+01  1.71154E+01  1.62890E+01  1.54501E+01  1.46084E+01  1.37752E+01  1.29619E+01
   1.21791E+01  1.14359E+01  1.07400E+01  1.00974E+01  9.51242E+00  8.98794E+00  8.52529E+00  8.12455E+00  7.78466E+00  7.50360E+00
   7.27850E+00  7.10578E+00  6.98127E+00  6.90032E+00  6.85783E+00  6.84838E+00  6.86628E+00  6.90562E+00  6.96038E+00  7.02450E+00
   7.09199E+00  7.15705E+00  7.21415E+00  7.25817E+00  7.28451E+00  7.28922E+00  7.26906E+00  7.22160E+00  7.14528E+00  7.03936E+00
   6.90400E+00  6.74012E+00  6.54944E+00  6.33428E+00  6.09750E+00  5.84233E+00  5.57229E+00  5.29101E+00  5.00210E+00  4.70910E+00
   4.41529E+00  4.12367E+00  3.83691E+00  3.55729E+00  3.28668E+00  3.02658E+00  2.77809E+00  2.54195E+00  2.31861E+00  2.10823E+00
   1.91074E+00  1.72589E+00  1.55327E+00  1.39237E+00  1.24258E+00  1.10328E+00  9.73809E-01  8.53485E-01  7.41646E-01  6.37651E-01
   5.40894E-01  4.50802E-01  3.66837E-01  2.88494E-01  2.15307E-01  1.46851E-01  8.27426E-02  2.26299E-02 -3.38120E-02 -8.68833E-02
  -1.36854E-01 -1.83964E-01 -2.28428E-01 -2.70447E-01 -3.10207E-01 -3.47880E-01 -3.83616E-01 -4.17550E-01 -4.49803E-01 -4.80491E-01
  -5.09726E-01 -5.37607E-01 -5.64220E-01 -5.89641E-01 -6.13943E-01 -6.37198E-01 -6.59475E-01 -6.80834E-01 -7.01325E-01 -7.20993E-01
  -7.39886E-01 -7.58051E-01 -7.75533E-01 -7.92368E-01 -8.08586E-01 -8.24214E-01 -8.39287E-01 -8.53839E-01 -8.67898E-01 -8.81484E-01
  -8.94616E-01 -9.07315E-01 -9.19606E-01 -9.31513E-01 -9.43052E-01 -9.54237E-01 -9.65079E-01 -9.75595E-01 -9.85805E-01 -9.95726E-01
  -1.00537E+00 -1.01474E+00 -1.02384E+00 -1.03270E+00 -1.04132E+00 -1.04972E+00 -1.05791E+00 -1.06588E+00 -1.07364E+00 -1.08122E+00
  -1.08861E+00 -1.09584E+00 -1.10288E+00 -1.10977E+00 -1.11649E+00 -1.12306E+00 -1.12950E+00 -1.13580E+00
 NY background values follow
    -1.632E+00   -1.632E+00   -1.632E+00   -1.633E+00   -1.633E+00   -1.633E+00   -1.633E+00   -1.634E+00   -1.634E+00   -1.634E+00
    -1.634E+00   -1.635E+00   -1.635E+00   -1.635E+00   -1.636E+00   -1.636E+00   -1.636E+00   -1.636E+00   -1.637E+00   -1.637E+00
    -1.637E+00   -1.637E+00   -1.638E+00   -1.638E+00   -1.638E+00   -1.638E+00   -1.639E+00   -1.639E+00   -1.639E+00   -1.639E+00
    -1.640E+00   -1.640E+00   -1.640E+00   -1.640E+00   -1.641E+00   -1.641E+00   -1.641E+00   -1.641E+00   -1.642E+00   -1.642E+00
    -1.642E+00   -1.642E+00   -1.643E+00   -1.643E+00   -1.643E+00   -1.643E+00   -1.644E+00   -1.644E+00   -1.644E+00   -1.644E+00
    -1.645E+00   -1.645E+00   -1.645E+00   -1.645E+00   -1.645E+00   -1.646E+00   -1.646E+00   -1.646E+00   -1.646E+00   -1.647E+00
    -1.647E+00   -1.647E+00   -1.647E+00   -1.648E+00   -1.648E+00   -1.648E+00   -1.648E+00   -1.649E+00   -1.649E+00   -1.649E+00
    -1.649E+00   -1.650E+00   -1.650E+00   -1.650E+00   -1.650E+00   -1.650E+00   -1.651E+00   -1.651E+00   -1.651E+00   -1.651E+00
    -1.652E+00   -1.652E+00   -1.652E+00   -1.652E+00   -1.653E+00   -1.653E+00   -1.653E+00   -1.653E+00   -1.653E+00   -1.654E+00
    -1.654E+00   -1.654E+00   -1.654E+00   -1.655E+00   -1.655E+00   -1.655E+00   -1.655E+00   -1.655E+00   -1.656E+00   -1.656E+00
    -1.656E+00   -1.656E+00   -1.657E+00   -1.657E+00   -1.657E+00   -1.657E+00   -1.657E+00   -1.658E+00   -1.658E+00   -1.658E+00
    -1.658E+00   -1.659E+00   -1.659E+00   -1.659E+00   -1.659E+00   -1.659E+00   -1.660E+00   -1.660E+00   -1.660E+00   -1.660E+00
    -1.660E+00   -1.661E+00   -1.661E+00   -1.661E+00   -1.661E+00   -1.662E+00   -1.662E+00   -1.662E+00   -1.662E+00   -1.662E+00
    -1.663E+00   -1.663E+00   -1.663E+00   -1.663E+00   -1.663E+00   -1.664E+00   -1.664E+00   -1.664E+00   -1.664E+00   -1.664E+00
    -1.665E+00   -1.665E+00   -1.665E+00   -1.665E+00   -1.665E+00   -1.666E+00   -1.666E+00   -1.666E+00   -1.666E+00   -1.666E+00
    -1.667E+00   -1.667E+00   -1.667E+00   -1.667E+00   -1.667E+00   -1.668E+00   -1.668E+00   -1.668E+00   -1.668E+00   -1.668E+00
    -1.669E+00   -1.669E+00   -1.669E+00   -1.669E+00   -1.669E+00   -1.670E+00   -1.670E+00   -1.670E+00   -1.670E+00   -1.670E+00
    -1.671E+00   -1.671E+00   -1.671E+00   -1.671E+00   -1.671E+00   -1.672E+00   -1.672E+00   -1.672E+00   -1.672E+00   -1.672E+00
    -1.672E+00   -1.673E+00   -1.673E+00   -1.673E+00   -1.673E+00   -1.673E+00   -1.674E+00   -1.674E+00   -1.674E+00   -1.674E+00
    -1.674E+00   -1.675E+00   -1.675E+00   -1.675E+00   -1.675E+00   -1.675E+00   -1.675E+00   -1.676E+00   -1.676E+00   -1.676E+00
    -1.676E+00   -1.676E+00   -1.677E+00   -1.677E+00   -1.677E+00   -1.677E+00   -1.677E+00   -1.677E+00   -1.678E+00   -1.678E+00
    -1.678E+00   -1.678E+00   -1.678E+00   -1.678E+00   -1.679E+00   -1.679E+00   -1.679E+00   -1.679E+00   -1.679E+00   -1.680E+00
    -1.680E+00   -1.680E+00   -1.680E+00   -1.680E+00   -1.680E+00   -1.681E+00   -1.681E+00   -1.681E+00   -1.681E+00   -1.681E+00
    -1.681E+00   -1.682E+00   -1.682E+00   -1.682E+00   -1.682E+00   -1.682E+00   -1.682E+00   -1.683E+00   -1.683E+00   -1.683E+00
    -1.683E+00   -1.683E+00   -1.683E+00   -1.684E+00   -1.684E+00   -1.684E+00   -1.684E+00   -1.684E+00   -1.684E+00   -1.684E+00
    -1.685E+00   -1.685E+00   -1.685E+00   -1.685E+00   -1.685E+00   -1.685E+00   -1.686E+00   -1.686E+00   -1.686E+00   -1.686E+00
    -1.686E+00   -1.686E+00   -1.686E+00   -1.687E+00   -1.687E+00   -1.687E+00   -1.687E+00   -1.687E+00   -1.687E+00   -1.688E+00
    -1.688E+00   -1.688E+00   -1.688E+00   -1.688E+00   -1.688E+00   -1.688E+00   -1.689E+00   -1.689E+00   -1.689E+00   -1.689E+00
    -1.689E+00   -1.689E+00   -1.689E+00   -1.690E+00   -1.690E+00   -1.690E+00   -1.690E+00   -1.690E+00   -1.690E+00   -1.690E+00
    -1.691E+00   -1.691E+00   -1.691E+00   -1.691E+00   -1.691E+00   -1.691E+00   -1.691E+00   -1.692E+00   -1.692E+00   -1.692E+00
    -1.692E+00   -1.692E+00   -1.692E+00   -1.692E+00   -1.693E+00   -1.693E+00   -1.693E+00   -1.693E+00   -1.693E+00   -1.693E+00
    -1.693E+00   -1.693E+00   -1.694E+00   -1.694E+00   -1.694E+00   -1.694E+00   -1.694E+00   -1.694E+00   -1.694E+00   -1.694E+00
    -1.695E+00   -1.695E+00   -1.695E+00   -1.695E+00   -1.695E+00   -1.695E+00   -1.695E+00   -1.695E+00   -1.696E+00   -1.696E+00
    -1.696E+00   -1.696E+00   -1.696E+00   -1.696E+00   -1.696E+00   -1.696E+00   -1.697E+00   -1.697E+00   -1.697E+00   -1.697E+00
    -1.697E+00   -1.697E+00   -1.697E+00   -1.697E+00   -1.698E+00   -1.698E+00   -1.698E+00   -1.698E+00   -1.698E+00   -1.698E+00
    -1.698E+00   -1.698E+00   -1.698E+00   -1.699E+00   -1.699E+00   -1.699E+00   -1.699E+00   -1.699E+00   -1.699E+00   -1.699E+00
    -1.699E+00   -1.699E+00   -1.700E+00   -1.700E+00   -1.700E+00   -1.700E+00   -1.700E+00   -1.700E+00   -1.700E+00   -1.700E+00
    -1.700E+00   -1.701E+00   -1.701E+00   -1.701E+00   -1.701E+00   -1.701E+00   -1.701E+00   -1.701E+00   -1.701E+00   -1.701E+00
    -1.701E+00   -1.702E+00   -1.702E+00   -1.702E+00   -1.702E+00   -1.702E+00   -1.702E+00   -1.702E+00   -1.702E+00   -1.702E+00
    -1.702E+00   -1.703E+00   -1.703E+00   -1.703E+00   -1.703E+00   -1.703E+00   -1.703E+00   -1.703E+00   -1.703E+00   -1.703E+00
    -1.703E+00   -1.703E+00   -1.704E+00   -1.704E+00   -1.704E+00   -1.704E+00   -1.704E+00   -1.704E+00   -1.704E+00   -1.704E+00
    -1.704E+00   -1.704E+00   -1.704E+00   -1.704E+00   -1.705E+00   -1.705E+00   -1.705E+00   -1.705E+00   -1.705E+00   -1.705E+00
    -1.705E+00   -1.705E+00   -1.705E+00   -1.705E+00   -1.705E+00   -1.705E+00   -1.706E+00   -1.706E+00   -1.706E+00   -1.706E+00
    -1.706E+00   -1.706E+00   -1.706E+00   -1.706E+00   -1.706E+00   -1.706E+00   -1.706E+00   -1.706E+00   -1.706E+00   -1.707E+00
    -1.707E+00   -1.707E+00   -1.707E+00   -1.707E+00   -1.707E+00   -1.707E+00   -1.707E+00   -1.707E+00   -1.707E+00   -1.707E+00
    -1.707E+00   -1.707E+00   -1.707E+00   -1.708E+00   -1.708E+00   -1.708E+00   -1.708E+00   -1.708E+00   -1.708E+00   -1.708E+00
    -1.708E+00   -1.708E+00   -1.708E+00   -1.708E+00   -1.708E+00   -1.708E+00   -1.708E+00   -1.708E+00   -1.708E+00   -1.709E+00
    -1.709E+00   -1.709E+00   -1.709E+00   -1.709E+00   -1.709E+00   -1.709E+00   -1.709E+00   -1.709E+00   -1.709E+00   -1.709E+00
    -1.709E+00   -1.709E+00   -1.709E+00   -1.709E+00   -1.709E+00   -1.709E+00   -1.709E+00   -1.710E+00   -1.710E+00   -1.710E+00
    -1.710E+00   -1.710E+00   -1.710E+00   -1.710E+00   -1.710E+00   -1.710E+00   -1.710E+00   -1.710E+00
 Ala      Conc. = 1.15E+02
