 LCModel (Version 6.3-1L) Copyright: S.W. Provencher.          Ref.: Magn. Reson. Med. 30:672-679 (1993).                
 Slice#2 Row#7 Col#5  K_02_press_1_raw_act
 36 lines in following concentration table = NCONC+1
    Conc.  %SD /Cr+PCr  Metabolite                                         
  336.774  34%   0.181 Ala                                                 
    0.000 999%   0.000 Asp                                                 
  806.726  27%   0.433 Cr                                                  
 1.06E+03  22%   0.567 PCr                                                 
    0.000 999%   0.000 GABA                                                
   16.546 999% 8.9E-03 Glc                                                 
  429.243  53%   0.230 Gln                                                 
 1.71E+03  15%   0.915 Glu                                                 
  795.625   4%   0.427 GPC                                                 
    0.000 999%   0.000 PCh                                                 
  619.880  14%   0.332 GSH                                                 
 1.19E+03  25%   0.637 Ins                                                 
  149.047  81% 8.0E-02 Lac                                                 
 2.97E+03   5%   1.592 NAA                                                 
 1.09E+03  10%   0.585 NAAG                                                
   21.280 161% 1.1E-02 Scyllo                                              
    0.000 999%   0.000 Tau                                                 
   66.093 226% 3.5E-02 -CrCH2                                              
  795.625   4%   0.427 GPC+PCh                                             
 4.06E+03   3%   2.177 NAA+NAAG                                            
 1.86E+03   4%   1.000 Cr+PCr                                              
 2.13E+03  16%   1.145 Glu+Gln                                             
 2.88E+03  28%   1.543 Lip13a                                              
    0.000 999%   0.000 Lip13b                                              
    0.000 999%   0.000 Lip09                                               
 1.65E+03  19%   0.886 MM09                                                
  662.286  44%   0.355 Lip20                                               
 3.79E+03  15%   2.035 MM20                                                
  607.908  32%   0.326 MM12                                                
 1.43E+03  33%   0.765 MM14                                                
 1.02E+03  35%   0.547 MM17                                                
 2.88E+03  28%   1.543 Lip13a+Lip13b                                       
 4.91E+03  16%   2.634 MM14+Lip13a+Lip13b+MM12                             
 1.65E+03  19%   0.886 MM09+Lip09                                          
 4.46E+03  13%   2.390 MM20+Lip20                                          
   6 lines in following misc. output table
  FWHM = 0.038 ppm    S/N =  15                                            
  Data shift = 0.008 ppm                                                   
  Ph: -25 deg      -3.7 deg/ppm                                            
  alphaB,S = 9.6E-01,   4.8E+01                                            
   14 spline knots.   Ns = 5(1)                                            
  ( 7) 2 infls.   ( 1) 1 extrs.                                            
  498 points on ppm-axis = NY
      4.000000     3.992357     3.984714     3.977070     3.969427     3.961784     3.954141     3.946497     3.938854     3.931211
      3.923568     3.915925     3.908281     3.900638     3.892995     3.885352     3.877708     3.870065     3.862422     3.854779
      3.847136     3.839492     3.831849     3.824206     3.816563     3.808919     3.801276     3.793633     3.785990     3.778347
      3.770703     3.763060     3.755417     3.747774     3.740130     3.732487     3.724844     3.717201     3.709558     3.701914
      3.694271     3.686628     3.678985     3.671341     3.663698     3.656055     3.648412     3.640769     3.633125     3.625482
      3.617839     3.610196     3.602552     3.594909     3.587266     3.579623     3.571980     3.564336     3.556693     3.549050
      3.541407     3.533763     3.526120     3.518477     3.510834     3.503191     3.495547     3.487904     3.480261     3.472618
      3.464974     3.457331     3.449688     3.442045     3.434402     3.426758     3.419115     3.411472     3.403829     3.396185
      3.388542     3.380899     3.373256     3.365613     3.357969     3.350326     3.342683     3.335040     3.327396     3.319753
      3.312110     3.304467     3.296824     3.289180     3.281537     3.273894     3.266251     3.258607     3.250964     3.243321
      3.235678     3.228034     3.220391     3.212748     3.205105     3.197462     3.189818     3.182175     3.174532     3.166889
      3.159245     3.151602     3.143959     3.136316     3.128673     3.121029     3.113386     3.105743     3.098100     3.090456
      3.082813     3.075170     3.067527     3.059884     3.052240     3.044597     3.036954     3.029311     3.021667     3.014024
      3.006381     2.998738     2.991095     2.983451     2.975808     2.968165     2.960522     2.952878     2.945235     2.937592
      2.929949     2.922306     2.914662     2.907019     2.899376     2.891733     2.884089     2.876446     2.868803     2.861160
      2.853517     2.845873     2.838230     2.830587     2.822944     2.815300     2.807657     2.800014     2.792371     2.784728
      2.777084     2.769441     2.761798     2.754155     2.746511     2.738868     2.731225     2.723582     2.715939     2.708295
      2.700652     2.693009     2.685366     2.677722     2.670079     2.662436     2.654793     2.647150     2.639506     2.631863
      2.624220     2.616577     2.608933     2.601290     2.593647     2.586004     2.578361     2.570717     2.563074     2.555431
      2.547788     2.540144     2.532501     2.524858     2.517215     2.509572     2.501928     2.494285     2.486642     2.478999
      2.471355     2.463712     2.456069     2.448426     2.440783     2.433139     2.425496     2.417853     2.410210     2.402566
      2.394923     2.387280     2.379637     2.371994     2.364350     2.356707     2.349064     2.341421     2.333777     2.326134
      2.318491     2.310848     2.303205     2.295561     2.287918     2.280275     2.272632     2.264988     2.257345     2.249702
      2.242059     2.234416     2.226772     2.219129     2.211486     2.203843     2.196199     2.188556     2.180913     2.173270
      2.165627     2.157983     2.150340     2.142697     2.135054     2.127410     2.119767     2.112124     2.104481     2.096838
      2.089194     2.081551     2.073908     2.066265     2.058621     2.050978     2.043335     2.035692     2.028049     2.020405
      2.012762     2.005119     1.997476     1.989833     1.982190     1.974546     1.966903     1.959260     1.951617     1.943974
      1.936331     1.928688     1.921045     1.913402     1.905759     1.898115     1.890472     1.882829     1.875186     1.867543
      1.859900     1.852257     1.844614     1.836971     1.829327     1.821684     1.814041     1.806398     1.798755     1.791112
      1.783469     1.775826     1.768183     1.760540     1.752896     1.745253     1.737610     1.729967     1.722324     1.714681
      1.707038     1.699395     1.691752     1.684108     1.676465     1.668822     1.661179     1.653536     1.645893     1.638250
      1.630607     1.622964     1.615321     1.607677     1.600034     1.592391     1.584748     1.577105     1.569462     1.561819
      1.554176     1.546533     1.538890     1.531246     1.523603     1.515960     1.508317     1.500674     1.493031     1.485388
      1.477745     1.470102     1.462458     1.454815     1.447172     1.439529     1.431886     1.424243     1.416600     1.408957
      1.401314     1.393671     1.386027     1.378384     1.370741     1.363098     1.355455     1.347812     1.340169     1.332526
      1.324883     1.317240     1.309596     1.301953     1.294310     1.286667     1.279024     1.271381     1.263738     1.256095
      1.248452     1.240808     1.233165     1.225522     1.217879     1.210236     1.202593     1.194950     1.187307     1.179664
      1.172021     1.164377     1.156734     1.149091     1.141448     1.133805     1.126162     1.118519     1.110876     1.103233
      1.095590     1.087946     1.080303     1.072660     1.065017     1.057374     1.049731     1.042088     1.034445     1.026802
      1.019158     1.011515     1.003872     0.996229     0.988586     0.980943     0.973300     0.965657     0.958014     0.950371
      0.942727     0.935084     0.927441     0.919798     0.912155     0.904512     0.896869     0.889226     0.881583     0.873940
      0.866296     0.858653     0.851010     0.843367     0.835724     0.828081     0.820438     0.812795     0.805152     0.797508
      0.789865     0.782222     0.774579     0.766936     0.759293     0.751650     0.744007     0.736364     0.728721     0.721077
      0.713434     0.705791     0.698148     0.690505     0.682862     0.675219     0.667576     0.659933     0.652290     0.644646
      0.637003     0.629360     0.621717     0.614074     0.606431     0.598788     0.591145     0.583502     0.575858     0.568215
      0.560572     0.552929     0.545286     0.537643     0.530000     0.522357     0.514714     0.507071     0.499427     0.491784
      0.484141     0.476498     0.468855     0.461212     0.453569     0.445925     0.438282     0.430639     0.422996     0.415353
      0.407710     0.400067     0.392424     0.384780     0.377137     0.369494     0.361851     0.354208     0.346565     0.338922
      0.331278     0.323635     0.315992     0.308349     0.300706     0.293063     0.285420     0.277777     0.270133     0.262490
      0.254847     0.247204     0.239561     0.231918     0.224275     0.216631     0.208988     0.201345
 NY phased data points follow
  -5.88200E+01 -5.69660E+01 -5.49657E+01 -5.82759E+01 -5.54506E+01 -5.08051E+01 -3.61291E+01 -2.82652E+01 -2.09760E+01 -6.90631E+00
   8.52962E-01 -2.85659E+00  2.47478E-02 -1.86443E+01 -2.19742E+01 -3.11456E+01 -4.03508E+01 -4.90531E+01 -5.00184E+01 -4.71255E+01
  -4.91211E+01 -4.56033E+01 -3.76473E+01 -4.48855E+01 -4.08904E+01 -3.67494E+01 -3.93409E+01 -3.07707E+01 -3.67968E+01 -3.42115E+01
  -3.56234E+01 -2.24802E+01 -2.64963E+01 -2.65760E+01 -2.87853E+01 -3.78816E+01 -3.31738E+01 -3.29997E+01 -3.33471E+01 -3.33393E+01
  -3.08653E+01 -3.29528E+01 -3.09472E+01 -2.37142E+01 -2.60844E+01 -2.21069E+01 -2.38907E+01 -1.88919E+01 -1.76860E+01 -2.09696E+01
  -2.38513E+01 -2.43688E+01 -2.90512E+01 -3.51334E+01 -3.25390E+01 -3.40744E+01 -3.33414E+01 -2.96732E+01 -2.67242E+01 -3.27852E+01
  -3.00584E+01 -3.58016E+01 -4.28706E+01 -3.67866E+01 -3.50198E+01 -3.89810E+01 -4.29368E+01 -4.17255E+01 -4.47415E+01 -3.97496E+01
  -3.68443E+01 -3.70616E+01 -3.63187E+01 -3.05309E+01 -3.15915E+01 -3.16151E+01 -3.31673E+01 -2.64739E+01 -2.85828E+01 -3.19655E+01
  -3.82099E+01 -3.04044E+01 -2.81999E+01 -3.03605E+01 -2.89504E+01 -3.55277E+01 -3.14434E+01 -3.27843E+01 -3.32137E+01 -2.45641E+01
  -2.83780E+01 -2.99259E+01 -2.53953E+01 -2.54357E+01 -1.29407E+01 -2.05777E+01 -1.99717E+01 -1.96664E+01 -1.18810E+01 -3.06202E+00
   1.31694E+01  3.29369E+01  6.32811E+01  6.65827E+01  5.97244E+01  4.10660E+01  1.85863E+01  5.01352E+00 -5.07230E+00 -1.44812E+01
  -1.62303E+01 -1.66538E+01 -2.05266E+01 -2.39704E+01 -2.80278E+01 -1.78284E+01 -1.98072E+01 -1.82899E+01 -2.18945E+01 -1.36364E+01
  -1.64671E+01 -1.90137E+01 -1.89646E+01 -7.53183E+00 -8.02767E-02  1.71469E+01  4.84563E+01  6.12526E+01  6.17027E+01  4.45768E+01
   2.26796E+01  3.25514E-02  3.11505E+00 -9.39355E+00 -1.69920E+01 -1.52715E+01 -2.06067E+01 -2.21607E+01 -2.19549E+01 -2.08188E+01
  -1.72473E+01 -2.04880E+01 -1.74277E+01 -1.31243E+01 -2.37101E+01 -1.96823E+01 -2.37981E+01 -1.73105E+01 -1.83951E+01 -1.93219E+01
  -2.19217E+01 -1.36869E+01 -2.04461E+01 -2.23868E+01 -1.83518E+01 -2.81069E+01 -2.46607E+01 -2.30563E+01 -2.01899E+01 -1.62648E+01
  -1.94303E+01 -2.10039E+01 -2.67726E+01 -2.83029E+01 -2.35170E+01 -2.23989E+01 -1.75075E+01 -2.22654E+01 -2.69997E+01 -3.85485E+01
  -4.20106E+01 -3.29640E+01 -3.67238E+01 -4.10489E+01 -4.17985E+01 -3.94885E+01 -4.57028E+01 -3.83373E+01 -3.26425E+01 -3.66150E+01
  -3.82410E+01 -3.66500E+01 -4.29355E+01 -3.55519E+01 -3.19008E+01 -3.81574E+01 -2.67161E+01 -2.76186E+01 -2.60264E+01 -2.11082E+01
  -1.76920E+01 -1.18844E+01 -7.50328E+00 -1.25932E+01 -2.10564E+01 -2.03067E+01 -1.98788E+01 -2.24941E+01 -3.02115E+01 -3.48868E+01
  -2.23500E+01 -2.25457E+01 -2.05368E+01 -1.47306E+01 -1.77891E+01 -1.90077E+01 -1.98215E+01 -1.79624E+01 -2.48114E+01 -2.60228E+01
  -2.86343E+01 -2.48074E+01 -2.13152E+01 -1.74985E+01 -1.70399E+01 -8.22457E+00 -2.71247E-01  8.49381E+00 -6.53769E+00 -9.70141E+00
  -1.72550E+01 -2.07136E+01 -2.42530E+01 -2.28887E+01 -1.86596E+01 -1.16705E+01 -1.15563E+01 -8.34075E+00 -3.79273E+00 -1.05809E+00
  -2.87436E+00 -9.57748E+00 -9.68944E+00 -1.93797E+00 -8.63637E+00 -4.54247E+00 -3.39161E+00 -2.72911E-01 -3.31401E+00 -1.15074E+01
  -6.77349E+00 -1.40237E+01 -1.60706E+01 -1.52698E+01 -9.86376E+00 -6.49033E+00 -2.30929E+00  1.71091E+00  4.99768E+00  1.30052E+01
   3.04124E+00  8.85646E+00  1.39288E+01  2.52133E+01  4.51974E+01  6.06272E+01  6.10082E+01  6.28150E+01  7.97192E+01  1.11401E+02
   1.40460E+02  1.43378E+02  1.07883E+02  7.38150E+01  3.82837E+01  1.54093E+01  6.83180E+00 -6.52888E+00 -3.87710E+00 -5.64708E+00
  -8.97065E+00 -6.19078E+00 -5.99556E+00 -8.75235E+00 -1.18078E+00 -7.80006E+00 -4.15687E+00 -9.24125E+00 -1.01751E+01 -1.63887E+01
  -1.02074E+01 -1.17199E+01 -6.61760E+00 -8.82158E+00 -1.03924E+01 -1.23268E+01 -9.50913E+00 -1.13982E+01 -1.24358E+01 -1.18434E+01
  -1.16744E+01 -8.17202E+00 -1.33871E+01 -1.36436E+01 -1.17489E+01 -1.37870E+01 -1.16134E+01 -6.65013E+00 -1.37685E+01 -1.37117E+01
  -1.24881E+01 -1.07698E+01 -9.35548E+00 -6.42126E+00 -9.27941E+00 -1.14559E+01 -6.65425E+00 -1.31948E+01 -1.34977E+01 -9.89380E+00
  -8.93376E+00 -9.74241E+00 -1.52085E+01 -1.30862E+01 -1.04870E+01 -1.04319E+01 -1.10346E+01 -1.30596E+01 -1.41014E+01 -1.07403E+01
  -1.46580E+01 -1.45792E+01 -1.96226E+01 -1.75951E+01 -1.87383E+01 -1.10489E+01 -1.32890E+01 -1.36567E+01 -1.89331E+01 -2.15064E+01
  -1.03348E+01 -2.19603E+01 -1.59747E+01 -1.73291E+01 -1.41007E+01 -8.31416E+00 -9.48170E+00 -8.36522E+00 -2.87040E+00  8.52231E-01
   3.57728E+00  7.25748E+00  3.90662E+00  4.68664E+00  6.94630E+00  1.00066E+01  5.35062E+00  3.89687E-01  3.27227E+00  7.34969E-01
   2.74248E+00 -4.39340E+00 -5.23851E+00 -1.82417E+00  4.37880E+00 -1.19320E-01 -2.48440E+00 -3.54242E-01 -1.24706E+00 -1.11916E+01
  -1.13930E+01 -4.86356E+00 -1.51204E+01 -7.99294E+00 -1.15845E+01 -6.22709E+00 -5.46450E+00 -9.01576E+00  3.51888E+00 -1.52424E+00
   2.16134E+00  5.32791E-01  9.47414E+00  2.16238E+00  1.85715E+00 -2.59352E+00 -3.67140E+00 -9.08220E+00 -4.92364E+00 -1.39590E+01
  -1.81836E+01 -1.36554E+01 -1.22827E+01 -1.53502E+01 -1.59922E+01 -1.41070E+01 -1.50324E+01 -1.76045E+01 -1.42259E+01 -1.54192E+01
  -1.21088E+01 -1.46572E+01 -1.19825E+01 -7.84595E+00 -1.22724E+01 -1.17723E+01 -9.57615E+00 -1.01074E+01 -7.81986E+00 -1.05129E+01
  -8.24994E+00 -3.55638E+00 -3.07526E+00 -2.91854E+00 -3.37144E+00  8.69316E-01  7.55287E-01 -1.99493E+00  5.47276E+00  2.06635E+00
  -1.55408E+00 -9.14599E+00 -5.64480E+00 -9.24384E+00 -7.03819E+00 -1.01839E+01 -1.39048E+01 -1.02442E+01 -1.48556E+01 -1.72364E+01
  -1.54208E+01 -1.44163E+01 -8.17215E+00 -1.67733E+01 -1.60683E+01 -6.10423E+00 -1.37211E+01 -2.04657E+01 -1.50239E+01 -1.32512E+01
  -6.06204E+00 -7.88649E+00 -1.81410E+01 -1.41291E+01 -1.10776E+01 -1.14790E+01 -1.14932E+01 -1.05499E+01 -1.07060E+01 -1.25496E+01
  -9.20653E+00 -1.32836E+01 -1.46105E+01 -6.85454E+00 -8.52239E+00 -7.46634E+00 -8.03751E+00 -7.32498E+00 -1.12856E+01 -7.06443E+00
  -1.48910E+01 -1.44340E+01 -1.33553E+01 -4.98882E+00 -7.32465E+00 -1.33340E+01 -1.35817E+01 -4.37396E+00 -8.21499E+00 -9.16145E+00
  -8.23026E+00 -6.68810E+00 -4.14270E+00 -2.12972E+00 -7.14211E+00 -8.53296E+00 -2.83401E+00 -8.73284E+00 -8.44588E+00 -4.08533E+00
  -1.14325E+01 -9.09340E+00  1.84317E+00 -6.65168E+00 -7.25271E+00 -6.63768E+00 -6.47703E+00  1.79446E+00 -1.87347E+00 -6.43003E+00
  -6.18339E+00 -5.64969E+00  1.29010E+00 -4.99931E+00 -7.15644E+00 -5.10460E+00 -6.76499E+00 -7.13623E+00 -6.00850E+00 -2.23734E+00
  -6.37786E+00 -5.14278E+00 -1.99554E+00 -9.79432E+00 -2.91058E+00 -3.82959E+00 -5.01252E+00 -2.13603E+00
 NY points of the fit to the data follow
  -5.42997E+01 -5.40710E+01 -5.34483E+01 -5.22547E+01 -4.98834E+01 -4.60886E+01 -4.04078E+01 -3.12537E+01 -1.93353E+01 -7.36907E+00
   3.94956E-01  9.08902E-01 -5.57439E+00 -1.56787E+01 -2.52977E+01 -3.26176E+01 -3.73344E+01 -4.00842E+01 -4.18713E+01 -4.25958E+01
  -4.27325E+01 -4.26233E+01 -4.25569E+01 -4.27119E+01 -4.28927E+01 -4.25139E+01 -4.19852E+01 -4.07426E+01 -3.70775E+01 -3.12245E+01
  -2.58412E+01 -2.34476E+01 -2.37920E+01 -2.55603E+01 -2.79983E+01 -3.09307E+01 -3.43001E+01 -3.69884E+01 -3.85088E+01 -3.91964E+01
  -3.89452E+01 -3.76424E+01 -3.56603E+01 -3.37428E+01 -3.17587E+01 -2.89420E+01 -2.56493E+01 -2.33659E+01 -2.33592E+01 -2.55302E+01
  -2.85838E+01 -3.13877E+01 -3.34767E+01 -3.47468E+01 -3.51367E+01 -3.48653E+01 -3.42756E+01 -3.33648E+01 -3.21472E+01 -3.08873E+01
  -3.01360E+01 -3.02927E+01 -3.12635E+01 -3.25713E+01 -3.36444E+01 -3.41780E+01 -3.40304E+01 -3.33164E+01 -3.24054E+01 -3.14584E+01
  -3.05484E+01 -2.97806E+01 -2.93561E+01 -2.93662E+01 -2.96311E+01 -2.99219E+01 -3.00721E+01 -3.00918E+01 -3.00522E+01 -2.99416E+01
  -2.97974E+01 -2.96315E+01 -2.95058E+01 -2.94203E+01 -2.93856E+01 -2.95933E+01 -3.02496E+01 -3.11987E+01 -3.19198E+01 -3.19700E+01
  -3.13173E+01 -3.01936E+01 -2.89368E+01 -2.77341E+01 -2.66698E+01 -2.58038E+01 -2.49193E+01 -2.25547E+01 -1.63896E+01 -6.59192E+00
   1.05128E+01  3.62961E+01  6.13896E+01  7.18127E+01  6.24554E+01  4.08289E+01  1.80237E+01  9.35476E-01 -1.02988E+01 -1.79857E+01
  -2.15668E+01 -2.27214E+01 -2.31478E+01 -2.32935E+01 -2.33092E+01 -2.32606E+01 -2.31608E+01 -2.30282E+01 -2.28842E+01 -2.26787E+01
  -2.22268E+01 -2.09124E+01 -1.65373E+01 -9.18699E+00  2.21525E+00  2.18333E+01  4.57830E+01  6.15332E+01  5.98323E+01  4.37715E+01
   2.35075E+01  7.34911E+00 -2.67462E+00 -9.98647E+00 -1.55577E+01 -1.91710E+01 -2.20270E+01 -2.35906E+01 -2.35688E+01 -2.22474E+01
  -2.03246E+01 -1.85509E+01 -1.76152E+01 -1.76927E+01 -1.83696E+01 -1.92362E+01 -2.00082E+01 -2.05431E+01 -2.09647E+01 -2.13412E+01
  -2.17638E+01 -2.23101E+01 -2.29706E+01 -2.35357E+01 -2.37278E+01 -2.34228E+01 -2.28675E+01 -2.24503E+01 -2.26614E+01 -2.38453E+01
  -2.55257E+01 -2.68513E+01 -2.70059E+01 -2.59214E+01 -2.46578E+01 -2.44038E+01 -2.54348E+01 -2.70895E+01 -2.85386E+01 -2.92496E+01
  -2.92343E+01 -2.90687E+01 -2.92456E+01 -2.99376E+01 -3.12869E+01 -3.25627E+01 -3.28628E+01 -3.19466E+01 -3.05066E+01 -2.98869E+01
  -3.04161E+01 -3.10679E+01 -3.08485E+01 -2.98175E+01 -2.89167E+01 -2.86108E+01 -2.82574E+01 -2.66621E+01 -2.35618E+01 -1.98604E+01
  -1.67049E+01 -1.50924E+01 -1.53578E+01 -1.70584E+01 -1.91640E+01 -2.10166E+01 -2.23610E+01 -2.30555E+01 -2.27534E+01 -2.12672E+01
  -1.92315E+01 -1.71074E+01 -1.50144E+01 -1.33189E+01 -1.24490E+01 -1.32494E+01 -1.56453E+01 -1.89458E+01 -2.24819E+01 -2.52738E+01
  -2.66392E+01 -2.63387E+01 -2.44231E+01 -2.10197E+01 -1.58074E+01 -9.98631E+00 -5.94819E+00 -5.80792E+00 -9.45365E+00 -1.47798E+01
  -2.03248E+01 -2.53660E+01 -2.86525E+01 -2.85063E+01 -2.44255E+01 -1.84889E+01 -1.30761E+01 -9.45589E+00 -7.65524E+00 -7.37374E+00
  -8.39132E+00 -9.82319E+00 -1.02313E+01 -9.12634E+00 -7.27495E+00 -5.34313E+00 -3.74668E+00 -2.91732E+00 -3.39726E+00 -5.28099E+00
  -7.82409E+00 -9.95844E+00 -1.08336E+01 -9.94278E+00 -7.30370E+00 -3.77313E+00 -6.74802E-01  1.29602E+00  2.19324E+00  2.66159E+00
   4.27384E+00  7.74883E+00  1.39078E+01  2.54234E+01  4.06560E+01  5.52472E+01  6.51250E+01  7.00223E+01  8.45425E+01  1.13113E+02
   1.38346E+02  1.38146E+02  1.11243E+02  7.43711E+01  4.22092E+01  2.10344E+01  7.03200E+00 -2.68039E+00 -6.10156E+00 -7.41223E+00
  -8.20187E+00 -8.78819E+00 -9.13866E+00 -9.33672E+00 -9.58494E+00 -1.00538E+01 -1.07171E+01 -1.13753E+01 -1.18570E+01 -1.21902E+01
  -1.24142E+01 -1.24991E+01 -1.24412E+01 -1.23679E+01 -1.23801E+01 -1.24800E+01 -1.26020E+01 -1.27007E+01 -1.27633E+01 -1.27234E+01
  -1.24922E+01 -1.21125E+01 -1.16970E+01 -1.13468E+01 -1.10952E+01 -1.09252E+01 -1.08311E+01 -1.08093E+01 -1.08023E+01 -1.07531E+01
  -1.06666E+01 -1.05821E+01 -1.05382E+01 -1.05560E+01 -1.06341E+01 -1.07736E+01 -1.09723E+01 -1.12108E+01 -1.14754E+01 -1.17541E+01
  -1.20373E+01 -1.23169E+01 -1.25851E+01 -1.28322E+01 -1.30473E+01 -1.32200E+01 -1.33414E+01 -1.34032E+01 -1.33946E+01 -1.33004E+01
  -1.30981E+01 -1.27449E+01 -1.21490E+01 -1.13419E+01 -1.04525E+01 -9.35734E+00 -8.56384E+00 -8.97689E+00 -1.08242E+01 -1.32552E+01
  -1.50805E+01 -1.56494E+01 -1.52524E+01 -1.39424E+01 -1.12944E+01 -7.49621E+00 -3.90964E+00 -1.58258E+00 -5.92413E-01 -3.94402E-01
  -3.52292E-01 -2.19217E-01 -2.11284E-02  3.52243E-01  8.84697E-01  1.45453E+00  1.65816E+00  1.13076E+00 -2.02687E-02 -1.26810E+00
  -2.10457E+00 -2.48334E+00 -2.44867E+00 -1.90370E+00 -8.54095E-01  2.05016E-01  7.12956E-01  5.68898E-01 -9.24346E-03 -7.28404E-01
  -1.44490E+00 -2.18721E+00 -2.88542E+00 -3.52822E+00 -4.15487E+00 -4.77888E+00 -5.40341E+00 -6.02756E+00 -6.64778E+00 -7.25912E+00
  -7.85614E+00 -8.43383E+00 -8.98745E+00 -9.51226E+00 -1.00032E+01 -1.04554E+01 -1.08647E+01 -1.12279E+01 -1.15422E+01 -1.18047E+01
  -1.20123E+01 -1.21621E+01 -1.22518E+01 -1.22798E+01 -1.22444E+01 -1.21438E+01 -1.19760E+01 -1.17399E+01 -1.14357E+01 -1.10648E+01
  -1.06292E+01 -1.01324E+01 -9.57932E+00 -8.97745E+00 -8.33679E+00 -7.66950E+00 -6.98920E+00 -6.31103E+00 -5.65152E+00 -5.02850E+00
  -4.45997E+00 -3.96300E+00 -3.55253E+00 -3.24107E+00 -3.03833E+00 -2.95094E+00 -2.98149E+00 -3.12815E+00 -3.38470E+00 -3.74150E+00
  -4.18615E+00 -4.70425E+00 -5.27951E+00 -5.89451E+00 -6.53165E+00 -7.17446E+00 -7.80827E+00 -8.42050E+00 -9.00038E+00 -9.53919E+00
  -1.00306E+01 -1.04708E+01 -1.08584E+01 -1.11938E+01 -1.14781E+01 -1.17133E+01 -1.19026E+01 -1.20499E+01 -1.21594E+01 -1.22353E+01
  -1.22811E+01 -1.23001E+01 -1.22956E+01 -1.22709E+01 -1.22292E+01 -1.21725E+01 -1.21027E+01 -1.20213E+01 -1.19299E+01 -1.18301E+01
  -1.17233E+01 -1.16102E+01 -1.14911E+01 -1.13667E+01 -1.12379E+01 -1.11056E+01 -1.09700E+01 -1.08314E+01 -1.06897E+01 -1.05454E+01
  -1.03990E+01 -1.02512E+01 -1.01017E+01 -9.95063E+00 -9.79783E+00 -9.64373E+00 -9.48873E+00 -9.33298E+00 -9.17626E+00 -9.01841E+00
  -8.85952E+00 -8.70002E+00 -8.54015E+00 -8.37986E+00 -8.21885E+00 -8.05704E+00 -7.89464E+00 -7.73205E+00 -7.56937E+00 -7.40641E+00
  -7.24287E+00 -7.07883E+00 -6.91456E+00 -6.75038E+00 -6.58620E+00 -6.42176E+00 -6.25688E+00 -6.09175E+00 -5.92669E+00 -5.76189E+00
  -5.59710E+00 -5.43208E+00 -5.26677E+00 -5.10148E+00 -4.93645E+00 -4.77172E+00 -4.60696E+00 -4.44200E+00 -4.27691E+00 -4.11207E+00
  -3.94760E+00 -3.78336E+00 -3.61903E+00 -3.45455E+00 -3.29012E+00 -3.12604E+00 -2.96231E+00 -2.79866E+00
 NY background values follow
    -5.683E+01   -5.647E+01   -5.611E+01   -5.574E+01   -5.538E+01   -5.502E+01   -5.466E+01   -5.429E+01   -5.393E+01   -5.357E+01
    -5.321E+01   -5.285E+01   -5.249E+01   -5.213E+01   -5.178E+01   -5.142E+01   -5.106E+01   -5.071E+01   -5.035E+01   -5.000E+01
    -4.964E+01   -4.929E+01   -4.894E+01   -4.859E+01   -4.824E+01   -4.790E+01   -4.755E+01   -4.721E+01   -4.686E+01   -4.652E+01
    -4.618E+01   -4.584E+01   -4.551E+01   -4.517E+01   -4.484E+01   -4.451E+01   -4.418E+01   -4.385E+01   -4.352E+01   -4.320E+01
    -4.288E+01   -4.255E+01   -4.224E+01   -4.192E+01   -4.161E+01   -4.130E+01   -4.099E+01   -4.068E+01   -4.038E+01   -4.007E+01
    -3.978E+01   -3.948E+01   -3.918E+01   -3.889E+01   -3.860E+01   -3.831E+01   -3.803E+01   -3.775E+01   -3.747E+01   -3.719E+01
    -3.692E+01   -3.665E+01   -3.638E+01   -3.611E+01   -3.585E+01   -3.559E+01   -3.533E+01   -3.507E+01   -3.482E+01   -3.457E+01
    -3.433E+01   -3.408E+01   -3.384E+01   -3.360E+01   -3.337E+01   -3.314E+01   -3.291E+01   -3.268E+01   -3.246E+01   -3.224E+01
    -3.202E+01   -3.181E+01   -3.160E+01   -3.139E+01   -3.118E+01   -3.098E+01   -3.078E+01   -3.059E+01   -3.040E+01   -3.021E+01
    -3.002E+01   -2.984E+01   -2.966E+01   -2.949E+01   -2.931E+01   -2.914E+01   -2.898E+01   -2.882E+01   -2.866E+01   -2.850E+01
    -2.835E+01   -2.820E+01   -2.805E+01   -2.791E+01   -2.777E+01   -2.764E+01   -2.751E+01   -2.738E+01   -2.725E+01   -2.713E+01
    -2.701E+01   -2.690E+01   -2.678E+01   -2.668E+01   -2.657E+01   -2.647E+01   -2.637E+01   -2.628E+01   -2.618E+01   -2.610E+01
    -2.601E+01   -2.593E+01   -2.585E+01   -2.578E+01   -2.571E+01   -2.564E+01   -2.558E+01   -2.552E+01   -2.546E+01   -2.541E+01
    -2.536E+01   -2.531E+01   -2.527E+01   -2.523E+01   -2.519E+01   -2.516E+01   -2.513E+01   -2.511E+01   -2.509E+01   -2.507E+01
    -2.505E+01   -2.504E+01   -2.503E+01   -2.502E+01   -2.501E+01   -2.501E+01   -2.501E+01   -2.501E+01   -2.501E+01   -2.501E+01
    -2.502E+01   -2.502E+01   -2.503E+01   -2.504E+01   -2.504E+01   -2.505E+01   -2.506E+01   -2.507E+01   -2.508E+01   -2.509E+01
    -2.509E+01   -2.510E+01   -2.511E+01   -2.511E+01   -2.512E+01   -2.512E+01   -2.512E+01   -2.512E+01   -2.512E+01   -2.512E+01
    -2.511E+01   -2.510E+01   -2.509E+01   -2.508E+01   -2.506E+01   -2.504E+01   -2.502E+01   -2.500E+01   -2.497E+01   -2.494E+01
    -2.490E+01   -2.486E+01   -2.482E+01   -2.477E+01   -2.472E+01   -2.466E+01   -2.460E+01   -2.454E+01   -2.447E+01   -2.441E+01
    -2.433E+01   -2.426E+01   -2.418E+01   -2.410E+01   -2.402E+01   -2.394E+01   -2.385E+01   -2.376E+01   -2.367E+01   -2.357E+01
    -2.348E+01   -2.338E+01   -2.329E+01   -2.319E+01   -2.309E+01   -2.298E+01   -2.288E+01   -2.278E+01   -2.267E+01   -2.257E+01
    -2.246E+01   -2.236E+01   -2.225E+01   -2.215E+01   -2.204E+01   -2.193E+01   -2.183E+01   -2.172E+01   -2.162E+01   -2.152E+01
    -2.141E+01   -2.131E+01   -2.121E+01   -2.111E+01   -2.101E+01   -2.092E+01   -2.082E+01   -2.073E+01   -2.063E+01   -2.054E+01
    -2.046E+01   -2.037E+01   -2.028E+01   -2.020E+01   -2.012E+01   -2.004E+01   -1.996E+01   -1.989E+01   -1.981E+01   -1.974E+01
    -1.967E+01   -1.960E+01   -1.953E+01   -1.947E+01   -1.940E+01   -1.934E+01   -1.928E+01   -1.922E+01   -1.917E+01   -1.911E+01
    -1.906E+01   -1.901E+01   -1.896E+01   -1.892E+01   -1.887E+01   -1.883E+01   -1.879E+01   -1.875E+01   -1.872E+01   -1.868E+01
    -1.865E+01   -1.862E+01   -1.859E+01   -1.857E+01   -1.854E+01   -1.852E+01   -1.850E+01   -1.848E+01   -1.847E+01   -1.846E+01
    -1.844E+01   -1.843E+01   -1.843E+01   -1.842E+01   -1.842E+01   -1.842E+01   -1.842E+01   -1.842E+01   -1.843E+01   -1.843E+01
    -1.844E+01   -1.845E+01   -1.846E+01   -1.847E+01   -1.849E+01   -1.850E+01   -1.852E+01   -1.853E+01   -1.855E+01   -1.857E+01
    -1.859E+01   -1.861E+01   -1.863E+01   -1.866E+01   -1.868E+01   -1.870E+01   -1.873E+01   -1.875E+01   -1.878E+01   -1.880E+01
    -1.883E+01   -1.885E+01   -1.888E+01   -1.891E+01   -1.893E+01   -1.896E+01   -1.898E+01   -1.901E+01   -1.904E+01   -1.906E+01
    -1.908E+01   -1.911E+01   -1.913E+01   -1.915E+01   -1.918E+01   -1.920E+01   -1.922E+01   -1.924E+01   -1.926E+01   -1.927E+01
    -1.929E+01   -1.931E+01   -1.932E+01   -1.934E+01   -1.935E+01   -1.936E+01   -1.937E+01   -1.938E+01   -1.939E+01   -1.940E+01
    -1.941E+01   -1.942E+01   -1.942E+01   -1.943E+01   -1.943E+01   -1.944E+01   -1.944E+01   -1.944E+01   -1.944E+01   -1.944E+01
    -1.944E+01   -1.944E+01   -1.944E+01   -1.943E+01   -1.943E+01   -1.942E+01   -1.942E+01   -1.941E+01   -1.940E+01   -1.939E+01
    -1.938E+01   -1.937E+01   -1.936E+01   -1.935E+01   -1.934E+01   -1.933E+01   -1.931E+01   -1.930E+01   -1.928E+01   -1.927E+01
    -1.925E+01   -1.923E+01   -1.921E+01   -1.919E+01   -1.917E+01   -1.915E+01   -1.913E+01   -1.910E+01   -1.908E+01   -1.905E+01
    -1.903E+01   -1.900E+01   -1.897E+01   -1.894E+01   -1.891E+01   -1.888E+01   -1.884E+01   -1.881E+01   -1.877E+01   -1.873E+01
    -1.869E+01   -1.865E+01   -1.860E+01   -1.856E+01   -1.851E+01   -1.846E+01   -1.841E+01   -1.836E+01   -1.830E+01   -1.824E+01
    -1.818E+01   -1.812E+01   -1.806E+01   -1.799E+01   -1.793E+01   -1.786E+01   -1.778E+01   -1.771E+01   -1.763E+01   -1.755E+01
    -1.747E+01   -1.738E+01   -1.730E+01   -1.721E+01   -1.711E+01   -1.702E+01   -1.692E+01   -1.682E+01   -1.671E+01   -1.661E+01
    -1.650E+01   -1.638E+01   -1.627E+01   -1.615E+01   -1.603E+01   -1.591E+01   -1.578E+01   -1.565E+01   -1.552E+01   -1.539E+01
    -1.526E+01   -1.512E+01   -1.498E+01   -1.484E+01   -1.470E+01   -1.456E+01   -1.441E+01   -1.427E+01   -1.412E+01   -1.397E+01
    -1.381E+01   -1.366E+01   -1.351E+01   -1.335E+01   -1.319E+01   -1.303E+01   -1.287E+01   -1.271E+01   -1.255E+01   -1.239E+01
    -1.222E+01   -1.206E+01   -1.189E+01   -1.173E+01   -1.156E+01   -1.139E+01   -1.122E+01   -1.106E+01   -1.089E+01   -1.072E+01
    -1.055E+01   -1.038E+01   -1.021E+01   -1.004E+01   -9.866E+00   -9.695E+00   -9.524E+00   -9.353E+00   -9.183E+00   -9.012E+00
    -8.841E+00   -8.670E+00   -8.499E+00   -8.328E+00   -8.157E+00   -7.986E+00   -7.815E+00   -7.644E+00   -7.473E+00   -7.302E+00
    -7.131E+00   -6.960E+00   -6.790E+00   -6.619E+00   -6.449E+00   -6.279E+00   -6.109E+00   -5.939E+00   -5.769E+00   -5.599E+00
    -5.430E+00   -5.261E+00   -5.092E+00   -4.923E+00   -4.755E+00   -4.587E+00   -4.419E+00   -4.251E+00   -4.084E+00   -3.917E+00
    -3.751E+00   -3.584E+00   -3.418E+00   -3.253E+00   -3.087E+00   -2.923E+00   -2.758E+00   -2.594E+00
 Ala      Conc. = 3.37E+02
