 LCModel (Version 6.3-1L) Copyright: S.W. Provencher.          Ref.: Magn. Reson. Med. 30:672-679 (1993).                
 Slice#1 Row#2 Col#1  K_02_press_1_raw_act
 36 lines in following concentration table = NCONC+1
    Conc.  %SD /Cr+PCr  Metabolite                                         
   26.376 131%   0.528 Ala                                                 
   13.827  34%   0.277 Asp                                                 
    0.000 999%   0.000 Cr                                                  
   49.953  43%   1.000 PCr                                                 
    8.312  34%   0.166 GABA                                                
    8.269  34%   0.166 Glc                                                 
   97.020  70%   1.942 Gln                                                 
    0.000 999%   0.000 Glu                                                 
   33.073  28%   0.662 GPC                                                 
    0.000 999%   0.000 PCh                                                 
   28.442  93%   0.569 GSH                                                 
  264.887  38%   5.303 Ins                                                 
    0.000 999%   0.000 Lac                                                 
   31.548  83%   0.632 NAA                                                 
   94.350  31%   1.889 NAAG                                                
    2.889  33% 5.8E-02 Scyllo                                              
   13.668  34%   0.274 Tau                                                 
    4.493 129% 9.0E-02 -CrCH2                                              
   33.073  28%   0.662 GPC+PCh                                             
  125.899  25%   2.520 NAA+NAAG                                            
   49.953  43%   1.000 Cr+PCr                                              
   97.020  70%   1.942 Glu+Gln                                             
    0.000 999%   0.000 Lip13a                                              
    0.000 999%   0.000 Lip13b                                              
    0.000 999%   0.000 Lip09                                               
  583.690  17%  11.685 MM09                                                
    4.499 699% 9.0E-02 Lip20                                               
  892.046  17%  17.858 MM20                                                
  175.225  18%   3.508 MM12                                                
  478.941  18%   9.588 MM14                                                
  280.806  18%   5.621 MM17                                                
    0.000 999%   0.000 Lip13a+Lip13b                                       
  654.166  17%  13.096 MM14+Lip13a+Lip13b+MM12                             
  583.690  17%  11.685 MM09+Lip09                                          
  896.545  17%  17.948 MM20+Lip20                                          
   6 lines in following misc. output table
  FWHM = 0.031 ppm    S/N =   2                                            
  Data shift = 0.054 ppm                                                   
  Ph:-122 deg      26.9 deg/ppm                                            
  alphaB,S = 1.2E+00,   1.3E+01                                            
   14 spline knots.   Ns = 5(1)                                            
  ( 9) 2 infls.   ( 9) 1 extrs.                                            
  498 points on ppm-axis = NY
      4.000000     3.992357     3.984714     3.977070     3.969427     3.961784     3.954141     3.946497     3.938854     3.931211
      3.923568     3.915925     3.908281     3.900638     3.892995     3.885352     3.877708     3.870065     3.862422     3.854779
      3.847136     3.839492     3.831849     3.824206     3.816563     3.808919     3.801276     3.793633     3.785990     3.778347
      3.770703     3.763060     3.755417     3.747774     3.740130     3.732487     3.724844     3.717201     3.709558     3.701914
      3.694271     3.686628     3.678985     3.671341     3.663698     3.656055     3.648412     3.640769     3.633125     3.625482
      3.617839     3.610196     3.602552     3.594909     3.587266     3.579623     3.571980     3.564336     3.556693     3.549050
      3.541407     3.533763     3.526120     3.518477     3.510834     3.503191     3.495547     3.487904     3.480261     3.472618
      3.464974     3.457331     3.449688     3.442045     3.434402     3.426758     3.419115     3.411472     3.403829     3.396185
      3.388542     3.380899     3.373256     3.365613     3.357969     3.350326     3.342683     3.335040     3.327396     3.319753
      3.312110     3.304467     3.296824     3.289180     3.281537     3.273894     3.266251     3.258607     3.250964     3.243321
      3.235678     3.228034     3.220391     3.212748     3.205105     3.197462     3.189818     3.182175     3.174532     3.166889
      3.159245     3.151602     3.143959     3.136316     3.128673     3.121029     3.113386     3.105743     3.098100     3.090456
      3.082813     3.075170     3.067527     3.059884     3.052240     3.044597     3.036954     3.029311     3.021667     3.014024
      3.006381     2.998738     2.991095     2.983451     2.975808     2.968165     2.960522     2.952878     2.945235     2.937592
      2.929949     2.922306     2.914662     2.907019     2.899376     2.891733     2.884089     2.876446     2.868803     2.861160
      2.853517     2.845873     2.838230     2.830587     2.822944     2.815300     2.807657     2.800014     2.792371     2.784728
      2.777084     2.769441     2.761798     2.754155     2.746511     2.738868     2.731225     2.723582     2.715939     2.708295
      2.700652     2.693009     2.685366     2.677722     2.670079     2.662436     2.654793     2.647150     2.639506     2.631863
      2.624220     2.616577     2.608933     2.601290     2.593647     2.586004     2.578361     2.570717     2.563074     2.555431
      2.547788     2.540144     2.532501     2.524858     2.517215     2.509572     2.501928     2.494285     2.486642     2.478999
      2.471355     2.463712     2.456069     2.448426     2.440783     2.433139     2.425496     2.417853     2.410210     2.402566
      2.394923     2.387280     2.379637     2.371994     2.364350     2.356707     2.349064     2.341421     2.333777     2.326134
      2.318491     2.310848     2.303205     2.295561     2.287918     2.280275     2.272632     2.264988     2.257345     2.249702
      2.242059     2.234416     2.226772     2.219129     2.211486     2.203843     2.196199     2.188556     2.180913     2.173270
      2.165627     2.157983     2.150340     2.142697     2.135054     2.127410     2.119767     2.112124     2.104481     2.096838
      2.089194     2.081551     2.073908     2.066265     2.058621     2.050978     2.043335     2.035692     2.028049     2.020405
      2.012762     2.005119     1.997476     1.989833     1.982190     1.974546     1.966903     1.959260     1.951617     1.943974
      1.936331     1.928688     1.921045     1.913402     1.905759     1.898115     1.890472     1.882829     1.875186     1.867543
      1.859900     1.852257     1.844614     1.836971     1.829327     1.821684     1.814041     1.806398     1.798755     1.791112
      1.783469     1.775826     1.768183     1.760540     1.752896     1.745253     1.737610     1.729967     1.722324     1.714681
      1.707038     1.699395     1.691752     1.684108     1.676465     1.668822     1.661179     1.653536     1.645893     1.638250
      1.630607     1.622964     1.615321     1.607677     1.600034     1.592391     1.584748     1.577105     1.569462     1.561819
      1.554176     1.546533     1.538890     1.531246     1.523603     1.515960     1.508317     1.500674     1.493031     1.485388
      1.477745     1.470102     1.462458     1.454815     1.447172     1.439529     1.431886     1.424243     1.416600     1.408957
      1.401314     1.393671     1.386027     1.378384     1.370741     1.363098     1.355455     1.347812     1.340169     1.332526
      1.324883     1.317240     1.309596     1.301953     1.294310     1.286667     1.279024     1.271381     1.263738     1.256095
      1.248452     1.240808     1.233165     1.225522     1.217879     1.210236     1.202593     1.194950     1.187307     1.179664
      1.172021     1.164377     1.156734     1.149091     1.141448     1.133805     1.126162     1.118519     1.110876     1.103233
      1.095590     1.087946     1.080303     1.072660     1.065017     1.057374     1.049731     1.042088     1.034445     1.026802
      1.019158     1.011515     1.003872     0.996229     0.988586     0.980943     0.973300     0.965657     0.958014     0.950371
      0.942727     0.935084     0.927441     0.919798     0.912155     0.904512     0.896869     0.889226     0.881583     0.873940
      0.866296     0.858653     0.851010     0.843367     0.835724     0.828081     0.820438     0.812795     0.805152     0.797508
      0.789865     0.782222     0.774579     0.766936     0.759293     0.751650     0.744007     0.736364     0.728721     0.721077
      0.713434     0.705791     0.698148     0.690505     0.682862     0.675219     0.667576     0.659933     0.652290     0.644646
      0.637003     0.629360     0.621717     0.614074     0.606431     0.598788     0.591145     0.583502     0.575858     0.568215
      0.560572     0.552929     0.545286     0.537643     0.530000     0.522357     0.514714     0.507071     0.499427     0.491784
      0.484141     0.476498     0.468855     0.461212     0.453569     0.445925     0.438282     0.430639     0.422996     0.415353
      0.407710     0.400067     0.392424     0.384780     0.377137     0.369494     0.361851     0.354208     0.346565     0.338922
      0.331278     0.323635     0.315992     0.308349     0.300706     0.293063     0.285420     0.277777     0.270133     0.262490
      0.254847     0.247204     0.239561     0.231918     0.224275     0.216631     0.208988     0.201345
 NY phased data points follow
   9.31466E-01  2.37618E+00  2.83378E+00  2.41775E+00  4.20763E+00  3.20635E+00 -9.67023E-01  3.55377E+00  4.25582E+00  3.30442E+00
   4.11390E+00  1.90551E+00 -2.42790E-01  2.26202E+00 -3.08269E-01  1.50854E+00  3.39648E+00  9.45696E-01  1.84529E+00  3.71098E+00
   6.32149E-01  1.58949E-01  4.49051E-02 -7.20361E-01  1.11149E+00  2.05425E+00 -4.65842E-01  4.70274E+00  2.51006E+00  1.51639E+00
   3.59995E+00  1.13474E+00  3.14021E+00 -7.54798E-01  1.36001E+00  4.27465E+00  4.03796E+00 -6.56936E-01  4.01229E+00  9.95569E-01
   3.17314E+00  2.27021E+00  3.56980E+00  4.87327E+00 -1.00698E+00  1.00313E+00  4.22159E+00  5.57852E+00  2.80804E+00  1.29490E+00
   2.77003E+00  2.11951E+00  4.80468E-01  3.44752E-02  1.71673E+00 -1.97094E+00  2.79232E+00  3.65430E+00  6.77972E-01  2.11035E+00
   1.88485E+00  2.11323E+00 -2.19014E+00  2.55339E+00  8.08971E-01 -1.65717E+00  6.42983E-01  1.80905E+00  1.02508E+00 -2.01551E-01
   3.68023E+00  3.54864E+00 -1.97317E+00 -8.81830E-01  1.14871E+00  7.40200E-01 -1.12608E+00  2.44035E+00  6.84077E-01  1.02306E+00
   4.41441E+00  5.35946E-01 -7.98256E-01  3.96353E+00  1.31264E+00  2.91778E+00  3.71115E+00  8.48116E-01 -6.43589E-02  5.14264E-01
  -2.24215E-02  2.06939E-01  4.83417E+00  3.58619E+00 -2.40556E-01  5.40176E-02 -1.37329E+00  1.08807E-01  1.93770E+00  5.72282E-01
   1.21405E+00  5.94784E+00  5.88179E+00  3.59470E+00  9.41216E-01 -9.34841E-01  2.03209E+00 -1.37426E+00 -3.01140E-01 -3.36646E-01
  -2.55885E+00  2.49250E+00 -7.56589E-01 -1.83155E+00 -1.83294E-01  2.01037E+00  6.98843E-01  1.55350E-01 -2.14947E+00 -6.10459E-01
  -2.42600E+00 -2.00763E-01 -7.10905E-01  1.29462E+00  4.66849E+00  3.45829E+00  2.68050E+00  2.23599E+00 -1.74870E+00 -7.29259E-01
  -2.31493E+00 -4.54376E+00 -4.19632E+00 -1.43039E+00  4.37982E-02  8.25527E-01 -4.32900E-01 -2.48293E+00 -2.13719E+00  1.41470E+00
  -7.52326E-01 -4.78080E-01  1.95416E-02 -2.52970E+00  7.13195E-01 -7.43081E-01  1.11864E+00 -3.04846E-01  3.34395E-01  1.05261E+00
   8.13240E-01 -1.28262E+00 -2.07996E+00  2.81954E-01 -1.46914E+00  2.47712E+00 -1.38015E+00 -6.40730E-01  1.23288E+00 -1.94770E+00
  -3.67765E+00 -3.73779E+00 -5.15275E+00  1.67944E+00 -1.77976E+00  7.55858E-02  1.52160E+00  8.28098E-01 -1.91611E+00 -1.81699E+00
  -7.43952E-01 -3.34681E-01  7.93943E-01 -1.59736E+00 -1.62618E+00 -9.18688E-01 -2.03583E+00 -9.34068E-01 -3.42023E+00 -2.24969E+00
  -1.63341E+00 -2.54042E+00 -1.55438E+00 -6.74756E-01 -3.25838E+00 -3.66606E+00 -2.12682E+00 -2.29424E+00 -3.11111E+00 -2.32648E+00
   6.75452E-02 -4.74304E+00 -2.48426E+00 -4.72739E+00 -5.39791E+00 -3.39613E+00 -8.88105E+00 -5.45595E+00 -4.44920E+00 -7.67082E+00
  -3.82563E+00 -4.67407E+00 -5.92311E+00 -3.31516E+00 -3.18159E+00 -5.85301E-01 -4.99864E+00 -6.12422E+00 -3.37676E+00 -2.12897E+00
  -3.02816E+00 -2.64290E+00 -4.28271E+00 -2.65365E+00  9.58948E-02 -5.83597E+00 -2.56298E+00 -1.98680E+00 -2.41312E+00 -4.37154E+00
  -1.38343E+00 -1.47665E+00 -2.22000E+00 -4.00104E-01 -2.99794E+00  1.11370E-01  2.72424E+00  6.91912E-01 -1.11252E+00 -2.85389E+00
  -1.63023E+00 -3.29462E+00  1.77941E-01 -3.88655E-01 -1.72260E+00  7.71865E-01 -2.62393E+00 -7.99357E-01  7.53975E-01  1.72102E-01
  -6.83797E-01  6.89947E-01  1.77176E+00  2.23124E+00 -2.40125E+00 -1.14952E+00 -9.56817E-01  9.28989E-02  9.98303E-01  6.47666E-01
   2.18819E+00  1.09391E-01  2.44131E-01 -1.63074E+00  3.92530E+00  5.03852E+00  5.34297E+00  7.77068E+00  5.10968E+00  3.20154E+00
   3.22188E+00  3.35551E+00  2.73372E+00 -1.45787E+00  2.17609E+00  3.83298E-01  1.01780E+00 -1.14970E-01  2.10437E+00  4.12641E-01
  -1.02900E+00  9.16139E-01  1.15029E-01  1.13627E+00  4.44539E+00  1.21113E+00 -1.33512E-02  1.69484E-01  1.53298E+00  8.77552E-01
   5.08358E+00  2.06601E+00 -1.92400E+00 -2.45668E-01  1.52147E+00  1.87599E+00  5.10931E-01  1.79343E+00 -1.26955E-01  3.61170E-01
  -1.61032E+00  2.91488E+00  1.01457E+00  2.96277E+00 -1.44917E+00 -1.17976E+00  6.07889E-02  4.15839E+00 -9.54375E-02  8.74217E-02
   2.73158E-01  1.68735E+00  1.74938E+00  3.30631E+00  1.89641E+00  1.86097E+00  3.80416E+00  1.85932E+00  4.86642E+00 -6.10310E-01
   2.34710E+00  2.23635E+00  3.86094E-01 -1.46823E+00  3.56453E+00  9.80773E-01  5.32393E+00  2.13583E+00 -1.52535E+00  3.92276E+00
   2.67118E+00  1.34350E+00  2.58264E+00  2.92349E+00  2.94840E+00  3.64633E+00  1.04399E+00  3.29089E+00  2.53990E+00  1.30509E+00
   2.35803E+00 -1.28613E+00  2.66460E+00  2.03229E+00  1.20583E+00  2.93761E+00  3.13285E-01  1.41052E+00 -1.32524E-01  3.28192E+00
  -1.19257E+00  1.74388E+00  1.51973E+00  1.28509E+00  2.27536E+00  2.56690E+00 -2.57996E+00 -3.34416E-01  1.59146E+00 -1.09095E+00
   2.59329E-01  1.71247E-01  8.89210E-01  1.40202E-01  2.00526E+00 -1.78963E+00  1.60255E-01 -2.78887E+00 -1.24054E+00  1.01922E+00
  -3.64047E-01 -2.71923E+00  1.47177E+00  1.78618E+00  1.83792E+00 -2.21235E+00  1.04240E+00 -7.42901E-01 -5.14003E-01  2.78585E+00
  -4.68295E-01  8.59333E-01 -1.23385E-01 -1.25647E-01 -4.35557E-01  1.52879E+00 -6.03098E-01 -1.20663E+00  2.62812E+00  1.60374E+00
   3.21579E-01 -9.50067E-01  3.48943E+00  4.18133E-02  1.29722E-01  2.90952E-02  3.00934E+00  2.90831E+00 -9.66579E-01  2.44156E+00
   3.11883E-01 -7.19501E-01  2.12420E+00  1.63647E+00  1.84116E+00  5.60682E-01  3.16465E+00  2.00717E-01 -1.68152E+00  1.91247E+00
   3.67576E-01  1.22080E+00  1.46414E+00  1.08279E+00  3.29343E+00  2.30835E+00 -2.15687E-01 -9.09545E-01 -8.01956E-01 -2.55046E+00
   2.83108E+00 -2.92121E-01  2.00996E+00  2.33323E+00 -5.56173E-01 -6.07956E-01 -1.60112E+00  1.42866E+00  6.70215E-01  1.99287E+00
   2.47981E+00 -1.73644E+00 -6.05747E-01 -2.28254E+00  3.75859E+00  2.95792E-01  1.32935E+00 -9.84993E-01  3.56751E-01 -1.60838E+00
  -1.28355E-01 -1.20294E+00  1.07919E-01 -2.77011E-01 -7.61115E-01  3.40551E+00  2.89554E+00  2.76971E+00  2.63047E+00  4.82462E-01
   1.65025E+00 -4.12416E-01  4.26523E-01 -2.79969E+00 -6.00544E-01 -8.14762E-01 -4.02912E+00  1.21950E+00 -1.78369E+00 -2.54066E+00
   2.80379E+00  1.84893E-02  7.03137E-01  1.51422E+00 -7.28045E-01 -1.30179E+00  4.55098E-01 -1.33404E+00 -7.68211E-01 -2.62835E-02
   4.44328E-01  3.67806E-02  9.21683E-01 -6.79799E-02 -4.52296E-01  6.00344E-01 -6.27905E-01  7.76296E-02 -1.84875E+00 -3.76123E-01
  -1.25437E-01 -7.96688E-01  1.49738E+00  2.28645E+00  4.38562E+00  6.46223E-01  1.37567E+00 -1.15092E+00 -1.44584E+00  1.78729E+00
   3.63952E+00  4.40425E-01  1.21439E+00 -3.14608E+00  4.41670E-01 -8.23341E-01  6.55593E-01  1.00094E+00  8.37785E-02 -3.69002E+00
  -1.18916E+00 -1.00261E+00  1.00218E+00 -2.89502E-01 -2.82148E-01 -5.19367E-02  4.88006E-01  1.16869E+00
 NY points of the fit to the data follow
   1.36503E+00  1.36386E+00  1.43055E+00  1.57730E+00  1.85854E+00  2.25417E+00  2.69305E+00  2.97135E+00  2.89472E+00  2.47998E+00
   1.93454E+00  1.49419E+00  1.26608E+00  1.21287E+00  1.24451E+00  1.26033E+00  1.22122E+00  1.17183E+00  1.14976E+00  1.16925E+00
   1.22361E+00  1.26437E+00  1.24358E+00  1.14021E+00  9.80430E-01  8.92131E-01  9.91014E-01  1.34704E+00  1.85950E+00  2.28264E+00
   2.42956E+00  2.26070E+00  1.88706E+00  1.50241E+00  1.25771E+00  1.18443E+00  1.20366E+00  1.17042E+00  1.01550E+00  7.85706E-01
   6.10311E-01  5.95392E-01  8.00812E-01  1.29118E+00  2.07397E+00  3.01819E+00  3.77696E+00  3.92043E+00  3.26498E+00  2.07853E+00
   8.96342E-01  1.45419E-01 -7.74111E-02  6.01164E-02  3.39003E-01  6.25470E-01  9.07523E-01  1.24048E+00  1.58453E+00  1.80831E+00
   1.78047E+00  1.46892E+00  9.93416E-01  5.45974E-01  2.85750E-01  2.72529E-01  4.36646E-01  6.78017E-01  9.06367E-01  1.08087E+00
   1.20565E+00  1.26392E+00  1.23322E+00  1.12419E+00  9.75609E-01  8.28000E-01  7.01662E-01  6.06589E-01  5.47224E-01  5.15415E-01
   5.08522E-01  5.26234E-01  5.32109E-01  4.79944E-01  3.15472E-01  1.08905E-02 -3.79863E-01 -7.13245E-01 -8.45274E-01 -7.32875E-01
  -4.57799E-01 -1.48466E-01  9.80733E-02  2.27089E-01  2.44785E-01  1.60125E-01  4.87659E-03 -3.41233E-02  3.87883E-01  1.38474E+00
   2.88749E+00  4.28700E+00  4.75704E+00  4.02012E+00  2.53369E+00  1.08229E+00  1.74175E-01 -1.60595E-01 -1.33744E-01 -2.08394E-02
   1.37221E-02  1.71451E-02  1.87441E-02  1.54201E-02  6.07946E-03 -1.10976E-02 -3.48302E-02 -6.36296E-02 -9.39905E-02 -1.15961E-01
  -1.08745E-01  2.29011E-02  4.13005E-01  1.08267E+00  1.95802E+00  2.69526E+00  2.89501E+00  2.46941E+00  1.70127E+00  1.00261E+00
   6.02840E-01  4.79231E-01  4.75691E-01  4.15774E-01  2.47764E-01  6.50913E-02 -4.74079E-02 -4.77755E-02  4.17864E-02  1.63977E-01
   2.51806E-01  2.66981E-01  2.18381E-01  1.37065E-01  5.38633E-02 -1.72438E-02 -7.88481E-02 -1.35756E-01 -1.90504E-01 -2.48664E-01
  -3.17457E-01 -3.99228E-01 -4.91813E-01 -5.74843E-01 -6.14396E-01 -6.01556E-01 -5.61232E-01 -5.38660E-01 -5.73132E-01 -6.64504E-01
  -7.74414E-01 -8.59694E-01 -9.00861E-01 -9.12959E-01 -9.22258E-01 -9.50573E-01 -1.00520E+00 -1.07073E+00 -1.12407E+00 -1.13540E+00
  -1.09744E+00 -1.04738E+00 -1.03499E+00 -1.08901E+00 -1.18876E+00 -1.27714E+00 -1.31572E+00 -1.31253E+00 -1.31385E+00 -1.34910E+00
  -1.40824E+00 -1.45245E+00 -1.44347E+00 -1.38392E+00 -1.31311E+00 -1.26140E+00 -1.22144E+00 -1.16076E+00 -1.06338E+00 -9.57285E-01
  -8.93782E-01 -9.38913E-01 -1.12127E+00 -1.40326E+00 -1.70622E+00 -1.94410E+00 -2.04400E+00 -1.95543E+00 -1.68882E+00 -1.32680E+00
  -9.75350E-01 -7.25947E-01 -6.25059E-01 -6.61343E-01 -8.17581E-01 -1.11080E+00 -1.54163E+00 -2.04590E+00 -2.48945E+00 -2.68221E+00
  -2.52824E+00 -2.12621E+00 -1.69048E+00 -1.38951E+00 -1.25860E+00 -1.24406E+00 -1.27284E+00 -1.28863E+00 -1.28035E+00 -1.26037E+00
  -1.22650E+00 -1.17634E+00 -1.11549E+00 -1.05860E+00 -1.01823E+00 -9.97608E-01 -1.00436E+00 -1.04205E+00 -1.10748E+00 -1.18936E+00
  -1.24968E+00 -1.25933E+00 -1.20597E+00 -1.11321E+00 -1.01979E+00 -9.09969E-01 -7.42095E-01 -5.17470E-01 -2.98540E-01 -1.52817E-01
  -1.48064E-01 -2.85807E-01 -4.72689E-01 -5.83670E-01 -5.66438E-01 -4.53926E-01 -3.02455E-01 -1.53000E-01 -1.77672E-02  1.08607E-01
   2.47128E-01  5.78663E-01  1.30993E+00  2.55087E+00  4.19873E+00  5.66421E+00  6.31424E+00  6.00632E+00  5.20771E+00  4.44687E+00
   3.87387E+00  3.38925E+00  2.91071E+00  2.41860E+00  1.98742E+00  1.69694E+00  1.51906E+00  1.37819E+00  1.22822E+00  1.09130E+00
   9.82627E-01  8.98103E-01  8.19269E-01  7.27032E-01  6.07951E-01  4.59380E-01  2.93417E-01  1.32036E-01 -6.45596E-03 -1.15821E-01
  -2.01691E-01 -2.68938E-01 -3.24731E-01 -3.77636E-01 -4.31642E-01 -4.87450E-01 -5.43831E-01 -5.94405E-01 -6.31263E-01 -6.45340E-01
  -6.28457E-01 -5.80425E-01 -5.08930E-01 -4.25924E-01 -3.40590E-01 -2.55592E-01 -1.70253E-01 -8.36501E-02  7.87639E-03  1.06657E-01
   2.11476E-01  3.17309E-01  4.16342E-01  5.01819E-01  5.69977E-01  6.19658E-01  6.51821E-01  6.67750E-01  6.68563E-01  6.56204E-01
   6.33128E-01  6.02132E-01  5.66181E-01  5.28346E-01  4.91798E-01  4.59639E-01  4.34678E-01  4.19262E-01  4.15348E-01  4.24821E-01
   4.50469E-01  5.00019E-01  5.97703E-01  7.53730E-01  9.44000E-01  1.11486E+00  1.17020E+00  1.05685E+00  8.20139E-01  5.56198E-01
   3.51315E-01  2.54344E-01  2.72584E-01  4.26278E-01  6.89458E-01  9.70392E-01  1.16465E+00  1.21309E+00  1.14030E+00  1.01371E+00
   8.87492E-01  7.88088E-01  7.09689E-01  6.32587E-01  5.53988E-01  4.75431E-01  3.98147E-01  3.23191E-01  2.51535E-01  1.84038E-01
   1.21424E-01  6.42475E-02  1.29021E-02 -3.23759E-02 -7.14966E-02 -1.04536E-01 -1.31737E-01 -1.53502E-01 -1.70359E-01 -1.82935E-01
  -1.91930E-01 -1.98115E-01 -2.02296E-01 -2.05286E-01 -2.07850E-01 -2.10676E-01 -2.14352E-01 -2.19354E-01 -2.26017E-01 -2.34518E-01
  -2.44839E-01 -2.56782E-01 -2.69969E-01 -2.83866E-01 -2.97779E-01 -3.10864E-01 -3.22142E-01 -3.30536E-01 -3.34898E-01 -3.34055E-01
  -3.26812E-01 -3.11988E-01 -2.88446E-01 -2.55151E-01 -2.11199E-01 -1.55869E-01 -8.86334E-02 -9.20639E-03  8.24274E-02  1.85963E-01
   3.00766E-01  4.25856E-01  5.59931E-01  7.01371E-01  8.48265E-01  9.98439E-01  1.14953E+00  1.29906E+00  1.44452E+00  1.58344E+00
   1.71347E+00  1.83247E+00  1.93857E+00  2.03024E+00  2.10635E+00  2.16617E+00  2.20936E+00  2.23601E+00  2.24657E+00  2.24182E+00
   2.22287E+00  2.19100E+00  2.14767E+00  2.09442E+00  2.03286E+00  1.96456E+00  1.89105E+00  1.81375E+00  1.73394E+00  1.65278E+00
   1.57127E+00  1.49026E+00  1.41047E+00  1.33243E+00  1.25659E+00  1.18324E+00  1.11262E+00  1.04485E+00  9.80018E-01  9.18110E-01
   8.59091E-01  8.02894E-01  7.49436E-01  6.98610E-01  6.50298E-01  6.04364E-01  5.60685E-01  5.19138E-01  4.79609E-01  4.41978E-01
   4.06129E-01  3.71948E-01  3.39337E-01  3.08204E-01  2.78469E-01  2.50045E-01  2.22850E-01  1.96806E-01  1.71855E-01  1.47934E-01
   1.24992E-01  1.02967E-01  8.18064E-02  6.14624E-02  4.18997E-02  2.30795E-02  4.96463E-03 -1.24879E-02 -2.93125E-02 -4.55396E-02
  -6.11902E-02 -7.62913E-02 -9.08695E-02 -1.04955E-01 -1.18568E-01 -1.31728E-01 -1.44449E-01 -1.56753E-01 -1.68660E-01 -1.80193E-01
  -1.91363E-01 -2.02182E-01 -2.12662E-01 -2.22820E-01 -2.32671E-01 -2.42232E-01 -2.51508E-01 -2.60510E-01 -2.69246E-01 -2.77734E-01
  -2.85984E-01 -2.94008E-01 -3.01809E-01 -3.09397E-01 -3.16781E-01 -3.23977E-01 -3.30992E-01 -3.37836E-01 -3.44514E-01 -3.51036E-01
  -3.57412E-01 -3.63657E-01 -3.69781E-01 -3.75794E-01 -3.81703E-01 -3.87523E-01 -3.93269E-01 -3.98961E-01
 NY background values follow
     9.841E-01    9.730E-01    9.619E-01    9.507E-01    9.396E-01    9.284E-01    9.173E-01    9.061E-01    8.949E-01    8.838E-01
     8.726E-01    8.614E-01    8.502E-01    8.390E-01    8.278E-01    8.166E-01    8.054E-01    7.941E-01    7.829E-01    7.717E-01
     7.605E-01    7.492E-01    7.380E-01    7.267E-01    7.155E-01    7.042E-01    6.930E-01    6.817E-01    6.705E-01    6.592E-01
     6.480E-01    6.367E-01    6.254E-01    6.142E-01    6.029E-01    5.917E-01    5.804E-01    5.691E-01    5.579E-01    5.466E-01
     5.354E-01    5.241E-01    5.128E-01    5.016E-01    4.903E-01    4.791E-01    4.678E-01    4.566E-01    4.454E-01    4.341E-01
     4.229E-01    4.117E-01    4.004E-01    3.892E-01    3.780E-01    3.668E-01    3.556E-01    3.444E-01    3.332E-01    3.220E-01
     3.109E-01    2.997E-01    2.886E-01    2.774E-01    2.663E-01    2.552E-01    2.441E-01    2.330E-01    2.219E-01    2.108E-01
     1.998E-01    1.887E-01    1.777E-01    1.666E-01    1.556E-01    1.446E-01    1.337E-01    1.227E-01    1.118E-01    1.008E-01
     8.991E-02    7.902E-02    6.813E-02    5.727E-02    4.643E-02    3.560E-02    2.479E-02    1.401E-02    3.238E-03   -7.510E-03
    -1.824E-02   -2.894E-02   -3.963E-02   -5.029E-02   -6.093E-02   -7.155E-02   -8.215E-02   -9.272E-02   -1.033E-01   -1.138E-01
    -1.243E-01   -1.348E-01   -1.452E-01   -1.556E-01   -1.660E-01   -1.764E-01   -1.867E-01   -1.970E-01   -2.073E-01   -2.175E-01
    -2.277E-01   -2.379E-01   -2.481E-01   -2.582E-01   -2.683E-01   -2.784E-01   -2.884E-01   -2.984E-01   -3.083E-01   -3.182E-01
    -3.281E-01   -3.380E-01   -3.478E-01   -3.576E-01   -3.673E-01   -3.770E-01   -3.867E-01   -3.963E-01   -4.059E-01   -4.155E-01
    -4.250E-01   -4.344E-01   -4.439E-01   -4.532E-01   -4.626E-01   -4.719E-01   -4.812E-01   -4.904E-01   -4.996E-01   -5.087E-01
    -5.178E-01   -5.268E-01   -5.358E-01   -5.448E-01   -5.537E-01   -5.626E-01   -5.714E-01   -5.802E-01   -5.889E-01   -5.976E-01
    -6.062E-01   -6.148E-01   -6.234E-01   -6.318E-01   -6.403E-01   -6.487E-01   -6.571E-01   -6.654E-01   -6.736E-01   -6.818E-01
    -6.900E-01   -6.981E-01   -7.061E-01   -7.142E-01   -7.221E-01   -7.300E-01   -7.379E-01   -7.457E-01   -7.535E-01   -7.612E-01
    -7.688E-01   -7.764E-01   -7.840E-01   -7.915E-01   -7.989E-01   -8.063E-01   -8.136E-01   -8.209E-01   -8.282E-01   -8.353E-01
    -8.425E-01   -8.495E-01   -8.566E-01   -8.635E-01   -8.704E-01   -8.773E-01   -8.841E-01   -8.909E-01   -8.975E-01   -9.042E-01
    -9.108E-01   -9.173E-01   -9.238E-01   -9.302E-01   -9.366E-01   -9.429E-01   -9.492E-01   -9.554E-01   -9.616E-01   -9.677E-01
    -9.738E-01   -9.798E-01   -9.858E-01   -9.917E-01   -9.975E-01   -1.003E+00   -1.009E+00   -1.015E+00   -1.020E+00   -1.026E+00
    -1.032E+00   -1.037E+00   -1.043E+00   -1.048E+00   -1.053E+00   -1.059E+00   -1.064E+00   -1.069E+00   -1.074E+00   -1.079E+00
    -1.084E+00   -1.089E+00   -1.094E+00   -1.099E+00   -1.104E+00   -1.109E+00   -1.114E+00   -1.119E+00   -1.123E+00   -1.128E+00
    -1.132E+00   -1.137E+00   -1.141E+00   -1.146E+00   -1.150E+00   -1.155E+00   -1.159E+00   -1.163E+00   -1.168E+00   -1.172E+00
    -1.176E+00   -1.180E+00   -1.184E+00   -1.188E+00   -1.192E+00   -1.196E+00   -1.200E+00   -1.204E+00   -1.207E+00   -1.211E+00
    -1.215E+00   -1.219E+00   -1.222E+00   -1.226E+00   -1.230E+00   -1.233E+00   -1.237E+00   -1.240E+00   -1.244E+00   -1.247E+00
    -1.250E+00   -1.254E+00   -1.257E+00   -1.260E+00   -1.264E+00   -1.267E+00   -1.270E+00   -1.273E+00   -1.276E+00   -1.279E+00
    -1.282E+00   -1.285E+00   -1.288E+00   -1.291E+00   -1.294E+00   -1.297E+00   -1.300E+00   -1.303E+00   -1.306E+00   -1.308E+00
    -1.311E+00   -1.314E+00   -1.317E+00   -1.319E+00   -1.322E+00   -1.324E+00   -1.327E+00   -1.330E+00   -1.332E+00   -1.335E+00
    -1.337E+00   -1.340E+00   -1.342E+00   -1.344E+00   -1.347E+00   -1.349E+00   -1.351E+00   -1.354E+00   -1.356E+00   -1.358E+00
    -1.361E+00   -1.363E+00   -1.365E+00   -1.367E+00   -1.369E+00   -1.371E+00   -1.373E+00   -1.375E+00   -1.377E+00   -1.379E+00
    -1.381E+00   -1.383E+00   -1.385E+00   -1.387E+00   -1.389E+00   -1.391E+00   -1.393E+00   -1.395E+00   -1.397E+00   -1.398E+00
    -1.400E+00   -1.402E+00   -1.404E+00   -1.405E+00   -1.407E+00   -1.409E+00   -1.410E+00   -1.412E+00   -1.413E+00   -1.415E+00
    -1.417E+00   -1.418E+00   -1.420E+00   -1.421E+00   -1.423E+00   -1.424E+00   -1.425E+00   -1.427E+00   -1.428E+00   -1.429E+00
    -1.431E+00   -1.432E+00   -1.433E+00   -1.435E+00   -1.436E+00   -1.437E+00   -1.438E+00   -1.439E+00   -1.440E+00   -1.442E+00
    -1.443E+00   -1.444E+00   -1.445E+00   -1.446E+00   -1.447E+00   -1.448E+00   -1.449E+00   -1.449E+00   -1.450E+00   -1.451E+00
    -1.452E+00   -1.453E+00   -1.454E+00   -1.454E+00   -1.455E+00   -1.456E+00   -1.457E+00   -1.457E+00   -1.458E+00   -1.458E+00
    -1.459E+00   -1.460E+00   -1.460E+00   -1.461E+00   -1.461E+00   -1.461E+00   -1.462E+00   -1.462E+00   -1.463E+00   -1.463E+00
    -1.463E+00   -1.463E+00   -1.464E+00   -1.464E+00   -1.464E+00   -1.464E+00   -1.464E+00   -1.465E+00   -1.465E+00   -1.465E+00
    -1.465E+00   -1.465E+00   -1.465E+00   -1.465E+00   -1.464E+00   -1.464E+00   -1.464E+00   -1.464E+00   -1.464E+00   -1.464E+00
    -1.463E+00   -1.463E+00   -1.463E+00   -1.462E+00   -1.462E+00   -1.461E+00   -1.461E+00   -1.461E+00   -1.460E+00   -1.459E+00
    -1.459E+00   -1.458E+00   -1.458E+00   -1.457E+00   -1.456E+00   -1.455E+00   -1.455E+00   -1.454E+00   -1.453E+00   -1.452E+00
    -1.451E+00   -1.450E+00   -1.449E+00   -1.448E+00   -1.447E+00   -1.446E+00   -1.445E+00   -1.444E+00   -1.443E+00   -1.442E+00
    -1.441E+00   -1.439E+00   -1.438E+00   -1.437E+00   -1.436E+00   -1.434E+00   -1.433E+00   -1.431E+00   -1.430E+00   -1.428E+00
    -1.427E+00   -1.425E+00   -1.424E+00   -1.422E+00   -1.420E+00   -1.419E+00   -1.417E+00   -1.415E+00   -1.414E+00   -1.412E+00
    -1.410E+00   -1.408E+00   -1.406E+00   -1.404E+00   -1.402E+00   -1.400E+00   -1.398E+00   -1.396E+00   -1.394E+00   -1.392E+00
    -1.390E+00   -1.388E+00   -1.385E+00   -1.383E+00   -1.381E+00   -1.379E+00   -1.376E+00   -1.374E+00   -1.371E+00   -1.369E+00
    -1.366E+00   -1.364E+00   -1.361E+00   -1.359E+00   -1.356E+00   -1.354E+00   -1.351E+00   -1.348E+00   -1.346E+00   -1.343E+00
    -1.340E+00   -1.337E+00   -1.334E+00   -1.331E+00   -1.329E+00   -1.326E+00   -1.323E+00   -1.320E+00   -1.317E+00   -1.313E+00
    -1.310E+00   -1.307E+00   -1.304E+00   -1.301E+00   -1.298E+00   -1.294E+00   -1.291E+00   -1.288E+00
 Ala      Conc. = 2.64E+01
