 LCModel (Version 6.3-1L) Copyright: S.W. Provencher.          Ref.: Magn. Reson. Med. 30:672-679 (1993).                
 Slice#3 Row#3 Col#6  K_02_press_1_raw_act
 36 lines in following concentration table = NCONC+1
    Conc.  %SD /Cr+PCr  Metabolite                                         
   21.429 531% 1.3E-02 Ala                                                 
   34.998 658% 2.0E-02 Asp                                                 
 1.03E+03  21%   0.600 Cr                                                  
  684.944  32%   0.400 PCr                                                 
    0.000 999%   0.000 GABA                                                
    0.000 999%   0.000 Glc                                                 
  593.885  40%   0.347 Gln                                                 
 1.76E+03  15%   1.026 Glu                                                 
  515.036   4%   0.301 GPC                                                 
    0.000 999%   0.000 PCh                                                 
  519.993  14%   0.304 GSH                                                 
  660.909  36%   0.386 Ins                                                 
  229.631  54%   0.134 Lac                                                 
 2.02E+03   6%   1.178 NAA                                                 
  319.214  42%   0.186 NAAG                                                
    0.000 999%   0.000 Scyllo                                              
    0.000 999%   0.000 Tau                                                 
    0.000 999%   0.000 -CrCH2                                              
  515.036   4%   0.301 GPC+PCh                                             
 2.34E+03   4%   1.365 NAA+NAAG                                            
 1.71E+03   3%   1.000 Cr+PCr                                              
 2.35E+03  16%   1.372 Glu+Gln                                             
 4.56E+03  20%   2.665 Lip13a                                              
    0.000 999%   0.000 Lip13b                                              
    0.000 999%   0.000 Lip09                                               
 1.94E+03  14%   1.135 MM09                                                
  132.376 317% 7.7E-02 Lip20                                               
 4.23E+03  12%   2.472 MM20                                                
  657.896  39%   0.384 MM12                                                
 2.05E+03  28%   1.197 MM14                                                
 1.74E+03  21%   1.015 MM17                                                
 4.56E+03  20%   2.665 Lip13a+Lip13b                                       
 7.27E+03   9%   4.246 MM14+Lip13a+Lip13b+MM12                             
 1.94E+03  14%   1.135 MM09+Lip09                                          
 4.37E+03  11%   2.550 MM20+Lip20                                          
   6 lines in following misc. output table
  FWHM = 0.046 ppm    S/N =  12                                            
  Data shift = 0.031 ppm                                                   
  Ph:  20 deg      -0.7 deg/ppm                                            
  alphaB,S = 1.1E+00,   1.0E+02                                            
   14 spline knots.   Ns = 7(1)                                            
  (10) 3 infls.   (11) 1 extrs.                                            
  498 points on ppm-axis = NY
      4.000000     3.992357     3.984714     3.977070     3.969427     3.961784     3.954141     3.946497     3.938854     3.931211
      3.923568     3.915925     3.908281     3.900638     3.892995     3.885352     3.877708     3.870065     3.862422     3.854779
      3.847136     3.839492     3.831849     3.824206     3.816563     3.808919     3.801276     3.793633     3.785990     3.778347
      3.770703     3.763060     3.755417     3.747774     3.740130     3.732487     3.724844     3.717201     3.709558     3.701914
      3.694271     3.686628     3.678985     3.671341     3.663698     3.656055     3.648412     3.640769     3.633125     3.625482
      3.617839     3.610196     3.602552     3.594909     3.587266     3.579623     3.571980     3.564336     3.556693     3.549050
      3.541407     3.533763     3.526120     3.518477     3.510834     3.503191     3.495547     3.487904     3.480261     3.472618
      3.464974     3.457331     3.449688     3.442045     3.434402     3.426758     3.419115     3.411472     3.403829     3.396185
      3.388542     3.380899     3.373256     3.365613     3.357969     3.350326     3.342683     3.335040     3.327396     3.319753
      3.312110     3.304467     3.296824     3.289180     3.281537     3.273894     3.266251     3.258607     3.250964     3.243321
      3.235678     3.228034     3.220391     3.212748     3.205105     3.197462     3.189818     3.182175     3.174532     3.166889
      3.159245     3.151602     3.143959     3.136316     3.128673     3.121029     3.113386     3.105743     3.098100     3.090456
      3.082813     3.075170     3.067527     3.059884     3.052240     3.044597     3.036954     3.029311     3.021667     3.014024
      3.006381     2.998738     2.991095     2.983451     2.975808     2.968165     2.960522     2.952878     2.945235     2.937592
      2.929949     2.922306     2.914662     2.907019     2.899376     2.891733     2.884089     2.876446     2.868803     2.861160
      2.853517     2.845873     2.838230     2.830587     2.822944     2.815300     2.807657     2.800014     2.792371     2.784728
      2.777084     2.769441     2.761798     2.754155     2.746511     2.738868     2.731225     2.723582     2.715939     2.708295
      2.700652     2.693009     2.685366     2.677722     2.670079     2.662436     2.654793     2.647150     2.639506     2.631863
      2.624220     2.616577     2.608933     2.601290     2.593647     2.586004     2.578361     2.570717     2.563074     2.555431
      2.547788     2.540144     2.532501     2.524858     2.517215     2.509572     2.501928     2.494285     2.486642     2.478999
      2.471355     2.463712     2.456069     2.448426     2.440783     2.433139     2.425496     2.417853     2.410210     2.402566
      2.394923     2.387280     2.379637     2.371994     2.364350     2.356707     2.349064     2.341421     2.333777     2.326134
      2.318491     2.310848     2.303205     2.295561     2.287918     2.280275     2.272632     2.264988     2.257345     2.249702
      2.242059     2.234416     2.226772     2.219129     2.211486     2.203843     2.196199     2.188556     2.180913     2.173270
      2.165627     2.157983     2.150340     2.142697     2.135054     2.127410     2.119767     2.112124     2.104481     2.096838
      2.089194     2.081551     2.073908     2.066265     2.058621     2.050978     2.043335     2.035692     2.028049     2.020405
      2.012762     2.005119     1.997476     1.989833     1.982190     1.974546     1.966903     1.959260     1.951617     1.943974
      1.936331     1.928688     1.921045     1.913402     1.905759     1.898115     1.890472     1.882829     1.875186     1.867543
      1.859900     1.852257     1.844614     1.836971     1.829327     1.821684     1.814041     1.806398     1.798755     1.791112
      1.783469     1.775826     1.768183     1.760540     1.752896     1.745253     1.737610     1.729967     1.722324     1.714681
      1.707038     1.699395     1.691752     1.684108     1.676465     1.668822     1.661179     1.653536     1.645893     1.638250
      1.630607     1.622964     1.615321     1.607677     1.600034     1.592391     1.584748     1.577105     1.569462     1.561819
      1.554176     1.546533     1.538890     1.531246     1.523603     1.515960     1.508317     1.500674     1.493031     1.485388
      1.477745     1.470102     1.462458     1.454815     1.447172     1.439529     1.431886     1.424243     1.416600     1.408957
      1.401314     1.393671     1.386027     1.378384     1.370741     1.363098     1.355455     1.347812     1.340169     1.332526
      1.324883     1.317240     1.309596     1.301953     1.294310     1.286667     1.279024     1.271381     1.263738     1.256095
      1.248452     1.240808     1.233165     1.225522     1.217879     1.210236     1.202593     1.194950     1.187307     1.179664
      1.172021     1.164377     1.156734     1.149091     1.141448     1.133805     1.126162     1.118519     1.110876     1.103233
      1.095590     1.087946     1.080303     1.072660     1.065017     1.057374     1.049731     1.042088     1.034445     1.026802
      1.019158     1.011515     1.003872     0.996229     0.988586     0.980943     0.973300     0.965657     0.958014     0.950371
      0.942727     0.935084     0.927441     0.919798     0.912155     0.904512     0.896869     0.889226     0.881583     0.873940
      0.866296     0.858653     0.851010     0.843367     0.835724     0.828081     0.820438     0.812795     0.805152     0.797508
      0.789865     0.782222     0.774579     0.766936     0.759293     0.751650     0.744007     0.736364     0.728721     0.721077
      0.713434     0.705791     0.698148     0.690505     0.682862     0.675219     0.667576     0.659933     0.652290     0.644646
      0.637003     0.629360     0.621717     0.614074     0.606431     0.598788     0.591145     0.583502     0.575858     0.568215
      0.560572     0.552929     0.545286     0.537643     0.530000     0.522357     0.514714     0.507071     0.499427     0.491784
      0.484141     0.476498     0.468855     0.461212     0.453569     0.445925     0.438282     0.430639     0.422996     0.415353
      0.407710     0.400067     0.392424     0.384780     0.377137     0.369494     0.361851     0.354208     0.346565     0.338922
      0.331278     0.323635     0.315992     0.308349     0.300706     0.293063     0.285420     0.277777     0.270133     0.262490
      0.254847     0.247204     0.239561     0.231918     0.224275     0.216631     0.208988     0.201345
 NY phased data points follow
   4.74904E+01  4.04213E+01  4.70937E+01  4.60013E+01  4.99514E+01  5.66848E+01  5.54249E+01  6.30995E+01  6.93960E+01  7.12220E+01
   7.78257E+01  6.65694E+01  6.70800E+01  6.08557E+01  5.71099E+01  5.62222E+01  4.87221E+01  4.03708E+01  4.20767E+01  3.67005E+01
   4.23114E+01  4.18264E+01  3.80248E+01  3.80578E+01  4.07888E+01  3.70584E+01  3.95887E+01  4.04302E+01  4.33459E+01  4.42282E+01
   3.97981E+01  4.45268E+01  4.26668E+01  4.40594E+01  3.85472E+01  4.02802E+01  4.06299E+01  3.72245E+01  3.99070E+01  3.95242E+01
   4.27174E+01  3.78946E+01  3.93119E+01  3.79355E+01  3.87665E+01  3.73889E+01  3.51888E+01  4.05766E+01  3.77690E+01  3.66136E+01
   2.93888E+01  3.35528E+01  3.31610E+01  2.87926E+01  2.81792E+01  2.73117E+01  2.65878E+01  2.85293E+01  2.96125E+01  2.66460E+01
   2.34922E+01  2.23354E+01  2.11376E+01  1.85101E+01  2.08391E+01  1.70988E+01  2.22562E+01  1.79039E+01  1.67686E+01  1.66688E+01
   2.13459E+01  2.04191E+01  2.22343E+01  2.16172E+01  1.78857E+01  1.83706E+01  1.97665E+01  1.98172E+01  1.66731E+01  1.93281E+01
   1.93116E+01  1.60274E+01  2.02184E+01  1.36178E+01  1.71557E+01  2.12371E+01  1.73532E+01  1.41371E+01  1.93234E+01  1.77709E+01
   1.76211E+01  2.02073E+01  1.78585E+01  2.02463E+01  2.02124E+01  2.61340E+01  2.50081E+01  3.20103E+01  3.20390E+01  4.44902E+01
   5.14913E+01  5.55304E+01  6.61849E+01  6.36830E+01  5.65840E+01  4.47258E+01  4.30848E+01  3.23709E+01  3.13994E+01  2.18414E+01
   2.07672E+01  2.19539E+01  1.70725E+01  1.85732E+01  1.89022E+01  1.82059E+01  1.75411E+01  1.98599E+01  2.36427E+01  2.08772E+01
   2.52102E+01  2.96455E+01  3.36748E+01  4.14487E+01  5.47313E+01  6.68400E+01  6.87492E+01  6.64746E+01  6.23591E+01  5.30074E+01
   4.86371E+01  3.90305E+01  3.16176E+01  2.75813E+01  2.53779E+01  2.08925E+01  1.91711E+01  1.35996E+01  1.28476E+01  1.40448E+01
   1.44004E+01  8.02848E+00  1.56123E+01  1.21393E+01  1.08302E+01  1.69426E+01  1.43547E+01  1.47783E+01  1.56774E+01  9.17661E+00
   1.02908E+01  6.45131E+00  9.84633E+00  6.22182E+00  1.49756E+01  1.60924E+00  9.08325E+00  6.71004E+00  1.31735E+01  2.82647E+00
   5.14115E+00  2.23856E+00  4.97502E+00  4.51052E+00  1.01277E+01  7.48582E+00  8.60268E+00  8.53806E+00  4.59256E+00  1.24442E+00
   4.71464E+00 -2.39193E+00  1.40195E+00 -2.94417E+00 -3.21784E+00 -5.08043E+00  4.24488E-01 -4.52448E+00 -3.52959E+00 -4.66644E+00
  -5.13323E+00 -3.41364E+00 -1.83236E+00 -1.38288E+00 -4.62793E+00 -3.10947E+00 -5.90626E-01  4.78135E+00  5.16071E+00  6.73380E+00
   6.17502E+00  7.74648E+00  1.22145E+01  9.95656E+00  4.29360E+00  9.23945E+00  3.48673E+00  8.73137E+00  6.16195E+00  4.58869E+00
  -1.37656E+00  3.64671E+00  1.02118E+01  7.58390E+00  7.57266E+00  2.47214E+00  2.30345E+00  2.47594E-01  7.53015E-01  2.81341E+00
   3.72722E+00  3.98049E+00  1.10204E+01  1.07721E+01  1.32400E+01  1.33131E+01  1.41712E+01  1.20238E+01  1.08253E+01  5.18574E+00
   4.72945E+00 -5.43230E+00  4.76691E+00  4.50869E+00  3.94584E+00  8.89752E+00  6.41116E+00  1.27112E+01  1.30619E+01  1.65181E+01
   1.08200E+01  8.45890E+00  1.36364E+01  1.44914E+01  1.11842E+01  1.26834E+01  1.57448E+01  1.23650E+01  9.50063E+00  1.45177E+01
   1.03944E+01  6.04830E+00  9.98058E+00  1.26688E+01  1.03597E+01  1.56856E+01  1.71885E+01  1.84888E+01  2.60012E+01  2.59217E+01
   2.74543E+01  2.74838E+01  2.88319E+01  3.66011E+01  4.68942E+01  4.57914E+01  5.10447E+01  6.40070E+01  8.24097E+01  9.22469E+01
   9.07217E+01  7.97906E+01  7.21985E+01  5.31074E+01  3.95914E+01  2.87539E+01  2.25726E+01  1.82744E+01  1.57050E+01  1.36070E+01
   1.54575E+01  1.79072E+01  1.10243E+01  1.03391E+01  9.83926E+00  9.54356E+00  7.44127E+00  1.48166E+01  8.25820E+00  1.00569E+01
   7.23395E+00  8.86127E+00  5.48286E+00  9.60741E+00  8.11517E+00  5.67797E+00  4.01350E+00  7.79362E+00  1.02669E+01  7.24958E+00
   6.71572E+00  1.07956E+01  7.56257E+00  8.33962E+00  7.40224E+00  8.35355E+00  6.95161E+00  1.09914E+01  1.10404E+01  1.04192E+01
   1.07492E+01  1.31911E+01  1.44594E+01  1.20592E+01  1.20559E+01  1.36295E+01  1.73304E+01  8.97548E+00  1.19542E+01  1.38052E+01
   1.64215E+01  1.81152E+01  1.17816E+01  1.37775E+01  1.19642E+01  1.45387E+01  1.31301E+01  1.70713E+01  1.25402E+01  1.72630E+01
   1.82415E+01  1.35969E+01  1.57306E+01  1.35630E+01  1.86893E+01  1.64699E+01  1.86581E+01  1.56121E+01  1.46969E+01  1.96659E+01
   2.02322E+01  1.77415E+01  1.57816E+01  1.84838E+01  1.45583E+01  1.35046E+01  1.57827E+01  1.81202E+01  1.81837E+01  1.73072E+01
   1.91273E+01  1.75373E+01  2.67095E+01  2.40971E+01  2.72918E+01  3.10798E+01  3.36607E+01  2.50926E+01  2.41997E+01  2.62932E+01
   2.58316E+01  2.40165E+01  2.23500E+01  2.35763E+01  2.37423E+01  2.30345E+01  2.46546E+01  2.44735E+01  2.39163E+01  2.65266E+01
   2.52389E+01  2.61796E+01  2.22619E+01  2.14892E+01  2.39016E+01  2.08743E+01  2.29822E+01  1.60612E+01  2.06195E+01  1.55517E+01
   1.45220E+01  1.95391E+01  2.06667E+01  1.50937E+01  1.82784E+01  1.85241E+01  1.62987E+01  1.95580E+01  1.71836E+01  1.71321E+01
   1.46271E+01  1.60686E+01  1.54093E+01  1.22472E+01  1.36521E+01  1.62355E+01  1.44127E+01  1.29784E+01  2.03759E+01  1.81199E+01
   1.60658E+01  1.37920E+01  1.50544E+01  1.80984E+01  1.53138E+01  1.43834E+01  1.64779E+01  1.66678E+01  1.84721E+01  1.20228E+01
   1.16852E+01  1.37408E+01  1.29639E+01  1.61774E+01  1.47298E+01  1.11013E+01  1.99496E+01  1.74621E+01  1.39095E+01  1.55158E+01
   1.56719E+01  1.45362E+01  1.66317E+01  1.34669E+01  8.61259E+00  1.29873E+01  1.11802E+01  1.27616E+01  1.27547E+01  1.16041E+01
   8.03970E+00  7.68165E+00  7.88291E+00  1.20369E+01  1.00147E+01  1.34148E+01  1.17564E+01  9.05046E+00  6.51885E+00  8.46947E+00
   1.23555E+01  7.39045E+00  9.86009E+00  6.33523E+00  6.26428E+00  6.56244E+00  5.46569E+00  6.53944E+00  5.37044E+00  3.60307E+00
   3.94633E+00  2.16714E+00  6.87255E+00  6.34880E+00  1.00295E+01  5.49865E+00  3.90153E+00  7.46184E+00  7.44380E+00  1.14363E+01
   6.39902E+00  5.48537E+00  4.65982E+00  6.97343E+00  5.41905E+00  7.33166E+00  1.03368E+01  7.62798E+00  7.46040E+00  6.72745E+00
   7.46477E+00  2.32733E+00 -1.09101E-02  1.33292E+00  2.76853E+00  7.42746E+00  5.52582E+00  1.61289E+00  5.49496E+00  7.87653E+00
   3.42680E+00  7.72226E+00  7.77199E+00  9.42491E+00  6.29159E+00  1.52748E+00  4.70089E+00  6.61794E+00  6.53144E+00  6.31012E+00
   4.95539E+00  7.42235E+00 -1.57868E-01  3.68441E+00  1.03304E+01  3.92767E+00  8.94090E+00  6.46396E+00  5.82805E+00  1.18638E+01
   7.33662E+00  6.77462E+00  6.91070E+00  4.56961E+00  2.09006E+00  5.85602E+00  2.23658E+00  3.18190E+00
 NY points of the fit to the data follow
   4.07194E+01  4.13637E+01  4.30846E+01  4.51807E+01  4.84544E+01  5.33175E+01  5.85367E+01  6.36445E+01  6.83818E+01  7.18581E+01
   7.28781E+01  7.08729E+01  6.65230E+01  6.11275E+01  5.57396E+01  5.09010E+01  4.68139E+01  4.36205E+01  4.13277E+01  3.94838E+01
   3.82037E+01  3.73045E+01  3.65206E+01  3.63317E+01  3.67010E+01  3.69807E+01  3.76542E+01  3.95349E+01  4.24361E+01  4.51805E+01
   4.68137E+01  4.70415E+01  4.58398E+01  4.34803E+01  4.04066E+01  3.73989E+01  3.51543E+01  3.35899E+01  3.25466E+01  3.22818E+01
   3.27781E+01  3.34296E+01  3.39367E+01  3.44752E+01  3.51363E+01  3.56875E+01  3.58302E+01  3.54383E+01  3.45535E+01  3.33520E+01
   3.19746E+01  3.06310E+01  2.95831E+01  2.88310E+01  2.82441E+01  2.78162E+01  2.75748E+01  2.74920E+01  2.74355E+01  2.72745E+01
   2.69341E+01  2.64112E+01  2.57738E+01  2.51225E+01  2.45872E+01  2.42586E+01  2.40770E+01  2.39673E+01  2.39192E+01  2.39128E+01
   2.38865E+01  2.37794E+01  2.35646E+01  2.32675E+01  2.29255E+01  2.25679E+01  2.22230E+01  2.19055E+01  2.16162E+01  2.13141E+01
   2.09569E+01  2.05696E+01  2.01557E+01  1.96992E+01  1.91749E+01  1.86099E+01  1.81009E+01  1.77541E+01  1.76094E+01  1.76734E+01
   1.78859E+01  1.81671E+01  1.84833E+01  1.88478E+01  1.94264E+01  2.12915E+01  2.58241E+01  3.05269E+01  3.52598E+01  4.23650E+01
   5.18463E+01  6.04477E+01  6.45149E+01  6.29533E+01  5.71934E+01  4.93254E+01  4.10843E+01  3.37440E+01  2.80549E+01  2.39035E+01
   2.05515E+01  1.78999E+01  1.67912E+01  1.64880E+01  1.63858E+01  1.63899E+01  1.64830E+01  1.67000E+01  1.72627E+01  1.92136E+01
   2.39935E+01  2.97186E+01  3.54742E+01  4.33645E+01  5.38711E+01  6.39707E+01  6.96777E+01  6.93221E+01  6.39242E+01  5.56490E+01
   4.66391E+01  3.83767E+01  3.15614E+01  2.60999E+01  2.12764E+01  1.71238E+01  1.46348E+01  1.36017E+01  1.33559E+01  1.36082E+01
   1.40383E+01  1.43320E+01  1.43569E+01  1.41619E+01  1.37823E+01  1.32646E+01  1.26978E+01  1.21103E+01  1.15086E+01  1.09416E+01
   1.04093E+01  9.94078E+00  9.53677E+00  9.15545E+00  8.73822E+00  8.42023E+00  8.18412E+00  7.88212E+00  7.47906E+00  6.92941E+00
   6.46254E+00  6.30974E+00  6.38639E+00  6.41864E+00  6.23332E+00  5.82135E+00  5.26327E+00  4.66700E+00  4.11165E+00  3.58134E+00
   3.14386E+00  2.84263E+00  2.44829E+00  1.90371E+00  1.38900E+00  1.17783E+00  1.29022E+00  1.47450E+00  1.48058E+00  1.27385E+00
   1.01735E+00  9.95084E-01  1.16251E+00  1.36104E+00  1.64002E+00  2.14230E+00  2.96418E+00  4.09750E+00  5.40790E+00  6.66557E+00
   7.53723E+00  7.65225E+00  7.20163E+00  6.59407E+00  5.92590E+00  5.19133E+00  4.63975E+00  4.72748E+00  5.43708E+00  6.51895E+00
   7.70632E+00  8.76116E+00  9.37357E+00  9.22692E+00  8.41833E+00  6.94132E+00  4.89524E+00  2.88649E+00  1.56610E+00  1.49170E+00
   2.36071E+00  3.82037E+00  6.07655E+00  8.94562E+00  1.14349E+01  1.23960E+01  1.15280E+01  9.48699E+00  6.77100E+00  3.49635E+00
   5.01630E-01 -1.16385E+00 -1.02784E+00  6.64586E-01  3.11847E+00  5.77654E+00  8.24567E+00  1.00787E+01  1.09813E+01  1.11689E+01
   1.11943E+01  1.13131E+01  1.15069E+01  1.18994E+01  1.26869E+01  1.36865E+01  1.45064E+01  1.48814E+01  1.46787E+01  1.40293E+01
   1.31561E+01  1.24905E+01  1.24968E+01  1.32901E+01  1.46025E+01  1.61029E+01  1.75860E+01  1.88666E+01  2.00403E+01  2.14746E+01
   2.28808E+01  2.43626E+01  2.71861E+01  3.44766E+01  4.34047E+01  5.01965E+01  5.77916E+01  6.88794E+01  8.08186E+01  8.80563E+01
   8.75052E+01  8.02248E+01  6.90359E+01  5.64052E+01  4.43675E+01  3.45980E+01  2.73944E+01  2.17064E+01  1.66366E+01  1.34893E+01
   1.22196E+01  1.14927E+01  1.10038E+01  1.06325E+01  1.02659E+01  9.84956E+00  9.41894E+00  8.97746E+00  8.53402E+00  8.12737E+00
   7.79263E+00  7.52402E+00  7.30813E+00  7.14349E+00  7.02904E+00  6.95865E+00  6.92062E+00  6.91928E+00  6.97277E+00  7.09231E+00
   7.27398E+00  7.51149E+00  7.79689E+00  8.12649E+00  8.49185E+00  8.88402E+00  9.29916E+00  9.73811E+00  1.02013E+01  1.06838E+01
   1.11763E+01  1.16698E+01  1.21521E+01  1.26099E+01  1.30321E+01  1.34103E+01  1.37387E+01  1.40132E+01  1.42303E+01  1.43918E+01
   1.45006E+01  1.45608E+01  1.45787E+01  1.45626E+01  1.45222E+01  1.44681E+01  1.44110E+01  1.43618E+01  1.43313E+01  1.43319E+01
   1.43768E+01  1.44571E+01  1.45667E+01  1.47230E+01  1.49252E+01  1.51490E+01  1.53722E+01  1.55947E+01  1.58481E+01  1.61591E+01
   1.65171E+01  1.69234E+01  1.73938E+01  1.79292E+01  1.85041E+01  1.90865E+01  1.96627E+01  2.02284E+01  2.07889E+01  2.13737E+01
   2.20530E+01  2.28258E+01  2.34518E+01  2.40028E+01  2.46017E+01  2.50882E+01  2.51644E+01  2.47025E+01  2.39657E+01  2.33670E+01
   2.29119E+01  2.26510E+01  2.28044E+01  2.34684E+01  2.44336E+01  2.53388E+01  2.59781E+01  2.63295E+01  2.63326E+01  2.60347E+01
   2.55423E+01  2.49578E+01  2.43283E+01  2.36268E+01  2.28683E+01  2.21480E+01  2.14522E+01  2.07630E+01  2.00782E+01  1.94011E+01
   1.87372E+01  1.80927E+01  1.74737E+01  1.68859E+01  1.63350E+01  1.58263E+01  1.53644E+01  1.49533E+01  1.45960E+01  1.42948E+01
   1.40516E+01  1.38678E+01  1.37439E+01  1.36793E+01  1.36728E+01  1.37222E+01  1.38249E+01  1.39771E+01  1.41741E+01  1.44100E+01
   1.46779E+01  1.49701E+01  1.52784E+01  1.55937E+01  1.59063E+01  1.62062E+01  1.64834E+01  1.67285E+01  1.69328E+01  1.70884E+01
   1.71886E+01  1.72281E+01  1.72034E+01  1.71130E+01  1.69573E+01  1.67382E+01  1.64592E+01  1.61254E+01  1.57431E+01  1.53199E+01
   1.48637E+01  1.43825E+01  1.38844E+01  1.33771E+01  1.28682E+01  1.23644E+01  1.18713E+01  1.13938E+01  1.09356E+01  1.04996E+01
   1.00882E+01  9.70258E+00  9.34333E+00  9.01026E+00  8.70283E+00  8.42021E+00  8.16138E+00  7.92498E+00  7.70944E+00  7.51314E+00
   7.33456E+00  7.17234E+00  7.02512E+00  6.89154E+00  6.77021E+00  6.65991E+00  6.55967E+00  6.46865E+00  6.38601E+00  6.31089E+00
   6.24248E+00  6.18015E+00  6.12345E+00  6.07195E+00  6.02520E+00  5.98266E+00  5.94391E+00  5.90867E+00  5.87676E+00  5.84797E+00
   5.82198E+00  5.79848E+00  5.77725E+00  5.75820E+00  5.74128E+00  5.72635E+00  5.71315E+00  5.70150E+00  5.69132E+00  5.68261E+00
   5.67534E+00  5.66937E+00  5.66451E+00  5.66067E+00  5.65785E+00  5.65609E+00  5.65534E+00  5.65546E+00  5.65631E+00  5.65786E+00
   5.66018E+00  5.66330E+00  5.66713E+00  5.67155E+00  5.67647E+00  5.68193E+00  5.68799E+00  5.69466E+00  5.70183E+00  5.70938E+00
   5.71730E+00  5.72565E+00  5.73450E+00  5.74380E+00  5.75343E+00  5.76333E+00  5.77351E+00  5.78408E+00  5.79504E+00  5.80633E+00
   5.81782E+00  5.82950E+00  5.84144E+00  5.85371E+00  5.86630E+00  5.87909E+00  5.89201E+00  5.90509E+00
 NY background values follow
     3.687E+01    3.665E+01    3.642E+01    3.620E+01    3.597E+01    3.575E+01    3.552E+01    3.529E+01    3.507E+01    3.484E+01
     3.462E+01    3.439E+01    3.417E+01    3.394E+01    3.371E+01    3.349E+01    3.326E+01    3.304E+01    3.281E+01    3.259E+01
     3.236E+01    3.214E+01    3.191E+01    3.169E+01    3.146E+01    3.124E+01    3.101E+01    3.079E+01    3.056E+01    3.034E+01
     3.012E+01    2.989E+01    2.967E+01    2.945E+01    2.922E+01    2.900E+01    2.878E+01    2.856E+01    2.834E+01    2.811E+01
     2.789E+01    2.767E+01    2.745E+01    2.723E+01    2.701E+01    2.679E+01    2.657E+01    2.636E+01    2.614E+01    2.592E+01
     2.570E+01    2.549E+01    2.527E+01    2.505E+01    2.484E+01    2.462E+01    2.441E+01    2.419E+01    2.398E+01    2.377E+01
     2.356E+01    2.334E+01    2.313E+01    2.292E+01    2.271E+01    2.250E+01    2.230E+01    2.209E+01    2.188E+01    2.167E+01
     2.147E+01    2.126E+01    2.106E+01    2.085E+01    2.065E+01    2.045E+01    2.025E+01    2.005E+01    1.985E+01    1.965E+01
     1.945E+01    1.925E+01    1.906E+01    1.886E+01    1.867E+01    1.847E+01    1.828E+01    1.809E+01    1.790E+01    1.771E+01
     1.752E+01    1.733E+01    1.714E+01    1.695E+01    1.677E+01    1.659E+01    1.640E+01    1.622E+01    1.604E+01    1.586E+01
     1.568E+01    1.550E+01    1.532E+01    1.515E+01    1.497E+01    1.480E+01    1.462E+01    1.445E+01    1.428E+01    1.411E+01
     1.394E+01    1.377E+01    1.361E+01    1.344E+01    1.327E+01    1.311E+01    1.295E+01    1.278E+01    1.262E+01    1.246E+01
     1.230E+01    1.214E+01    1.199E+01    1.183E+01    1.167E+01    1.152E+01    1.137E+01    1.121E+01    1.106E+01    1.091E+01
     1.076E+01    1.061E+01    1.047E+01    1.032E+01    1.017E+01    1.003E+01    9.885E+00    9.742E+00    9.601E+00    9.460E+00
     9.321E+00    9.182E+00    9.045E+00    8.908E+00    8.773E+00    8.638E+00    8.505E+00    8.373E+00    8.242E+00    8.112E+00
     7.983E+00    7.855E+00    7.728E+00    7.603E+00    7.478E+00    7.355E+00    7.233E+00    7.111E+00    6.992E+00    6.873E+00
     6.755E+00    6.639E+00    6.524E+00    6.410E+00    6.297E+00    6.185E+00    6.075E+00    5.966E+00    5.858E+00    5.752E+00
     5.646E+00    5.542E+00    5.439E+00    5.338E+00    5.237E+00    5.138E+00    5.041E+00    4.944E+00    4.849E+00    4.756E+00
     4.663E+00    4.572E+00    4.482E+00    4.394E+00    4.307E+00    4.221E+00    4.137E+00    4.053E+00    3.971E+00    3.891E+00
     3.811E+00    3.733E+00    3.656E+00    3.581E+00    3.506E+00    3.433E+00    3.361E+00    3.290E+00    3.220E+00    3.151E+00
     3.084E+00    3.017E+00    2.952E+00    2.888E+00    2.825E+00    2.763E+00    2.702E+00    2.642E+00    2.584E+00    2.526E+00
     2.469E+00    2.414E+00    2.359E+00    2.305E+00    2.253E+00    2.201E+00    2.150E+00    2.101E+00    2.052E+00    2.004E+00
     1.957E+00    1.911E+00    1.866E+00    1.822E+00    1.778E+00    1.736E+00    1.694E+00    1.654E+00    1.614E+00    1.574E+00
     1.536E+00    1.499E+00    1.462E+00    1.426E+00    1.391E+00    1.357E+00    1.324E+00    1.291E+00    1.259E+00    1.228E+00
     1.198E+00    1.169E+00    1.140E+00    1.112E+00    1.085E+00    1.058E+00    1.032E+00    1.007E+00    9.830E-01    9.595E-01
     9.367E-01    9.145E-01    8.931E-01    8.724E-01    8.524E-01    8.330E-01    8.144E-01    7.964E-01    7.791E-01    7.625E-01
     7.465E-01    7.312E-01    7.166E-01    7.026E-01    6.892E-01    6.764E-01    6.643E-01    6.528E-01    6.420E-01    6.317E-01
     6.221E-01    6.130E-01    6.046E-01    5.967E-01    5.894E-01    5.827E-01    5.765E-01    5.710E-01    5.659E-01    5.615E-01
     5.576E-01    5.542E-01    5.513E-01    5.490E-01    5.472E-01    5.459E-01    5.452E-01    5.449E-01    5.451E-01    5.459E-01
     5.471E-01    5.488E-01    5.509E-01    5.536E-01    5.567E-01    5.602E-01    5.642E-01    5.687E-01    5.735E-01    5.788E-01
     5.846E-01    5.907E-01    5.973E-01    6.043E-01    6.117E-01    6.194E-01    6.276E-01    6.361E-01    6.451E-01    6.544E-01
     6.640E-01    6.740E-01    6.844E-01    6.951E-01    7.062E-01    7.176E-01    7.293E-01    7.413E-01    7.537E-01    7.664E-01
     7.794E-01    7.927E-01    8.063E-01    8.202E-01    8.343E-01    8.488E-01    8.636E-01    8.786E-01    8.939E-01    9.095E-01
     9.254E-01    9.415E-01    9.579E-01    9.746E-01    9.915E-01    1.009E+00    1.026E+00    1.044E+00    1.062E+00    1.080E+00
     1.098E+00    1.117E+00    1.135E+00    1.154E+00    1.174E+00    1.193E+00    1.213E+00    1.233E+00    1.253E+00    1.273E+00
     1.293E+00    1.314E+00    1.335E+00    1.356E+00    1.377E+00    1.398E+00    1.419E+00    1.441E+00    1.463E+00    1.485E+00
     1.507E+00    1.529E+00    1.552E+00    1.574E+00    1.597E+00    1.620E+00    1.642E+00    1.665E+00    1.689E+00    1.712E+00
     1.735E+00    1.759E+00    1.783E+00    1.806E+00    1.830E+00    1.854E+00    1.878E+00    1.902E+00    1.927E+00    1.951E+00
     1.976E+00    2.000E+00    2.025E+00    2.049E+00    2.074E+00    2.099E+00    2.124E+00    2.149E+00    2.174E+00    2.200E+00
     2.225E+00    2.250E+00    2.276E+00    2.301E+00    2.327E+00    2.352E+00    2.378E+00    2.403E+00    2.429E+00    2.455E+00
     2.481E+00    2.507E+00    2.532E+00    2.558E+00    2.584E+00    2.610E+00    2.636E+00    2.662E+00    2.688E+00    2.715E+00
     2.741E+00    2.767E+00    2.793E+00    2.819E+00    2.845E+00    2.871E+00    2.898E+00    2.924E+00    2.950E+00    2.976E+00
     3.002E+00    3.029E+00    3.055E+00    3.081E+00    3.107E+00    3.133E+00    3.160E+00    3.186E+00    3.212E+00    3.238E+00
     3.264E+00    3.290E+00    3.316E+00    3.343E+00    3.369E+00    3.395E+00    3.421E+00    3.447E+00    3.473E+00    3.499E+00
     3.525E+00    3.550E+00    3.576E+00    3.602E+00    3.628E+00    3.654E+00    3.679E+00    3.705E+00    3.731E+00    3.756E+00
     3.782E+00    3.807E+00    3.833E+00    3.858E+00    3.884E+00    3.909E+00    3.934E+00    3.959E+00    3.985E+00    4.010E+00
     4.035E+00    4.060E+00    4.085E+00    4.110E+00    4.135E+00    4.160E+00    4.185E+00    4.210E+00    4.234E+00    4.259E+00
     4.284E+00    4.309E+00    4.333E+00    4.358E+00    4.383E+00    4.407E+00    4.432E+00    4.456E+00    4.481E+00    4.505E+00
     4.530E+00    4.554E+00    4.579E+00    4.603E+00    4.628E+00    4.652E+00    4.677E+00    4.701E+00    4.725E+00    4.750E+00
     4.774E+00    4.798E+00    4.823E+00    4.847E+00    4.871E+00    4.896E+00    4.920E+00    4.944E+00
 Ala      Conc. = 2.14E+01
