 LCModel (Version 6.3-1L) Copyright: S.W. Provencher.          Ref.: Magn. Reson. Med. 30:672-679 (1993).                
 Slice#1 Row#7 Col#6  K_02_press_1_raw_act
 36 lines in following concentration table = NCONC+1
    Conc.  %SD /Cr+PCr  Metabolite                                         
   13.872 715% 1.5E-02 Ala                                                 
   81.946 206% 8.7E-02 Asp                                                 
  547.002  24%   0.582 Cr                                                  
  392.117  33%   0.418 PCr                                                 
   12.073 829% 1.3E-02 GABA                                                
    0.000 999%   0.000 Glc                                                 
  255.715  76%   0.272 Gln                                                 
  652.463  34%   0.695 Glu                                                 
  308.783   7%   0.329 GPC                                                 
    0.000 999%   0.000 PCh                                                 
  166.485  43%   0.177 GSH                                                 
  721.915  33%   0.769 Ins                                                 
    0.000 999%   0.000 Lac                                                 
 1.30E+03   6%   1.387 NAA                                                 
  511.362  15%   0.545 NAAG                                                
    0.000 999%   0.000 Scyllo                                              
    0.000 999%   0.000 Tau                                                 
    0.000 999%   0.000 -CrCH2                                              
  308.783   7%   0.329 GPC+PCh                                             
 1.81E+03   5%   1.932 NAA+NAAG                                            
  939.119   6%   1.000 Cr+PCr                                              
  908.177  31%   0.967 Glu+Gln                                             
 5.72E+03  13%   6.095 Lip13a                                              
    0.000 999%   0.000 Lip13b                                              
  868.994  47%   0.925 Lip09                                               
 1.43E+03  25%   1.519 MM09                                                
 1.05E+03  29%   1.118 Lip20                                               
 2.72E+03  19%   2.901 MM20                                                
  492.982  48%   0.525 MM12                                                
 1.53E+03  29%   1.629 MM14                                                
  811.504  34%   0.864 MM17                                                
 5.72E+03  13%   6.095 Lip13a+Lip13b                                       
 7.75E+03   7%   8.249 MM14+Lip13a+Lip13b+MM12                             
 2.30E+03  11%   2.444 MM09+Lip09                                          
 3.77E+03  13%   4.019 MM20+Lip20                                          
   6 lines in following misc. output table
  FWHM = 0.038 ppm    S/N =   8                                            
  Data shift =-0.008 ppm                                                   
  Ph:  28 deg      23.7 deg/ppm                                            
  alphaB,S = 1.2E+00,   4.0E+01                                            
   14 spline knots.   Ns = 5(1)                                            
  ( 8) 2 infls.   ( 7) 1 extrs.                                            
  498 points on ppm-axis = NY
      4.000000     3.992357     3.984714     3.977070     3.969427     3.961784     3.954141     3.946497     3.938854     3.931211
      3.923568     3.915925     3.908281     3.900638     3.892995     3.885352     3.877708     3.870065     3.862422     3.854779
      3.847136     3.839492     3.831849     3.824206     3.816563     3.808919     3.801276     3.793633     3.785990     3.778347
      3.770703     3.763060     3.755417     3.747774     3.740130     3.732487     3.724844     3.717201     3.709558     3.701914
      3.694271     3.686628     3.678985     3.671341     3.663698     3.656055     3.648412     3.640769     3.633125     3.625482
      3.617839     3.610196     3.602552     3.594909     3.587266     3.579623     3.571980     3.564336     3.556693     3.549050
      3.541407     3.533763     3.526120     3.518477     3.510834     3.503191     3.495547     3.487904     3.480261     3.472618
      3.464974     3.457331     3.449688     3.442045     3.434402     3.426758     3.419115     3.411472     3.403829     3.396185
      3.388542     3.380899     3.373256     3.365613     3.357969     3.350326     3.342683     3.335040     3.327396     3.319753
      3.312110     3.304467     3.296824     3.289180     3.281537     3.273894     3.266251     3.258607     3.250964     3.243321
      3.235678     3.228034     3.220391     3.212748     3.205105     3.197462     3.189818     3.182175     3.174532     3.166889
      3.159245     3.151602     3.143959     3.136316     3.128673     3.121029     3.113386     3.105743     3.098100     3.090456
      3.082813     3.075170     3.067527     3.059884     3.052240     3.044597     3.036954     3.029311     3.021667     3.014024
      3.006381     2.998738     2.991095     2.983451     2.975808     2.968165     2.960522     2.952878     2.945235     2.937592
      2.929949     2.922306     2.914662     2.907019     2.899376     2.891733     2.884089     2.876446     2.868803     2.861160
      2.853517     2.845873     2.838230     2.830587     2.822944     2.815300     2.807657     2.800014     2.792371     2.784728
      2.777084     2.769441     2.761798     2.754155     2.746511     2.738868     2.731225     2.723582     2.715939     2.708295
      2.700652     2.693009     2.685366     2.677722     2.670079     2.662436     2.654793     2.647150     2.639506     2.631863
      2.624220     2.616577     2.608933     2.601290     2.593647     2.586004     2.578361     2.570717     2.563074     2.555431
      2.547788     2.540144     2.532501     2.524858     2.517215     2.509572     2.501928     2.494285     2.486642     2.478999
      2.471355     2.463712     2.456069     2.448426     2.440783     2.433139     2.425496     2.417853     2.410210     2.402566
      2.394923     2.387280     2.379637     2.371994     2.364350     2.356707     2.349064     2.341421     2.333777     2.326134
      2.318491     2.310848     2.303205     2.295561     2.287918     2.280275     2.272632     2.264988     2.257345     2.249702
      2.242059     2.234416     2.226772     2.219129     2.211486     2.203843     2.196199     2.188556     2.180913     2.173270
      2.165627     2.157983     2.150340     2.142697     2.135054     2.127410     2.119767     2.112124     2.104481     2.096838
      2.089194     2.081551     2.073908     2.066265     2.058621     2.050978     2.043335     2.035692     2.028049     2.020405
      2.012762     2.005119     1.997476     1.989833     1.982190     1.974546     1.966903     1.959260     1.951617     1.943974
      1.936331     1.928688     1.921045     1.913402     1.905759     1.898115     1.890472     1.882829     1.875186     1.867543
      1.859900     1.852257     1.844614     1.836971     1.829327     1.821684     1.814041     1.806398     1.798755     1.791112
      1.783469     1.775826     1.768183     1.760540     1.752896     1.745253     1.737610     1.729967     1.722324     1.714681
      1.707038     1.699395     1.691752     1.684108     1.676465     1.668822     1.661179     1.653536     1.645893     1.638250
      1.630607     1.622964     1.615321     1.607677     1.600034     1.592391     1.584748     1.577105     1.569462     1.561819
      1.554176     1.546533     1.538890     1.531246     1.523603     1.515960     1.508317     1.500674     1.493031     1.485388
      1.477745     1.470102     1.462458     1.454815     1.447172     1.439529     1.431886     1.424243     1.416600     1.408957
      1.401314     1.393671     1.386027     1.378384     1.370741     1.363098     1.355455     1.347812     1.340169     1.332526
      1.324883     1.317240     1.309596     1.301953     1.294310     1.286667     1.279024     1.271381     1.263738     1.256095
      1.248452     1.240808     1.233165     1.225522     1.217879     1.210236     1.202593     1.194950     1.187307     1.179664
      1.172021     1.164377     1.156734     1.149091     1.141448     1.133805     1.126162     1.118519     1.110876     1.103233
      1.095590     1.087946     1.080303     1.072660     1.065017     1.057374     1.049731     1.042088     1.034445     1.026802
      1.019158     1.011515     1.003872     0.996229     0.988586     0.980943     0.973300     0.965657     0.958014     0.950371
      0.942727     0.935084     0.927441     0.919798     0.912155     0.904512     0.896869     0.889226     0.881583     0.873940
      0.866296     0.858653     0.851010     0.843367     0.835724     0.828081     0.820438     0.812795     0.805152     0.797508
      0.789865     0.782222     0.774579     0.766936     0.759293     0.751650     0.744007     0.736364     0.728721     0.721077
      0.713434     0.705791     0.698148     0.690505     0.682862     0.675219     0.667576     0.659933     0.652290     0.644646
      0.637003     0.629360     0.621717     0.614074     0.606431     0.598788     0.591145     0.583502     0.575858     0.568215
      0.560572     0.552929     0.545286     0.537643     0.530000     0.522357     0.514714     0.507071     0.499427     0.491784
      0.484141     0.476498     0.468855     0.461212     0.453569     0.445925     0.438282     0.430639     0.422996     0.415353
      0.407710     0.400067     0.392424     0.384780     0.377137     0.369494     0.361851     0.354208     0.346565     0.338922
      0.331278     0.323635     0.315992     0.308349     0.300706     0.293063     0.285420     0.277777     0.270133     0.262490
      0.254847     0.247204     0.239561     0.231918     0.224275     0.216631     0.208988     0.201345
 NY phased data points follow
   5.83832E+01  5.59427E+01  5.36786E+01  5.43240E+01  5.62911E+01  5.71943E+01  4.96143E+01  5.57030E+01  6.92756E+01  7.25685E+01
   7.79549E+01  7.27206E+01  7.40758E+01  7.65214E+01  6.32562E+01  5.80577E+01  5.76451E+01  5.43727E+01  6.05509E+01  4.09709E+01
   3.98698E+01  4.31450E+01  4.38703E+01  4.75397E+01  4.83105E+01  4.74877E+01  4.14668E+01  4.23618E+01  4.33646E+01  4.37145E+01
   4.22145E+01  4.33393E+01  4.59495E+01  4.27725E+01  4.03901E+01  3.71801E+01  3.88075E+01  3.95653E+01  4.12816E+01  3.60673E+01
   3.84135E+01  3.93764E+01  3.72420E+01  3.75186E+01  3.74835E+01  3.85995E+01  4.85477E+01  3.90449E+01  4.70459E+01  4.05510E+01
   3.43110E+01  3.95514E+01  3.50830E+01  2.99285E+01  3.10648E+01  3.46832E+01  3.26850E+01  3.79902E+01  3.03809E+01  3.10425E+01
   3.44787E+01  2.97664E+01  1.92467E+01  2.39267E+01  1.87561E+01  2.61429E+01  1.77548E+01  1.91242E+01  1.44630E+01  2.31271E+01
   1.75439E+01  1.94422E+01  1.79647E+01  1.71702E+01  1.17751E+01  2.08688E+01  1.66305E+01  1.94228E+01  2.17444E+01  1.97623E+01
   1.41379E+01  1.75251E+01  1.24962E+01  1.78204E+01  1.77871E+01  1.30453E+01  1.55784E+01  1.37478E+01  1.16793E+01  1.13993E+01
   1.22668E+01  1.42908E+01  1.56764E+01  1.23696E+01  1.57452E+01  1.81254E+01  1.65691E+01  1.48019E+01  1.86598E+01  9.55541E+00
   1.63227E+01  2.64714E+01  4.09839E+01  5.26988E+01  6.27552E+01  3.94376E+01  3.84406E+01  2.11900E+01  1.71583E+01  2.24951E+01
   1.49589E+01  1.59556E+01  1.43740E+01  6.14212E+00  1.33216E+01  1.37514E+01  8.19244E+00  1.33222E+01  9.67220E+00  7.88141E+00
   1.11438E+01  1.47918E+01  1.94493E+01  1.39394E+01  9.10305E+00  2.59697E+01  3.59543E+01  4.28153E+01  5.19146E+01  3.83897E+01
   3.14397E+01  2.18277E+01  1.07889E+01  1.40540E+01  1.35038E+01  1.88555E+00  6.65325E+00  9.00126E+00  8.58294E+00  1.31171E+01
   8.37908E+00  9.25850E+00  1.20911E+01  2.06890E+00  2.36476E+00  8.99106E+00  5.16521E+00  4.78276E+00  3.68507E+00  6.96355E+00
   9.96974E+00  3.32798E+00  7.09886E+00  2.70999E+00 -2.28072E+00 -2.82926E-01  9.51268E-02 -2.65577E-01  1.83948E+00 -5.79651E+00
  -3.75895E+00  1.52814E+00 -3.40065E+00 -9.06019E-01 -1.62745E+00 -3.60587E+00  1.17479E+01 -1.24421E+01 -3.50349E+00 -2.79247E+00
  -7.56529E+00 -1.10315E+01 -1.14322E+01 -1.20626E+01 -1.39211E+01 -1.79645E+01 -2.11733E+01 -1.83220E+01 -1.08719E+01 -1.01143E+01
  -1.02807E+01 -1.66887E+01 -1.36318E+01 -7.40155E+00 -1.08811E+01 -5.88404E+00 -1.15839E+01 -1.24522E+01 -4.43831E+00 -3.66261E+00
  -5.47586E+00 -1.48829E+00 -7.91009E+00 -3.02248E+00 -4.15772E+00 -1.49151E+01 -8.33881E+00 -3.00855E+00 -6.79448E+00 -1.45618E+01
  -1.56651E+01 -1.03297E+01 -1.08656E+01 -9.07630E+00 -2.82057E+00 -3.82384E+00 -1.33711E+01 -2.03708E+00 -8.86737E+00 -1.17238E+01
  -7.04255E+00 -1.43737E+01 -3.68355E+00 -5.77869E+00 -5.49777E+00 -2.67208E+00  1.26957E+00  2.09860E+00 -1.84201E+00 -8.92631E-01
  -1.28495E+01 -7.46084E+00 -1.34427E+01 -2.51379E+00 -7.26407E+00 -1.11419E+00  1.59553E+00 -4.68512E+00  3.11822E+00  3.12042E+00
  -8.18814E-01 -1.97805E+00 -4.24251E+00 -6.89763E+00 -8.07056E+00 -3.82013E+00 -2.45293E+00 -4.50076E-01 -2.29183E+00 -2.84854E-01
  -6.60638E+00 -8.77539E+00 -5.62616E+00 -7.98474E+00 -3.98074E+00 -4.56939E+00  3.85019E+00 -5.46496E+00  1.39058E+00  3.18952E-01
   1.01696E+00  6.53929E+00  1.44603E+00  1.57704E+01  2.29902E+01  2.72260E+01  2.94611E+01  2.92854E+01  2.92728E+01  5.84205E+01
   6.88584E+01  5.64486E+01  3.97968E+01  2.17086E+01  5.93552E+00  1.15547E+00 -4.30117E+00 -1.08284E+01 -8.02062E+00 -1.00345E+01
  -7.19119E+00 -5.54518E+00 -1.15104E+01 -6.19508E+00 -1.24810E+01 -1.98104E+01 -8.01388E+00 -9.69839E+00 -1.43102E+01 -8.46307E+00
  -1.51849E+01 -9.27481E+00 -1.90045E+01 -1.54893E+01 -1.90464E+01 -1.83991E+01 -1.87341E+01 -1.18132E+01 -1.14379E+01 -6.66066E+00
  -9.69740E+00 -7.85105E+00 -1.21785E+01 -1.09908E+01 -2.54859E+01 -1.52254E+01 -8.74031E+00 -1.64832E+01 -2.08456E+01 -1.17557E+01
  -2.10136E+01 -1.00584E+01 -9.94566E+00 -1.09313E+01 -1.29928E+01 -1.46793E+01 -9.20858E+00 -6.35456E+00 -1.01149E+01 -1.07629E+01
  -5.92404E+00 -7.84085E+00 -1.44429E+01 -1.64362E+01 -1.65657E+01 -1.48879E+01 -6.75756E+00 -1.02080E+01 -1.24576E+01 -1.02583E+01
  -1.05852E+01 -1.56801E+01 -1.35590E+01 -1.02275E+01 -1.62356E+01 -1.48897E+01 -2.04373E+01 -9.33238E+00 -1.07347E+01 -1.17299E+01
  -6.99411E+00 -1.79438E+01 -5.75193E+00 -4.96305E+00 -8.67425E-01  1.00789E+00  3.21306E+00 -8.17324E+00 -4.18609E+00 -3.27648E+00
   5.09003E+00  3.45046E+00  6.26598E+00  1.01439E+01 -3.07138E+00  9.08023E+00  5.55747E+00  9.93403E+00  6.06278E+00  7.64533E+00
   1.14556E+01  3.14810E+00  1.02649E+01  4.59365E+00  1.57508E+00  7.02946E+00 -1.16135E+00 -1.22362E+00 -1.65099E+00  1.53642E+00
  -2.14910E+00 -4.80205E+00  3.22495E+00 -9.35233E+00 -3.89609E+00 -3.05955E+00 -8.23772E+00  2.91600E+00  6.83388E+00 -4.59696E+00
   1.76204E+00 -7.03853E+00 -5.87355E+00 -8.89631E+00 -1.24626E+01 -4.94207E+00  2.00693E-01 -2.05296E+00 -5.48899E+00 -5.16419E+00
  -9.56956E+00 -1.03960E+01 -1.57882E+01 -1.20487E+01 -1.45829E+01 -8.51800E+00 -9.38674E+00 -1.96362E+01 -1.19150E+01 -1.17894E+01
  -8.97290E+00 -6.39812E+00 -1.07337E+01 -2.78312E+00 -5.87733E+00 -5.95241E+00 -7.38339E+00 -9.99795E+00 -4.62906E+00 -3.35439E+00
  -5.75519E+00 -5.11320E+00 -5.49493E+00 -9.36231E+00 -8.87648E+00 -6.86095E+00 -1.11947E+01 -7.59591E+00 -1.55514E+00 -8.78656E+00
  -1.17003E+01 -1.78503E+01 -1.70450E+01 -1.69514E+01 -1.34208E+01 -1.43011E+01 -1.78554E+01 -2.32275E+01 -1.92303E+01 -1.69938E+01
  -1.93509E+01 -1.98581E+01 -2.09720E+01 -2.52130E+01 -1.13470E+01 -2.75405E+01 -1.94097E+01 -2.72085E+01 -2.20751E+01 -2.23340E+01
  -1.20461E+01 -1.75188E+01 -1.72448E+01 -1.69145E+01 -2.13720E+01 -1.72566E+01 -2.28744E+01 -2.18579E+01 -2.07943E+01 -2.00791E+01
  -2.73146E+01 -1.44668E+01 -2.22958E+01 -2.00602E+01 -2.65316E+01 -2.42425E+01 -2.90308E+01 -2.46653E+01 -3.21519E+01 -2.37981E+01
  -2.59175E+01 -2.45217E+01 -2.61256E+01 -2.25357E+01 -2.20554E+01 -1.88960E+01 -2.61420E+01 -2.57778E+01 -1.29060E+01 -1.51095E+01
  -2.03940E+01 -2.45555E+01 -2.81627E+01 -2.30023E+01 -2.00645E+01 -2.23466E+01 -2.04416E+01 -2.12447E+01 -1.60125E+01 -1.33332E+01
  -1.72925E+01 -2.45053E+01 -2.19340E+01 -1.86131E+01 -1.83243E+01 -1.85635E+01 -8.95458E+00 -2.00231E+01 -1.90479E+01 -1.95418E+01
  -2.51225E+01 -2.21183E+01 -1.86964E+01 -1.97744E+01 -2.29751E+01 -3.27162E+01 -2.14631E+01 -1.98807E+01 -2.20409E+01 -2.71395E+01
  -1.80472E+01 -2.78692E+01 -1.80670E+01 -2.12869E+01 -2.32168E+01 -1.90907E+01 -2.30530E+01 -2.11410E+01
 NY points of the fit to the data follow
   5.16667E+01  5.10422E+01  5.05877E+01  5.03846E+01  5.05063E+01  5.10923E+01  5.26599E+01  5.60142E+01  6.08359E+01  6.61926E+01
   7.07857E+01  7.29313E+01  7.15024E+01  6.68611E+01  6.09089E+01  5.55699E+01  5.18474E+01  4.94509E+01  4.73904E+01  4.59706E+01
   4.51462E+01  4.45728E+01  4.40576E+01  4.35019E+01  4.28653E+01  4.20816E+01  4.12141E+01  4.09002E+01  4.17271E+01  4.34352E+01
   4.50917E+01  4.58552E+01  4.55555E+01  4.43907E+01  4.26541E+01  4.06220E+01  3.86692E+01  3.73498E+01  3.66961E+01  3.64177E+01
   3.62391E+01  3.61236E+01  3.61641E+01  3.63782E+01  3.70824E+01  3.86057E+01  4.04652E+01  4.14595E+01  4.06420E+01  3.82739E+01
   3.55667E+01  3.34763E+01  3.20104E+01  3.08943E+01  3.01929E+01  2.99210E+01  2.98965E+01  3.00570E+01  3.04335E+01  3.08104E+01
   3.08014E+01  3.01410E+01  2.89282E+01  2.75446E+01  2.63648E+01  2.55721E+01  2.52136E+01  2.51679E+01  2.52330E+01  2.53416E+01
   2.54417E+01  2.54365E+01  2.51864E+01  2.46423E+01  2.39429E+01  2.32609E+01  2.26957E+01  2.22159E+01  2.17696E+01  2.13685E+01
   2.09828E+01  2.05883E+01  2.01647E+01  1.96680E+01  1.89819E+01  1.80133E+01  1.68505E+01  1.57887E+01  1.51438E+01  1.50174E+01
   1.52686E+01  1.56856E+01  1.61123E+01  1.64639E+01  1.66457E+01  1.65553E+01  1.61534E+01  1.56125E+01  1.54592E+01  1.65187E+01
   2.03277E+01  2.95855E+01  4.29332E+01  5.36404E+01  5.52509E+01  4.74775E+01  3.59755E+01  2.63316E+01  2.01962E+01  1.59950E+01
   1.28375E+01  1.16406E+01  1.12183E+01  1.09536E+01  1.07363E+01  1.05421E+01  1.03652E+01  1.01982E+01  1.00411E+01  9.92375E+00
   9.90458E+00  1.00934E+01  1.08223E+01  1.27287E+01  1.73535E+01  2.69894E+01  4.00229E+01  4.99858E+01  5.10130E+01  4.32041E+01
   3.20412E+01  2.27899E+01  1.68123E+01  1.24243E+01  8.79238E+00  6.69417E+00  5.48253E+00  4.84953E+00  4.73589E+00  4.95460E+00
   5.25275E+00  5.41986E+00  5.32701E+00  5.02815E+00  4.65885E+00  4.27085E+00  3.87562E+00  3.47814E+00  3.08768E+00  2.72435E+00
   2.35520E+00  1.92754E+00  1.42044E+00  9.33345E-01  6.17227E-01  5.48830E-01  6.45432E-01  6.47432E-01  2.17357E-01 -7.39236E-01
  -1.86386E+00 -2.63401E+00 -2.70065E+00 -2.25579E+00 -1.92221E+00 -2.15560E+00 -2.91755E+00 -3.87136E+00 -4.69864E+00 -5.18487E+00
  -5.35071E+00 -5.43384E+00 -5.67848E+00 -6.32191E+00 -7.30232E+00 -8.10080E+00 -8.25609E+00 -7.84586E+00 -7.43553E+00 -7.58883E+00
  -8.22070E+00 -8.69279E+00 -8.57882E+00 -8.10975E+00 -7.85752E+00 -7.96015E+00 -7.99860E+00 -7.43974E+00 -6.29047E+00 -5.02247E+00
  -4.16817E+00 -4.02452E+00 -4.54430E+00 -5.41236E+00 -6.29456E+00 -7.01603E+00 -7.54925E+00 -7.87266E+00 -7.85834E+00 -7.42327E+00
  -6.72213E+00 -5.89151E+00 -5.03725E+00 -4.38630E+00 -4.27176E+00 -5.03665E+00 -6.57072E+00 -8.56118E+00 -1.05687E+01 -1.20009E+01
  -1.24934E+01 -1.19788E+01 -1.06319E+01 -8.48386E+00 -5.87097E+00 -3.72645E+00 -3.00669E+00 -4.00581E+00 -6.02578E+00 -8.28869E+00
  -1.05017E+01 -1.21865E+01 -1.25871E+01 -1.12676E+01 -8.88069E+00 -6.53249E+00 -4.89386E+00 -4.01096E+00 -3.72602E+00 -4.01234E+00
  -4.69168E+00 -5.24676E+00 -5.23364E+00 -4.71839E+00 -4.02187E+00 -3.39041E+00 -2.87301E+00 -2.52425E+00 -2.50791E+00 -2.87868E+00
  -3.52974E+00 -4.13344E+00 -4.24658E+00 -3.66027E+00 -2.52548E+00 -1.25832E+00 -2.65359E-01  2.99349E-01  5.54009E-01  7.49574E-01
   1.25779E+00  2.64554E+00  5.74685E+00  1.17391E+01  1.96068E+01  2.61569E+01  2.91335E+01  3.17336E+01  4.05531E+01  5.43006E+01
   6.29211E+01  5.79728E+01  4.17097E+01  2.38767E+01  1.07049E+01  2.51137E+00 -3.56973E+00 -7.75747E+00 -9.26565E+00 -1.00255E+01
  -1.05588E+01 -1.09096E+01 -1.11340E+01 -1.13454E+01 -1.16579E+01 -1.21338E+01 -1.26991E+01 -1.32247E+01 -1.36337E+01 -1.39399E+01
  -1.41557E+01 -1.42684E+01 -1.42957E+01 -1.43099E+01 -1.43674E+01 -1.44626E+01 -1.45599E+01 -1.46398E+01 -1.46916E+01 -1.46761E+01
  -1.45481E+01 -1.43234E+01 -1.40614E+01 -1.38150E+01 -1.36027E+01 -1.34184E+01 -1.32581E+01 -1.31220E+01 -1.29877E+01 -1.28244E+01
  -1.26326E+01 -1.24375E+01 -1.22661E+01 -1.21326E+01 -1.20383E+01 -1.19838E+01 -1.19718E+01 -1.19937E+01 -1.20423E+01 -1.21114E+01
  -1.21943E+01 -1.22844E+01 -1.23750E+01 -1.24576E+01 -1.25228E+01 -1.25621E+01 -1.25681E+01 -1.25343E+01 -1.24546E+01 -1.23231E+01
  -1.21349E+01 -1.18862E+01 -1.15729E+01 -1.11920E+01 -1.07390E+01 -1.02312E+01 -9.71424E+00 -9.21796E+00 -8.72352E+00 -8.18057E+00
  -7.55545E+00 -6.85521E+00 -6.09374E+00 -5.25996E+00 -4.34934E+00 -3.41419E+00 -2.52517E+00 -1.71160E+00 -9.58821E-01 -2.38839E-01
   4.59875E-01  1.12774E+00  1.76238E+00  2.36557E+00  2.92732E+00  3.43990E+00  3.89765E+00  4.29559E+00  4.62870E+00  4.89179E+00
   5.07982E+00  5.18851E+00  5.21448E+00  5.15501E+00  5.00793E+00  4.77191E+00  4.44704E+00  4.03516E+00  3.53980E+00  2.96581E+00
   2.31905E+00  1.60669E+00  8.37360E-01  2.10142E-02 -8.31586E-01 -1.70951E+00 -2.60183E+00 -3.49756E+00 -4.38558E+00 -5.25502E+00
  -6.09576E+00 -6.89871E+00 -7.65578E+00 -8.35949E+00 -9.00294E+00 -9.58005E+00 -1.00858E+01 -1.05164E+01 -1.08686E+01 -1.11398E+01
  -1.13280E+01 -1.14319E+01 -1.14517E+01 -1.13887E+01 -1.12452E+01 -1.10246E+01 -1.07316E+01 -1.03730E+01 -9.95752E+00 -9.49580E+00
  -9.00003E+00 -8.48388E+00 -7.96248E+00 -7.45235E+00 -6.97077E+00 -6.53490E+00 -6.16106E+00 -5.86415E+00 -5.65730E+00 -5.55138E+00
  -5.55432E+00 -5.67041E+00 -5.90024E+00 -6.24082E+00 -6.68607E+00 -7.22709E+00 -7.85241E+00 -8.54839E+00 -9.30003E+00 -1.00919E+01
  -1.09088E+01 -1.17364E+01 -1.25612E+01 -1.33711E+01 -1.41557E+01 -1.49067E+01 -1.56179E+01 -1.62849E+01 -1.69050E+01 -1.74765E+01
  -1.79993E+01 -1.84747E+01 -1.89046E+01 -1.92917E+01 -1.96386E+01 -1.99482E+01 -2.02237E+01 -2.04685E+01 -2.06856E+01 -2.08781E+01
  -2.10483E+01 -2.11987E+01 -2.13314E+01 -2.14487E+01 -2.15526E+01 -2.16444E+01 -2.17253E+01 -2.17966E+01 -2.18595E+01 -2.19150E+01
  -2.19641E+01 -2.20072E+01 -2.20448E+01 -2.20775E+01 -2.21061E+01 -2.21310E+01 -2.21525E+01 -2.21707E+01 -2.21860E+01 -2.21986E+01
  -2.22089E+01 -2.22173E+01 -2.22237E+01 -2.22281E+01 -2.22307E+01 -2.22318E+01 -2.22316E+01 -2.22303E+01 -2.22276E+01 -2.22236E+01
  -2.22185E+01 -2.22126E+01 -2.22059E+01 -2.21983E+01 -2.21899E+01 -2.21805E+01 -2.21705E+01 -2.21599E+01 -2.21489E+01 -2.21372E+01
  -2.21249E+01 -2.21119E+01 -2.20986E+01 -2.20850E+01 -2.20710E+01 -2.20565E+01 -2.20414E+01 -2.20260E+01 -2.20104E+01 -2.19946E+01
  -2.19785E+01 -2.19620E+01 -2.19451E+01 -2.19280E+01 -2.19108E+01 -2.18934E+01 -2.18758E+01 -2.18578E+01 -2.18395E+01 -2.18212E+01
  -2.18028E+01 -2.17842E+01 -2.17653E+01 -2.17461E+01 -2.17268E+01 -2.17074E+01 -2.16879E+01 -2.16682E+01
 NY background values follow
     4.994E+01    4.954E+01    4.915E+01    4.875E+01    4.835E+01    4.795E+01    4.755E+01    4.715E+01    4.675E+01    4.636E+01
     4.596E+01    4.556E+01    4.516E+01    4.476E+01    4.436E+01    4.397E+01    4.357E+01    4.317E+01    4.277E+01    4.237E+01
     4.198E+01    4.158E+01    4.118E+01    4.079E+01    4.039E+01    4.000E+01    3.960E+01    3.921E+01    3.881E+01    3.842E+01
     3.802E+01    3.763E+01    3.724E+01    3.685E+01    3.645E+01    3.606E+01    3.567E+01    3.528E+01    3.489E+01    3.451E+01
     3.412E+01    3.373E+01    3.334E+01    3.296E+01    3.257E+01    3.219E+01    3.181E+01    3.142E+01    3.104E+01    3.066E+01
     3.028E+01    2.990E+01    2.952E+01    2.915E+01    2.877E+01    2.839E+01    2.802E+01    2.765E+01    2.727E+01    2.690E+01
     2.653E+01    2.616E+01    2.580E+01    2.543E+01    2.506E+01    2.470E+01    2.434E+01    2.397E+01    2.361E+01    2.325E+01
     2.290E+01    2.254E+01    2.218E+01    2.183E+01    2.148E+01    2.113E+01    2.078E+01    2.043E+01    2.008E+01    1.974E+01
     1.939E+01    1.905E+01    1.871E+01    1.837E+01    1.803E+01    1.770E+01    1.736E+01    1.703E+01    1.670E+01    1.637E+01
     1.604E+01    1.572E+01    1.539E+01    1.507E+01    1.475E+01    1.443E+01    1.411E+01    1.380E+01    1.349E+01    1.317E+01
     1.286E+01    1.256E+01    1.225E+01    1.194E+01    1.164E+01    1.134E+01    1.104E+01    1.074E+01    1.044E+01    1.015E+01
     9.855E+00    9.564E+00    9.274E+00    8.985E+00    8.698E+00    8.413E+00    8.130E+00    7.848E+00    7.567E+00    7.289E+00
     7.011E+00    6.736E+00    6.462E+00    6.189E+00    5.919E+00    5.649E+00    5.381E+00    5.115E+00    4.851E+00    4.587E+00
     4.326E+00    4.066E+00    3.807E+00    3.550E+00    3.295E+00    3.041E+00    2.788E+00    2.537E+00    2.287E+00    2.039E+00
     1.793E+00    1.548E+00    1.304E+00    1.062E+00    8.217E-01    5.827E-01    3.453E-01    1.094E-01   -1.250E-01   -3.578E-01
    -5.891E-01   -8.188E-01   -1.047E+00   -1.274E+00   -1.499E+00   -1.722E+00   -1.944E+00   -2.164E+00   -2.383E+00   -2.600E+00
    -2.816E+00   -3.030E+00   -3.242E+00   -3.453E+00   -3.662E+00   -3.870E+00   -4.076E+00   -4.280E+00   -4.483E+00   -4.684E+00
    -4.884E+00   -5.082E+00   -5.278E+00   -5.472E+00   -5.665E+00   -5.857E+00   -6.046E+00   -6.234E+00   -6.421E+00   -6.605E+00
    -6.788E+00   -6.970E+00   -7.149E+00   -7.327E+00   -7.504E+00   -7.679E+00   -7.852E+00   -8.023E+00   -8.193E+00   -8.362E+00
    -8.529E+00   -8.694E+00   -8.858E+00   -9.020E+00   -9.181E+00   -9.340E+00   -9.498E+00   -9.654E+00   -9.809E+00   -9.963E+00
    -1.011E+01   -1.027E+01   -1.041E+01   -1.056E+01   -1.071E+01   -1.086E+01   -1.100E+01   -1.114E+01   -1.128E+01   -1.142E+01
    -1.156E+01   -1.170E+01   -1.184E+01   -1.197E+01   -1.211E+01   -1.224E+01   -1.237E+01   -1.250E+01   -1.263E+01   -1.276E+01
    -1.289E+01   -1.301E+01   -1.314E+01   -1.326E+01   -1.338E+01   -1.351E+01   -1.363E+01   -1.375E+01   -1.386E+01   -1.398E+01
    -1.410E+01   -1.421E+01   -1.433E+01   -1.444E+01   -1.456E+01   -1.467E+01   -1.478E+01   -1.489E+01   -1.500E+01   -1.511E+01
    -1.521E+01   -1.532E+01   -1.542E+01   -1.553E+01   -1.563E+01   -1.573E+01   -1.583E+01   -1.594E+01   -1.603E+01   -1.613E+01
    -1.623E+01   -1.633E+01   -1.642E+01   -1.652E+01   -1.661E+01   -1.670E+01   -1.680E+01   -1.689E+01   -1.698E+01   -1.707E+01
    -1.716E+01   -1.724E+01   -1.733E+01   -1.742E+01   -1.750E+01   -1.758E+01   -1.767E+01   -1.775E+01   -1.783E+01   -1.791E+01
    -1.799E+01   -1.807E+01   -1.815E+01   -1.822E+01   -1.830E+01   -1.838E+01   -1.845E+01   -1.852E+01   -1.860E+01   -1.867E+01
    -1.874E+01   -1.881E+01   -1.888E+01   -1.895E+01   -1.902E+01   -1.908E+01   -1.915E+01   -1.922E+01   -1.928E+01   -1.934E+01
    -1.941E+01   -1.947E+01   -1.953E+01   -1.959E+01   -1.965E+01   -1.971E+01   -1.977E+01   -1.983E+01   -1.988E+01   -1.994E+01
    -1.999E+01   -2.005E+01   -2.010E+01   -2.015E+01   -2.021E+01   -2.026E+01   -2.031E+01   -2.036E+01   -2.041E+01   -2.046E+01
    -2.050E+01   -2.055E+01   -2.060E+01   -2.064E+01   -2.069E+01   -2.073E+01   -2.077E+01   -2.082E+01   -2.086E+01   -2.090E+01
    -2.094E+01   -2.098E+01   -2.102E+01   -2.106E+01   -2.109E+01   -2.113E+01   -2.117E+01   -2.120E+01   -2.124E+01   -2.127E+01
    -2.131E+01   -2.134E+01   -2.137E+01   -2.141E+01   -2.144E+01   -2.147E+01   -2.150E+01   -2.153E+01   -2.156E+01   -2.158E+01
    -2.161E+01   -2.164E+01   -2.167E+01   -2.169E+01   -2.172E+01   -2.174E+01   -2.177E+01   -2.179E+01   -2.181E+01   -2.184E+01
    -2.186E+01   -2.188E+01   -2.190E+01   -2.192E+01   -2.194E+01   -2.196E+01   -2.198E+01   -2.200E+01   -2.202E+01   -2.203E+01
    -2.205E+01   -2.207E+01   -2.208E+01   -2.210E+01   -2.212E+01   -2.213E+01   -2.214E+01   -2.216E+01   -2.217E+01   -2.219E+01
    -2.220E+01   -2.221E+01   -2.222E+01   -2.223E+01   -2.224E+01   -2.225E+01   -2.226E+01   -2.227E+01   -2.228E+01   -2.229E+01
    -2.230E+01   -2.231E+01   -2.231E+01   -2.232E+01   -2.233E+01   -2.233E+01   -2.234E+01   -2.234E+01   -2.235E+01   -2.235E+01
    -2.236E+01   -2.236E+01   -2.236E+01   -2.236E+01   -2.237E+01   -2.237E+01   -2.237E+01   -2.237E+01   -2.237E+01   -2.237E+01
    -2.237E+01   -2.237E+01   -2.237E+01   -2.237E+01   -2.236E+01   -2.236E+01   -2.236E+01   -2.235E+01   -2.235E+01   -2.235E+01
    -2.234E+01   -2.234E+01   -2.233E+01   -2.233E+01   -2.232E+01   -2.231E+01   -2.231E+01   -2.230E+01   -2.229E+01   -2.228E+01
    -2.227E+01   -2.227E+01   -2.226E+01   -2.225E+01   -2.224E+01   -2.223E+01   -2.222E+01   -2.221E+01   -2.220E+01   -2.219E+01
    -2.217E+01   -2.216E+01   -2.215E+01   -2.214E+01   -2.213E+01   -2.211E+01   -2.210E+01   -2.209E+01   -2.207E+01   -2.206E+01
    -2.204E+01   -2.203E+01   -2.202E+01   -2.200E+01   -2.199E+01   -2.197E+01   -2.196E+01   -2.194E+01   -2.193E+01   -2.191E+01
    -2.189E+01   -2.188E+01   -2.186E+01   -2.184E+01   -2.183E+01   -2.181E+01   -2.179E+01   -2.178E+01   -2.176E+01   -2.174E+01
    -2.173E+01   -2.171E+01   -2.169E+01   -2.167E+01   -2.165E+01   -2.164E+01   -2.162E+01   -2.160E+01   -2.158E+01   -2.156E+01
    -2.155E+01   -2.153E+01   -2.151E+01   -2.149E+01   -2.147E+01   -2.145E+01   -2.143E+01   -2.142E+01   -2.140E+01   -2.138E+01
    -2.136E+01   -2.134E+01   -2.132E+01   -2.130E+01   -2.128E+01   -2.126E+01   -2.125E+01   -2.123E+01   -2.121E+01   -2.119E+01
    -2.117E+01   -2.115E+01   -2.113E+01   -2.111E+01   -2.110E+01   -2.108E+01   -2.106E+01   -2.104E+01
 Ala      Conc. = 1.39E+01
