 LCModel (Version 6.3-1L) Copyright: S.W. Provencher.          Ref.: Magn. Reson. Med. 30:672-679 (1993).                
 Slice#3 Row#4 Col#5  K_02_press_1_raw_act
 36 lines in following concentration table = NCONC+1
    Conc.  %SD /Cr+PCr  Metabolite                                         
  631.263  24%   0.263 Ala                                                 
    0.000 999%   0.000 Asp                                                 
  655.499  38%   0.273 Cr                                                  
 1.75E+03  15%   0.727 PCr                                                 
    0.000 999%   0.000 GABA                                                
    0.000 999%   0.000 Glc                                                 
  679.375  39%   0.283 Gln                                                 
 1.85E+03  16%   0.769 Glu                                                 
  677.326   4%   0.282 GPC                                                 
    0.000 999%   0.000 PCh                                                 
  555.427  15%   0.231 GSH                                                 
  883.911  33%   0.368 Ins                                                 
  293.226  63%   0.122 Lac                                                 
 2.95E+03   3%   1.226 NAA                                                 
    0.000 999%   0.000 NAAG                                                
    0.000 999%   0.000 Scyllo                                              
    0.000 999%   0.000 Tau                                                 
    0.000 999%   0.000 -CrCH2                                              
  677.326   4%   0.282 GPC+PCh                                             
 2.95E+03   3%   1.226 NAA+NAAG                                            
 2.40E+03   3%   1.000 Cr+PCr                                              
 2.53E+03  17%   1.052 Glu+Gln                                             
    0.000 999%   0.000 Lip13a                                              
 3.97E+03  30%   1.654 Lip13b                                              
 1.05E+03  30%   0.436 Lip09                                               
  870.740  39%   0.362 MM09                                                
  597.090  30%   0.249 Lip20                                               
 1.55E+03  32%   0.645 MM20                                                
  202.130  91% 8.4E-02 MM12                                                
 5.09E+03   8%   2.120+MM14                                                
 1.77E+03  22%   0.735+MM17                                                
 3.97E+03  30%   1.654 Lip13a+Lip13b                                       
 9.27E+03  10%   3.858 MM14+Lip13a+Lip13b+MM12                             
 1.92E+03  17%   0.799 MM09+Lip09                                          
 2.15E+03  21%   0.894 MM20+Lip20                                          
   6 lines in following misc. output table
  FWHM = 0.046 ppm    S/N =  13                                            
  Data shift = 0.038 ppm                                                   
  Ph:   9 deg     -13.9 deg/ppm                                            
  alphaB,S = 3.6E-01,   9.0E+01                                            
   14 spline knots.   Ns = 7(1)                                            
  (11) 5 infls.   ( 9) 3 extrs.                                            
  498 points on ppm-axis = NY
      4.000000     3.992357     3.984714     3.977070     3.969427     3.961784     3.954141     3.946497     3.938854     3.931211
      3.923568     3.915925     3.908281     3.900638     3.892995     3.885352     3.877708     3.870065     3.862422     3.854779
      3.847136     3.839492     3.831849     3.824206     3.816563     3.808919     3.801276     3.793633     3.785990     3.778347
      3.770703     3.763060     3.755417     3.747774     3.740130     3.732487     3.724844     3.717201     3.709558     3.701914
      3.694271     3.686628     3.678985     3.671341     3.663698     3.656055     3.648412     3.640769     3.633125     3.625482
      3.617839     3.610196     3.602552     3.594909     3.587266     3.579623     3.571980     3.564336     3.556693     3.549050
      3.541407     3.533763     3.526120     3.518477     3.510834     3.503191     3.495547     3.487904     3.480261     3.472618
      3.464974     3.457331     3.449688     3.442045     3.434402     3.426758     3.419115     3.411472     3.403829     3.396185
      3.388542     3.380899     3.373256     3.365613     3.357969     3.350326     3.342683     3.335040     3.327396     3.319753
      3.312110     3.304467     3.296824     3.289180     3.281537     3.273894     3.266251     3.258607     3.250964     3.243321
      3.235678     3.228034     3.220391     3.212748     3.205105     3.197462     3.189818     3.182175     3.174532     3.166889
      3.159245     3.151602     3.143959     3.136316     3.128673     3.121029     3.113386     3.105743     3.098100     3.090456
      3.082813     3.075170     3.067527     3.059884     3.052240     3.044597     3.036954     3.029311     3.021667     3.014024
      3.006381     2.998738     2.991095     2.983451     2.975808     2.968165     2.960522     2.952878     2.945235     2.937592
      2.929949     2.922306     2.914662     2.907019     2.899376     2.891733     2.884089     2.876446     2.868803     2.861160
      2.853517     2.845873     2.838230     2.830587     2.822944     2.815300     2.807657     2.800014     2.792371     2.784728
      2.777084     2.769441     2.761798     2.754155     2.746511     2.738868     2.731225     2.723582     2.715939     2.708295
      2.700652     2.693009     2.685366     2.677722     2.670079     2.662436     2.654793     2.647150     2.639506     2.631863
      2.624220     2.616577     2.608933     2.601290     2.593647     2.586004     2.578361     2.570717     2.563074     2.555431
      2.547788     2.540144     2.532501     2.524858     2.517215     2.509572     2.501928     2.494285     2.486642     2.478999
      2.471355     2.463712     2.456069     2.448426     2.440783     2.433139     2.425496     2.417853     2.410210     2.402566
      2.394923     2.387280     2.379637     2.371994     2.364350     2.356707     2.349064     2.341421     2.333777     2.326134
      2.318491     2.310848     2.303205     2.295561     2.287918     2.280275     2.272632     2.264988     2.257345     2.249702
      2.242059     2.234416     2.226772     2.219129     2.211486     2.203843     2.196199     2.188556     2.180913     2.173270
      2.165627     2.157983     2.150340     2.142697     2.135054     2.127410     2.119767     2.112124     2.104481     2.096838
      2.089194     2.081551     2.073908     2.066265     2.058621     2.050978     2.043335     2.035692     2.028049     2.020405
      2.012762     2.005119     1.997476     1.989833     1.982190     1.974546     1.966903     1.959260     1.951617     1.943974
      1.936331     1.928688     1.921045     1.913402     1.905759     1.898115     1.890472     1.882829     1.875186     1.867543
      1.859900     1.852257     1.844614     1.836971     1.829327     1.821684     1.814041     1.806398     1.798755     1.791112
      1.783469     1.775826     1.768183     1.760540     1.752896     1.745253     1.737610     1.729967     1.722324     1.714681
      1.707038     1.699395     1.691752     1.684108     1.676465     1.668822     1.661179     1.653536     1.645893     1.638250
      1.630607     1.622964     1.615321     1.607677     1.600034     1.592391     1.584748     1.577105     1.569462     1.561819
      1.554176     1.546533     1.538890     1.531246     1.523603     1.515960     1.508317     1.500674     1.493031     1.485388
      1.477745     1.470102     1.462458     1.454815     1.447172     1.439529     1.431886     1.424243     1.416600     1.408957
      1.401314     1.393671     1.386027     1.378384     1.370741     1.363098     1.355455     1.347812     1.340169     1.332526
      1.324883     1.317240     1.309596     1.301953     1.294310     1.286667     1.279024     1.271381     1.263738     1.256095
      1.248452     1.240808     1.233165     1.225522     1.217879     1.210236     1.202593     1.194950     1.187307     1.179664
      1.172021     1.164377     1.156734     1.149091     1.141448     1.133805     1.126162     1.118519     1.110876     1.103233
      1.095590     1.087946     1.080303     1.072660     1.065017     1.057374     1.049731     1.042088     1.034445     1.026802
      1.019158     1.011515     1.003872     0.996229     0.988586     0.980943     0.973300     0.965657     0.958014     0.950371
      0.942727     0.935084     0.927441     0.919798     0.912155     0.904512     0.896869     0.889226     0.881583     0.873940
      0.866296     0.858653     0.851010     0.843367     0.835724     0.828081     0.820438     0.812795     0.805152     0.797508
      0.789865     0.782222     0.774579     0.766936     0.759293     0.751650     0.744007     0.736364     0.728721     0.721077
      0.713434     0.705791     0.698148     0.690505     0.682862     0.675219     0.667576     0.659933     0.652290     0.644646
      0.637003     0.629360     0.621717     0.614074     0.606431     0.598788     0.591145     0.583502     0.575858     0.568215
      0.560572     0.552929     0.545286     0.537643     0.530000     0.522357     0.514714     0.507071     0.499427     0.491784
      0.484141     0.476498     0.468855     0.461212     0.453569     0.445925     0.438282     0.430639     0.422996     0.415353
      0.407710     0.400067     0.392424     0.384780     0.377137     0.369494     0.361851     0.354208     0.346565     0.338922
      0.331278     0.323635     0.315992     0.308349     0.300706     0.293063     0.285420     0.277777     0.270133     0.262490
      0.254847     0.247204     0.239561     0.231918     0.224275     0.216631     0.208988     0.201345
 NY phased data points follow
   8.08409E+01  8.44593E+01  8.55328E+01  8.94346E+01  9.40182E+01  9.53792E+01  1.03369E+02  1.11379E+02  1.17754E+02  1.24420E+02
   1.25160E+02  1.25503E+02  1.09882E+02  1.05968E+02  1.00879E+02  8.96437E+01  7.99832E+01  7.64545E+01  7.37585E+01  7.29773E+01
   6.86880E+01  6.74239E+01  7.08430E+01  6.82694E+01  6.73806E+01  6.59724E+01  6.54966E+01  6.97310E+01  7.11623E+01  7.32634E+01
   7.28619E+01  7.63411E+01  6.95843E+01  6.66757E+01  6.54126E+01  6.31829E+01  6.13032E+01  6.36588E+01  6.17610E+01  7.01079E+01
   5.98803E+01  6.11198E+01  6.10558E+01  5.71420E+01  6.22670E+01  6.90920E+01  6.96320E+01  6.52607E+01  6.34045E+01  6.03802E+01
   5.93175E+01  5.46543E+01  5.20488E+01  5.11118E+01  5.31683E+01  4.85820E+01  4.81349E+01  5.33063E+01  5.30639E+01  4.84416E+01
   4.68795E+01  4.43559E+01  4.21256E+01  3.84816E+01  3.73210E+01  3.70195E+01  3.69667E+01  3.66688E+01  3.59797E+01  3.82235E+01
   3.69030E+01  4.21336E+01  3.88417E+01  3.72857E+01  3.50882E+01  3.31484E+01  3.89229E+01  2.93238E+01  3.75821E+01  3.21249E+01
   3.40340E+01  3.39251E+01  3.31881E+01  3.30111E+01  3.56734E+01  3.44999E+01  3.23242E+01  3.27309E+01  3.06922E+01  3.56174E+01
   3.37748E+01  3.84335E+01  3.49069E+01  3.60822E+01  4.06564E+01  4.29358E+01  4.35772E+01  4.50976E+01  4.85476E+01  5.43379E+01
   7.24105E+01  8.39022E+01  9.31683E+01  9.68633E+01  8.69892E+01  7.73511E+01  7.20659E+01  5.91085E+01  4.98258E+01  3.78603E+01
   4.03407E+01  4.15042E+01  4.00483E+01  3.04170E+01  3.21877E+01  3.25409E+01  3.68738E+01  3.35105E+01  3.60819E+01  4.25250E+01
   3.99037E+01  4.12794E+01  4.72388E+01  5.77720E+01  7.70047E+01  9.67172E+01  1.03940E+02  1.04906E+02  9.16623E+01  8.83204E+01
   7.38038E+01  6.61213E+01  5.81746E+01  4.74107E+01  4.40216E+01  3.72616E+01  2.97615E+01  3.03006E+01  2.82594E+01  3.05376E+01
   3.48926E+01  2.60858E+01  2.89294E+01  3.49784E+01  3.28613E+01  3.22295E+01  3.03492E+01  3.07331E+01  2.34049E+01  2.92340E+01
   2.52981E+01  2.44404E+01  2.53696E+01  3.01410E+01  2.30229E+01  2.68897E+01  2.50863E+01  2.92894E+01  2.44057E+01  2.16075E+01
   2.15591E+01  1.98127E+01  1.98423E+01  2.12574E+01  1.82978E+01  2.60647E+01  2.08139E+01  1.79933E+01  1.98828E+01  1.92042E+01
   1.75756E+01  1.75081E+01  1.13991E+01  1.19669E+01  9.28926E+00  1.15278E+01  9.70470E+00  1.34574E+01  1.01548E+01  6.59649E+00
   1.00589E+01  8.88331E+00  1.03041E+01  7.86732E+00  6.93899E+00  1.10060E+01  1.15007E+01  8.71320E+00  1.51961E+01  1.84755E+01
   2.34486E+01  2.48428E+01  2.26750E+01  2.91377E+01  3.06443E+01  2.53676E+01  1.94233E+01  2.08380E+01  1.78713E+01  1.29759E+01
   1.78616E+01  2.54849E+01  2.41826E+01  2.12401E+01  2.25387E+01  1.84004E+01  1.88798E+01  1.56264E+01  1.76719E+01  1.25539E+01
   1.02557E+01  1.66240E+01  1.68206E+01  2.54182E+01  2.92702E+01  3.20937E+01  3.04806E+01  2.73772E+01  2.43515E+01  2.07163E+01
   1.32501E+01  1.43163E+01  1.27136E+01  1.56233E+01  1.76940E+01  2.16588E+01  2.85753E+01  2.43949E+01  2.64000E+01  2.77363E+01
   2.31818E+01  2.58390E+01  2.35985E+01  2.21049E+01  2.58178E+01  2.73823E+01  2.56240E+01  2.40866E+01  2.67879E+01  2.35941E+01
   1.64525E+01  1.96733E+01  1.91988E+01  2.84970E+01  1.94000E+01  2.61535E+01  3.22448E+01  2.96193E+01  3.11758E+01  3.52540E+01
   3.32536E+01  4.20336E+01  4.23397E+01  4.99474E+01  5.68895E+01  5.05719E+01  5.45782E+01  7.76586E+01  1.19720E+02  1.35707E+02
   1.28799E+02  1.22267E+02  9.77552E+01  8.64902E+01  7.28524E+01  5.80858E+01  4.86576E+01  4.27334E+01  3.62040E+01  3.76392E+01
   3.16024E+01  3.51262E+01  2.71951E+01  2.93132E+01  2.56210E+01  2.73623E+01  3.18167E+01  2.63419E+01  2.42280E+01  3.05122E+01
   2.74858E+01  2.78995E+01  2.98806E+01  2.63266E+01  2.70198E+01  2.94345E+01  2.94073E+01  2.80114E+01  2.78027E+01  2.87388E+01
   2.85065E+01  2.79079E+01  2.85742E+01  2.75163E+01  2.95923E+01  3.29089E+01  2.95893E+01  3.20749E+01  3.40288E+01  3.21843E+01
   3.00071E+01  3.23451E+01  3.03048E+01  3.25425E+01  3.54633E+01  3.44290E+01  3.83796E+01  3.84466E+01  3.78464E+01  4.27791E+01
   4.30867E+01  3.88968E+01  4.55594E+01  4.26372E+01  4.66609E+01  4.57284E+01  4.68937E+01  5.11986E+01  5.05156E+01  4.84184E+01
   5.45118E+01  5.47920E+01  5.32305E+01  6.04609E+01  5.59399E+01  6.28574E+01  5.57365E+01  5.92532E+01  5.59290E+01  5.81538E+01
   5.98241E+01  5.76255E+01  6.18399E+01  6.52826E+01  6.96113E+01  7.37324E+01  7.12692E+01  7.33394E+01  7.17488E+01  6.96804E+01
   6.91564E+01  7.08195E+01  6.73286E+01  6.63099E+01  6.54358E+01  6.40982E+01  5.66343E+01  5.47231E+01  5.37963E+01  5.03675E+01
   5.01363E+01  4.53203E+01  4.67011E+01  4.28530E+01  4.29365E+01  4.16236E+01  3.72632E+01  3.51721E+01  2.99444E+01  2.95239E+01
   2.87286E+01  2.28249E+01  2.58032E+01  3.01986E+01  2.22174E+01  2.31847E+01  1.70687E+01  1.83959E+01  1.45733E+01  2.03355E+01
   1.89650E+01  1.54810E+01  1.40894E+01  1.52717E+01  1.03574E+01  1.21953E+01  1.44886E+01  1.34341E+01  1.42172E+01  5.21318E+00
   1.22530E+01  9.73388E+00  1.45701E+01  9.39940E+00  9.62248E+00  9.00099E+00  1.05055E+01  1.10912E+01  1.58955E+01  1.12122E+01
   1.29807E+01  1.37446E+01  1.06988E+01  1.23519E+01  1.24272E+01  1.59428E+01  1.30253E+01  1.72931E+01  1.32266E+01  1.28957E+01
   1.71021E+01  1.75356E+01  1.70603E+01  1.52692E+01  1.34397E+01  1.34118E+01  1.57669E+01  2.00207E+01  1.42609E+01  1.90120E+01
   1.69669E+01  1.42526E+01  1.13139E+01  1.37694E+01  1.73104E+01  1.45560E+01  1.50698E+01  1.28136E+01  1.71185E+01  1.23446E+01
   1.16308E+01  1.51758E+01  1.53241E+01  8.48083E+00  1.67513E+01  1.10151E+01  6.80363E+00  1.08244E+01  5.55824E+00  6.53896E+00
   6.65595E+00  6.75309E+00  5.29249E+00  4.30871E+00  1.23648E+01  4.87932E+00  7.98850E+00  1.29510E+01  6.04225E+00  1.46534E+01
   8.56653E+00  6.90711E+00  8.74208E+00  1.44409E+01  8.50411E+00  7.07664E+00  7.50054E+00  7.51476E+00  7.58607E+00  6.12684E+00
   9.49473E+00  7.01875E+00  5.67401E+00  7.04136E+00  6.52258E+00  7.63464E+00  8.94774E+00  6.14489E+00  3.83153E+00  3.12947E+00
   7.19678E+00  1.77880E+00  3.83155E+00  3.26508E+00  5.64248E+00  1.80240E+00  4.57898E+00  6.95754E+00  6.42024E+00  6.86483E+00
   5.72192E+00  9.15596E+00  5.00241E+00  6.68339E+00  3.24407E+00  6.49594E+00  7.48994E+00  5.44075E+00  5.61137E+00  6.40239E+00
   6.97482E+00  9.21103E+00  3.22666E+00  7.39097E+00  5.19507E+00  7.58863E+00  6.27567E+00  4.89939E+00  5.90188E+00  1.09704E+01
   6.42251E+00  6.78991E+00  1.49399E+00  2.51937E+00  9.32358E+00  2.25631E+00  6.73729E+00  1.13163E+01
 NY points of the fit to the data follow
   7.95751E+01  8.01358E+01  8.27607E+01  8.49803E+01  8.72862E+01  9.27342E+01  1.01805E+02  1.12159E+02  1.20344E+02  1.24153E+02
   1.23026E+02  1.17970E+02  1.10928E+02  1.03410E+02  9.63233E+01  9.01103E+01  8.45559E+01  7.95280E+01  7.61760E+01  7.38576E+01
   7.21530E+01  7.09844E+01  7.02534E+01  7.00491E+01  6.89057E+01  6.68239E+01  6.58788E+01  6.74102E+01  7.04363E+01  7.32170E+01
   7.50640E+01  7.57411E+01  7.50077E+01  7.29059E+01  6.97376E+01  6.64046E+01  6.38018E+01  6.16350E+01  5.96513E+01  5.87410E+01
   5.87944E+01  5.88363E+01  5.86375E+01  5.89922E+01  6.01332E+01  6.13176E+01  6.17164E+01  6.10604E+01  5.96439E+01  5.79400E+01
   5.60604E+01  5.42016E+01  5.27397E+01  5.16010E+01  5.05201E+01  4.95520E+01  4.89768E+01  4.88134E+01  4.87341E+01  4.84710E+01
   4.78804E+01  4.69666E+01  4.58912E+01  4.48186E+01  4.39777E+01  4.34393E+01  4.30393E+01  4.26970E+01  4.24913E+01  4.24135E+01
   4.23353E+01  4.21249E+01  4.17442E+01  4.12537E+01  4.07226E+01  4.01846E+01  3.96689E+01  3.91795E+01  3.87276E+01  3.82253E+01
   3.76739E+01  3.71555E+01  3.66629E+01  3.60856E+01  3.53122E+01  3.44053E+01  3.35817E+01  3.30311E+01  3.27941E+01  3.28525E+01
   3.30738E+01  3.33883E+01  3.37939E+01  3.42937E+01  3.50264E+01  3.72280E+01  4.23233E+01  4.55440E+01  4.76402E+01  5.53313E+01
   7.06939E+01  8.70328E+01  9.59476E+01  9.51681E+01  8.77442E+01  7.79007E+01  6.81726E+01  5.92422E+01  5.14579E+01  4.51861E+01
   3.97862E+01  3.48212E+01  3.23735E+01  3.16062E+01  3.12958E+01  3.11899E+01  3.12171E+01  3.14163E+01  3.21104E+01  3.48114E+01
   4.10380E+01  4.55798E+01  4.88744E+01  5.84170E+01  7.66812E+01  9.61163E+01  1.07011E+02  1.06460E+02  9.77636E+01  8.61061E+01
   7.48778E+01  6.47176E+01  5.55143E+01  4.73621E+01  3.97227E+01  3.26211E+01  2.86724E+01  2.74101E+01  2.73459E+01  2.78700E+01
   2.84634E+01  2.87471E+01  2.87144E+01  2.85208E+01  2.81891E+01  2.77777E+01  2.73514E+01  2.68723E+01  2.63493E+01  2.58456E+01
   2.53681E+01  2.49670E+01  2.46197E+01  2.42700E+01  2.38192E+01  2.35817E+01  2.34976E+01  2.31981E+01  2.25090E+01  2.14159E+01
   2.06215E+01  2.06600E+01  2.12656E+01  2.16825E+01  2.14507E+01  2.07329E+01  1.98672E+01  1.90358E+01  1.82806E+01  1.75312E+01
   1.69128E+01  1.64989E+01  1.57608E+01  1.45886E+01  1.35909E+01  1.34776E+01  1.40691E+01  1.45376E+01  1.43698E+01  1.38495E+01
   1.34947E+01  1.37380E+01  1.41316E+01  1.41366E+01  1.39425E+01  1.40934E+01  1.49945E+01  1.66449E+01  1.86621E+01  2.05537E+01
   2.17273E+01  2.18783E+01  2.16034E+01  2.12553E+01  2.07331E+01  1.99167E+01  1.91336E+01  1.90706E+01  1.96319E+01  2.05982E+01
   2.18402E+01  2.33297E+01  2.44891E+01  2.47707E+01  2.42981E+01  2.28169E+01  2.03486E+01  1.77969E+01  1.61257E+01  1.57214E+01
   1.57127E+01  1.64190E+01  1.87891E+01  2.25695E+01  2.58998E+01  2.70738E+01  2.62478E+01  2.45442E+01  2.19353E+01  1.80785E+01
   1.43893E+01  1.25720E+01  1.30798E+01  1.52369E+01  1.78416E+01  2.06222E+01  2.32608E+01  2.52106E+01  2.60067E+01  2.60286E+01
   2.61282E+01  2.62679E+01  2.60923E+01  2.60580E+01  2.67581E+01  2.78151E+01  2.86210E+01  2.88942E+01  2.85443E+01  2.75955E+01
   2.62362E+01  2.51456E+01  2.49251E+01  2.56253E+01  2.68292E+01  2.81287E+01  2.93913E+01  3.03972E+01  3.10352E+01  3.14873E+01
   3.22264E+01  3.34212E+01  3.63949E+01  4.52881E+01  5.25005E+01  5.45652E+01  6.31133E+01  8.56439E+01  1.13344E+02  1.30635E+02
   1.31389E+02  1.19988E+02  1.03805E+02  8.77591E+01  7.32139E+01  6.04828E+01  5.03806E+01  4.20998E+01  3.37517E+01  2.89503E+01
   2.78707E+01  2.76317E+01  2.76566E+01  2.77903E+01  2.78890E+01  2.79105E+01  2.78894E+01  2.78078E+01  2.76697E+01  2.75239E+01
   2.74090E+01  2.73155E+01  2.72488E+01  2.72237E+01  2.72287E+01  2.72508E+01  2.72888E+01  2.73486E+01  2.74374E+01  2.75505E+01
   2.76848E+01  2.78521E+01  2.80612E+01  2.83176E+01  2.86241E+01  2.89844E+01  2.94047E+01  2.98878E+01  3.04366E+01  3.10547E+01
   3.17421E+01  3.24943E+01  3.33050E+01  3.41662E+01  3.50682E+01  3.59989E+01  3.69449E+01  3.78928E+01  3.88314E+01  3.97522E+01
   4.06493E+01  4.15200E+01  4.23682E+01  4.32052E+01  4.40499E+01  4.49289E+01  4.58769E+01  4.69415E+01  4.82029E+01  4.98169E+01
   5.16034E+01  5.29090E+01  5.45402E+01  5.70702E+01  5.95962E+01  6.06573E+01  5.98689E+01  5.83155E+01  5.75662E+01  5.72917E+01
   5.69825E+01  5.74009E+01  5.95736E+01  6.31903E+01  6.67620E+01  6.93142E+01  7.08329E+01  7.12511E+01  7.09050E+01  7.01257E+01
   6.91115E+01  6.77127E+01  6.61390E+01  6.46814E+01  6.35344E+01  6.20409E+01  5.96631E+01  5.67314E+01  5.39648E+01  5.12637E+01
   4.85042E+01  4.60732E+01  4.44032E+01  4.33291E+01  4.22007E+01  4.06066E+01  3.86685E+01  3.64577E+01  3.40859E+01  3.16959E+01
   2.93892E+01  2.72629E+01  2.53044E+01  2.34485E+01  2.18790E+01  2.05882E+01  1.94972E+01  1.85640E+01  1.77598E+01  1.70626E+01
   1.64551E+01  1.59229E+01  1.54544E+01  1.50400E+01  1.46725E+01  1.43468E+01  1.40594E+01  1.38072E+01  1.35880E+01  1.34000E+01
   1.32424E+01  1.31155E+01  1.30193E+01  1.29540E+01  1.29197E+01  1.29167E+01  1.29460E+01  1.30084E+01  1.31045E+01  1.32342E+01
   1.33968E+01  1.35918E+01  1.38181E+01  1.40740E+01  1.43563E+01  1.46609E+01  1.49825E+01  1.53156E+01  1.56537E+01  1.59892E+01
   1.63135E+01  1.66176E+01  1.68923E+01  1.71294E+01  1.73209E+01  1.74594E+01  1.75383E+01  1.75527E+01  1.74996E+01  1.73782E+01
   1.71891E+01  1.69345E+01  1.66183E+01  1.62461E+01  1.58251E+01  1.53635E+01  1.48699E+01  1.43527E+01  1.38203E+01  1.32810E+01
   1.27431E+01  1.22135E+01  1.16980E+01  1.12014E+01  1.07273E+01  1.02790E+01  9.85873E+00  9.46768E+00  9.10601E+00  8.77323E+00
   8.46867E+00  8.19155E+00  7.94075E+00  7.71457E+00  7.51104E+00  7.32828E+00  7.16473E+00  7.01906E+00  6.88975E+00  6.77504E+00
   6.67324E+00  6.58301E+00  6.50340E+00  6.43357E+00  6.37243E+00  6.31877E+00  6.27154E+00  6.23012E+00  6.19410E+00  6.16301E+00
   6.13608E+00  6.11248E+00  6.09169E+00  6.07353E+00  6.05800E+00  6.04485E+00  6.03360E+00  6.02382E+00  6.01542E+00  6.00857E+00
   6.00329E+00  5.99933E+00  5.99629E+00  5.99398E+00  5.99253E+00  5.99215E+00  5.99279E+00  5.99417E+00  5.99599E+00  5.99826E+00
   6.00121E+00  6.00502E+00  6.00956E+00  6.01452E+00  6.01974E+00  6.02538E+00  6.03171E+00  6.03879E+00  6.04641E+00  6.05430E+00
   6.06246E+00  6.07114E+00  6.08058E+00  6.09073E+00  6.10131E+00  6.11217E+00  6.12344E+00  6.13543E+00  6.14827E+00  6.16180E+00
   6.17578E+00  6.19017E+00  6.20523E+00  6.22127E+00  6.23830E+00  6.25609E+00  6.27449E+00  6.29363E+00
 NY background values follow
     7.649E+01    7.588E+01    7.527E+01    7.465E+01    7.404E+01    7.343E+01    7.282E+01    7.220E+01    7.159E+01    7.098E+01
     7.037E+01    6.976E+01    6.915E+01    6.854E+01    6.794E+01    6.733E+01    6.673E+01    6.612E+01    6.552E+01    6.492E+01
     6.432E+01    6.373E+01    6.314E+01    6.254E+01    6.196E+01    6.137E+01    6.079E+01    6.021E+01    5.963E+01    5.905E+01
     5.848E+01    5.792E+01    5.735E+01    5.679E+01    5.623E+01    5.568E+01    5.513E+01    5.459E+01    5.405E+01    5.351E+01
     5.298E+01    5.245E+01    5.193E+01    5.141E+01    5.090E+01    5.039E+01    4.989E+01    4.940E+01    4.890E+01    4.842E+01
     4.794E+01    4.746E+01    4.699E+01    4.653E+01    4.607E+01    4.562E+01    4.517E+01    4.473E+01    4.429E+01    4.386E+01
     4.344E+01    4.302E+01    4.261E+01    4.220E+01    4.179E+01    4.140E+01    4.101E+01    4.062E+01    4.024E+01    3.987E+01
     3.950E+01    3.914E+01    3.878E+01    3.843E+01    3.808E+01    3.775E+01    3.741E+01    3.709E+01    3.676E+01    3.645E+01
     3.614E+01    3.584E+01    3.554E+01    3.525E+01    3.496E+01    3.468E+01    3.441E+01    3.414E+01    3.388E+01    3.363E+01
     3.338E+01    3.314E+01    3.290E+01    3.267E+01    3.245E+01    3.223E+01    3.201E+01    3.180E+01    3.160E+01    3.140E+01
     3.120E+01    3.101E+01    3.083E+01    3.064E+01    3.047E+01    3.029E+01    3.012E+01    2.995E+01    2.978E+01    2.962E+01
     2.946E+01    2.930E+01    2.915E+01    2.899E+01    2.884E+01    2.869E+01    2.854E+01    2.839E+01    2.825E+01    2.810E+01
     2.795E+01    2.781E+01    2.766E+01    2.752E+01    2.737E+01    2.723E+01    2.708E+01    2.694E+01    2.679E+01    2.664E+01
     2.649E+01    2.634E+01    2.618E+01    2.603E+01    2.587E+01    2.571E+01    2.555E+01    2.538E+01    2.522E+01    2.505E+01
     2.488E+01    2.470E+01    2.453E+01    2.435E+01    2.418E+01    2.400E+01    2.382E+01    2.364E+01    2.346E+01    2.328E+01
     2.309E+01    2.291E+01    2.273E+01    2.255E+01    2.237E+01    2.219E+01    2.201E+01    2.183E+01    2.165E+01    2.147E+01
     2.130E+01    2.112E+01    2.095E+01    2.078E+01    2.061E+01    2.045E+01    2.029E+01    2.013E+01    1.997E+01    1.981E+01
     1.966E+01    1.951E+01    1.937E+01    1.923E+01    1.909E+01    1.896E+01    1.883E+01    1.870E+01    1.858E+01    1.847E+01
     1.836E+01    1.825E+01    1.815E+01    1.805E+01    1.796E+01    1.788E+01    1.780E+01    1.772E+01    1.765E+01    1.759E+01
     1.752E+01    1.747E+01    1.742E+01    1.737E+01    1.733E+01    1.729E+01    1.726E+01    1.723E+01    1.720E+01    1.718E+01
     1.717E+01    1.716E+01    1.715E+01    1.715E+01    1.715E+01    1.716E+01    1.717E+01    1.718E+01    1.720E+01    1.722E+01
     1.725E+01    1.728E+01    1.732E+01    1.735E+01    1.740E+01    1.744E+01    1.749E+01    1.755E+01    1.760E+01    1.766E+01
     1.773E+01    1.780E+01    1.787E+01    1.794E+01    1.802E+01    1.810E+01    1.819E+01    1.828E+01    1.837E+01    1.846E+01
     1.856E+01    1.866E+01    1.876E+01    1.887E+01    1.897E+01    1.908E+01    1.920E+01    1.931E+01    1.942E+01    1.954E+01
     1.966E+01    1.978E+01    1.990E+01    2.002E+01    2.014E+01    2.026E+01    2.039E+01    2.051E+01    2.064E+01    2.076E+01
     2.088E+01    2.101E+01    2.113E+01    2.125E+01    2.138E+01    2.150E+01    2.162E+01    2.174E+01    2.185E+01    2.197E+01
     2.209E+01    2.220E+01    2.231E+01    2.242E+01    2.253E+01    2.263E+01    2.274E+01    2.284E+01    2.294E+01    2.303E+01
     2.312E+01    2.321E+01    2.330E+01    2.338E+01    2.346E+01    2.353E+01    2.360E+01    2.367E+01    2.374E+01    2.380E+01
     2.385E+01    2.391E+01    2.396E+01    2.400E+01    2.404E+01    2.408E+01    2.411E+01    2.414E+01    2.417E+01    2.419E+01
     2.420E+01    2.422E+01    2.422E+01    2.423E+01    2.423E+01    2.422E+01    2.421E+01    2.419E+01    2.417E+01    2.415E+01
     2.412E+01    2.408E+01    2.404E+01    2.400E+01    2.395E+01    2.389E+01    2.383E+01    2.377E+01    2.369E+01    2.362E+01
     2.354E+01    2.345E+01    2.336E+01    2.326E+01    2.315E+01    2.304E+01    2.293E+01    2.280E+01    2.268E+01    2.254E+01
     2.240E+01    2.226E+01    2.211E+01    2.196E+01    2.180E+01    2.164E+01    2.147E+01    2.130E+01    2.112E+01    2.094E+01
     2.076E+01    2.057E+01    2.038E+01    2.018E+01    1.999E+01    1.979E+01    1.958E+01    1.938E+01    1.917E+01    1.896E+01
     1.875E+01    1.853E+01    1.832E+01    1.810E+01    1.788E+01    1.766E+01    1.744E+01    1.722E+01    1.700E+01    1.677E+01
     1.655E+01    1.632E+01    1.610E+01    1.588E+01    1.565E+01    1.543E+01    1.520E+01    1.498E+01    1.476E+01    1.454E+01
     1.432E+01    1.410E+01    1.389E+01    1.367E+01    1.346E+01    1.325E+01    1.304E+01    1.283E+01    1.263E+01    1.242E+01
     1.222E+01    1.202E+01    1.183E+01    1.163E+01    1.144E+01    1.125E+01    1.107E+01    1.088E+01    1.070E+01    1.052E+01
     1.034E+01    1.017E+01    1.000E+01    9.834E+00    9.670E+00    9.509E+00    9.351E+00    9.196E+00    9.045E+00    8.897E+00
     8.752E+00    8.611E+00    8.474E+00    8.340E+00    8.210E+00    8.084E+00    7.961E+00    7.843E+00    7.728E+00    7.618E+00
     7.511E+00    7.409E+00    7.311E+00    7.217E+00    7.128E+00    7.043E+00    6.963E+00    6.887E+00    6.816E+00    6.749E+00
     6.687E+00    6.628E+00    6.574E+00    6.524E+00    6.478E+00    6.435E+00    6.397E+00    6.361E+00    6.329E+00    6.301E+00
     6.276E+00    6.253E+00    6.234E+00    6.218E+00    6.204E+00    6.193E+00    6.185E+00    6.179E+00    6.175E+00    6.173E+00
     6.174E+00    6.176E+00    6.181E+00    6.187E+00    6.194E+00    6.204E+00    6.214E+00    6.226E+00    6.239E+00    6.253E+00
     6.268E+00    6.284E+00    6.301E+00    6.318E+00    6.335E+00    6.354E+00    6.372E+00    6.390E+00    6.409E+00    6.427E+00
     6.446E+00    6.463E+00    6.481E+00    6.498E+00    6.515E+00    6.531E+00    6.547E+00    6.562E+00    6.577E+00    6.591E+00
     6.605E+00    6.619E+00    6.633E+00    6.646E+00    6.659E+00    6.672E+00    6.684E+00    6.697E+00    6.709E+00    6.721E+00
     6.732E+00    6.744E+00    6.756E+00    6.767E+00    6.779E+00    6.790E+00    6.801E+00    6.813E+00    6.824E+00    6.836E+00
     6.847E+00    6.859E+00    6.870E+00    6.882E+00    6.894E+00    6.906E+00    6.918E+00    6.931E+00    6.944E+00    6.957E+00
     6.970E+00    6.983E+00    6.997E+00    7.012E+00    7.026E+00    7.041E+00    7.056E+00    7.072E+00
 Ala      Conc. = 6.31E+02
