 LCModel (Version 6.3-1L) Copyright: S.W. Provencher.          Ref.: Magn. Reson. Med. 30:672-679 (1993).                
 Slice#3 Row#8 Col#9  K_02_press_1_raw_act
 36 lines in following concentration table = NCONC+1
    Conc.  %SD /Cr+PCr  Metabolite                                         
    0.000 999%   0.000 Ala                                                 
    0.000 999%   0.000 Asp                                                 
  701.982  27%   0.349 Cr                                                  
 1.31E+03  16%   0.651 PCr                                                 
    0.000 999%   0.000 GABA                                                
   18.333 999% 9.1E-03 Glc                                                 
  279.228  69%   0.139 Gln                                                 
 1.76E+03  13%   0.872 Glu                                                 
  743.363   4%   0.369 GPC                                                 
    0.000 999%   0.000 PCh                                                 
  467.973  16%   0.232 GSH                                                 
 1.24E+03  20%   0.613 Ins                                                 
    8.514 999% 4.2E-03 Lac                                                 
 2.35E+03   5%   1.165 NAA                                                 
  810.174  12%   0.402 NAAG                                                
   92.184  33% 4.6E-02 Scyllo                                              
   87.163 266% 4.3E-02 Tau                                                 
   36.522 339% 1.8E-02 -CrCH2                                              
  743.363   4%   0.369 GPC+PCh                                             
 3.16E+03   3%   1.567 NAA+NAAG                                            
 2.01E+03   4%   1.000 Cr+PCr                                              
 2.04E+03  14%   1.010 Glu+Gln                                             
 2.20E+03  38%   1.094 Lip13a                                              
  115.196 288% 5.7E-02 Lip13b                                              
  284.223 126%   0.141 Lip09                                               
 1.24E+03  31%   0.616 MM09                                                
  355.784  72%   0.177 Lip20                                               
 2.73E+03  19%   1.357 MM20                                                
  401.109  55%   0.199 MM12                                                
  747.957  60%   0.371 MM14                                                
  901.038  32%   0.447 MM17                                                
 2.32E+03  30%   1.151 Lip13a+Lip13b                                       
 3.47E+03  18%   1.721 MM14+Lip13a+Lip13b+MM12                             
 1.53E+03  18%   0.758 MM09+Lip09                                          
 3.09E+03  17%   1.533 MM20+Lip20                                          
   6 lines in following misc. output table
  FWHM = 0.038 ppm    S/N =  14                                            
  Data shift = 0.015 ppm                                                   
  Ph: -34 deg     -11.4 deg/ppm                                            
  alphaB,S = 1.5E+00,   2.6E+01                                            
   14 spline knots.   Ns = 5(1)                                            
  (10) 5 infls.   ( 7) 1 extrs.                                            
  498 points on ppm-axis = NY
      4.000000     3.992357     3.984714     3.977070     3.969427     3.961784     3.954141     3.946497     3.938854     3.931211
      3.923568     3.915925     3.908281     3.900638     3.892995     3.885352     3.877708     3.870065     3.862422     3.854779
      3.847136     3.839492     3.831849     3.824206     3.816563     3.808919     3.801276     3.793633     3.785990     3.778347
      3.770703     3.763060     3.755417     3.747774     3.740130     3.732487     3.724844     3.717201     3.709558     3.701914
      3.694271     3.686628     3.678985     3.671341     3.663698     3.656055     3.648412     3.640769     3.633125     3.625482
      3.617839     3.610196     3.602552     3.594909     3.587266     3.579623     3.571980     3.564336     3.556693     3.549050
      3.541407     3.533763     3.526120     3.518477     3.510834     3.503191     3.495547     3.487904     3.480261     3.472618
      3.464974     3.457331     3.449688     3.442045     3.434402     3.426758     3.419115     3.411472     3.403829     3.396185
      3.388542     3.380899     3.373256     3.365613     3.357969     3.350326     3.342683     3.335040     3.327396     3.319753
      3.312110     3.304467     3.296824     3.289180     3.281537     3.273894     3.266251     3.258607     3.250964     3.243321
      3.235678     3.228034     3.220391     3.212748     3.205105     3.197462     3.189818     3.182175     3.174532     3.166889
      3.159245     3.151602     3.143959     3.136316     3.128673     3.121029     3.113386     3.105743     3.098100     3.090456
      3.082813     3.075170     3.067527     3.059884     3.052240     3.044597     3.036954     3.029311     3.021667     3.014024
      3.006381     2.998738     2.991095     2.983451     2.975808     2.968165     2.960522     2.952878     2.945235     2.937592
      2.929949     2.922306     2.914662     2.907019     2.899376     2.891733     2.884089     2.876446     2.868803     2.861160
      2.853517     2.845873     2.838230     2.830587     2.822944     2.815300     2.807657     2.800014     2.792371     2.784728
      2.777084     2.769441     2.761798     2.754155     2.746511     2.738868     2.731225     2.723582     2.715939     2.708295
      2.700652     2.693009     2.685366     2.677722     2.670079     2.662436     2.654793     2.647150     2.639506     2.631863
      2.624220     2.616577     2.608933     2.601290     2.593647     2.586004     2.578361     2.570717     2.563074     2.555431
      2.547788     2.540144     2.532501     2.524858     2.517215     2.509572     2.501928     2.494285     2.486642     2.478999
      2.471355     2.463712     2.456069     2.448426     2.440783     2.433139     2.425496     2.417853     2.410210     2.402566
      2.394923     2.387280     2.379637     2.371994     2.364350     2.356707     2.349064     2.341421     2.333777     2.326134
      2.318491     2.310848     2.303205     2.295561     2.287918     2.280275     2.272632     2.264988     2.257345     2.249702
      2.242059     2.234416     2.226772     2.219129     2.211486     2.203843     2.196199     2.188556     2.180913     2.173270
      2.165627     2.157983     2.150340     2.142697     2.135054     2.127410     2.119767     2.112124     2.104481     2.096838
      2.089194     2.081551     2.073908     2.066265     2.058621     2.050978     2.043335     2.035692     2.028049     2.020405
      2.012762     2.005119     1.997476     1.989833     1.982190     1.974546     1.966903     1.959260     1.951617     1.943974
      1.936331     1.928688     1.921045     1.913402     1.905759     1.898115     1.890472     1.882829     1.875186     1.867543
      1.859900     1.852257     1.844614     1.836971     1.829327     1.821684     1.814041     1.806398     1.798755     1.791112
      1.783469     1.775826     1.768183     1.760540     1.752896     1.745253     1.737610     1.729967     1.722324     1.714681
      1.707038     1.699395     1.691752     1.684108     1.676465     1.668822     1.661179     1.653536     1.645893     1.638250
      1.630607     1.622964     1.615321     1.607677     1.600034     1.592391     1.584748     1.577105     1.569462     1.561819
      1.554176     1.546533     1.538890     1.531246     1.523603     1.515960     1.508317     1.500674     1.493031     1.485388
      1.477745     1.470102     1.462458     1.454815     1.447172     1.439529     1.431886     1.424243     1.416600     1.408957
      1.401314     1.393671     1.386027     1.378384     1.370741     1.363098     1.355455     1.347812     1.340169     1.332526
      1.324883     1.317240     1.309596     1.301953     1.294310     1.286667     1.279024     1.271381     1.263738     1.256095
      1.248452     1.240808     1.233165     1.225522     1.217879     1.210236     1.202593     1.194950     1.187307     1.179664
      1.172021     1.164377     1.156734     1.149091     1.141448     1.133805     1.126162     1.118519     1.110876     1.103233
      1.095590     1.087946     1.080303     1.072660     1.065017     1.057374     1.049731     1.042088     1.034445     1.026802
      1.019158     1.011515     1.003872     0.996229     0.988586     0.980943     0.973300     0.965657     0.958014     0.950371
      0.942727     0.935084     0.927441     0.919798     0.912155     0.904512     0.896869     0.889226     0.881583     0.873940
      0.866296     0.858653     0.851010     0.843367     0.835724     0.828081     0.820438     0.812795     0.805152     0.797508
      0.789865     0.782222     0.774579     0.766936     0.759293     0.751650     0.744007     0.736364     0.728721     0.721077
      0.713434     0.705791     0.698148     0.690505     0.682862     0.675219     0.667576     0.659933     0.652290     0.644646
      0.637003     0.629360     0.621717     0.614074     0.606431     0.598788     0.591145     0.583502     0.575858     0.568215
      0.560572     0.552929     0.545286     0.537643     0.530000     0.522357     0.514714     0.507071     0.499427     0.491784
      0.484141     0.476498     0.468855     0.461212     0.453569     0.445925     0.438282     0.430639     0.422996     0.415353
      0.407710     0.400067     0.392424     0.384780     0.377137     0.369494     0.361851     0.354208     0.346565     0.338922
      0.331278     0.323635     0.315992     0.308349     0.300706     0.293063     0.285420     0.277777     0.270133     0.262490
      0.254847     0.247204     0.239561     0.231918     0.224275     0.216631     0.208988     0.201345
 NY phased data points follow
  -5.70501E+01 -5.13158E+01 -4.71217E+01 -4.41009E+01 -3.96069E+01 -2.97290E+01 -2.72816E+01 -9.78489E+00  2.52846E+00  7.54589E+00
   1.86180E+01  1.50876E+01 -4.90056E+00 -1.52818E+01 -1.82316E+01 -3.62120E+01 -3.61698E+01 -3.93412E+01 -3.84838E+01 -4.04275E+01
  -3.60779E+01 -3.94981E+01 -3.79895E+01 -3.45270E+01 -3.08656E+01 -2.53269E+01 -3.15003E+01 -3.54055E+01 -2.28617E+01 -2.11501E+01
  -2.74929E+01 -1.74908E+01 -1.98652E+01 -2.31356E+01 -2.54082E+01 -3.16009E+01 -3.24249E+01 -2.64189E+01 -2.59769E+01 -2.72678E+01
  -2.63230E+01 -2.52104E+01 -2.72233E+01 -2.46223E+01 -1.50825E+01 -1.01133E+01 -1.47483E+01 -3.94297E+00 -1.12693E+01 -1.31479E+01
  -1.88133E+01 -2.19767E+01 -1.79686E+01 -1.77427E+01 -1.68523E+01 -1.95748E+01 -1.71493E+01 -1.86141E+01 -1.98551E+01 -2.06254E+01
  -2.48699E+01 -2.79836E+01 -2.87509E+01 -2.78492E+01 -3.08383E+01 -3.25230E+01 -2.52689E+01 -2.69479E+01 -2.92443E+01 -2.16937E+01
  -2.48405E+01 -1.65588E+01 -2.25727E+01 -2.25382E+01 -2.06621E+01 -1.93078E+01 -2.09093E+01 -1.96570E+01 -1.96423E+01 -1.93503E+01
  -2.13004E+01 -1.61250E+01 -1.27941E+01 -1.50084E+01 -1.64580E+01 -1.58640E+01 -1.46690E+01 -1.31777E+01 -1.51896E+01 -6.17386E+00
  -1.00202E+01 -9.68199E+00 -1.08976E+01 -9.38410E+00 -5.41293E+00 -3.69299E+00 -6.01517E+00  3.52704E+00  5.05524E+00  1.02511E+01
   3.00331E+01  5.57186E+01  7.17498E+01  7.34371E+01  5.85517E+01  3.93906E+01  2.79299E+01  9.64755E+00  7.83613E+00 -3.14514E+00
  -3.77348E+00 -6.16081E+00 -3.61929E+00 -7.99729E+00 -7.44191E+00 -3.27114E+00 -4.02420E+00 -9.42022E+00  8.11068E-01  8.86042E-01
  -5.04930E-01  3.87151E+00  4.60752E+00  9.12489E+00  2.59343E+01  5.38479E+01  7.01403E+01  8.17906E+01  6.64316E+01  5.58966E+01
   3.39948E+01  2.20157E+01  1.11171E+01  5.60526E+00  3.84117E+00  3.67588E-02 -4.15266E+00 -2.43488E+00 -8.38950E+00 -4.34006E+00
  -6.97674E+00 -3.76267E+00 -9.21590E-01 -5.38508E+00 -2.91870E+00 -1.35660E+00  8.13838E-01  2.53611E+00 -2.32891E+00 -3.61798E+00
  -1.24427E+00 -4.10914E-01 -5.76605E+00 -5.80669E+00 -9.14816E+00 -3.94509E+00 -8.96917E+00 -7.19150E+00  1.08243E+00  5.92470E+00
  -5.73606E+00 -1.05595E+01 -1.33025E+01 -5.98567E+00  3.77258E-02  1.44905E-01 -1.25434E+00 -2.77904E+00 -2.62855E+00 -6.57762E+00
  -1.00995E+01 -8.57661E+00 -9.92643E+00 -1.19529E+01 -1.83690E+01 -1.51585E+01 -1.53100E+01 -1.54390E+01 -7.33909E+00 -6.61192E+00
  -1.11271E+01 -1.85008E+01 -1.53673E+01 -1.42816E+01 -1.34146E+01 -1.08557E+01 -1.42713E+01 -6.30168E+00  1.66449E+00  5.74182E+00
   1.09525E+01  9.49309E+00  9.80979E+00  7.19453E+00  1.29842E+01  1.17311E+01  8.40803E+00  5.78337E+00  3.36764E+00 -3.04829E+00
  -4.52075E-01  4.86831E+00  3.12567E+00  6.69974E+00  9.74678E+00  3.84708E+00 -1.23264E+00 -5.73931E-01 -2.33530E+00 -4.08720E+00
  -4.01926E+00 -1.68971E+00  6.03207E+00  4.17747E+00  1.61543E+01  2.19174E+01  1.70000E+01  1.96280E+01  1.97589E+01  8.84197E+00
   3.25289E+00 -1.31428E+00 -5.73982E+00 -1.94943E+00  6.15803E+00  1.11697E+01  1.30419E+01  1.55760E+01  2.07801E+01  2.04258E+01
   2.00875E+01  1.23871E+01  1.50878E+01  2.08970E+01  1.47218E+01  1.93755E+01  1.58884E+01  1.32384E+01  1.81100E+01  1.30974E+01
   8.99971E+00  3.69324E+00  3.05750E+00  7.57629E+00  1.10195E+01  1.96896E+01  1.71842E+01  1.74617E+01  2.49520E+01  2.37649E+01
   2.43219E+01  2.39644E+01  2.92390E+01  3.99249E+01  6.14036E+01  7.06525E+01  5.98110E+01  6.71760E+01  9.22398E+01  1.27274E+02
   1.35659E+02  1.23329E+02  9.27321E+01  6.66378E+01  4.90510E+01  3.65351E+01  2.65698E+01  2.29846E+01  1.93652E+01  2.15888E+01
   2.24613E+01  1.83214E+01  1.86299E+01  1.72386E+01  1.91881E+01  1.69436E+01  1.75104E+01  1.61862E+01  1.38675E+01  1.36270E+01
   1.50641E+01  1.37775E+01  1.66581E+01  1.22085E+01  1.39110E+01  1.56782E+01  1.57877E+01  1.56978E+01  1.26941E+01  1.28899E+01
   1.46188E+01  1.38435E+01  1.31246E+01  1.72543E+01  1.72757E+01  2.02992E+01  1.41206E+01  1.80470E+01  1.83604E+01  1.87248E+01
   2.13294E+01  1.87481E+01  2.45931E+01  2.42845E+01  2.12898E+01  1.69327E+01  1.53419E+01  2.23827E+01  1.52855E+01  1.80570E+01
   1.70863E+01  1.66672E+01  1.82629E+01  1.94189E+01  1.69348E+01  1.59450E+01  1.71489E+01  1.71333E+01  1.26306E+01  1.21268E+01
   1.34608E+01  1.32948E+01  1.32754E+01  1.05281E+01  8.78209E+00  1.78142E+01  1.98132E+01  1.33863E+01  1.61317E+01  1.95073E+01
   2.05029E+01  1.95507E+01  2.11808E+01  1.72811E+01  2.71519E+01  2.38417E+01  2.19961E+01  1.72613E+01  2.25828E+01  2.24832E+01
   2.67353E+01  1.61041E+01  2.19394E+01  2.12480E+01  2.72279E+01  2.45768E+01  2.79876E+01  2.62874E+01  2.67739E+01  2.69269E+01
   2.56078E+01  3.00137E+01  2.84952E+01  2.68081E+01  3.22907E+01  2.63910E+01  3.01574E+01  2.63821E+01  2.83375E+01  2.88866E+01
   2.78757E+01  2.88073E+01  3.14050E+01  2.76648E+01  2.09659E+01  2.38042E+01  2.15260E+01  2.61356E+01  2.01629E+01  1.87792E+01
   2.44808E+01  2.92339E+01  2.54057E+01  2.82556E+01  2.43306E+01  1.88760E+01  1.93643E+01  1.96092E+01  2.39641E+01  1.72955E+01
   2.27549E+01  2.26561E+01  1.82625E+01  2.23552E+01  1.51859E+01  1.84579E+01  1.75659E+01  2.48529E+01  2.00752E+01  2.20821E+01
   2.10904E+01  2.39031E+01  2.04200E+01  2.65349E+01  2.70572E+01  2.57355E+01  2.34297E+01  2.26337E+01  2.73785E+01  2.44657E+01
   2.50836E+01  2.50644E+01  2.24979E+01  2.19859E+01  2.12819E+01  2.06331E+01  2.41378E+01  2.76298E+01  2.60671E+01  2.84680E+01
   2.30305E+01  2.41001E+01  3.03630E+01  2.66092E+01  2.38394E+01  2.96162E+01  2.50562E+01  2.94945E+01  2.98614E+01  2.47399E+01
   2.32101E+01  2.22435E+01  2.12187E+01  2.14270E+01  2.12223E+01  2.61325E+01  1.66265E+01  2.08441E+01  1.82517E+01  2.06802E+01
   2.04413E+01  1.72020E+01  1.85631E+01  1.98433E+01  1.79436E+01  2.29082E+01  1.57751E+01  1.89019E+01  2.00600E+01  2.08479E+01
   1.50328E+01  2.01817E+01  1.53892E+01  1.67147E+01  2.17638E+01  2.01010E+01  2.01608E+01  1.89681E+01  1.69992E+01  2.06165E+01
   2.00738E+01  1.31279E+01  2.09280E+01  1.97590E+01  1.73141E+01  2.06219E+01  1.39472E+01  1.95246E+01  2.01482E+01  1.49682E+01
   2.14136E+01  1.30587E+01  1.81423E+01  1.28356E+01  1.73550E+01  1.76561E+01  1.44630E+01  1.83716E+01  2.15494E+01  2.36637E+01
   1.74291E+01  1.71039E+01  1.59241E+01  1.81496E+01  2.09458E+01  1.67149E+01  2.14636E+01  2.11389E+01  2.16032E+01  1.98841E+01
   2.06810E+01  2.28133E+01  1.71384E+01  2.48538E+01  1.52808E+01  1.50485E+01  2.02762E+01  1.63400E+01  1.91280E+01  1.58490E+01
   1.96568E+01  1.85279E+01  2.20298E+01  1.53875E+01  2.05230E+01  1.70551E+01  1.79698E+01  2.08079E+01
 NY points of the fit to the data follow
  -4.43660E+01 -4.38143E+01 -4.27849E+01 -4.09658E+01 -3.73111E+01 -3.23041E+01 -2.56219E+01 -1.37261E+01  2.05005E+00  1.40089E+01
   1.59474E+01  8.50390E+00 -3.06071E+00 -1.37990E+01 -2.16059E+01 -2.71771E+01 -3.12676E+01 -3.36511E+01 -3.47074E+01 -3.51198E+01
  -3.51315E+01 -3.50915E+01 -3.52030E+01 -3.55197E+01 -3.50138E+01 -3.38578E+01 -3.38696E+01 -3.22283E+01 -2.75046E+01 -2.24631E+01
  -1.92945E+01 -1.83792E+01 -1.86432E+01 -2.01066E+01 -2.25514E+01 -2.53076E+01 -2.83491E+01 -3.03539E+01 -3.09609E+01 -3.07220E+01
  -2.94137E+01 -2.72426E+01 -2.52501E+01 -2.37325E+01 -2.11026E+01 -1.70856E+01 -1.41111E+01 -1.38275E+01 -1.59436E+01 -1.89975E+01
  -2.16551E+01 -2.36029E+01 -2.50030E+01 -2.56506E+01 -2.54402E+01 -2.49098E+01 -2.40198E+01 -2.26806E+01 -2.11744E+01 -2.00546E+01
  -1.98805E+01 -2.06265E+01 -2.17849E+01 -2.28364E+01 -2.33010E+01 -2.32260E+01 -2.25195E+01 -2.16148E+01 -2.07568E+01 -1.97716E+01
  -1.87662E+01 -1.80891E+01 -1.78851E+01 -1.78794E+01 -1.78571E+01 -1.78679E+01 -1.78981E+01 -1.79899E+01 -1.80554E+01 -1.79415E+01
  -1.76174E+01 -1.70789E+01 -1.62852E+01 -1.57622E+01 -1.44851E+01 -1.27757E+01 -1.20316E+01 -1.25891E+01 -1.36986E+01 -1.45025E+01
  -1.46100E+01 -1.41331E+01 -1.35947E+01 -1.30113E+01 -1.21592E+01 -1.13239E+01 -1.00107E+01 -6.04457E+00  1.14547E+00  9.19923E+00
   2.87708E+01  5.66719E+01  7.52565E+01  7.49558E+01  5.99106E+01  4.01592E+01  2.32135E+01  1.09658E+01  1.82191E+00 -5.25993E+00
  -8.35462E+00 -9.15866E+00 -9.31758E+00 -9.24544E+00 -9.07072E+00 -8.82800E+00 -8.50088E+00 -8.13580E+00 -7.72149E+00 -7.11404E+00
  -5.98708E+00 -3.02566E+00  3.74024E+00  1.07158E+01  2.49477E+01  5.13528E+01  7.48230E+01  8.09836E+01  7.00389E+01  5.12615E+01
   3.36301E+01  2.11326E+01  1.23122E+01  4.22770E+00 -1.58409E+00 -4.62837E+00 -6.38164E+00 -6.81350E+00 -6.20554E+00 -4.83857E+00
  -3.28895E+00 -2.12771E+00 -1.67420E+00 -1.79257E+00 -2.14445E+00 -2.55782E+00 -2.87971E+00 -3.06634E+00 -3.24447E+00 -3.41722E+00
  -3.56497E+00 -3.83618E+00 -4.22303E+00 -4.42831E+00 -4.28554E+00 -3.81281E+00 -3.28834E+00 -2.82558E+00 -3.14138E+00 -4.32832E+00
  -5.40089E+00 -5.88930E+00 -5.17695E+00 -3.79116E+00 -3.11522E+00 -3.52418E+00 -4.48742E+00 -5.52811E+00 -6.19289E+00 -6.28389E+00
  -6.07643E+00 -5.95890E+00 -6.06737E+00 -6.65332E+00 -7.86799E+00 -8.46391E+00 -7.89980E+00 -6.54353E+00 -5.53633E+00 -5.74969E+00
  -6.46901E+00 -6.40847E+00 -5.57845E+00 -4.49461E+00 -4.13583E+00 -4.26514E+00 -3.54923E+00 -1.41606E+00  1.42532E+00  4.22651E+00
   6.25322E+00  6.92626E+00  6.36086E+00  5.01870E+00  3.94734E+00  2.85609E+00  1.79445E+00  1.41767E+00  2.06734E+00  3.45743E+00
   4.85155E+00  6.49445E+00  8.24467E+00  9.50910E+00  9.98730E+00  8.73049E+00  6.61790E+00  3.97980E+00  1.09778E+00 -6.54462E-01
  -1.27422E+00 -4.56738E-01  1.58636E+00  5.54131E+00  1.15883E+01  1.64642E+01  1.76149E+01  1.48242E+01  1.00783E+01  5.11603E+00
  -2.96241E-01 -5.30685E+00 -7.01723E+00 -4.26281E+00  1.19582E+00  6.65287E+00  1.07228E+01  1.33354E+01  1.47364E+01  1.46377E+01
   1.33430E+01  1.22033E+01  1.24291E+01  1.36070E+01  1.49579E+01  1.63882E+01  1.74739E+01  1.76923E+01  1.65164E+01  1.45628E+01
   1.24853E+01  1.09873E+01  1.08191E+01  1.25194E+01  1.53385E+01  1.80466E+01  1.99999E+01  2.10794E+01  2.13015E+01  2.12266E+01
   2.26647E+01  2.49454E+01  2.94116E+01  4.05924E+01  5.39985E+01  6.60957E+01  6.96414E+01  7.24160E+01  9.56227E+01  1.24594E+02
   1.34984E+02  1.21336E+02  9.54385E+01  7.06294E+01  5.21098E+01  3.91401E+01  2.81863E+01  2.05112E+01  1.80962E+01  1.70955E+01
   1.64277E+01  1.60211E+01  1.60322E+01  1.61571E+01  1.60784E+01  1.57185E+01  1.52525E+01  1.48732E+01  1.45988E+01  1.43286E+01
   1.41789E+01  1.42091E+01  1.43552E+01  1.44918E+01  1.45621E+01  1.45847E+01  1.46332E+01  1.46908E+01  1.47660E+01  1.49657E+01
   1.53401E+01  1.58074E+01  1.62819E+01  1.67084E+01  1.70926E+01  1.74366E+01  1.77022E+01  1.79072E+01  1.81105E+01  1.83364E+01
   1.85605E+01  1.87509E+01  1.88839E+01  1.89495E+01  1.89500E+01  1.88834E+01  1.87502E+01  1.85685E+01  1.83509E+01  1.81103E+01
   1.78579E+01  1.76016E+01  1.73497E+01  1.71119E+01  1.68984E+01  1.67169E+01  1.65716E+01  1.64648E+01  1.63986E+01  1.63752E+01
   1.63955E+01  1.64579E+01  1.65596E+01  1.66974E+01  1.68694E+01  1.70736E+01  1.73077E+01  1.75679E+01  1.78501E+01  1.81515E+01
   1.84705E+01  1.88057E+01  1.91552E+01  1.95163E+01  1.98874E+01  2.02676E+01  2.06577E+01  2.10581E+01  2.14684E+01  2.18885E+01
   2.23193E+01  2.27639E+01  2.32269E+01  2.37000E+01  2.41934E+01  2.47119E+01  2.52136E+01  2.56773E+01  2.61207E+01  2.65678E+01
   2.70315E+01  2.74809E+01  2.79015E+01  2.82996E+01  2.86472E+01  2.88903E+01  2.89883E+01  2.89386E+01  2.87600E+01  2.84757E+01
   2.81055E+01  2.76638E+01  2.71739E+01  2.66574E+01  2.61274E+01  2.55946E+01  2.50670E+01  2.45500E+01  2.40480E+01  2.35652E+01
   2.31050E+01  2.26700E+01  2.22622E+01  2.18835E+01  2.15364E+01  2.12234E+01  2.09465E+01  2.07068E+01  2.05048E+01  2.03411E+01
   2.02169E+01  2.01334E+01  2.00911E+01  2.00900E+01  2.01301E+01  2.02120E+01  2.03366E+01  2.05044E+01  2.07152E+01  2.09681E+01
   2.12617E+01  2.15947E+01  2.19653E+01  2.23701E+01  2.28040E+01  2.32608E+01  2.37336E+01  2.42148E+01  2.46956E+01  2.51660E+01
   2.56152E+01  2.60320E+01  2.64065E+01  2.67295E+01  2.69925E+01  2.71879E+01  2.73099E+01  2.73552E+01  2.73231E+01  2.72153E+01
   2.70350E+01  2.67871E+01  2.64785E+01  2.61176E+01  2.57145E+01  2.52791E+01  2.48213E+01  2.43501E+01  2.38746E+01  2.34032E+01
   2.29435E+01  2.25012E+01  2.20807E+01  2.16849E+01  2.13162E+01  2.09763E+01  2.06658E+01  2.03840E+01  2.01297E+01  1.99012E+01
   1.96972E+01  1.95163E+01  1.93566E+01  1.92158E+01  1.90917E+01  1.89825E+01  1.88871E+01  1.88041E+01  1.87322E+01  1.86696E+01
   1.86151E+01  1.85679E+01  1.85276E+01  1.84936E+01  1.84650E+01  1.84407E+01  1.84202E+01  1.84036E+01  1.83906E+01  1.83810E+01
   1.83740E+01  1.83690E+01  1.83662E+01  1.83656E+01  1.83672E+01  1.83707E+01  1.83755E+01  1.83814E+01  1.83886E+01  1.83973E+01
   1.84075E+01  1.84186E+01  1.84303E+01  1.84427E+01  1.84561E+01  1.84706E+01  1.84860E+01  1.85018E+01  1.85179E+01  1.85345E+01
   1.85520E+01  1.85703E+01  1.85890E+01  1.86079E+01  1.86270E+01  1.86466E+01  1.86669E+01  1.86877E+01  1.87087E+01  1.87297E+01
   1.87509E+01  1.87726E+01  1.87949E+01  1.88174E+01  1.88400E+01  1.88625E+01  1.88852E+01  1.89085E+01  1.89322E+01  1.89559E+01
   1.89796E+01  1.90032E+01  1.90272E+01  1.90516E+01  1.90763E+01  1.91009E+01  1.91253E+01  1.91499E+01
 NY background values follow
    -4.915E+01   -4.876E+01   -4.838E+01   -4.800E+01   -4.762E+01   -4.723E+01   -4.685E+01   -4.647E+01   -4.609E+01   -4.570E+01
    -4.532E+01   -4.494E+01   -4.456E+01   -4.418E+01   -4.380E+01   -4.342E+01   -4.304E+01   -4.266E+01   -4.228E+01   -4.190E+01
    -4.152E+01   -4.114E+01   -4.076E+01   -4.039E+01   -4.001E+01   -3.963E+01   -3.926E+01   -3.888E+01   -3.851E+01   -3.814E+01
    -3.776E+01   -3.739E+01   -3.702E+01   -3.665E+01   -3.628E+01   -3.591E+01   -3.555E+01   -3.518E+01   -3.482E+01   -3.445E+01
    -3.409E+01   -3.373E+01   -3.336E+01   -3.300E+01   -3.264E+01   -3.229E+01   -3.193E+01   -3.158E+01   -3.122E+01   -3.087E+01
    -3.052E+01   -3.017E+01   -2.982E+01   -2.947E+01   -2.912E+01   -2.878E+01   -2.844E+01   -2.810E+01   -2.776E+01   -2.742E+01
    -2.708E+01   -2.675E+01   -2.641E+01   -2.608E+01   -2.575E+01   -2.542E+01   -2.509E+01   -2.477E+01   -2.445E+01   -2.412E+01
    -2.380E+01   -2.349E+01   -2.317E+01   -2.286E+01   -2.255E+01   -2.224E+01   -2.193E+01   -2.162E+01   -2.132E+01   -2.102E+01
    -2.072E+01   -2.042E+01   -2.012E+01   -1.983E+01   -1.954E+01   -1.925E+01   -1.896E+01   -1.868E+01   -1.840E+01   -1.812E+01
    -1.784E+01   -1.757E+01   -1.729E+01   -1.702E+01   -1.676E+01   -1.649E+01   -1.623E+01   -1.597E+01   -1.571E+01   -1.545E+01
    -1.520E+01   -1.495E+01   -1.470E+01   -1.446E+01   -1.421E+01   -1.397E+01   -1.373E+01   -1.349E+01   -1.326E+01   -1.303E+01
    -1.280E+01   -1.257E+01   -1.234E+01   -1.212E+01   -1.190E+01   -1.168E+01   -1.147E+01   -1.125E+01   -1.104E+01   -1.083E+01
    -1.063E+01   -1.042E+01   -1.022E+01   -1.002E+01   -9.819E+00   -9.623E+00   -9.430E+00   -9.238E+00   -9.049E+00   -8.862E+00
    -8.677E+00   -8.495E+00   -8.314E+00   -8.136E+00   -7.960E+00   -7.786E+00   -7.615E+00   -7.445E+00   -7.278E+00   -7.112E+00
    -6.949E+00   -6.787E+00   -6.628E+00   -6.470E+00   -6.314E+00   -6.159E+00   -6.007E+00   -5.856E+00   -5.706E+00   -5.558E+00
    -5.412E+00   -5.267E+00   -5.123E+00   -4.980E+00   -4.839E+00   -4.699E+00   -4.560E+00   -4.422E+00   -4.285E+00   -4.150E+00
    -4.015E+00   -3.881E+00   -3.747E+00   -3.615E+00   -3.483E+00   -3.352E+00   -3.222E+00   -3.092E+00   -2.962E+00   -2.833E+00
    -2.705E+00   -2.576E+00   -2.448E+00   -2.321E+00   -2.193E+00   -2.066E+00   -1.938E+00   -1.811E+00   -1.684E+00   -1.556E+00
    -1.429E+00   -1.301E+00   -1.173E+00   -1.045E+00   -9.163E-01   -7.878E-01   -6.592E-01   -5.305E-01   -4.017E-01   -2.728E-01
    -1.440E-01   -1.513E-02    1.137E-01    2.425E-01    3.711E-01    4.997E-01    6.282E-01    7.564E-01    8.846E-01    1.012E+00
     1.140E+00    1.268E+00    1.395E+00    1.521E+00    1.648E+00    1.774E+00    1.900E+00    2.025E+00    2.150E+00    2.275E+00
     2.399E+00    2.522E+00    2.645E+00    2.767E+00    2.889E+00    3.010E+00    3.131E+00    3.251E+00    3.370E+00    3.488E+00
     3.606E+00    3.723E+00    3.839E+00    3.955E+00    4.069E+00    4.183E+00    4.296E+00    4.407E+00    4.518E+00    4.629E+00
     4.738E+00    4.846E+00    4.953E+00    5.060E+00    5.166E+00    5.271E+00    5.375E+00    5.478E+00    5.580E+00    5.681E+00
     5.782E+00    5.882E+00    5.981E+00    6.079E+00    6.176E+00    6.273E+00    6.369E+00    6.464E+00    6.558E+00    6.651E+00
     6.744E+00    6.836E+00    6.927E+00    7.017E+00    7.107E+00    7.196E+00    7.284E+00    7.372E+00    7.458E+00    7.544E+00
     7.630E+00    7.714E+00    7.798E+00    7.882E+00    7.964E+00    8.046E+00    8.127E+00    8.208E+00    8.288E+00    8.367E+00
     8.446E+00    8.523E+00    8.601E+00    8.678E+00    8.754E+00    8.829E+00    8.904E+00    8.978E+00    9.052E+00    9.125E+00
     9.198E+00    9.270E+00    9.341E+00    9.412E+00    9.482E+00    9.552E+00    9.621E+00    9.690E+00    9.759E+00    9.826E+00
     9.894E+00    9.961E+00    1.003E+01    1.009E+01    1.016E+01    1.022E+01    1.029E+01    1.035E+01    1.042E+01    1.048E+01
     1.054E+01    1.060E+01    1.067E+01    1.073E+01    1.079E+01    1.085E+01    1.091E+01    1.097E+01    1.103E+01    1.109E+01
     1.115E+01    1.121E+01    1.127E+01    1.133E+01    1.138E+01    1.144E+01    1.150E+01    1.156E+01    1.161E+01    1.167E+01
     1.173E+01    1.178E+01    1.184E+01    1.189E+01    1.195E+01    1.200E+01    1.206E+01    1.211E+01    1.217E+01    1.222E+01
     1.227E+01    1.233E+01    1.238E+01    1.243E+01    1.249E+01    1.254E+01    1.259E+01    1.264E+01    1.269E+01    1.274E+01
     1.280E+01    1.285E+01    1.290E+01    1.295E+01    1.300E+01    1.305E+01    1.309E+01    1.314E+01    1.319E+01    1.324E+01
     1.329E+01    1.334E+01    1.338E+01    1.343E+01    1.348E+01    1.352E+01    1.357E+01    1.362E+01    1.366E+01    1.371E+01
     1.375E+01    1.380E+01    1.384E+01    1.389E+01    1.393E+01    1.398E+01    1.402E+01    1.406E+01    1.410E+01    1.415E+01
     1.419E+01    1.423E+01    1.427E+01    1.432E+01    1.436E+01    1.440E+01    1.444E+01    1.448E+01    1.452E+01    1.456E+01
     1.460E+01    1.464E+01    1.468E+01    1.472E+01    1.476E+01    1.480E+01    1.484E+01    1.488E+01    1.491E+01    1.495E+01
     1.499E+01    1.503E+01    1.507E+01    1.510E+01    1.514E+01    1.518E+01    1.522E+01    1.525E+01    1.529E+01    1.533E+01
     1.536E+01    1.540E+01    1.544E+01    1.547E+01    1.551E+01    1.554E+01    1.558E+01    1.562E+01    1.565E+01    1.569E+01
     1.572E+01    1.576E+01    1.579E+01    1.583E+01    1.586E+01    1.590E+01    1.593E+01    1.597E+01    1.600E+01    1.603E+01
     1.607E+01    1.610E+01    1.614E+01    1.617E+01    1.621E+01    1.624E+01    1.627E+01    1.631E+01    1.634E+01    1.637E+01
     1.641E+01    1.644E+01    1.647E+01    1.651E+01    1.654E+01    1.657E+01    1.661E+01    1.664E+01    1.667E+01    1.671E+01
     1.674E+01    1.677E+01    1.680E+01    1.684E+01    1.687E+01    1.690E+01    1.694E+01    1.697E+01    1.700E+01    1.703E+01
     1.706E+01    1.710E+01    1.713E+01    1.716E+01    1.719E+01    1.723E+01    1.726E+01    1.729E+01    1.732E+01    1.735E+01
     1.739E+01    1.742E+01    1.745E+01    1.748E+01    1.752E+01    1.755E+01    1.758E+01    1.761E+01    1.764E+01    1.767E+01
     1.771E+01    1.774E+01    1.777E+01    1.780E+01    1.783E+01    1.787E+01    1.790E+01    1.793E+01    1.796E+01    1.799E+01
     1.802E+01    1.806E+01    1.809E+01    1.812E+01    1.815E+01    1.818E+01    1.821E+01    1.824E+01    1.828E+01    1.831E+01
     1.834E+01    1.837E+01    1.840E+01    1.843E+01    1.846E+01    1.850E+01    1.853E+01    1.856E+01
 Cr       Conc. = 7.02E+02
