 LCModel (Version 6.3-1L) Copyright: S.W. Provencher.          Ref.: Magn. Reson. Med. 30:672-679 (1993).                
 Slice#2 Row#9 Col#8  K_02_press_1_raw_act
 36 lines in following concentration table = NCONC+1
    Conc.  %SD /Cr+PCr  Metabolite                                         
  196.044  62% 8.7E-02 Ala                                                 
    0.000 999%   0.000 Asp                                                 
 1.44E+03  14%   0.643 Cr                                                  
  802.649  26%   0.357 PCr                                                 
    0.000 999%   0.000 GABA                                                
    0.000 999%   0.000 Glc                                                 
  404.543  60%   0.180 Gln                                                 
 2.10E+03  13%   0.933 Glu                                                 
  553.355   5%   0.246 GPC                                                 
    0.000 999%   0.000 PCh                                                 
  493.695  18%   0.220 GSH                                                 
 1.51E+03  19%   0.674 Ins                                                 
    4.598 999% 2.0E-03 Lac                                                 
 2.80E+03   4%   1.248 NAA                                                 
  641.281  17%   0.285 NAAG                                                
    0.000 999%   0.000 Scyllo                                              
    0.000 999%   0.000 Tau                                                 
    0.000 999%   0.000 -CrCH2                                              
  553.355   5%   0.246 GPC+PCh                                             
 3.45E+03   4%   1.533 NAA+NAAG                                            
 2.25E+03   3%   1.000 Cr+PCr                                              
 2.50E+03  15%   1.113 Glu+Gln                                             
 1.69E+03  42%   0.752 Lip13a                                              
    0.000 999%   0.000 Lip13b                                              
  423.566  73%   0.188 Lip09                                               
 2.22E+03  18%   0.987 MM09                                                
  278.186  72%   0.124 Lip20                                               
 4.49E+03  13%   1.996 MM20                                                
  612.166  58%   0.272 MM12                                                
  767.658  65%   0.342 MM14                                                
 1.55E+03  23%   0.690 MM17                                                
 1.69E+03  42%   0.752 Lip13a+Lip13b                                       
 3.07E+03  18%   1.366 MM14+Lip13a+Lip13b+MM12                             
 2.64E+03  12%   1.175 MM09+Lip09                                          
 4.76E+03  12%   2.120 MM20+Lip20                                          
   6 lines in following misc. output table
  FWHM = 0.038 ppm    S/N =  13                                            
  Data shift = 0.015 ppm                                                   
  Ph:  -5 deg      -2.7 deg/ppm                                            
  alphaB,S = 4.1E+00,   4.5E+01                                            
   14 spline knots.   Ns = 5(1)                                            
  ( 5) 2 infls.   ( 3) 1 extrs.                                            
  498 points on ppm-axis = NY
      4.000000     3.992357     3.984714     3.977070     3.969427     3.961784     3.954141     3.946497     3.938854     3.931211
      3.923568     3.915925     3.908281     3.900638     3.892995     3.885352     3.877708     3.870065     3.862422     3.854779
      3.847136     3.839492     3.831849     3.824206     3.816563     3.808919     3.801276     3.793633     3.785990     3.778347
      3.770703     3.763060     3.755417     3.747774     3.740130     3.732487     3.724844     3.717201     3.709558     3.701914
      3.694271     3.686628     3.678985     3.671341     3.663698     3.656055     3.648412     3.640769     3.633125     3.625482
      3.617839     3.610196     3.602552     3.594909     3.587266     3.579623     3.571980     3.564336     3.556693     3.549050
      3.541407     3.533763     3.526120     3.518477     3.510834     3.503191     3.495547     3.487904     3.480261     3.472618
      3.464974     3.457331     3.449688     3.442045     3.434402     3.426758     3.419115     3.411472     3.403829     3.396185
      3.388542     3.380899     3.373256     3.365613     3.357969     3.350326     3.342683     3.335040     3.327396     3.319753
      3.312110     3.304467     3.296824     3.289180     3.281537     3.273894     3.266251     3.258607     3.250964     3.243321
      3.235678     3.228034     3.220391     3.212748     3.205105     3.197462     3.189818     3.182175     3.174532     3.166889
      3.159245     3.151602     3.143959     3.136316     3.128673     3.121029     3.113386     3.105743     3.098100     3.090456
      3.082813     3.075170     3.067527     3.059884     3.052240     3.044597     3.036954     3.029311     3.021667     3.014024
      3.006381     2.998738     2.991095     2.983451     2.975808     2.968165     2.960522     2.952878     2.945235     2.937592
      2.929949     2.922306     2.914662     2.907019     2.899376     2.891733     2.884089     2.876446     2.868803     2.861160
      2.853517     2.845873     2.838230     2.830587     2.822944     2.815300     2.807657     2.800014     2.792371     2.784728
      2.777084     2.769441     2.761798     2.754155     2.746511     2.738868     2.731225     2.723582     2.715939     2.708295
      2.700652     2.693009     2.685366     2.677722     2.670079     2.662436     2.654793     2.647150     2.639506     2.631863
      2.624220     2.616577     2.608933     2.601290     2.593647     2.586004     2.578361     2.570717     2.563074     2.555431
      2.547788     2.540144     2.532501     2.524858     2.517215     2.509572     2.501928     2.494285     2.486642     2.478999
      2.471355     2.463712     2.456069     2.448426     2.440783     2.433139     2.425496     2.417853     2.410210     2.402566
      2.394923     2.387280     2.379637     2.371994     2.364350     2.356707     2.349064     2.341421     2.333777     2.326134
      2.318491     2.310848     2.303205     2.295561     2.287918     2.280275     2.272632     2.264988     2.257345     2.249702
      2.242059     2.234416     2.226772     2.219129     2.211486     2.203843     2.196199     2.188556     2.180913     2.173270
      2.165627     2.157983     2.150340     2.142697     2.135054     2.127410     2.119767     2.112124     2.104481     2.096838
      2.089194     2.081551     2.073908     2.066265     2.058621     2.050978     2.043335     2.035692     2.028049     2.020405
      2.012762     2.005119     1.997476     1.989833     1.982190     1.974546     1.966903     1.959260     1.951617     1.943974
      1.936331     1.928688     1.921045     1.913402     1.905759     1.898115     1.890472     1.882829     1.875186     1.867543
      1.859900     1.852257     1.844614     1.836971     1.829327     1.821684     1.814041     1.806398     1.798755     1.791112
      1.783469     1.775826     1.768183     1.760540     1.752896     1.745253     1.737610     1.729967     1.722324     1.714681
      1.707038     1.699395     1.691752     1.684108     1.676465     1.668822     1.661179     1.653536     1.645893     1.638250
      1.630607     1.622964     1.615321     1.607677     1.600034     1.592391     1.584748     1.577105     1.569462     1.561819
      1.554176     1.546533     1.538890     1.531246     1.523603     1.515960     1.508317     1.500674     1.493031     1.485388
      1.477745     1.470102     1.462458     1.454815     1.447172     1.439529     1.431886     1.424243     1.416600     1.408957
      1.401314     1.393671     1.386027     1.378384     1.370741     1.363098     1.355455     1.347812     1.340169     1.332526
      1.324883     1.317240     1.309596     1.301953     1.294310     1.286667     1.279024     1.271381     1.263738     1.256095
      1.248452     1.240808     1.233165     1.225522     1.217879     1.210236     1.202593     1.194950     1.187307     1.179664
      1.172021     1.164377     1.156734     1.149091     1.141448     1.133805     1.126162     1.118519     1.110876     1.103233
      1.095590     1.087946     1.080303     1.072660     1.065017     1.057374     1.049731     1.042088     1.034445     1.026802
      1.019158     1.011515     1.003872     0.996229     0.988586     0.980943     0.973300     0.965657     0.958014     0.950371
      0.942727     0.935084     0.927441     0.919798     0.912155     0.904512     0.896869     0.889226     0.881583     0.873940
      0.866296     0.858653     0.851010     0.843367     0.835724     0.828081     0.820438     0.812795     0.805152     0.797508
      0.789865     0.782222     0.774579     0.766936     0.759293     0.751650     0.744007     0.736364     0.728721     0.721077
      0.713434     0.705791     0.698148     0.690505     0.682862     0.675219     0.667576     0.659933     0.652290     0.644646
      0.637003     0.629360     0.621717     0.614074     0.606431     0.598788     0.591145     0.583502     0.575858     0.568215
      0.560572     0.552929     0.545286     0.537643     0.530000     0.522357     0.514714     0.507071     0.499427     0.491784
      0.484141     0.476498     0.468855     0.461212     0.453569     0.445925     0.438282     0.430639     0.422996     0.415353
      0.407710     0.400067     0.392424     0.384780     0.377137     0.369494     0.361851     0.354208     0.346565     0.338922
      0.331278     0.323635     0.315992     0.308349     0.300706     0.293063     0.285420     0.277777     0.270133     0.262490
      0.254847     0.247204     0.239561     0.231918     0.224275     0.216631     0.208988     0.201345
 NY phased data points follow
   5.68257E+01  5.17886E+01  6.90093E+01  6.23710E+01  7.03652E+01  6.75148E+01  7.35963E+01  8.66427E+01  1.00245E+02  1.04136E+02
   1.10703E+02  1.23022E+02  1.13560E+02  1.04730E+02  8.91325E+01  7.79618E+01  7.51057E+01  7.44616E+01  6.19640E+01  5.86235E+01
   6.15378E+01  6.37730E+01  5.16139E+01  5.68260E+01  5.46582E+01  5.72622E+01  6.10488E+01  5.60810E+01  5.53180E+01  6.21416E+01
   6.43187E+01  6.55886E+01  7.03125E+01  6.39640E+01  5.98789E+01  5.45377E+01  5.07031E+01  4.43795E+01  5.61806E+01  5.63872E+01
   5.13658E+01  6.20486E+01  5.88766E+01  5.69602E+01  4.90655E+01  5.80530E+01  6.41216E+01  7.31302E+01  7.04597E+01  7.10997E+01
   6.36884E+01  5.36722E+01  5.37159E+01  4.75717E+01  5.40135E+01  5.80244E+01  5.18300E+01  5.79372E+01  5.06270E+01  5.38939E+01
   4.74422E+01  5.27288E+01  4.30499E+01  4.76679E+01  3.96409E+01  3.44001E+01  3.59782E+01  3.64071E+01  3.45396E+01  3.41825E+01
   3.44483E+01  3.41749E+01  3.76484E+01  3.51851E+01  3.90978E+01  4.78995E+01  3.70994E+01  4.00262E+01  3.12827E+01  3.54146E+01
   3.89584E+01  3.53099E+01  3.95506E+01  3.72807E+01  3.88670E+01  2.96330E+01  3.05981E+01  3.45711E+01  3.22353E+01  2.93897E+01
   4.03341E+01  3.74254E+01  3.62093E+01  4.20025E+01  3.75827E+01  4.74338E+01  3.81448E+01  3.64157E+01  3.27058E+01  5.29199E+01
   5.65512E+01  7.82392E+01  9.63556E+01  1.09044E+02  9.59496E+01  7.96846E+01  7.00894E+01  5.81608E+01  5.02674E+01  5.09897E+01
   4.63570E+01  4.29811E+01  4.45358E+01  4.05841E+01  3.75388E+01  3.21776E+01  3.74490E+01  4.74382E+01  3.60730E+01  4.20285E+01
   4.39770E+01  4.41134E+01  4.70570E+01  4.95582E+01  6.23114E+01  8.73419E+01  1.13527E+02  1.24180E+02  1.21770E+02  1.04428E+02
   8.98314E+01  6.70304E+01  5.94402E+01  5.60727E+01  3.87296E+01  4.50014E+01  3.36329E+01  3.93321E+01  3.73425E+01  3.82861E+01
   3.74277E+01  3.23952E+01  3.45667E+01  3.54517E+01  3.12671E+01  3.27899E+01  3.20827E+01  3.04906E+01  2.76903E+01  2.53905E+01
   3.17043E+01  3.80230E+01  3.59183E+01  3.18093E+01  3.13293E+01  2.51604E+01  3.08771E+01  3.09339E+01  2.63640E+01  3.43340E+01
   3.12519E+01  3.46002E+01  2.47488E+01  2.53267E+01  3.49520E+01  3.13986E+01  3.41898E+01  3.13639E+01  2.94815E+01  2.52772E+01
   2.72904E+01  2.55160E+01  1.44012E+01  1.10082E+01  5.32893E+00  8.19809E+00  4.77447E+00  8.25274E+00  1.72872E+01  1.01771E+01
   7.35626E+00  6.52450E+00  1.21987E+01  1.98572E+01  1.07676E+01  1.13290E+01  1.04912E+01  1.16601E+01  2.19634E+01  2.61953E+01
   2.87244E+01  3.17863E+01  3.19107E+01  3.96797E+01  2.94569E+01  2.36163E+01  2.40370E+01  1.45052E+01  1.78055E+01  1.52667E+01
   1.83556E+01  2.05849E+01  3.70037E+01  3.32493E+01  2.76327E+01  2.62795E+01  2.10090E+01  2.71020E+01  2.52898E+01  1.79660E+01
   1.87292E+01  3.03887E+01  1.91916E+01  2.93867E+01  4.24979E+01  5.34019E+01  3.91604E+01  4.15959E+01  3.39606E+01  2.39574E+01
   2.43754E+01  1.55860E+01  9.73268E+00  1.85605E+01  2.81420E+01  2.10191E+01  3.82143E+01  3.50283E+01  3.68802E+01  3.81668E+01
   3.14291E+01  3.07564E+01  2.97702E+01  3.35868E+01  2.94308E+01  2.91628E+01  3.31222E+01  3.27934E+01  2.27304E+01  2.58935E+01
   2.17276E+01  3.17251E+01  2.30957E+01  2.76437E+01  3.31146E+01  3.80610E+01  4.46432E+01  3.94029E+01  4.24992E+01  4.68623E+01
   4.00999E+01  5.28592E+01  5.34083E+01  6.12066E+01  6.88093E+01  7.43820E+01  7.26575E+01  7.71847E+01  1.15321E+02  1.54814E+02
   1.67929E+02  1.60647E+02  1.39163E+02  1.06434E+02  7.21813E+01  5.65496E+01  4.12841E+01  3.46236E+01  3.19075E+01  2.64938E+01
   3.13526E+01  3.58170E+01  2.75748E+01  2.69535E+01  3.22065E+01  2.71568E+01  2.97039E+01  2.26781E+01  2.28219E+01  2.58795E+01
   2.97996E+01  2.16572E+01  2.51728E+01  1.82978E+01  2.50097E+01  3.03482E+01  1.54867E+01  2.46229E+01  1.81647E+01  2.94473E+01
   1.58510E+01  2.07981E+01  2.43190E+01  2.66099E+01  1.68300E+01  2.58920E+01  3.06575E+01  2.14552E+01  3.06905E+01  1.69520E+01
   3.13010E+01  1.78716E+01  2.53380E+01  3.07087E+01  2.66215E+01  2.81520E+01  3.04173E+01  3.28794E+01  2.65827E+01  2.95755E+01
   2.91149E+01  3.49679E+01  2.54235E+01  3.11180E+01  2.66860E+01  2.86471E+01  2.61163E+01  2.91729E+01  2.61462E+01  2.86277E+01
   2.93159E+01  2.49993E+01  2.20877E+01  2.22949E+01  2.46046E+01  3.03016E+01  2.32617E+01  1.89978E+01  1.83073E+01  2.58339E+01
   1.67332E+01  1.79516E+01  1.75356E+01  2.09721E+01  1.91221E+01  2.47313E+01  2.74949E+01  2.09679E+01  2.64651E+01  2.60703E+01
   2.09908E+01  2.57404E+01  2.30463E+01  2.89088E+01  2.90657E+01  3.54427E+01  3.02850E+01  2.92040E+01  2.91848E+01  3.08681E+01
   2.71927E+01  2.83693E+01  3.00598E+01  2.66713E+01  2.70758E+01  3.14399E+01  2.55778E+01  2.39543E+01  2.90165E+01  2.04663E+01
   2.04984E+01  3.23144E+01  2.49440E+01  1.88267E+01  2.14439E+01  2.83585E+01  2.63252E+01  3.21108E+01  2.31557E+01  2.38682E+01
   2.08004E+01  2.35959E+01  2.21578E+01  2.58812E+01  2.74614E+01  2.03077E+01  1.81868E+01  1.92856E+01  2.63309E+01  2.83636E+01
   2.14586E+01  2.85268E+01  3.12494E+01  2.06243E+01  2.42527E+01  2.33538E+01  3.10489E+01  2.04563E+01  2.07539E+01  2.53058E+01
   2.69890E+01  2.61961E+01  2.21370E+01  2.43000E+01  3.06565E+01  3.78372E+01  3.88222E+01  3.17696E+01  2.99226E+01  3.34873E+01
   3.15233E+01  3.23502E+01  2.68544E+01  2.70094E+01  3.75879E+01  3.30541E+01  3.14413E+01  3.59612E+01  3.85973E+01  3.07442E+01
   2.76124E+01  3.20148E+01  2.75019E+01  2.71677E+01  2.93282E+01  3.19873E+01  2.75926E+01  2.49522E+01  1.89058E+01  3.19952E+01
   2.42770E+01  2.15913E+01  1.99970E+01  2.35041E+01  2.77102E+01  2.37754E+01  2.03151E+01  1.68979E+01  2.08290E+01  1.73287E+01
   2.11038E+01  2.20251E+01  1.74039E+01  1.99730E+01  2.44905E+01  2.42815E+01  1.27833E+01  1.68879E+01  1.40395E+01  2.33053E+01
   2.04515E+01  1.60558E+01  1.87242E+01  1.50413E+01  1.63318E+01  1.46598E+01  1.97597E+01  1.64482E+01  1.24739E+01  2.40366E+01
   1.89896E+01  1.23709E+01  1.73721E+01  1.72347E+01  1.18864E+01  1.47923E+01  1.85678E+01  1.93351E+01  1.29428E+01  1.92256E+01
   1.86327E+01  1.71898E+01  2.50991E+01  1.55322E+01  1.45248E+01  2.38421E+01  1.39599E+01  1.88313E+01  1.38787E+01  2.14324E+01
   1.69245E+01  1.95692E+01  1.82966E+01  1.49902E+01  1.62278E+01  1.89263E+01  2.12264E+01  1.50194E+01  1.11700E+01  1.52554E+01
   1.40729E+01  1.34729E+01  1.01661E+01  1.53363E+01  1.78617E+01  9.35279E+00  1.21304E+01  1.01908E+01  1.86682E+01  8.93462E+00
   1.08477E+01  1.67027E+01  1.75549E+01  1.33112E+01  8.42004E+00  1.77408E+01  1.23365E+01  1.18693E+01
 NY points of the fit to the data follow
   5.92411E+01  5.86878E+01  5.85527E+01  5.90796E+01  6.08363E+01  6.43321E+01  7.07813E+01  8.02806E+01  9.03211E+01  1.00017E+02
   1.08582E+02  1.12192E+02  1.08179E+02  9.86382E+01  8.72566E+01  7.67017E+01  6.92252E+01  6.43550E+01  6.05760E+01  5.84964E+01
   5.77613E+01  5.73701E+01  5.69963E+01  5.64961E+01  5.57389E+01  5.45665E+01  5.35476E+01  5.46993E+01  5.87354E+01  6.37653E+01
   6.76808E+01  6.95950E+01  6.92074E+01  6.65179E+01  6.23904E+01  5.77892E+01  5.36779E+01  5.13795E+01  5.07679E+01  5.08579E+01
   5.11510E+01  5.17289E+01  5.24951E+01  5.34263E+01  5.53069E+01  5.86671E+01  6.24868E+01  6.48089E+01  6.42115E+01  6.09658E+01
   5.65766E+01  5.25333E+01  4.95108E+01  4.75346E+01  4.65098E+01  4.63383E+01  4.67727E+01  4.77776E+01  4.91997E+01  5.05236E+01
   5.10996E+01  5.05286E+01  4.89338E+01  4.69028E+01  4.51296E+01  4.40126E+01  4.36347E+01  4.39109E+01  4.44848E+01  4.52066E+01
   4.59686E+01  4.65089E+01  4.65664E+01  4.61066E+01  4.53459E+01  4.45407E+01  4.38610E+01  4.33633E+01  4.29373E+01  4.25854E+01
   4.22912E+01  4.19950E+01  4.16256E+01  4.10931E+01  4.01902E+01  3.87658E+01  3.69922E+01  3.53921E+01  3.44984E+01  3.45185E+01
   3.52833E+01  3.64626E+01  3.77695E+01  3.89639E+01  3.98605E+01  4.02828E+01  4.01597E+01  4.00071E+01  4.16204E+01  4.71327E+01
   5.94977E+01  7.94907E+01  9.85124E+01  1.05961E+02  9.99345E+01  8.59665E+01  7.03802E+01  5.77121E+01  4.91702E+01  4.27969E+01
   3.86967E+01  3.74468E+01  3.70723E+01  3.69281E+01  3.68737E+01  3.68630E+01  3.68766E+01  3.68927E+01  3.69334E+01  3.71079E+01
   3.76140E+01  3.89669E+01  4.26624E+01  5.10916E+01  6.73218E+01  9.22562E+01  1.17584E+02  1.30462E+02  1.26007E+02  1.09549E+02
   8.94922E+01  7.21921E+01  5.95878E+01  4.96353E+01  4.16224E+01  3.67393E+01  3.41240E+01  3.30321E+01  3.32338E+01  3.42296E+01
   3.53778E+01  3.61666E+01  3.62613E+01  3.57564E+01  3.49757E+01  3.41340E+01  3.33978E+01  3.28083E+01  3.22659E+01  3.17560E+01
   3.12060E+01  3.05714E+01  2.99128E+01  2.94291E+01  2.92810E+01  2.94474E+01  2.96878E+01  2.96394E+01  2.89040E+01  2.74154E+01
   2.58914E+01  2.51686E+01  2.55869E+01  2.67153E+01  2.74704E+01  2.71178E+01  2.58821E+01  2.44770E+01  2.33862E+01  2.28082E+01
   2.26188E+01  2.23460E+01  2.17242E+01  2.06938E+01  1.93226E+01  1.84501E+01  1.86968E+01  1.96713E+01  2.04159E+01  2.02694E+01
   1.96259E+01  1.93551E+01  1.96947E+01  2.01259E+01  2.00757E+01  1.97939E+01  2.02124E+01  2.21005E+01  2.50722E+01  2.80329E+01
   3.01428E+01  3.08465E+01  3.02099E+01  2.88574E+01  2.73561E+01  2.59020E+01  2.47791E+01  2.42537E+01  2.44967E+01  2.54569E+01
   2.68762E+01  2.87153E+01  3.07391E+01  3.22860E+01  3.25888E+01  3.11012E+01  2.81994E+01  2.44676E+01  2.06972E+01  1.80664E+01
   1.72269E+01  1.84650E+01  2.19002E+01  2.77089E+01  3.41260E+01  3.81262E+01  3.80672E+01  3.41818E+01  2.79349E+01  2.07236E+01
   1.38752E+01  9.42692E+00  9.29223E+00  1.35532E+01  1.98776E+01  2.59223E+01  3.03957E+01  3.29435E+01  3.37715E+01  3.30356E+01
   3.13993E+01  3.01950E+01  3.02465E+01  3.12684E+01  3.27812E+01  3.43875E+01  3.56006E+01  3.58338E+01  3.47804E+01  3.28985E+01
   3.08685E+01  2.95473E+01  2.98017E+01  3.17333E+01  3.45304E+01  3.72779E+01  3.93015E+01  4.01392E+01  3.99013E+01  3.93727E+01
   3.97101E+01  4.21060E+01  4.75842E+01  5.63543E+01  6.51934E+01  7.12910E+01  7.70605E+01  8.92208E+01  1.16791E+02  1.50605E+02
   1.68801E+02  1.61178E+02  1.35916E+02  1.05656E+02  7.92685E+01  6.10580E+01  4.77065E+01  3.72719E+01  3.30234E+01  3.11692E+01
   2.99395E+01  2.92358E+01  2.89293E+01  2.86888E+01  2.82908E+01  2.76642E+01  2.69051E+01  2.61307E+01  2.54124E+01  2.47751E+01
   2.42813E+01  2.39608E+01  2.37552E+01  2.35717E+01  2.33628E+01  2.31256E+01  2.28904E+01  2.26841E+01  2.25357E+01  2.25067E+01
   2.26319E+01  2.28681E+01  2.31598E+01  2.34730E+01  2.37938E+01  2.41211E+01  2.44572E+01  2.48138E+01  2.52205E+01  2.56909E+01
   2.62073E+01  2.67424E+01  2.72633E+01  2.77408E+01  2.81591E+01  2.85038E+01  2.87622E+01  2.89343E+01  2.90169E+01  2.90075E+01
   2.89075E+01  2.87221E+01  2.84600E+01  2.81334E+01  2.77561E+01  2.73431E+01  2.69116E+01  2.64804E+01  2.60694E+01  2.56997E+01
   2.53960E+01  2.51992E+01  2.51792E+01  2.53539E+01  2.57157E+01  2.59564E+01  2.55030E+01  2.42283E+01  2.26036E+01  2.11460E+01
   2.01349E+01  1.96580E+01  1.98010E+01  2.07938E+01  2.25569E+01  2.43807E+01  2.56302E+01  2.62267E+01  2.63446E+01  2.62606E+01
   2.61838E+01  2.60911E+01  2.60169E+01  2.60695E+01  2.61970E+01  2.63578E+01  2.65216E+01  2.66726E+01  2.68123E+01  2.69473E+01
   2.70807E+01  2.72113E+01  2.73387E+01  2.74605E+01  2.75658E+01  2.76347E+01  2.76524E+01  2.76181E+01  2.75358E+01  2.74114E+01
   2.72489E+01  2.70492E+01  2.68177E+01  2.65599E+01  2.62784E+01  2.59765E+01  2.56590E+01  2.53317E+01  2.50006E+01  2.46715E+01
   2.43494E+01  2.40392E+01  2.37462E+01  2.34762E+01  2.32343E+01  2.30251E+01  2.28522E+01  2.27195E+01  2.26313E+01  2.25921E+01
   2.26057E+01  2.26749E+01  2.28025E+01  2.29911E+01  2.32438E+01  2.35626E+01  2.39483E+01  2.44002E+01  2.49166E+01  2.54946E+01
   2.61300E+01  2.68165E+01  2.75448E+01  2.83036E+01  2.90797E+01  2.98589E+01  3.06253E+01  3.13615E+01  3.20491E+01  3.26699E+01
   3.32074E+01  3.36467E+01  3.39751E+01  3.41823E+01  3.42608E+01  3.42074E+01  3.40231E+01  3.37129E+01  3.32844E+01  3.27482E+01
   3.21172E+01  3.14068E+01  3.06336E+01  2.98147E+01  2.89664E+01  2.81040E+01  2.72414E+01  2.63918E+01  2.55662E+01  2.47735E+01
   2.40199E+01  2.33099E+01  2.26462E+01  2.20308E+01  2.14640E+01  2.09446E+01  2.04704E+01  2.00385E+01  1.96464E+01  1.92914E+01
   1.89705E+01  1.86804E+01  1.84175E+01  1.81790E+01  1.79626E+01  1.77663E+01  1.75878E+01  1.74247E+01  1.72751E+01  1.71375E+01
   1.70111E+01  1.68948E+01  1.67873E+01  1.66873E+01  1.65938E+01  1.65066E+01  1.64252E+01  1.63493E+01  1.62778E+01  1.62102E+01
   1.61460E+01  1.60854E+01  1.60282E+01  1.59741E+01  1.59224E+01  1.58728E+01  1.58252E+01  1.57800E+01  1.57370E+01  1.56957E+01
   1.56557E+01  1.56170E+01  1.55797E+01  1.55440E+01  1.55098E+01  1.54765E+01  1.54440E+01  1.54123E+01  1.53817E+01  1.53523E+01
   1.53239E+01  1.52958E+01  1.52682E+01  1.52414E+01  1.52155E+01  1.51904E+01  1.51659E+01  1.51415E+01  1.51174E+01  1.50940E+01
   1.50715E+01  1.50494E+01  1.50275E+01  1.50057E+01  1.49843E+01  1.49635E+01  1.49433E+01  1.49233E+01  1.49034E+01  1.48835E+01
   1.48641E+01  1.48452E+01  1.48268E+01  1.48084E+01  1.47898E+01  1.47715E+01  1.47536E+01  1.47362E+01
 NY background values follow
     5.455E+01    5.436E+01    5.416E+01    5.397E+01    5.377E+01    5.358E+01    5.338E+01    5.319E+01    5.299E+01    5.279E+01
     5.260E+01    5.240E+01    5.221E+01    5.201E+01    5.182E+01    5.162E+01    5.143E+01    5.123E+01    5.104E+01    5.084E+01
     5.065E+01    5.045E+01    5.026E+01    5.006E+01    4.987E+01    4.967E+01    4.948E+01    4.928E+01    4.909E+01    4.890E+01
     4.870E+01    4.851E+01    4.832E+01    4.812E+01    4.793E+01    4.774E+01    4.754E+01    4.735E+01    4.716E+01    4.697E+01
     4.678E+01    4.658E+01    4.639E+01    4.620E+01    4.601E+01    4.582E+01    4.563E+01    4.544E+01    4.525E+01    4.506E+01
     4.487E+01    4.468E+01    4.449E+01    4.430E+01    4.412E+01    4.393E+01    4.374E+01    4.355E+01    4.337E+01    4.318E+01
     4.300E+01    4.281E+01    4.262E+01    4.244E+01    4.226E+01    4.207E+01    4.189E+01    4.171E+01    4.152E+01    4.134E+01
     4.116E+01    4.098E+01    4.080E+01    4.062E+01    4.044E+01    4.026E+01    4.008E+01    3.990E+01    3.972E+01    3.955E+01
     3.937E+01    3.919E+01    3.902E+01    3.884E+01    3.867E+01    3.850E+01    3.832E+01    3.815E+01    3.798E+01    3.781E+01
     3.764E+01    3.747E+01    3.730E+01    3.713E+01    3.696E+01    3.679E+01    3.663E+01    3.646E+01    3.629E+01    3.613E+01
     3.597E+01    3.580E+01    3.564E+01    3.548E+01    3.531E+01    3.515E+01    3.499E+01    3.483E+01    3.467E+01    3.452E+01
     3.436E+01    3.420E+01    3.404E+01    3.389E+01    3.373E+01    3.358E+01    3.342E+01    3.327E+01    3.312E+01    3.296E+01
     3.281E+01    3.266E+01    3.251E+01    3.236E+01    3.221E+01    3.206E+01    3.192E+01    3.177E+01    3.162E+01    3.148E+01
     3.133E+01    3.119E+01    3.104E+01    3.090E+01    3.076E+01    3.062E+01    3.047E+01    3.033E+01    3.019E+01    3.005E+01
     2.991E+01    2.978E+01    2.964E+01    2.950E+01    2.937E+01    2.923E+01    2.910E+01    2.896E+01    2.883E+01    2.869E+01
     2.856E+01    2.843E+01    2.830E+01    2.817E+01    2.804E+01    2.791E+01    2.778E+01    2.766E+01    2.753E+01    2.741E+01
     2.728E+01    2.716E+01    2.703E+01    2.691E+01    2.679E+01    2.667E+01    2.655E+01    2.643E+01    2.631E+01    2.619E+01
     2.607E+01    2.595E+01    2.584E+01    2.572E+01    2.561E+01    2.550E+01    2.538E+01    2.527E+01    2.516E+01    2.505E+01
     2.494E+01    2.483E+01    2.472E+01    2.462E+01    2.451E+01    2.441E+01    2.430E+01    2.420E+01    2.409E+01    2.399E+01
     2.389E+01    2.379E+01    2.369E+01    2.359E+01    2.349E+01    2.340E+01    2.330E+01    2.320E+01    2.311E+01    2.301E+01
     2.292E+01    2.283E+01    2.273E+01    2.264E+01    2.255E+01    2.246E+01    2.237E+01    2.228E+01    2.220E+01    2.211E+01
     2.202E+01    2.194E+01    2.185E+01    2.177E+01    2.168E+01    2.160E+01    2.152E+01    2.143E+01    2.135E+01    2.127E+01
     2.119E+01    2.111E+01    2.103E+01    2.095E+01    2.088E+01    2.080E+01    2.072E+01    2.065E+01    2.057E+01    2.050E+01
     2.042E+01    2.035E+01    2.028E+01    2.021E+01    2.013E+01    2.006E+01    1.999E+01    1.992E+01    1.985E+01    1.979E+01
     1.972E+01    1.965E+01    1.958E+01    1.952E+01    1.945E+01    1.939E+01    1.932E+01    1.926E+01    1.919E+01    1.913E+01
     1.907E+01    1.901E+01    1.895E+01    1.888E+01    1.882E+01    1.876E+01    1.871E+01    1.865E+01    1.859E+01    1.853E+01
     1.848E+01    1.842E+01    1.836E+01    1.831E+01    1.825E+01    1.820E+01    1.815E+01    1.809E+01    1.804E+01    1.799E+01
     1.794E+01    1.789E+01    1.784E+01    1.779E+01    1.774E+01    1.769E+01    1.764E+01    1.759E+01    1.755E+01    1.750E+01
     1.745E+01    1.741E+01    1.736E+01    1.732E+01    1.727E+01    1.723E+01    1.719E+01    1.714E+01    1.710E+01    1.706E+01
     1.702E+01    1.698E+01    1.694E+01    1.690E+01    1.686E+01    1.682E+01    1.678E+01    1.674E+01    1.670E+01    1.667E+01
     1.663E+01    1.659E+01    1.656E+01    1.652E+01    1.649E+01    1.645E+01    1.642E+01    1.639E+01    1.635E+01    1.632E+01
     1.629E+01    1.625E+01    1.622E+01    1.619E+01    1.616E+01    1.613E+01    1.610E+01    1.607E+01    1.604E+01    1.601E+01
     1.598E+01    1.596E+01    1.593E+01    1.590E+01    1.587E+01    1.585E+01    1.582E+01    1.579E+01    1.577E+01    1.574E+01
     1.572E+01    1.569E+01    1.567E+01    1.565E+01    1.562E+01    1.560E+01    1.558E+01    1.555E+01    1.553E+01    1.551E+01
     1.549E+01    1.547E+01    1.545E+01    1.542E+01    1.540E+01    1.538E+01    1.536E+01    1.535E+01    1.533E+01    1.531E+01
     1.529E+01    1.527E+01    1.525E+01    1.523E+01    1.522E+01    1.520E+01    1.518E+01    1.517E+01    1.515E+01    1.513E+01
     1.512E+01    1.510E+01    1.509E+01    1.507E+01    1.506E+01    1.504E+01    1.503E+01    1.501E+01    1.500E+01    1.498E+01
     1.497E+01    1.496E+01    1.494E+01    1.493E+01    1.492E+01    1.490E+01    1.489E+01    1.488E+01    1.487E+01    1.486E+01
     1.484E+01    1.483E+01    1.482E+01    1.481E+01    1.480E+01    1.479E+01    1.478E+01    1.477E+01    1.476E+01    1.475E+01
     1.474E+01    1.473E+01    1.472E+01    1.471E+01    1.470E+01    1.469E+01    1.468E+01    1.467E+01    1.466E+01    1.465E+01
     1.465E+01    1.464E+01    1.463E+01    1.462E+01    1.461E+01    1.460E+01    1.460E+01    1.459E+01    1.458E+01    1.457E+01
     1.457E+01    1.456E+01    1.455E+01    1.454E+01    1.454E+01    1.453E+01    1.452E+01    1.451E+01    1.451E+01    1.450E+01
     1.449E+01    1.449E+01    1.448E+01    1.447E+01    1.447E+01    1.446E+01    1.445E+01    1.445E+01    1.444E+01    1.443E+01
     1.443E+01    1.442E+01    1.441E+01    1.441E+01    1.440E+01    1.439E+01    1.439E+01    1.438E+01    1.438E+01    1.437E+01
     1.436E+01    1.436E+01    1.435E+01    1.434E+01    1.434E+01    1.433E+01    1.432E+01    1.432E+01    1.431E+01    1.430E+01
     1.430E+01    1.429E+01    1.428E+01    1.428E+01    1.427E+01    1.426E+01    1.426E+01    1.425E+01    1.424E+01    1.424E+01
     1.423E+01    1.422E+01    1.421E+01    1.421E+01    1.420E+01    1.419E+01    1.419E+01    1.418E+01    1.417E+01    1.416E+01
     1.416E+01    1.415E+01    1.414E+01    1.413E+01    1.413E+01    1.412E+01    1.411E+01    1.410E+01    1.410E+01    1.409E+01
     1.408E+01    1.407E+01    1.407E+01    1.406E+01    1.405E+01    1.404E+01    1.403E+01    1.403E+01    1.402E+01    1.401E+01
     1.400E+01    1.400E+01    1.399E+01    1.398E+01    1.397E+01    1.396E+01    1.396E+01    1.395E+01
 Ala      Conc. = 1.96E+02
