 LCModel (Version 6.3-1L) Copyright: S.W. Provencher.          Ref.: Magn. Reson. Med. 30:672-679 (1993).                
 Slice#1 Row#7 Col#11  K_02_press_1_raw_act
 36 lines in following concentration table = NCONC+1
    Conc.  %SD /Cr+PCr  Metabolite                                         
    0.000 999%   0.000 Ala                                                 
    0.000 999%   0.000 Asp                                                 
    0.000 999%   0.000 Cr                                                  
  959.958   7%   1.000 PCr                                                 
    0.000 999%   0.000 GABA                                                
   94.387 152% 9.8E-02 Glc                                                 
  369.490  65%   0.385 Gln                                                 
 1.25E+03  22%   1.301 Glu                                                 
  351.340   7%   0.366 GPC                                                 
    0.000 999%   0.000 PCh                                                 
  233.987  34%   0.244 GSH                                                 
  724.334  36%   0.755 Ins                                                 
   53.093 242% 5.5E-02 Lac                                                 
 2.35E+03   7%   2.450 NAA                                                 
  468.421  35%   0.488 NAAG                                                
   53.482  54% 5.6E-02 Scyllo                                              
  340.313  58%   0.355 Tau                                                 
  638.031  16%   0.665 -CrCH2                                              
  351.340   7%   0.366 GPC+PCh                                             
 2.82E+03   4%   2.938 NAA+NAAG                                            
  959.958   7%   1.000 Cr+PCr                                              
 1.62E+03  23%   1.686 Glu+Gln                                             
   84.682 251% 8.8E-02 Lip13a                                              
    0.000 999%   0.000 Lip13b                                              
    0.000 999%   0.000 Lip09                                               
 1.82E+03  11%   1.893 MM09                                                
   13.543 401% 1.4E-02 Lip20                                               
 3.60E+03  11%   3.746 MM20                                                
  577.152  29%   0.601 MM12                                                
 3.71E+03  12%   3.863 MM14                                                
 1.42E+03  23%   1.482 MM17                                                
   84.682 251% 8.8E-02 Lip13a+Lip13b                                       
 4.37E+03  10%   4.553 MM14+Lip13a+Lip13b+MM12                             
 1.82E+03  11%   1.893 MM09+Lip09                                          
 3.61E+03  11%   3.760 MM20+Lip20                                          
   6 lines in following misc. output table
  FWHM = 0.046 ppm    S/N =  12                                            
  Data shift = 0.008 ppm                                                   
  Ph: -22 deg      -0.7 deg/ppm                                            
  alphaB,S = 8.5E+01,   8.4E+01                                            
   14 spline knots.   Ns = 7(1)                                            
   2 inflections.     1 extrema                                            
  498 points on ppm-axis = NY
      4.000000     3.992357     3.984714     3.977070     3.969427     3.961784     3.954141     3.946497     3.938854     3.931211
      3.923568     3.915925     3.908281     3.900638     3.892995     3.885352     3.877708     3.870065     3.862422     3.854779
      3.847136     3.839492     3.831849     3.824206     3.816563     3.808919     3.801276     3.793633     3.785990     3.778347
      3.770703     3.763060     3.755417     3.747774     3.740130     3.732487     3.724844     3.717201     3.709558     3.701914
      3.694271     3.686628     3.678985     3.671341     3.663698     3.656055     3.648412     3.640769     3.633125     3.625482
      3.617839     3.610196     3.602552     3.594909     3.587266     3.579623     3.571980     3.564336     3.556693     3.549050
      3.541407     3.533763     3.526120     3.518477     3.510834     3.503191     3.495547     3.487904     3.480261     3.472618
      3.464974     3.457331     3.449688     3.442045     3.434402     3.426758     3.419115     3.411472     3.403829     3.396185
      3.388542     3.380899     3.373256     3.365613     3.357969     3.350326     3.342683     3.335040     3.327396     3.319753
      3.312110     3.304467     3.296824     3.289180     3.281537     3.273894     3.266251     3.258607     3.250964     3.243321
      3.235678     3.228034     3.220391     3.212748     3.205105     3.197462     3.189818     3.182175     3.174532     3.166889
      3.159245     3.151602     3.143959     3.136316     3.128673     3.121029     3.113386     3.105743     3.098100     3.090456
      3.082813     3.075170     3.067527     3.059884     3.052240     3.044597     3.036954     3.029311     3.021667     3.014024
      3.006381     2.998738     2.991095     2.983451     2.975808     2.968165     2.960522     2.952878     2.945235     2.937592
      2.929949     2.922306     2.914662     2.907019     2.899376     2.891733     2.884089     2.876446     2.868803     2.861160
      2.853517     2.845873     2.838230     2.830587     2.822944     2.815300     2.807657     2.800014     2.792371     2.784728
      2.777084     2.769441     2.761798     2.754155     2.746511     2.738868     2.731225     2.723582     2.715939     2.708295
      2.700652     2.693009     2.685366     2.677722     2.670079     2.662436     2.654793     2.647150     2.639506     2.631863
      2.624220     2.616577     2.608933     2.601290     2.593647     2.586004     2.578361     2.570717     2.563074     2.555431
      2.547788     2.540144     2.532501     2.524858     2.517215     2.509572     2.501928     2.494285     2.486642     2.478999
      2.471355     2.463712     2.456069     2.448426     2.440783     2.433139     2.425496     2.417853     2.410210     2.402566
      2.394923     2.387280     2.379637     2.371994     2.364350     2.356707     2.349064     2.341421     2.333777     2.326134
      2.318491     2.310848     2.303205     2.295561     2.287918     2.280275     2.272632     2.264988     2.257345     2.249702
      2.242059     2.234416     2.226772     2.219129     2.211486     2.203843     2.196199     2.188556     2.180913     2.173270
      2.165627     2.157983     2.150340     2.142697     2.135054     2.127410     2.119767     2.112124     2.104481     2.096838
      2.089194     2.081551     2.073908     2.066265     2.058621     2.050978     2.043335     2.035692     2.028049     2.020405
      2.012762     2.005119     1.997476     1.989833     1.982190     1.974546     1.966903     1.959260     1.951617     1.943974
      1.936331     1.928688     1.921045     1.913402     1.905759     1.898115     1.890472     1.882829     1.875186     1.867543
      1.859900     1.852257     1.844614     1.836971     1.829327     1.821684     1.814041     1.806398     1.798755     1.791112
      1.783469     1.775826     1.768183     1.760540     1.752896     1.745253     1.737610     1.729967     1.722324     1.714681
      1.707038     1.699395     1.691752     1.684108     1.676465     1.668822     1.661179     1.653536     1.645893     1.638250
      1.630607     1.622964     1.615321     1.607677     1.600034     1.592391     1.584748     1.577105     1.569462     1.561819
      1.554176     1.546533     1.538890     1.531246     1.523603     1.515960     1.508317     1.500674     1.493031     1.485388
      1.477745     1.470102     1.462458     1.454815     1.447172     1.439529     1.431886     1.424243     1.416600     1.408957
      1.401314     1.393671     1.386027     1.378384     1.370741     1.363098     1.355455     1.347812     1.340169     1.332526
      1.324883     1.317240     1.309596     1.301953     1.294310     1.286667     1.279024     1.271381     1.263738     1.256095
      1.248452     1.240808     1.233165     1.225522     1.217879     1.210236     1.202593     1.194950     1.187307     1.179664
      1.172021     1.164377     1.156734     1.149091     1.141448     1.133805     1.126162     1.118519     1.110876     1.103233
      1.095590     1.087946     1.080303     1.072660     1.065017     1.057374     1.049731     1.042088     1.034445     1.026802
      1.019158     1.011515     1.003872     0.996229     0.988586     0.980943     0.973300     0.965657     0.958014     0.950371
      0.942727     0.935084     0.927441     0.919798     0.912155     0.904512     0.896869     0.889226     0.881583     0.873940
      0.866296     0.858653     0.851010     0.843367     0.835724     0.828081     0.820438     0.812795     0.805152     0.797508
      0.789865     0.782222     0.774579     0.766936     0.759293     0.751650     0.744007     0.736364     0.728721     0.721077
      0.713434     0.705791     0.698148     0.690505     0.682862     0.675219     0.667576     0.659933     0.652290     0.644646
      0.637003     0.629360     0.621717     0.614074     0.606431     0.598788     0.591145     0.583502     0.575858     0.568215
      0.560572     0.552929     0.545286     0.537643     0.530000     0.522357     0.514714     0.507071     0.499427     0.491784
      0.484141     0.476498     0.468855     0.461212     0.453569     0.445925     0.438282     0.430639     0.422996     0.415353
      0.407710     0.400067     0.392424     0.384780     0.377137     0.369494     0.361851     0.354208     0.346565     0.338922
      0.331278     0.323635     0.315992     0.308349     0.300706     0.293063     0.285420     0.277777     0.270133     0.262490
      0.254847     0.247204     0.239561     0.231918     0.224275     0.216631     0.208988     0.201345
 NY phased data points follow
   7.84101E+00  4.11093E+00  4.54251E+00  5.29998E+00  1.09267E+01  6.95646E+00  8.69180E+00  3.45412E+00  1.12064E+01  1.08826E+01
   1.07711E+01  9.35101E+00  1.01374E+01  1.56875E-01  8.52722E+00  2.77273E+00  8.27227E-01 -2.34586E-01  1.92644E-01  1.89319E+00
   3.13053E+00  6.75648E+00  2.65683E+00  7.52311E+00  5.69722E+00  1.00347E+01  4.73436E+00  7.99543E+00  3.33315E+00  4.91298E+00
   4.65101E+00  7.16355E+00  7.49102E+00  3.45124E+00  4.10109E+00  3.09698E+00  2.63946E+00  6.17358E+00  3.55390E+00  7.02065E+00
   8.64489E-01  6.15462E+00  5.79575E+00  8.33055E+00  8.34432E+00  1.24828E+01  1.26152E+01  1.08753E+01  8.20306E+00  3.20747E+00
   1.21037E+01  5.93035E+00  9.20531E+00  7.88570E+00  4.81597E+00  5.05750E+00  9.42193E+00  7.02451E+00  5.49260E+00  7.65719E+00
   2.43235E+00  1.80609E+00  4.95578E+00  3.20471E+00  7.00739E+00  9.71487E-01  4.52294E+00  2.76956E+00  6.72134E+00  4.26404E+00
   5.65934E+00  3.31931E+00  1.54644E+00  1.53833E-01  3.45173E+00  2.41157E+00  3.95542E-01  1.59246E+00  2.67954E+00  3.39553E+00
   5.11582E+00  2.12096E+00  1.54090E+00  3.14089E+00  5.26626E+00  6.93192E-01  1.27076E+00  2.16805E+00  2.33936E+00  6.94195E+00
   8.47682E+00  9.47065E+00  5.70788E+00  1.01015E+00  8.33584E+00  1.50095E+00  6.33292E+00  6.62753E+00  8.15518E+00  1.77394E+01
   2.63544E+01  3.50326E+01  3.62016E+01  3.81196E+01  3.79722E+01  1.98123E+01  2.70988E+01  1.32964E+01  6.25187E+00  1.13461E+01
   1.24586E+01  7.61428E+00  5.26263E+00  2.59095E+00  9.42753E+00  8.75398E+00  1.07218E+01  1.01736E+01  1.01904E+01  7.70960E+00
   8.58637E+00  8.96242E+00  1.61896E+01  1.29925E+01  2.65471E+01  3.35312E+01  3.90900E+01  3.65166E+01  3.58179E+01  3.03959E+01
   2.50011E+01  1.66623E+01  1.51619E+01  1.57317E+01  1.64808E+01  8.89004E+00  7.63544E+00  8.55515E+00  9.48425E+00  6.74182E+00
   7.00044E+00  9.52831E+00  8.03443E+00  6.59507E+00  7.13431E+00  8.60409E+00  8.38328E+00  8.77677E+00  6.11049E+00  3.39154E+00
   5.93113E+00  4.79681E+00  4.73289E+00  6.53678E+00  5.07994E+00  6.62113E+00  2.31879E+00  1.07384E+01  3.55958E+00  4.17429E+00
   1.06378E+01  1.92894E+00  2.30288E+00 -1.28043E+00  2.28225E+00  1.88418E+00  5.41976E-01 -5.18863E+00 -4.57281E+00 -5.83339E+00
  -7.80355E+00 -1.12369E+01 -1.02379E+01 -1.22818E+01 -8.75875E+00 -8.94487E+00 -1.10914E+01 -5.32368E+00 -9.01336E+00 -1.15149E+01
  -8.06589E+00 -3.82550E+00 -9.66036E+00 -5.49512E+00 -7.74878E+00 -1.54324E+00 -5.19586E+00 -2.12700E+00 -3.18262E+00  2.86850E-01
   6.46285E-01  3.90319E+00 -1.31187E+00 -1.99618E+00  3.36507E-01 -3.85142E+00 -6.12915E+00 -1.39022E+01 -1.15242E+01 -1.42069E+01
  -8.71965E+00 -3.74478E+00  5.23871E+00  3.84143E+00  5.73954E+00  2.24280E-01  3.94368E+00  5.60935E+00  1.09649E+00  2.91484E-01
   3.88031E+00  5.87086E+00  4.16037E+00  1.17309E+01  1.05717E+01  1.78027E+01  1.45993E+01  1.41040E+01  1.18120E+01  8.16833E+00
   3.81653E+00  1.23610E+00  1.35518E+00 -4.22666E+00  5.46052E+00  2.86058E+00  4.71818E+00  1.21329E+01  1.26408E+01  1.33864E+01
   8.87412E+00  1.62808E+01  1.15864E+01  3.20638E+00  7.73961E+00  9.98434E+00  9.13981E+00  7.55224E+00  7.08883E+00  1.35795E+01
   5.14000E+00  7.97031E+00  8.74599E+00  3.22799E+00  1.01680E+01  1.26389E+01  1.37972E+01  1.67929E+01  1.70782E+01  2.12975E+01
   1.93166E+01  2.44126E+01  2.19093E+01  3.38029E+01  4.27742E+01  4.97445E+01  5.79954E+01  6.82422E+01  8.40638E+01  1.02584E+02
   1.07074E+02  1.01178E+02  8.81606E+01  6.72959E+01  4.73553E+01  3.60447E+01  1.89332E+01  1.29325E+01  2.15137E+01  1.50778E+01
   1.82257E+00  1.13107E+01  1.45064E+01  8.34835E+00  7.21033E+00  6.77241E+00  7.70385E+00  1.46844E+00  3.01817E-01  5.63329E+00
   2.76434E+00  2.16275E+00  6.93683E+00  4.58624E+00  5.84657E+00  1.43556E+00  7.84905E+00  3.53269E+00  8.13603E+00  4.56594E+00
   9.37061E+00  7.85154E+00  6.02443E+00  9.67200E+00  1.00149E+01  4.90318E+00  9.43281E+00  2.54299E+00  5.36792E+00  4.05320E+00
   3.52814E+00  6.01959E+00  9.38831E-01  9.77195E+00  7.36910E+00  1.02145E+01  1.64663E+01  1.56360E+01  1.16559E+01  1.55922E+01
   1.29709E+01  9.10855E+00  1.55803E+01  1.44523E+01  1.81730E+01  1.68500E+01  1.31499E+01  1.84047E+01  2.06557E+01  1.88527E+01
   1.55206E+01  1.81461E+01  1.95571E+01  1.98213E+01  1.73005E+01  1.43250E+01  2.18617E+01  2.00285E+01  2.29926E+01  2.59718E+01
   2.46297E+01  2.22526E+01  2.73921E+01  2.79205E+01  2.63465E+01  2.71276E+01  2.01518E+01  1.72381E+01  2.51159E+01  2.33461E+01
   2.69202E+01  2.49702E+01  2.57155E+01  2.10737E+01  2.23435E+01  1.69509E+01  1.88473E+01  2.11118E+01  1.63460E+01  1.78660E+01
   1.05996E+01  1.24579E+01  1.40210E+01  9.39635E+00  8.41909E+00  1.03963E+01  1.08804E+01  7.16131E+00  7.38030E+00  1.10761E+01
   6.49104E+00  6.31432E+00  4.11797E+00  3.18699E+00  9.27599E+00  6.94832E+00  1.12536E+01  1.20431E+01  1.22154E+01  1.02593E+01
   6.63809E+00  8.41980E+00  4.85795E+00  5.53434E+00  6.92405E+00  4.27597E+00  4.19689E+00  3.86389E+00  5.36870E+00  4.94815E+00
   2.21759E+00  2.14518E+00  1.01129E+01 -4.21438E+00  8.17114E+00  1.92194E+00  4.69556E+00  1.26562E+01  9.24105E+00  7.09136E+00
   5.93105E+00  6.12329E+00  1.49916E+01  1.04204E+01  8.16398E+00  8.78033E+00  1.08066E+01  1.20001E+01  1.04890E+01  6.42213E+00
   1.39475E+01  1.77588E+01  1.49223E+01  9.42960E+00  1.24965E+01  1.40565E+01  1.71534E+01  1.38912E+01  1.54304E+01  1.49348E+01
   1.23716E+01  1.81629E+01  9.22082E+00  1.38150E+01  1.25753E+01  1.04592E+01  7.01372E+00  6.96216E+00  9.78443E+00  5.34639E+00
   1.81790E+00  7.14347E+00  6.17205E+00  3.39457E+00  4.06233E+00  4.60205E+00  6.62000E+00 -1.53310E+00  4.25321E+00  9.63935E+00
   3.54404E+00  1.09591E+01  1.56414E+00 -7.91803E-01 -5.84354E-01 -2.44868E+00  4.82423E+00  6.06438E+00  4.75481E+00  4.79690E-01
   6.11298E+00  9.07410E+00  2.56628E-01  4.62717E+00  5.70875E+00  1.96886E+00  3.67042E+00 -8.47560E-01  3.15598E+00  1.47085E+00
   2.26173E+00  3.92220E+00 -1.27058E+00  5.99150E+00  5.69758E+00  4.97865E+00  2.90411E+00  2.99944E+00  2.01977E+00 -4.68360E-01
   2.18563E+00  5.34948E+00 -1.49160E+00  4.29306E+00  2.92332E+00  1.30473E+00  2.80801E+00  2.36594E+00  3.60563E+00 -2.17710E-01
   1.34439E+00  1.00751E+00  1.31863E+00  2.54739E+00  5.69607E+00  6.64646E+00 -9.25985E-01  2.74119E+00  4.82207E+00  2.01574E+00
   5.91211E+00  9.47783E+00  1.86439E+00  1.33567E+00 -3.36849E+00  3.11314E-01  3.31320E+00 -1.99348E-01  1.37115E+00  2.57130E+00
  -2.30436E+00 -2.61346E+00  1.24386E+00  1.35431E+00 -1.62090E+00  3.01981E+00 -2.26284E+00 -8.86156E-01
 NY points of the fit to the data follow
   2.58780E+00  2.64369E+00  3.18506E+00  3.97583E+00  5.00191E+00  6.44724E+00  8.24130E+00  9.92659E+00  1.09780E+01  1.11170E+01
   1.04071E+01  9.14282E+00  7.73247E+00  6.51381E+00  5.67771E+00  5.23551E+00  4.94319E+00  4.62434E+00  4.39851E+00  4.25006E+00
   4.14813E+00  4.00376E+00  3.85349E+00  3.91591E+00  4.05714E+00  4.16567E+00  4.47154E+00  5.19754E+00  6.39888E+00  7.80025E+00
   9.13601E+00  1.01356E+01  1.05183E+01  1.01399E+01  9.02756E+00  7.40028E+00  5.73339E+00  4.28706E+00  3.22925E+00  2.94073E+00
   3.42494E+00  4.31668E+00  5.31073E+00  6.35738E+00  7.54001E+00  8.68207E+00  9.47778E+00  9.66383E+00  9.14033E+00  8.04484E+00
   6.64414E+00  5.24861E+00  4.22403E+00  3.68660E+00  3.51217E+00  3.54829E+00  3.75593E+00  4.11164E+00  4.49882E+00  4.77647E+00
   4.83696E+00  4.61659E+00  4.21614E+00  3.76794E+00  3.42454E+00  3.31262E+00  3.40346E+00  3.56104E+00  3.75517E+00  4.00525E+00
   4.24205E+00  4.43250E+00  4.63673E+00  4.88219E+00  5.07051E+00  5.07159E+00  4.81014E+00  4.26184E+00  3.60437E+00  3.10246E+00
   2.91551E+00  2.99022E+00  3.30992E+00  3.79438E+00  4.27229E+00  4.56927E+00  4.51019E+00  4.07437E+00  3.44913E+00  2.86710E+00
   2.40192E+00  2.04997E+00  1.84307E+00  1.71734E+00  1.67774E+00  2.40358E+00  4.82342E+00  7.98080E+00  1.18698E+01  1.75283E+01
   2.50734E+01  3.27057E+01  3.77323E+01  3.84443E+01  3.49030E+01  2.85818E+01  2.14373E+01  1.49979E+01  1.03556E+01  7.81653E+00
   6.38734E+00  5.11865E+00  4.43439E+00  4.09455E+00  3.87786E+00  3.74711E+00  3.65994E+00  3.63093E+00  3.74071E+00  4.44636E+00
   6.53396E+00  9.32993E+00  1.27810E+01  1.78510E+01  2.48237E+01  3.21670E+01  3.73678E+01  3.86833E+01  3.59464E+01  3.03735E+01
   2.38286E+01  1.78064E+01  1.32400E+01  1.04153E+01  8.56842E+00  6.84846E+00  5.69404E+00  5.12947E+00  4.98534E+00  5.15088E+00
   5.44570E+00  5.65515E+00  5.66664E+00  5.49341E+00  5.18334E+00  4.81643E+00  4.46915E+00  4.15103E+00  3.86153E+00  3.60098E+00
   3.34341E+00  3.09204E+00  2.86406E+00  2.66939E+00  2.46967E+00  2.31938E+00  2.23830E+00  2.09572E+00  1.79040E+00  1.25985E+00
   6.69715E-01  3.42805E-01  4.26492E-01  7.41187E-01  9.66738E-01  8.82007E-01  4.26044E-01 -3.13064E-01 -1.11278E+00 -1.77506E+00
  -2.24099E+00 -2.48071E+00 -2.72241E+00 -3.18097E+00 -3.74416E+00 -4.09824E+00 -4.03958E+00 -3.66599E+00 -3.28456E+00 -3.12334E+00
  -3.18913E+00 -3.24278E+00 -3.11972E+00 -2.86663E+00 -2.48796E+00 -1.92217E+00 -1.10356E+00  3.55370E-02  1.42402E+00  2.88344E+00
   4.09414E+00  4.70093E+00  4.69349E+00  4.28021E+00  3.69943E+00  3.16215E+00  2.76095E+00  2.64051E+00  2.86371E+00  3.40513E+00
   4.22754E+00  5.21866E+00  6.19278E+00  6.75150E+00  6.63290E+00  5.77071E+00  4.18377E+00  2.13857E+00  1.55040E-01 -1.20326E+00
  -1.59106E+00 -1.07397E+00  4.21820E-01  2.86890E+00  5.71059E+00  7.98229E+00  8.81882E+00  8.05176E+00  6.09373E+00  3.27626E+00
   2.08125E-01 -2.12982E+00 -2.97888E+00 -2.12009E+00 -2.89006E-02  2.58928E+00  5.21360E+00  7.27700E+00  8.45990E+00  8.74492E+00
   8.56359E+00  8.42306E+00  8.47264E+00  8.73330E+00  9.24720E+00  9.92424E+00  1.05179E+01  1.08892E+01  1.09990E+01  1.08680E+01
   1.05563E+01  1.02790E+01  1.03483E+01  1.09340E+01  1.19707E+01  1.31935E+01  1.43615E+01  1.53207E+01  1.61587E+01  1.73312E+01
   1.87052E+01  2.05282E+01  2.36722E+01  3.03316E+01  4.03059E+01  4.98715E+01  5.95906E+01  7.21086E+01  8.71549E+01  9.99633E+01
   1.04985E+02  9.99597E+01  8.65109E+01  6.84720E+01  5.00431E+01  3.47528E+01  2.46770E+01  1.94836E+01  1.60235E+01  1.30619E+01
   1.16372E+01  1.08254E+01  1.02553E+01  9.80250E+00  9.38967E+00  8.93627E+00  8.44200E+00  7.93181E+00  7.42943E+00  6.96861E+00
   6.58959E+00  6.30114E+00  6.07119E+00  5.86503E+00  5.67245E+00  5.49327E+00  5.31981E+00  5.15457E+00  5.02077E+00  4.94940E+00
   4.95200E+00  5.01874E+00  5.13585E+00  5.29366E+00  5.48090E+00  5.69180E+00  5.92933E+00  6.20653E+00  6.54265E+00  6.94727E+00
   7.41864E+00  7.95203E+00  8.53613E+00  9.15551E+00  9.79489E+00  1.04394E+01  1.10795E+01  1.17073E+01  1.23119E+01  1.28846E+01
   1.34195E+01  1.39108E+01  1.43566E+01  1.47582E+01  1.51212E+01  1.54532E+01  1.57657E+01  1.60711E+01  1.63837E+01  1.67174E+01
   1.70855E+01  1.74986E+01  1.79645E+01  1.84868E+01  1.90653E+01  1.96944E+01  2.03645E+01  2.10606E+01  2.17648E+01  2.24555E+01
   2.31102E+01  2.37050E+01  2.42171E+01  2.46247E+01  2.49099E+01  2.50581E+01  2.50602E+01  2.49122E+01  2.46170E+01  2.41857E+01
   2.36412E+01  2.29804E+01  2.21992E+01  2.13354E+01  2.04079E+01  1.93889E+01  1.82382E+01  1.69595E+01  1.56405E+01  1.43696E+01
   1.32059E+01  1.22121E+01  1.14422E+01  1.09017E+01  1.05195E+01  1.01887E+01  9.85164E+00  9.48610E+00  9.08570E+00  8.67478E+00
   8.28450E+00  7.94614E+00  7.66972E+00  7.42818E+00  7.21323E+00  7.02625E+00  6.85829E+00  6.70307E+00  6.55759E+00  6.41970E+00
   6.28911E+00  6.16559E+00  6.05039E+00  5.94462E+00  5.85068E+00  5.77068E+00  5.70765E+00  5.66405E+00  5.64314E+00  5.64761E+00
   5.68095E+00  5.74595E+00  5.84595E+00  5.98342E+00  6.16133E+00  6.38171E+00  6.64692E+00  6.95799E+00  7.31581E+00  7.71958E+00
   8.16808E+00  8.65809E+00  9.18558E+00  9.74410E+00  1.03261E+01  1.09218E+01  1.15204E+01  1.21092E+01  1.26753E+01  1.32044E+01
   1.36829E+01  1.40971E+01  1.44352E+01  1.46865E+01  1.48431E+01  1.48994E+01  1.48530E+01  1.47041E+01  1.44568E+01  1.41172E+01
   1.36947E+01  1.31998E+01  1.26453E+01  1.20443E+01  1.14107E+01  1.07576E+01  1.00979E+01  9.44255E+00  8.80183E+00  8.18368E+00
   7.59501E+00  7.04027E+00  6.52291E+00  6.04430E+00  5.60523E+00  5.20484E+00  4.84209E+00  4.51462E+00  4.22030E+00  3.95615E+00
   3.71980E+00  3.50825E+00  3.31922E+00  3.14986E+00  2.99818E+00  2.86178E+00  2.73918E+00  2.62843E+00  2.52838E+00  2.43738E+00
   2.35463E+00  2.27886E+00  2.20962E+00  2.14585E+00  2.08722E+00  2.03282E+00  1.98249E+00  1.93554E+00  1.89198E+00  1.85115E+00
   1.81305E+00  1.77709E+00  1.74341E+00  1.71154E+00  1.68165E+00  1.65325E+00  1.62647E+00  1.60086E+00  1.57669E+00  1.55355E+00
   1.53169E+00  1.51067E+00  1.49069E+00  1.47140E+00  1.45310E+00  1.43544E+00  1.41867E+00  1.40236E+00  1.38680E+00  1.37164E+00
   1.35723E+00  1.34322E+00  1.32985E+00  1.31675E+00  1.30421E+00  1.29195E+00  1.28028E+00  1.26885E+00  1.25791E+00  1.24711E+00
   1.23678E+00  1.22663E+00  1.21697E+00  1.20744E+00  1.19832E+00  1.18927E+00  1.18064E+00  1.17214E+00  1.16407E+00  1.15607E+00
   1.14842E+00  1.14082E+00  1.13363E+00  1.12655E+00  1.11987E+00  1.11324E+00  1.10696E+00  1.10077E+00
 NY background values follow
     1.800E+00    1.798E+00    1.796E+00    1.795E+00    1.793E+00    1.792E+00    1.790E+00    1.789E+00    1.787E+00    1.785E+00
     1.784E+00    1.782E+00    1.781E+00    1.779E+00    1.778E+00    1.776E+00    1.774E+00    1.773E+00    1.771E+00    1.770E+00
     1.768E+00    1.767E+00    1.765E+00    1.763E+00    1.762E+00    1.760E+00    1.759E+00    1.757E+00    1.755E+00    1.754E+00
     1.752E+00    1.751E+00    1.749E+00    1.748E+00    1.746E+00    1.744E+00    1.743E+00    1.741E+00    1.740E+00    1.738E+00
     1.736E+00    1.735E+00    1.733E+00    1.732E+00    1.730E+00    1.728E+00    1.727E+00    1.725E+00    1.724E+00    1.722E+00
     1.721E+00    1.719E+00    1.717E+00    1.716E+00    1.714E+00    1.713E+00    1.711E+00    1.709E+00    1.708E+00    1.706E+00
     1.705E+00    1.703E+00    1.701E+00    1.700E+00    1.698E+00    1.697E+00    1.695E+00    1.693E+00    1.692E+00    1.690E+00
     1.689E+00    1.687E+00    1.685E+00    1.684E+00    1.682E+00    1.681E+00    1.679E+00    1.677E+00    1.676E+00    1.674E+00
     1.673E+00    1.671E+00    1.669E+00    1.668E+00    1.666E+00    1.665E+00    1.663E+00    1.661E+00    1.660E+00    1.658E+00
     1.657E+00    1.655E+00    1.653E+00    1.652E+00    1.650E+00    1.649E+00    1.647E+00    1.645E+00    1.644E+00    1.642E+00
     1.640E+00    1.639E+00    1.637E+00    1.636E+00    1.634E+00    1.632E+00    1.631E+00    1.629E+00    1.628E+00    1.626E+00
     1.624E+00    1.623E+00    1.621E+00    1.619E+00    1.618E+00    1.616E+00    1.615E+00    1.613E+00    1.611E+00    1.610E+00
     1.608E+00    1.606E+00    1.605E+00    1.603E+00    1.602E+00    1.600E+00    1.598E+00    1.597E+00    1.595E+00    1.594E+00
     1.592E+00    1.590E+00    1.589E+00    1.587E+00    1.585E+00    1.584E+00    1.582E+00    1.581E+00    1.579E+00    1.577E+00
     1.576E+00    1.574E+00    1.572E+00    1.571E+00    1.569E+00    1.567E+00    1.566E+00    1.564E+00    1.563E+00    1.561E+00
     1.559E+00    1.558E+00    1.556E+00    1.554E+00    1.553E+00    1.551E+00    1.550E+00    1.548E+00    1.546E+00    1.545E+00
     1.543E+00    1.541E+00    1.540E+00    1.538E+00    1.536E+00    1.535E+00    1.533E+00    1.532E+00    1.530E+00    1.528E+00
     1.527E+00    1.525E+00    1.523E+00    1.522E+00    1.520E+00    1.518E+00    1.517E+00    1.515E+00    1.514E+00    1.512E+00
     1.510E+00    1.509E+00    1.507E+00    1.505E+00    1.504E+00    1.502E+00    1.500E+00    1.499E+00    1.497E+00    1.496E+00
     1.494E+00    1.492E+00    1.491E+00    1.489E+00    1.487E+00    1.486E+00    1.484E+00    1.482E+00    1.481E+00    1.479E+00
     1.477E+00    1.476E+00    1.474E+00    1.472E+00    1.471E+00    1.469E+00    1.468E+00    1.466E+00    1.464E+00    1.463E+00
     1.461E+00    1.459E+00    1.458E+00    1.456E+00    1.454E+00    1.453E+00    1.451E+00    1.449E+00    1.448E+00    1.446E+00
     1.444E+00    1.443E+00    1.441E+00    1.440E+00    1.438E+00    1.436E+00    1.435E+00    1.433E+00    1.431E+00    1.430E+00
     1.428E+00    1.426E+00    1.425E+00    1.423E+00    1.421E+00    1.420E+00    1.418E+00    1.416E+00    1.415E+00    1.413E+00
     1.411E+00    1.410E+00    1.408E+00    1.406E+00    1.405E+00    1.403E+00    1.401E+00    1.400E+00    1.398E+00    1.397E+00
     1.395E+00    1.393E+00    1.392E+00    1.390E+00    1.388E+00    1.387E+00    1.385E+00    1.383E+00    1.382E+00    1.380E+00
     1.378E+00    1.377E+00    1.375E+00    1.373E+00    1.372E+00    1.370E+00    1.368E+00    1.367E+00    1.365E+00    1.363E+00
     1.362E+00    1.360E+00    1.358E+00    1.357E+00    1.355E+00    1.353E+00    1.352E+00    1.350E+00    1.348E+00    1.347E+00
     1.345E+00    1.343E+00    1.342E+00    1.340E+00    1.338E+00    1.337E+00    1.335E+00    1.333E+00    1.332E+00    1.330E+00
     1.328E+00    1.327E+00    1.325E+00    1.323E+00    1.322E+00    1.320E+00    1.318E+00    1.317E+00    1.315E+00    1.313E+00
     1.312E+00    1.310E+00    1.308E+00    1.307E+00    1.305E+00    1.303E+00    1.302E+00    1.300E+00    1.298E+00    1.297E+00
     1.295E+00    1.293E+00    1.292E+00    1.290E+00    1.288E+00    1.287E+00    1.285E+00    1.283E+00    1.282E+00    1.280E+00
     1.278E+00    1.277E+00    1.275E+00    1.273E+00    1.272E+00    1.270E+00    1.268E+00    1.267E+00    1.265E+00    1.263E+00
     1.262E+00    1.260E+00    1.258E+00    1.257E+00    1.255E+00    1.253E+00    1.252E+00    1.250E+00    1.248E+00    1.247E+00
     1.245E+00    1.243E+00    1.242E+00    1.240E+00    1.238E+00    1.237E+00    1.235E+00    1.233E+00    1.232E+00    1.230E+00
     1.228E+00    1.226E+00    1.225E+00    1.223E+00    1.221E+00    1.220E+00    1.218E+00    1.216E+00    1.215E+00    1.213E+00
     1.211E+00    1.210E+00    1.208E+00    1.206E+00    1.205E+00    1.203E+00    1.201E+00    1.200E+00    1.198E+00    1.196E+00
     1.195E+00    1.193E+00    1.191E+00    1.190E+00    1.188E+00    1.186E+00    1.185E+00    1.183E+00    1.181E+00    1.179E+00
     1.178E+00    1.176E+00    1.174E+00    1.173E+00    1.171E+00    1.169E+00    1.168E+00    1.166E+00    1.164E+00    1.163E+00
     1.161E+00    1.159E+00    1.158E+00    1.156E+00    1.154E+00    1.153E+00    1.151E+00    1.149E+00    1.148E+00    1.146E+00
     1.144E+00    1.142E+00    1.141E+00    1.139E+00    1.137E+00    1.136E+00    1.134E+00    1.132E+00    1.131E+00    1.129E+00
     1.127E+00    1.126E+00    1.124E+00    1.122E+00    1.121E+00    1.119E+00    1.117E+00    1.116E+00    1.114E+00    1.112E+00
     1.110E+00    1.109E+00    1.107E+00    1.105E+00    1.104E+00    1.102E+00    1.100E+00    1.099E+00    1.097E+00    1.095E+00
     1.094E+00    1.092E+00    1.090E+00    1.088E+00    1.087E+00    1.085E+00    1.083E+00    1.082E+00    1.080E+00    1.078E+00
     1.077E+00    1.075E+00    1.073E+00    1.072E+00    1.070E+00    1.068E+00    1.067E+00    1.065E+00    1.063E+00    1.061E+00
     1.060E+00    1.058E+00    1.056E+00    1.055E+00    1.053E+00    1.051E+00    1.050E+00    1.048E+00    1.046E+00    1.045E+00
     1.043E+00    1.041E+00    1.039E+00    1.038E+00    1.036E+00    1.034E+00    1.033E+00    1.031E+00    1.029E+00    1.028E+00
     1.026E+00    1.024E+00    1.023E+00    1.021E+00    1.019E+00    1.017E+00    1.016E+00    1.014E+00    1.012E+00    1.011E+00
     1.009E+00    1.007E+00    1.006E+00    1.004E+00    1.002E+00    1.001E+00    9.988E-01    9.971E-01    9.954E-01    9.937E-01
     9.920E-01    9.903E-01    9.886E-01    9.869E-01    9.853E-01    9.836E-01    9.819E-01    9.802E-01
 PCr      Conc. = 9.60E+02
