 LCModel (Version 6.3-1L) Copyright: S.W. Provencher.          Ref.: Magn. Reson. Med. 30:672-679 (1993).                
 Slice#2 Row#4 Col#4  K_02_press_1_raw_act
 36 lines in following concentration table = NCONC+1
    Conc.  %SD /Cr+PCr  Metabolite                                         
   77.091 164% 4.9E-02 Ala                                                 
    0.000 999%   0.000 Asp                                                 
 1.31E+03  18%   0.838 Cr                                                  
  255.117  95%   0.162 PCr                                                 
    0.000 999%   0.000 GABA                                                
    0.000 999%   0.000 Glc                                                 
  461.708  58%   0.294 Gln                                                 
 1.56E+03  19%   0.994 Glu                                                 
  584.969   5%   0.373 GPC                                                 
    0.000 999%   0.000 PCh                                                 
  558.981  15%   0.356 GSH                                                 
 1.48E+03  22%   0.945 Ins                                                 
    0.000 999%   0.000 Lac                                                 
 2.24E+03   7%   1.430 NAA                                                 
  414.721  40%   0.264 NAAG                                                
   35.034  92% 2.2E-02 Scyllo                                              
    0.000 999%   0.000 Tau                                                 
    0.000 999%   0.000 -CrCH2                                              
  584.969   5%   0.373 GPC+PCh                                             
 2.66E+03   4%   1.694 NAA+NAAG                                            
 1.57E+03   4%   1.000 Cr+PCr                                              
 2.02E+03  22%   1.288 Glu+Gln                                             
    0.000 999%   0.000 Lip13a                                              
  664.380  25%   0.423 Lip13b                                              
    0.000 999%   0.000 Lip09                                               
 4.14E+03  11%   2.639 MM09                                                
  129.896 241% 8.3E-02 Lip20                                               
 8.26E+03   9%   5.260 MM20                                                
 2.35E+03  15%   1.499 MM12                                                
    0.000 999%   0.000 MM14                                                
 4.12E+03  16%   2.626 MM17                                                
  664.380  25%   0.423 Lip13a+Lip13b                                       
 3.02E+03  11%   1.922 MM14+Lip13a+Lip13b+MM12                             
 4.14E+03  11%   2.639 MM09+Lip09                                          
 8.39E+03   8%   5.343 MM20+Lip20                                          
   6 lines in following misc. output table
  FWHM = 0.054 ppm    S/N =  14                                            
  Data shift = 0.038 ppm                                                   
  Ph:  18 deg       5.1 deg/ppm                                            
  alphaB,S = 3.8E-01,   1.0E+02                                            
   14 spline knots.   Ns = 8(1)                                            
  (12) 2 infls.   ( 9) 1 extrs.                                            
  498 points on ppm-axis = NY
      4.000000     3.992357     3.984714     3.977070     3.969427     3.961784     3.954141     3.946497     3.938854     3.931211
      3.923568     3.915925     3.908281     3.900638     3.892995     3.885352     3.877708     3.870065     3.862422     3.854779
      3.847136     3.839492     3.831849     3.824206     3.816563     3.808919     3.801276     3.793633     3.785990     3.778347
      3.770703     3.763060     3.755417     3.747774     3.740130     3.732487     3.724844     3.717201     3.709558     3.701914
      3.694271     3.686628     3.678985     3.671341     3.663698     3.656055     3.648412     3.640769     3.633125     3.625482
      3.617839     3.610196     3.602552     3.594909     3.587266     3.579623     3.571980     3.564336     3.556693     3.549050
      3.541407     3.533763     3.526120     3.518477     3.510834     3.503191     3.495547     3.487904     3.480261     3.472618
      3.464974     3.457331     3.449688     3.442045     3.434402     3.426758     3.419115     3.411472     3.403829     3.396185
      3.388542     3.380899     3.373256     3.365613     3.357969     3.350326     3.342683     3.335040     3.327396     3.319753
      3.312110     3.304467     3.296824     3.289180     3.281537     3.273894     3.266251     3.258607     3.250964     3.243321
      3.235678     3.228034     3.220391     3.212748     3.205105     3.197462     3.189818     3.182175     3.174532     3.166889
      3.159245     3.151602     3.143959     3.136316     3.128673     3.121029     3.113386     3.105743     3.098100     3.090456
      3.082813     3.075170     3.067527     3.059884     3.052240     3.044597     3.036954     3.029311     3.021667     3.014024
      3.006381     2.998738     2.991095     2.983451     2.975808     2.968165     2.960522     2.952878     2.945235     2.937592
      2.929949     2.922306     2.914662     2.907019     2.899376     2.891733     2.884089     2.876446     2.868803     2.861160
      2.853517     2.845873     2.838230     2.830587     2.822944     2.815300     2.807657     2.800014     2.792371     2.784728
      2.777084     2.769441     2.761798     2.754155     2.746511     2.738868     2.731225     2.723582     2.715939     2.708295
      2.700652     2.693009     2.685366     2.677722     2.670079     2.662436     2.654793     2.647150     2.639506     2.631863
      2.624220     2.616577     2.608933     2.601290     2.593647     2.586004     2.578361     2.570717     2.563074     2.555431
      2.547788     2.540144     2.532501     2.524858     2.517215     2.509572     2.501928     2.494285     2.486642     2.478999
      2.471355     2.463712     2.456069     2.448426     2.440783     2.433139     2.425496     2.417853     2.410210     2.402566
      2.394923     2.387280     2.379637     2.371994     2.364350     2.356707     2.349064     2.341421     2.333777     2.326134
      2.318491     2.310848     2.303205     2.295561     2.287918     2.280275     2.272632     2.264988     2.257345     2.249702
      2.242059     2.234416     2.226772     2.219129     2.211486     2.203843     2.196199     2.188556     2.180913     2.173270
      2.165627     2.157983     2.150340     2.142697     2.135054     2.127410     2.119767     2.112124     2.104481     2.096838
      2.089194     2.081551     2.073908     2.066265     2.058621     2.050978     2.043335     2.035692     2.028049     2.020405
      2.012762     2.005119     1.997476     1.989833     1.982190     1.974546     1.966903     1.959260     1.951617     1.943974
      1.936331     1.928688     1.921045     1.913402     1.905759     1.898115     1.890472     1.882829     1.875186     1.867543
      1.859900     1.852257     1.844614     1.836971     1.829327     1.821684     1.814041     1.806398     1.798755     1.791112
      1.783469     1.775826     1.768183     1.760540     1.752896     1.745253     1.737610     1.729967     1.722324     1.714681
      1.707038     1.699395     1.691752     1.684108     1.676465     1.668822     1.661179     1.653536     1.645893     1.638250
      1.630607     1.622964     1.615321     1.607677     1.600034     1.592391     1.584748     1.577105     1.569462     1.561819
      1.554176     1.546533     1.538890     1.531246     1.523603     1.515960     1.508317     1.500674     1.493031     1.485388
      1.477745     1.470102     1.462458     1.454815     1.447172     1.439529     1.431886     1.424243     1.416600     1.408957
      1.401314     1.393671     1.386027     1.378384     1.370741     1.363098     1.355455     1.347812     1.340169     1.332526
      1.324883     1.317240     1.309596     1.301953     1.294310     1.286667     1.279024     1.271381     1.263738     1.256095
      1.248452     1.240808     1.233165     1.225522     1.217879     1.210236     1.202593     1.194950     1.187307     1.179664
      1.172021     1.164377     1.156734     1.149091     1.141448     1.133805     1.126162     1.118519     1.110876     1.103233
      1.095590     1.087946     1.080303     1.072660     1.065017     1.057374     1.049731     1.042088     1.034445     1.026802
      1.019158     1.011515     1.003872     0.996229     0.988586     0.980943     0.973300     0.965657     0.958014     0.950371
      0.942727     0.935084     0.927441     0.919798     0.912155     0.904512     0.896869     0.889226     0.881583     0.873940
      0.866296     0.858653     0.851010     0.843367     0.835724     0.828081     0.820438     0.812795     0.805152     0.797508
      0.789865     0.782222     0.774579     0.766936     0.759293     0.751650     0.744007     0.736364     0.728721     0.721077
      0.713434     0.705791     0.698148     0.690505     0.682862     0.675219     0.667576     0.659933     0.652290     0.644646
      0.637003     0.629360     0.621717     0.614074     0.606431     0.598788     0.591145     0.583502     0.575858     0.568215
      0.560572     0.552929     0.545286     0.537643     0.530000     0.522357     0.514714     0.507071     0.499427     0.491784
      0.484141     0.476498     0.468855     0.461212     0.453569     0.445925     0.438282     0.430639     0.422996     0.415353
      0.407710     0.400067     0.392424     0.384780     0.377137     0.369494     0.361851     0.354208     0.346565     0.338922
      0.331278     0.323635     0.315992     0.308349     0.300706     0.293063     0.285420     0.277777     0.270133     0.262490
      0.254847     0.247204     0.239561     0.231918     0.224275     0.216631     0.208988     0.201345
 NY phased data points follow
   3.02014E+00  3.68982E+00  9.15353E+00  7.72165E+00  1.68731E+01  1.70023E+01  2.35213E+01  2.90075E+01  3.34308E+01  4.18187E+01
   4.20342E+01  3.82009E+01  3.74705E+01  3.70223E+01  2.74742E+01  2.18831E+01  1.67735E+01  2.06118E+01  1.39323E+01  1.44987E+01
   1.25971E+01  9.03541E+00  7.85037E+00  1.18738E+01  7.77747E+00  8.50650E+00  1.14132E+01  1.45899E+01  1.39009E+01  2.14412E+01
   1.49855E+01  1.88055E+01  1.27044E+01  1.23566E+01  1.48108E+01  1.48516E+01  1.26059E+01  1.43610E+01  1.05825E+01  9.35868E+00
   1.19038E+01  8.55910E+00  1.31149E+01  8.30450E+00  1.95150E+01  1.63355E+01  2.11298E+01  1.70438E+01  1.30426E+01  1.59388E+01
   1.33518E+01  1.23604E+01  9.82897E+00  5.72815E+00  1.15604E+01  7.28293E+00  7.05871E+00  9.42908E+00  1.07635E+01  5.71641E+00
   4.52251E+00  2.38640E+00  4.05327E+00  2.02811E+00 -1.83821E+00 -3.71639E+00 -2.36530E+00 -4.85559E+00 -4.94394E+00 -2.02431E-02
  -3.69500E+00  2.03615E+00 -6.73198E-01  3.79463E+00  1.17728E+00 -1.94798E+00  9.82935E-01 -3.31546E+00  4.40769E+00 -2.12594E+00
  -2.33804E+00  1.65698E-01  1.37313E+00 -5.26060E+00  1.34877E+00  5.59975E-01  3.78597E-01  9.57524E-01 -6.63405E+00 -2.89621E+00
  -4.55547E+00  1.73326E+00  1.75567E+00  2.43814E+00  3.93665E+00  5.40294E+00  4.12888E+00  1.19005E+01  1.01064E+01  1.97876E+01
   3.28660E+01  3.97773E+01  4.49274E+01  5.22691E+01  4.37105E+01  3.83252E+01  3.05168E+01  2.27770E+01  1.84363E+01  1.29511E+01
   1.04494E+01  1.00506E+01  4.01749E+00 -1.92506E+00  3.27002E+00  2.15791E+00  3.46408E+00  1.66891E+00  3.12075E+00  1.00167E+01
   7.00075E+00  6.61747E+00  1.46719E+01  2.32418E+01  3.56759E+01  4.72158E+01  4.77660E+01  4.59278E+01  4.60175E+01  3.71012E+01
   3.33503E+01  2.92719E+01  1.75568E+01  1.27121E+01  1.29347E+01  4.62059E+00  1.87674E+00  3.98296E+00  7.33163E-02  5.26462E+00
   4.47152E+00  1.18155E+00 -2.99506E-01 -6.34865E-01  3.44029E+00  2.25711E-01 -1.77321E+00 -3.84345E+00  1.16557E+00 -1.07979E+00
  -2.30490E+00 -1.02362E+00 -3.59935E+00 -3.20025E+00 -2.20588E+00 -3.61002E+00 -1.16877E+00 -1.42449E-01 -5.87409E+00 -9.04911E+00
  -8.24575E+00 -1.04233E+01 -7.40711E+00 -3.06072E+00 -5.80897E+00 -5.83032E+00 -1.47350E+00 -2.67321E+00 -1.12804E+01 -1.10758E+01
  -8.14423E+00 -1.41047E+01 -1.81963E+01 -1.34680E+01 -1.52077E+01 -1.31599E+01 -1.54596E+01 -1.73346E+01 -1.48485E+01 -1.77369E+01
  -1.62712E+01 -1.40523E+01 -1.38932E+01 -1.29174E+01 -1.30000E+01 -1.39123E+01 -1.01974E+01 -7.65546E+00 -1.01198E+00  7.60518E-01
   3.45347E+00  7.26778E-02 -2.83534E+00  5.45032E+00  2.07888E+00 -2.47760E+00 -5.11980E+00 -3.94907E+00 -4.75515E+00 -1.36734E+00
  -2.14196E+00 -8.46052E-01 -3.86223E+00 -4.69792E+00 -1.83619E+00 -4.60024E+00 -4.34803E+00 -4.67010E+00 -6.68190E+00 -3.66768E+00
  -9.25798E+00  2.61857E+00  2.01078E+00  3.84274E+00  4.48082E+00  7.33053E+00  7.36956E+00  7.89318E+00  5.08751E+00  7.38304E-01
  -5.83879E+00 -5.73044E+00 -4.49716E+00 -4.29675E+00  2.16675E+00  5.88422E+00  2.86463E+00  3.37468E+00  5.80758E+00  5.07842E+00
   6.61917E+00  7.48470E+00  5.94414E+00  4.29579E+00  5.93642E+00  8.19537E+00  9.11969E+00  7.04972E+00  6.06725E+00  7.57320E+00
   6.96966E+00  7.40612E+00  4.00537E+00  1.06343E+01  1.45559E+01  1.23952E+01  1.44817E+01  1.37868E+01  1.51867E+01  1.85880E+01
   2.44671E+01  2.42317E+01  3.54697E+01  3.52239E+01  4.04705E+01  4.13655E+01  6.17482E+01  6.73396E+01  9.16444E+01  9.06329E+01
   8.31975E+01  7.54398E+01  5.75821E+01  4.66981E+01  4.23246E+01  2.58193E+01  1.70174E+01  8.94961E+00  8.94655E+00  2.49658E+00
   1.61930E+00  3.45533E-01 -8.60728E-01 -5.04911E-01 -9.93994E+00 -5.41401E+00 -2.41799E+00 -4.40288E+00 -4.37241E+00 -4.10795E+00
  -4.34505E+00 -2.10333E+00 -1.93506E+00 -3.71818E+00 -6.98550E+00 -4.82326E+00 -5.34707E+00 -4.78234E-01 -8.11019E+00 -4.83961E+00
  -5.39866E+00 -3.53817E+00 -4.87636E+00 -2.16617E+00 -1.02227E+00 -4.17766E+00 -4.26591E+00 -5.12545E+00 -6.41861E+00 -4.67970E+00
  -6.59311E+00 -8.30896E+00 -8.16630E+00 -7.31261E+00 -6.91073E+00 -2.30490E+00 -6.41346E+00 -4.97597E+00 -3.75831E+00 -7.70329E+00
  -6.67517E+00 -1.25652E+01 -1.01661E+01 -5.65614E+00 -9.46772E+00 -1.06067E+01 -9.67904E+00 -8.31795E+00 -1.29191E+01 -1.39837E+01
  -1.87342E+01 -1.79158E+01 -1.81050E+01 -1.96266E+01 -2.05172E+01 -2.42011E+01 -2.38742E+01 -2.30951E+01 -2.67933E+01 -2.47615E+01
  -2.50442E+01 -3.08076E+01 -3.01682E+01 -2.76912E+01 -3.06003E+01 -2.92125E+01 -3.07904E+01 -3.52878E+01 -3.21162E+01 -2.65313E+01
  -2.93337E+01 -2.84174E+01 -2.75212E+01 -2.31235E+01 -2.60615E+01 -2.41213E+01 -1.83904E+01 -1.73259E+01 -1.42907E+01 -1.86152E+01
  -1.60917E+01 -1.37413E+01 -8.33931E+00 -1.17689E+01 -1.07317E+01 -4.73461E+00 -8.17316E+00 -6.02993E+00 -5.77918E+00 -3.41719E+00
   1.54373E+00 -1.96024E+00 -3.28167E+00 -8.77547E-01 -4.87033E-01 -7.71176E-02 -4.71284E+00 -5.94032E-01 -2.02199E+00 -2.29072E-01
  -4.34620E+00 -2.00286E+00 -5.12101E-01 -1.72764E+00 -4.28144E+00 -5.10975E+00 -3.06794E+00 -6.15014E-01 -4.89874E+00 -3.27706E+00
   1.20874E+00  1.92384E-01 -1.95146E+00 -1.08856E+00 -1.97854E+00 -5.73435E-01 -1.10661E-01 -1.32177E+00 -3.95733E-01 -1.16964E+00
   8.24189E-01  7.37897E-01  1.88926E+00  5.89636E+00  2.52544E+00  6.02639E+00  5.52279E+00  7.09788E+00  5.10219E+00  8.09486E+00
   5.50642E+00  5.86437E+00  1.85834E+00  4.51223E+00  6.81414E+00  2.23154E+00  7.46512E+00  6.51543E+00  4.14475E+00  2.75089E+00
   3.12187E-01  1.32354E-01  2.10037E+00 -2.61196E+00 -1.76073E+00  3.90925E+00 -7.04440E+00 -9.22086E-01 -4.51080E-01 -3.95014E+00
  -2.42183E+00 -1.91434E-01  1.41739E+00 -1.01625E+00 -3.23528E+00 -7.44934E+00 -4.15751E+00 -2.43659E+00 -3.46858E+00 -7.08472E+00
  -4.27030E+00 -6.98342E+00 -5.87850E+00 -1.97691E-01 -5.83875E+00 -5.64570E+00 -7.42114E-01 -1.15019E+00 -2.17580E+00 -9.29483E-01
   3.62511E-01 -3.22066E+00 -1.17387E+00  2.40557E+00 -4.92443E+00 -6.77481E-01 -3.34262E+00 -1.12270E+00 -5.62932E-01 -3.25687E+00
   1.13195E+00 -4.17372E+00 -5.84316E+00 -4.70161E+00  1.57090E-01 -2.61308E+00  2.24050E-01 -2.09747E+00 -1.09976E+00 -1.93758E+00
  -3.72678E+00 -2.60882E+00 -3.36212E+00 -1.72364E+00 -1.02776E+00 -3.78120E+00 -7.20652E-01 -4.48047E+00  1.48479E-02 -3.74150E+00
  -3.49101E+00 -3.80940E+00 -4.20908E+00 -4.14342E-01 -2.82661E+00 -2.66632E+00  2.30924E-01 -5.05480E+00 -3.37404E+00 -2.94878E+00
  -3.48759E+00 -1.60502E+00 -4.04312E+00 -8.05767E+00  1.45300E+00  1.69549E-02 -3.86887E+00 -8.66647E-01 -3.44171E+00 -1.37973E+00
  -2.16032E+00 -3.92032E+00 -4.28451E+00 -2.06487E+00 -2.03224E+00 -2.38128E+00 -2.46914E+00 -2.06482E+00
 NY points of the fit to the data follow
   1.00208E+01  1.00003E+01  1.04738E+01  1.19846E+01  1.45023E+01  1.73905E+01  2.13978E+01  2.70670E+01  3.34699E+01  3.86776E+01
   4.09971E+01  4.00247E+01  3.67189E+01  3.23495E+01  2.79176E+01  2.38556E+01  2.01032E+01  1.68411E+01  1.43163E+01  1.23614E+01
   1.05524E+01  9.27782E+00  9.04133E+00  9.01187E+00  8.93256E+00  9.49686E+00  1.12463E+01  1.39431E+01  1.67105E+01  1.87638E+01
   1.96915E+01  1.93562E+01  1.80829E+01  1.62394E+01  1.40116E+01  1.17748E+01  9.96724E+00  8.66640E+00  7.79229E+00  7.49997E+00
   7.83045E+00  8.44566E+00  9.42501E+00  1.11440E+01  1.33523E+01  1.52045E+01  1.59039E+01  1.53057E+01  1.37489E+01  1.17096E+01
   9.70997E+00  8.03206E+00  6.66984E+00  5.68838E+00  5.18970E+00  5.03953E+00  5.16179E+00  5.56715E+00  6.02388E+00  6.16424E+00
   5.79513E+00  5.03239E+00  4.12114E+00  3.32453E+00  2.80552E+00  2.54985E+00  2.52959E+00  2.70033E+00  2.98563E+00  3.30019E+00
   3.52515E+00  3.57072E+00  3.43918E+00  3.17309E+00  2.84847E+00  2.51739E+00  2.18961E+00  1.89008E+00  1.65729E+00  1.42691E+00
   1.14727E+00  9.06671E-01  7.45001E-01  4.93870E-01 -7.19607E-03 -7.38432E-01 -1.49528E+00 -2.05895E+00 -2.26860E+00 -2.13655E+00
  -1.77729E+00 -1.27119E+00 -6.78424E-01 -8.95195E-02  5.66032E-01  2.23068E+00  5.12398E+00  7.81494E+00  1.20326E+01  2.00756E+01
   3.12858E+01  4.21367E+01  4.87771E+01  4.94809E+01  4.53298E+01  3.85360E+01  3.11899E+01  2.43232E+01  1.79682E+01  1.24883E+01
   8.42747E+00  5.38559E+00  2.72723E+00  9.40391E-01  5.07371E-01  5.69293E-01  7.79908E-01  1.14371E+00  1.96769E+00  4.32716E+00
   7.50211E+00  1.06570E+01  1.59128E+01  2.47961E+01  3.57805E+01  4.53058E+01  5.01651E+01  4.94947E+01  4.48670E+01  3.85250E+01
   3.20636E+01  2.58316E+01  1.96314E+01  1.39097E+01  9.25839E+00  5.42451E+00  2.32435E+00  7.96304E-01  7.27899E-01  1.08473E+00
   1.43727E+00  1.57687E+00  1.44021E+00  1.12429E+00  7.52006E-01  3.37405E-01 -1.35246E-01 -6.50185E-01 -1.18196E+00 -1.72290E+00
  -2.26541E+00 -2.77747E+00 -3.21956E+00 -3.60296E+00 -3.82917E+00 -3.97087E+00 -4.20770E+00 -4.63631E+00 -5.26430E+00 -5.80244E+00
  -5.99491E+00 -5.90506E+00 -5.79131E+00 -5.87070E+00 -6.22977E+00 -6.77222E+00 -7.35595E+00 -7.91658E+00 -8.42058E+00 -8.76051E+00
  -9.01217E+00 -9.42214E+00 -1.00221E+01 -1.06426E+01 -1.09272E+01 -1.07984E+01 -1.05548E+01 -1.04869E+01 -1.06185E+01 -1.07888E+01
  -1.07323E+01 -1.05141E+01 -1.03394E+01 -1.01812E+01 -9.78714E+00 -8.97746E+00 -7.75947E+00 -6.23541E+00 -4.65351E+00 -3.36829E+00
  -2.70511E+00 -2.57460E+00 -2.83407E+00 -3.45454E+00 -4.26971E+00 -4.94048E+00 -5.20708E+00 -5.00822E+00 -4.31686E+00 -3.26853E+00
  -2.10532E+00 -1.06858E+00 -4.46295E-01 -3.20581E-01 -8.83437E-01 -2.19384E+00 -3.79850E+00 -5.26409E+00 -6.26514E+00 -6.65448E+00
  -6.34243E+00 -5.01185E+00 -2.70550E+00 -8.26046E-02  1.92374E+00  2.68256E+00  2.21840E+00  7.83183E-01 -1.47110E+00 -4.03190E+00
  -6.13287E+00 -7.01473E+00 -6.41421E+00 -4.75334E+00 -2.64600E+00 -5.05057E-01  1.44130E+00  2.93180E+00  3.82386E+00  4.34897E+00
   4.82870E+00  5.45529E+00  6.27267E+00  7.26188E+00  8.35164E+00  9.31967E+00  9.95826E+00  1.01343E+01  9.83064E+00  9.22147E+00
   8.77206E+00  8.84731E+00  9.52983E+00  1.07307E+01  1.22248E+01  1.37091E+01  1.49265E+01  1.59918E+01  1.72107E+01  1.82942E+01
   1.95873E+01  2.23947E+01  2.86081E+01  3.53816E+01  4.09716E+01  4.85693E+01  6.04356E+01  7.42650E+01  8.49889E+01  8.84099E+01
   8.39383E+01  7.40244E+01  6.19468E+01  5.01276E+01  3.90173E+01  2.86885E+01  2.02900E+01  1.39980E+01  8.62215E+00  3.77429E+00
   8.64792E-01 -4.70005E-01 -1.41144E+00 -2.25024E+00 -3.03640E+00 -3.78309E+00 -4.50937E+00 -5.18585E+00 -5.78927E+00 -6.30153E+00
  -6.70594E+00 -6.99881E+00 -7.20238E+00 -7.33291E+00 -7.38399E+00 -7.35343E+00 -7.24722E+00 -7.06849E+00 -6.81060E+00 -6.46956E+00
  -6.06090E+00 -5.61614E+00 -5.15515E+00 -4.69645E+00 -4.26326E+00 -3.87561E+00 -3.54654E+00 -3.28565E+00 -3.10008E+00 -3.00041E+00
  -3.00106E+00 -3.11392E+00 -3.34413E+00 -3.69388E+00 -4.16217E+00 -4.74514E+00 -5.43397E+00 -6.21545E+00 -7.07570E+00 -8.00086E+00
  -8.97371E+00 -9.97731E+00 -1.09954E+01 -1.20120E+01 -1.30121E+01 -1.39828E+01 -1.49125E+01 -1.57902E+01 -1.66025E+01 -1.73334E+01
  -1.80098E+01 -1.86407E+01 -1.91802E+01 -1.96402E+01 -2.01019E+01 -2.06463E+01 -2.12958E+01 -2.19743E+01 -2.25921E+01 -2.31416E+01
  -2.35854E+01 -2.38608E+01 -2.39349E+01 -2.38316E+01 -2.36403E+01 -2.34658E+01 -2.33496E+01 -2.32721E+01 -2.32145E+01 -2.31692E+01
  -2.31224E+01 -2.30496E+01 -2.29116E+01 -2.26827E+01 -2.23483E+01 -2.18649E+01 -2.11756E+01 -2.02543E+01 -1.90828E+01 -1.76564E+01
  -1.59940E+01 -1.41435E+01 -1.21816E+01 -1.02078E+01 -8.33159E+00 -6.65609E+00 -5.26085E+00 -4.18871E+00 -3.44017E+00 -2.97669E+00
  -2.73172E+00 -2.62646E+00 -2.58593E+00 -2.55212E+00 -2.49124E+00 -2.39459E+00 -2.27400E+00 -2.15398E+00 -2.06309E+00 -2.02664E+00
  -2.06175E+00 -2.17500E+00 -2.36213E+00 -2.60935E+00 -2.89557E+00 -3.19523E+00 -3.48101E+00 -3.72617E+00 -3.90627E+00 -4.00049E+00
  -3.99254E+00 -3.87135E+00 -3.63133E+00 -3.27225E+00 -2.79876E+00 -2.21992E+00 -1.54852E+00 -8.00634E-01  5.08468E-03  8.48229E-01
   1.70746E+00  2.56123E+00  3.38832E+00  4.16842E+00  4.88271E+00  5.51447E+00  6.04966E+00  6.47724E+00  6.78928E+00  6.98108E+00
   7.05127E+00  7.00182E+00  6.83783E+00  6.56717E+00  6.19989E+00  5.74780E+00  5.22403E+00  4.64254E+00  4.01767E+00  3.36348E+00
   2.69330E+00  2.01939E+00  1.35279E+00  7.03144E-01  7.86096E-02 -5.14345E-01 -1.07087E+00 -1.58758E+00 -2.06229E+00 -2.49392E+00
  -2.88238E+00 -3.22848E+00 -3.53370E+00 -3.79999E+00 -4.02952E+00 -4.22463E+00 -4.38787E+00 -4.52187E+00 -4.62924E+00 -4.71246E+00
  -4.77380E+00 -4.81539E+00 -4.83931E+00 -4.84756E+00 -4.84193E+00 -4.82400E+00 -4.79515E+00 -4.75666E+00 -4.70981E+00 -4.65577E+00
  -4.59554E+00 -4.52996E+00 -4.45979E+00 -4.38578E+00 -4.30868E+00 -4.22917E+00 -4.14779E+00 -4.06499E+00 -3.98120E+00 -3.89692E+00
  -3.81261E+00 -3.72867E+00 -3.64541E+00 -3.56303E+00 -3.48163E+00 -3.40140E+00 -3.32247E+00 -3.24489E+00 -3.16864E+00 -3.09370E+00
  -3.02014E+00 -2.94804E+00 -2.87743E+00 -2.80826E+00 -2.74044E+00 -2.67396E+00 -2.60883E+00 -2.54508E+00 -2.48268E+00 -2.42152E+00
  -2.36149E+00 -2.30255E+00 -2.24473E+00 -2.18800E+00 -2.13226E+00 -2.07737E+00 -2.02325E+00 -1.96987E+00 -1.91722E+00 -1.86523E+00
  -1.81376E+00 -1.76268E+00 -1.71192E+00 -1.66144E+00 -1.61123E+00 -1.56115E+00 -1.51106E+00 -1.46082E+00 -1.41040E+00 -1.35977E+00
  -1.30884E+00 -1.25747E+00 -1.20551E+00 -1.15284E+00 -1.09945E+00 -1.04528E+00 -9.90217E-01 -9.34081E-01
 NY background values follow
     4.208E+00    4.146E+00    4.083E+00    4.019E+00    3.955E+00    3.890E+00    3.825E+00    3.759E+00    3.692E+00    3.625E+00
     3.557E+00    3.489E+00    3.420E+00    3.350E+00    3.280E+00    3.209E+00    3.137E+00    3.065E+00    2.992E+00    2.918E+00
     2.844E+00    2.769E+00    2.694E+00    2.617E+00    2.540E+00    2.463E+00    2.384E+00    2.305E+00    2.225E+00    2.145E+00
     2.063E+00    1.982E+00    1.899E+00    1.815E+00    1.731E+00    1.646E+00    1.561E+00    1.474E+00    1.387E+00    1.299E+00
     1.211E+00    1.121E+00    1.031E+00    9.402E-01    8.484E-01    7.559E-01    6.626E-01    5.685E-01    4.738E-01    3.784E-01
     2.824E-01    1.859E-01    8.895E-02   -8.443E-03   -1.062E-01   -2.043E-01   -3.026E-01   -4.011E-01   -4.998E-01   -5.985E-01
    -6.973E-01   -7.961E-01   -8.948E-01   -9.934E-01   -1.092E+00   -1.190E+00   -1.288E+00   -1.385E+00   -1.483E+00   -1.579E+00
    -1.676E+00   -1.771E+00   -1.866E+00   -1.961E+00   -2.054E+00   -2.147E+00   -2.239E+00   -2.330E+00   -2.420E+00   -2.510E+00
    -2.598E+00   -2.685E+00   -2.771E+00   -2.855E+00   -2.939E+00   -3.021E+00   -3.102E+00   -3.181E+00   -3.259E+00   -3.335E+00
    -3.410E+00   -3.483E+00   -3.554E+00   -3.624E+00   -3.692E+00   -3.759E+00   -3.824E+00   -3.888E+00   -3.950E+00   -4.011E+00
    -4.071E+00   -4.130E+00   -4.187E+00   -4.243E+00   -4.299E+00   -4.353E+00   -4.405E+00   -4.457E+00   -4.508E+00   -4.559E+00
    -4.608E+00   -4.656E+00   -4.704E+00   -4.751E+00   -4.797E+00   -4.843E+00   -4.888E+00   -4.932E+00   -4.976E+00   -5.020E+00
    -5.063E+00   -5.105E+00   -5.148E+00   -5.190E+00   -5.231E+00   -5.273E+00   -5.314E+00   -5.355E+00   -5.397E+00   -5.438E+00
    -5.479E+00   -5.520E+00   -5.561E+00   -5.603E+00   -5.644E+00   -5.686E+00   -5.728E+00   -5.770E+00   -5.813E+00   -5.856E+00
    -5.899E+00   -5.942E+00   -5.986E+00   -6.030E+00   -6.074E+00   -6.118E+00   -6.162E+00   -6.207E+00   -6.252E+00   -6.297E+00
    -6.342E+00   -6.387E+00   -6.432E+00   -6.477E+00   -6.523E+00   -6.569E+00   -6.614E+00   -6.660E+00   -6.706E+00   -6.752E+00
    -6.797E+00   -6.843E+00   -6.889E+00   -6.935E+00   -6.981E+00   -7.027E+00   -7.073E+00   -7.118E+00   -7.164E+00   -7.210E+00
    -7.255E+00   -7.301E+00   -7.346E+00   -7.392E+00   -7.437E+00   -7.482E+00   -7.527E+00   -7.572E+00   -7.616E+00   -7.661E+00
    -7.705E+00   -7.749E+00   -7.793E+00   -7.837E+00   -7.880E+00   -7.924E+00   -7.968E+00   -8.013E+00   -8.058E+00   -8.103E+00
    -8.149E+00   -8.195E+00   -8.242E+00   -8.290E+00   -8.339E+00   -8.389E+00   -8.440E+00   -8.492E+00   -8.545E+00   -8.600E+00
    -8.656E+00   -8.714E+00   -8.774E+00   -8.835E+00   -8.898E+00   -8.963E+00   -9.030E+00   -9.099E+00   -9.170E+00   -9.244E+00
    -9.319E+00   -9.398E+00   -9.479E+00   -9.562E+00   -9.648E+00   -9.738E+00   -9.830E+00   -9.925E+00   -1.002E+01   -1.012E+01
    -1.023E+01   -1.034E+01   -1.045E+01   -1.056E+01   -1.068E+01   -1.080E+01   -1.093E+01   -1.106E+01   -1.119E+01   -1.133E+01
    -1.147E+01   -1.162E+01   -1.177E+01   -1.192E+01   -1.207E+01   -1.223E+01   -1.239E+01   -1.256E+01   -1.272E+01   -1.289E+01
    -1.307E+01   -1.324E+01   -1.342E+01   -1.360E+01   -1.378E+01   -1.397E+01   -1.416E+01   -1.435E+01   -1.454E+01   -1.473E+01
    -1.493E+01   -1.513E+01   -1.532E+01   -1.553E+01   -1.573E+01   -1.593E+01   -1.614E+01   -1.634E+01   -1.655E+01   -1.676E+01
    -1.697E+01   -1.718E+01   -1.739E+01   -1.761E+01   -1.782E+01   -1.803E+01   -1.825E+01   -1.846E+01   -1.868E+01   -1.889E+01
    -1.911E+01   -1.932E+01   -1.954E+01   -1.975E+01   -1.997E+01   -2.018E+01   -2.040E+01   -2.061E+01   -2.083E+01   -2.104E+01
    -2.125E+01   -2.146E+01   -2.167E+01   -2.188E+01   -2.208E+01   -2.229E+01   -2.249E+01   -2.269E+01   -2.289E+01   -2.309E+01
    -2.328E+01   -2.347E+01   -2.366E+01   -2.385E+01   -2.404E+01   -2.422E+01   -2.440E+01   -2.458E+01   -2.475E+01   -2.492E+01
    -2.509E+01   -2.525E+01   -2.541E+01   -2.556E+01   -2.572E+01   -2.586E+01   -2.601E+01   -2.615E+01   -2.628E+01   -2.642E+01
    -2.654E+01   -2.666E+01   -2.678E+01   -2.689E+01   -2.700E+01   -2.710E+01   -2.720E+01   -2.729E+01   -2.738E+01   -2.746E+01
    -2.753E+01   -2.760E+01   -2.767E+01   -2.773E+01   -2.778E+01   -2.783E+01   -2.787E+01   -2.791E+01   -2.794E+01   -2.797E+01
    -2.799E+01   -2.800E+01   -2.801E+01   -2.802E+01   -2.802E+01   -2.801E+01   -2.800E+01   -2.798E+01   -2.796E+01   -2.793E+01
    -2.790E+01   -2.786E+01   -2.782E+01   -2.777E+01   -2.771E+01   -2.765E+01   -2.759E+01   -2.752E+01   -2.744E+01   -2.736E+01
    -2.727E+01   -2.718E+01   -2.708E+01   -2.698E+01   -2.687E+01   -2.675E+01   -2.663E+01   -2.651E+01   -2.638E+01   -2.624E+01
    -2.610E+01   -2.595E+01   -2.580E+01   -2.564E+01   -2.548E+01   -2.531E+01   -2.513E+01   -2.496E+01   -2.477E+01   -2.459E+01
    -2.439E+01   -2.420E+01   -2.400E+01   -2.379E+01   -2.359E+01   -2.337E+01   -2.316E+01   -2.294E+01   -2.272E+01   -2.249E+01
    -2.226E+01   -2.203E+01   -2.180E+01   -2.156E+01   -2.132E+01   -2.108E+01   -2.084E+01   -2.059E+01   -2.035E+01   -2.010E+01
    -1.985E+01   -1.959E+01   -1.934E+01   -1.908E+01   -1.883E+01   -1.857E+01   -1.831E+01   -1.805E+01   -1.780E+01   -1.754E+01
    -1.728E+01   -1.702E+01   -1.676E+01   -1.650E+01   -1.624E+01   -1.598E+01   -1.572E+01   -1.546E+01   -1.520E+01   -1.495E+01
    -1.469E+01   -1.444E+01   -1.418E+01   -1.393E+01   -1.368E+01   -1.343E+01   -1.318E+01   -1.294E+01   -1.269E+01   -1.245E+01
    -1.221E+01   -1.197E+01   -1.173E+01   -1.149E+01   -1.126E+01   -1.103E+01   -1.080E+01   -1.057E+01   -1.034E+01   -1.012E+01
    -9.902E+00   -9.684E+00   -9.469E+00   -9.256E+00   -9.047E+00   -8.840E+00   -8.636E+00   -8.435E+00   -8.238E+00   -8.043E+00
    -7.852E+00   -7.664E+00   -7.479E+00   -7.298E+00   -7.120E+00   -6.946E+00   -6.776E+00   -6.609E+00   -6.446E+00   -6.288E+00
    -6.133E+00   -5.982E+00   -5.835E+00   -5.693E+00   -5.555E+00   -5.420E+00   -5.290E+00   -5.163E+00   -5.040E+00   -4.921E+00
    -4.804E+00   -4.692E+00   -4.582E+00   -4.475E+00   -4.372E+00   -4.271E+00   -4.173E+00   -4.077E+00   -3.985E+00   -3.894E+00
    -3.806E+00   -3.720E+00   -3.636E+00   -3.554E+00   -3.474E+00   -3.396E+00   -3.319E+00   -3.244E+00   -3.170E+00   -3.097E+00
    -3.026E+00   -2.956E+00   -2.886E+00   -2.818E+00   -2.750E+00   -2.683E+00   -2.616E+00   -2.550E+00   -2.484E+00   -2.418E+00
    -2.353E+00   -2.287E+00   -2.221E+00   -2.155E+00   -2.089E+00   -2.022E+00   -1.954E+00   -1.886E+00
 Ala      Conc. = 7.71E+01
