 LCModel (Version 6.3-1L) Copyright: S.W. Provencher.          Ref.: Magn. Reson. Med. 30:672-679 (1993).                
 Slice#1 Row#1 Col#13  K_02_press_1_raw_act
 36 lines in following concentration table = NCONC+1
    Conc.  %SD /Cr+PCr  Metabolite                                         
 3.39E+03  26%   0.000 Ala                                                 
   12.320 658%   0.000 Asp                                                 
    0.000 999%   0.000 Cr                                                  
    0.000 999%   0.000 PCr                                                 
    0.000 999%   0.000 GABA                                                
    1.710 999%   0.000 Glc                                                 
    0.000 999%   0.000 Gln                                                 
    0.000 999%   0.000 Glu                                                 
    0.000 999%   0.000 GPC                                                 
    1.919 835%   0.000 PCh                                                 
    5.859 999%   0.000 GSH                                                 
  151.353 132%   0.000 Ins                                                 
    8.350 999%   0.000 Lac                                                 
    0.000 999%   0.000 NAA                                                 
    0.000 999%   0.000 NAAG                                                
    0.901 999%   0.000 Scyllo                                              
   11.240 715%   0.000 Tau                                                 
 1.15E-02 999%   0.000 -CrCH2                                              
    1.919 835%   0.000 GPC+PCh                                             
    0.000 999%   0.000 NAA+NAAG                                            
    0.000 999%   0.000 Cr+PCr                                              
    0.000 999%   0.000 Glu+Gln                                             
    0.000 999%   0.000 Lip13a                                              
 2.14E+03  17%   0.000 Lip13b                                              
 1.39E+04   7%   0.000 Lip09                                               
    0.000 999%   0.000 MM09                                                
  753.156 103%   0.000 Lip20                                               
 1.54E+03  40%   0.000 MM20                                                
 1.84E+04   6%   0.000 MM12                                                
 2.91E+04   4%   0.000 MM14                                                
    0.000 999%   0.000 MM17                                                
 2.14E+03  17%   0.000 Lip13a+Lip13b                                       
 4.96E+04   2%   0.000 MM14+Lip13a+Lip13b+MM12                             
 1.39E+04   7%   0.000 MM09+Lip09                                          
 2.30E+03  18%   0.000 MM20+Lip20                                          
   6 lines in following misc. output table
  FWHM = 0.107 ppm    S/N =  15                                            
  Data shift = 0.115 ppm                                                   
  Ph:-109 deg     172.2 deg/ppm                                            
  alphaB,S = 6.0E-01,   2.6E+01                                            
    7 spline knots.   Ns = 9(2)                                            
  ( 6) 2 infls.   ( 1) 1 extrs.                                            
  498 points on ppm-axis = NY
      4.000000     3.992357     3.984714     3.977070     3.969427     3.961784     3.954141     3.946497     3.938854     3.931211
      3.923568     3.915925     3.908281     3.900638     3.892995     3.885352     3.877708     3.870065     3.862422     3.854779
      3.847136     3.839492     3.831849     3.824206     3.816563     3.808919     3.801276     3.793633     3.785990     3.778347
      3.770703     3.763060     3.755417     3.747774     3.740130     3.732487     3.724844     3.717201     3.709558     3.701914
      3.694271     3.686628     3.678985     3.671341     3.663698     3.656055     3.648412     3.640769     3.633125     3.625482
      3.617839     3.610196     3.602552     3.594909     3.587266     3.579623     3.571980     3.564336     3.556693     3.549050
      3.541407     3.533763     3.526120     3.518477     3.510834     3.503191     3.495547     3.487904     3.480261     3.472618
      3.464974     3.457331     3.449688     3.442045     3.434402     3.426758     3.419115     3.411472     3.403829     3.396185
      3.388542     3.380899     3.373256     3.365613     3.357969     3.350326     3.342683     3.335040     3.327396     3.319753
      3.312110     3.304467     3.296824     3.289180     3.281537     3.273894     3.266251     3.258607     3.250964     3.243321
      3.235678     3.228034     3.220391     3.212748     3.205105     3.197462     3.189818     3.182175     3.174532     3.166889
      3.159245     3.151602     3.143959     3.136316     3.128673     3.121029     3.113386     3.105743     3.098100     3.090456
      3.082813     3.075170     3.067527     3.059884     3.052240     3.044597     3.036954     3.029311     3.021667     3.014024
      3.006381     2.998738     2.991095     2.983451     2.975808     2.968165     2.960522     2.952878     2.945235     2.937592
      2.929949     2.922306     2.914662     2.907019     2.899376     2.891733     2.884089     2.876446     2.868803     2.861160
      2.853517     2.845873     2.838230     2.830587     2.822944     2.815300     2.807657     2.800014     2.792371     2.784728
      2.777084     2.769441     2.761798     2.754155     2.746511     2.738868     2.731225     2.723582     2.715939     2.708295
      2.700652     2.693009     2.685366     2.677722     2.670079     2.662436     2.654793     2.647150     2.639506     2.631863
      2.624220     2.616577     2.608933     2.601290     2.593647     2.586004     2.578361     2.570717     2.563074     2.555431
      2.547788     2.540144     2.532501     2.524858     2.517215     2.509572     2.501928     2.494285     2.486642     2.478999
      2.471355     2.463712     2.456069     2.448426     2.440783     2.433139     2.425496     2.417853     2.410210     2.402566
      2.394923     2.387280     2.379637     2.371994     2.364350     2.356707     2.349064     2.341421     2.333777     2.326134
      2.318491     2.310848     2.303205     2.295561     2.287918     2.280275     2.272632     2.264988     2.257345     2.249702
      2.242059     2.234416     2.226772     2.219129     2.211486     2.203843     2.196199     2.188556     2.180913     2.173270
      2.165627     2.157983     2.150340     2.142697     2.135054     2.127410     2.119767     2.112124     2.104481     2.096838
      2.089194     2.081551     2.073908     2.066265     2.058621     2.050978     2.043335     2.035692     2.028049     2.020405
      2.012762     2.005119     1.997476     1.989833     1.982190     1.974546     1.966903     1.959260     1.951617     1.943974
      1.936331     1.928688     1.921045     1.913402     1.905759     1.898115     1.890472     1.882829     1.875186     1.867543
      1.859900     1.852257     1.844614     1.836971     1.829327     1.821684     1.814041     1.806398     1.798755     1.791112
      1.783469     1.775826     1.768183     1.760540     1.752896     1.745253     1.737610     1.729967     1.722324     1.714681
      1.707038     1.699395     1.691752     1.684108     1.676465     1.668822     1.661179     1.653536     1.645893     1.638250
      1.630607     1.622964     1.615321     1.607677     1.600034     1.592391     1.584748     1.577105     1.569462     1.561819
      1.554176     1.546533     1.538890     1.531246     1.523603     1.515960     1.508317     1.500674     1.493031     1.485388
      1.477745     1.470102     1.462458     1.454815     1.447172     1.439529     1.431886     1.424243     1.416600     1.408957
      1.401314     1.393671     1.386027     1.378384     1.370741     1.363098     1.355455     1.347812     1.340169     1.332526
      1.324883     1.317240     1.309596     1.301953     1.294310     1.286667     1.279024     1.271381     1.263738     1.256095
      1.248452     1.240808     1.233165     1.225522     1.217879     1.210236     1.202593     1.194950     1.187307     1.179664
      1.172021     1.164377     1.156734     1.149091     1.141448     1.133805     1.126162     1.118519     1.110876     1.103233
      1.095590     1.087946     1.080303     1.072660     1.065017     1.057374     1.049731     1.042088     1.034445     1.026802
      1.019158     1.011515     1.003872     0.996229     0.988586     0.980943     0.973300     0.965657     0.958014     0.950371
      0.942727     0.935084     0.927441     0.919798     0.912155     0.904512     0.896869     0.889226     0.881583     0.873940
      0.866296     0.858653     0.851010     0.843367     0.835724     0.828081     0.820438     0.812795     0.805152     0.797508
      0.789865     0.782222     0.774579     0.766936     0.759293     0.751650     0.744007     0.736364     0.728721     0.721077
      0.713434     0.705791     0.698148     0.690505     0.682862     0.675219     0.667576     0.659933     0.652290     0.644646
      0.637003     0.629360     0.621717     0.614074     0.606431     0.598788     0.591145     0.583502     0.575858     0.568215
      0.560572     0.552929     0.545286     0.537643     0.530000     0.522357     0.514714     0.507071     0.499427     0.491784
      0.484141     0.476498     0.468855     0.461212     0.453569     0.445925     0.438282     0.430639     0.422996     0.415353
      0.407710     0.400067     0.392424     0.384780     0.377137     0.369494     0.361851     0.354208     0.346565     0.338922
      0.331278     0.323635     0.315992     0.308349     0.300706     0.293063     0.285420     0.277777     0.270133     0.262490
      0.254847     0.247204     0.239561     0.231918     0.224275     0.216631     0.208988     0.201345
 NY phased data points follow
  -5.37103E+00 -4.06693E+00 -6.61108E+00 -7.79994E+00 -2.85103E+00 -7.03674E+00 -7.14939E+00 -7.13721E+00 -4.14819E+00 -7.58907E+00
  -8.45602E+00 -4.49478E+00 -6.78715E+00 -7.63092E+00 -1.04919E+01 -5.98863E+00 -9.45259E+00 -7.95015E+00 -8.96704E+00 -4.72727E+00
  -5.60247E+00 -5.99498E+00 -1.01184E+01 -8.67134E+00 -6.94638E+00 -7.95667E+00 -6.98069E+00 -5.68363E+00 -1.06597E+01 -9.64939E+00
  -4.94358E+00 -8.24761E+00 -1.12489E+01 -1.11779E+01 -1.03441E+01 -7.27376E+00 -7.44984E+00 -1.06618E+01 -9.06398E+00 -9.31228E+00
  -9.41541E+00 -9.93036E+00 -1.11277E+01 -9.79428E+00 -1.27090E+01 -9.09841E+00 -8.15132E+00 -9.24559E+00 -9.86090E+00 -7.19119E+00
  -1.24468E+01 -9.88438E+00 -1.08959E+01 -6.06007E+00 -1.34170E+01 -1.10191E+01 -9.85226E+00 -5.16565E+00 -8.47391E+00 -7.73127E+00
  -7.78746E+00 -7.79447E+00 -8.25491E+00 -8.56858E+00 -5.91021E+00 -8.21572E+00 -5.38246E+00 -8.15070E+00 -8.81058E+00 -7.10561E+00
  -6.03039E+00 -7.79942E+00 -7.63305E+00 -4.56956E+00 -7.84199E+00 -7.41001E+00 -6.36869E+00 -5.10154E+00 -3.79477E+00 -4.52645E+00
  -6.36083E+00 -6.11756E+00 -4.89442E+00 -5.04719E+00 -5.12582E+00 -9.05664E+00 -3.93835E+00 -6.81256E+00 -8.12164E+00 -5.35432E+00
  -5.19457E+00 -3.08406E+00 -4.83130E+00 -5.57250E+00 -6.65164E+00 -3.46890E+00 -3.93424E+00 -5.33812E+00 -4.12470E+00 -1.47642E+00
  -3.86305E+00 -1.50757E+00 -3.80745E+00 -5.08727E-01 -2.45377E+00  1.23656E+00 -1.01854E+00  1.08282E+00 -1.47355E+00 -3.96346E+00
  -1.22083E-01 -1.19732E+00 -1.36518E+00 -3.22035E+00 -3.87242E-01 -1.94859E+00  5.14504E-02 -7.93050E-01  2.87792E-01 -8.46371E-01
   3.67217E+00  2.64316E+00  1.97386E+00  2.74947E+00  3.74312E+00  4.21804E+00  6.69061E+00  7.36319E+00  1.08353E+00  4.23021E+00
   5.04589E+00  5.07860E+00  4.77020E+00  5.07559E+00  4.94434E+00  7.06408E+00  4.19640E+00  8.40672E+00  4.75307E+00  8.94836E+00
   5.91873E+00  6.24784E+00  5.39119E+00  7.90420E+00  8.94422E+00  6.90339E+00  9.07974E+00  7.78306E+00  9.65904E+00  3.27632E+00
   9.83935E+00  1.43896E+01  9.87036E+00  1.02118E+01  1.04305E+01  1.05782E+01  1.06922E+01  1.33076E+01  1.23759E+01  1.48053E+01
   1.26935E+01  1.32491E+01  1.31514E+01  1.36695E+01  1.23274E+01  1.41880E+01  1.36867E+01  1.45330E+01  1.35906E+01  1.33626E+01
   1.66459E+01  1.52436E+01  1.55159E+01  1.39448E+01  1.69664E+01  1.39046E+01  1.74283E+01  1.57901E+01  1.74141E+01  1.48176E+01
   1.79072E+01  1.51366E+01  1.76237E+01  1.81439E+01  1.52109E+01  1.72246E+01  1.86574E+01  1.90828E+01  1.95632E+01  1.65521E+01
   1.88568E+01  1.70183E+01  1.69712E+01  1.94368E+01  1.86111E+01  1.65431E+01  1.74336E+01  1.83406E+01  1.86182E+01  1.82064E+01
   1.88433E+01  1.77308E+01  2.06930E+01  1.72842E+01  2.04547E+01  1.64190E+01  1.55368E+01  1.63471E+01  1.91442E+01  1.92074E+01
   1.91438E+01  1.48672E+01  1.69691E+01  1.73020E+01  1.57380E+01  1.44325E+01  2.34935E+01  1.88547E+01  2.08882E+01  1.89056E+01
   1.93242E+01  2.03844E+01  1.78258E+01  1.73587E+01  1.51278E+01  1.73919E+01  1.52585E+01  1.58901E+01  1.62825E+01  1.43299E+01
   1.62278E+01  1.71627E+01  1.46916E+01  1.44849E+01  1.56178E+01  1.68952E+01  1.25851E+01  1.30500E+01  1.19174E+01  1.18513E+01
   8.92273E+00  1.06660E+01  9.93815E+00  5.18931E+00  1.10266E+01  1.06116E+01  8.76310E+00  9.84019E+00  5.70445E+00  1.13257E+01
   1.27475E+01  9.12372E+00  1.06169E+01  1.14122E+01  5.57540E+00  2.99998E+00  4.49285E+00  5.10464E+00  2.13953E+00  2.57738E+00
   9.36493E-01 -1.00083E+00 -2.87042E+00 -3.07476E+00 -3.93679E+00 -4.45656E+00 -8.40375E+00 -8.73674E+00 -9.53339E+00 -5.71316E+00
  -8.77923E+00 -1.25708E+01 -1.14499E+01 -1.20162E+01 -1.29319E+01 -1.40069E+01 -1.91220E+01 -1.84822E+01 -2.33159E+01 -2.21053E+01
  -2.03616E+01 -2.35535E+01 -2.43748E+01 -2.57276E+01 -2.57951E+01 -3.30592E+01 -3.20522E+01 -3.05007E+01 -3.64956E+01 -3.61244E+01
  -4.17542E+01 -4.32519E+01 -4.32906E+01 -4.13321E+01 -4.59182E+01 -5.04173E+01 -5.09416E+01 -5.00374E+01 -5.24683E+01 -5.98767E+01
  -6.38913E+01 -6.50744E+01 -6.65221E+01 -7.02415E+01 -7.54374E+01 -7.59431E+01 -8.26700E+01 -8.89273E+01 -9.35742E+01 -9.93040E+01
  -1.04282E+02 -1.10951E+02 -1.15434E+02 -1.16574E+02 -1.25163E+02 -1.25525E+02 -1.25681E+02 -1.31045E+02 -1.31517E+02 -1.32779E+02
  -1.27073E+02 -1.19838E+02 -1.21540E+02 -1.12944E+02 -1.06428E+02 -1.01834E+02 -9.26263E+01 -8.28593E+01 -7.70565E+01 -6.94311E+01
  -5.81840E+01 -4.64057E+01 -3.80795E+01 -2.39066E+01 -1.22310E+01 -7.60301E-01  1.38108E+01  2.35021E+01  3.22321E+01  4.61995E+01
   5.67013E+01  6.73457E+01  7.38167E+01  8.06881E+01  8.85233E+01  8.68724E+01  9.44459E+01  8.89447E+01  8.60425E+01  8.65233E+01
   8.23613E+01  8.20003E+01  8.05383E+01  7.35313E+01  7.55658E+01  6.79683E+01  6.84532E+01  6.61093E+01  6.22456E+01  5.75059E+01
   5.49339E+01  5.50026E+01  5.39376E+01  5.19547E+01  4.92278E+01  4.65572E+01  4.67444E+01  4.65595E+01  4.18693E+01  3.92378E+01
   4.01002E+01  4.40759E+01  4.02489E+01  4.11121E+01  4.29851E+01  4.02974E+01  3.85454E+01  4.07088E+01  3.75505E+01  3.76567E+01
   3.90724E+01  4.14233E+01  3.60364E+01  3.73090E+01  4.14463E+01  3.81602E+01  4.11021E+01  4.04452E+01  4.01819E+01  3.99390E+01
   4.42000E+01  4.15101E+01  4.13257E+01  4.03541E+01  4.48060E+01  4.03323E+01  4.14186E+01  3.77973E+01  4.09992E+01  4.20477E+01
   3.51011E+01  3.82176E+01  3.71861E+01  3.58335E+01  3.66104E+01  3.17300E+01  3.24868E+01  3.30625E+01  3.33183E+01  2.69772E+01
   2.86167E+01  2.96764E+01  2.29322E+01  2.41313E+01  2.67164E+01  2.46309E+01  2.49227E+01  2.21311E+01  2.13933E+01  1.98802E+01
   1.84093E+01  1.72172E+01  1.47720E+01  1.65955E+01  1.40645E+01  1.18526E+01  1.40819E+01  1.04884E+01  9.92489E+00  1.15871E+01
   1.22897E+01  7.99766E+00  5.63115E+00  6.28042E+00  4.50918E+00  3.75745E+00  3.05057E+00  4.00743E+00 -1.85589E+00  1.43790E+00
  -1.32465E+00 -1.23486E+00 -2.66605E+00  1.46072E-01 -6.25165E+00 -4.59235E+00 -4.94537E+00 -6.57510E+00 -6.98563E+00 -1.01267E+01
  -7.80783E+00 -7.53326E+00 -1.46488E+01 -1.18963E+01 -1.17192E+01 -1.53208E+01 -1.22579E+01 -1.71979E+01 -1.69828E+01 -1.76087E+01
  -1.56891E+01 -1.63755E+01 -1.84730E+01 -1.51868E+01 -1.83771E+01 -1.57704E+01 -1.95890E+01 -1.86749E+01 -2.03808E+01 -2.17553E+01
  -1.86345E+01 -1.92926E+01 -2.02579E+01 -2.09911E+01 -1.84431E+01 -2.05310E+01 -2.42466E+01 -1.95066E+01 -2.28640E+01 -2.17707E+01
  -1.98137E+01 -2.04362E+01 -1.93930E+01 -2.40273E+01 -2.25522E+01 -1.97524E+01 -2.14668E+01 -1.98072E+01 -2.37974E+01 -1.98642E+01
  -2.26211E+01 -1.94338E+01 -2.21078E+01 -2.13352E+01 -1.98546E+01 -2.07060E+01 -1.88784E+01 -1.84413E+01
 NY points of the fit to the data follow
  -6.08758E+00 -6.04794E+00 -5.74836E+00 -5.94984E+00 -5.75259E+00 -6.29854E+00 -6.60014E+00 -7.81292E+00 -7.38514E+00 -8.52320E+00
  -7.80576E+00 -8.93008E+00 -8.04645E+00 -8.71587E+00 -7.38087E+00 -8.46734E+00 -7.30401E+00 -7.93943E+00 -6.91180E+00 -6.92906E+00
  -6.62599E+00 -6.36952E+00 -6.65675E+00 -6.04588E+00 -7.38448E+00 -6.37991E+00 -8.69023E+00 -7.04652E+00 -9.69858E+00 -7.56632E+00
  -1.05585E+01 -8.21778E+00 -1.13373E+01 -8.80140E+00 -1.17126E+01 -9.33708E+00 -1.16483E+01 -9.34247E+00 -1.08165E+01 -8.87768E+00
  -1.00492E+01 -8.64592E+00 -9.36503E+00 -8.64667E+00 -9.02181E+00 -8.81648E+00 -8.58851E+00 -8.23641E+00 -7.99365E+00 -7.98193E+00
  -7.71589E+00 -7.98439E+00 -7.81434E+00 -8.41456E+00 -8.58664E+00 -8.81666E+00 -8.71803E+00 -8.76340E+00 -8.53964E+00 -8.44615E+00
  -8.12815E+00 -7.94093E+00 -7.81663E+00 -7.74241E+00 -7.65382E+00 -7.61743E+00 -7.53064E+00 -7.51429E+00 -7.41692E+00 -7.35866E+00
  -7.18698E+00 -7.09047E+00 -6.90873E+00 -6.80706E+00 -6.62556E+00 -6.52077E+00 -6.34240E+00 -6.23857E+00 -6.07588E+00 -5.98361E+00
  -5.83847E+00 -5.75665E+00 -5.61506E+00 -5.54365E+00 -5.40306E+00 -5.35784E+00 -5.23000E+00 -5.19827E+00 -5.07815E+00 -5.04086E+00
  -4.91999E+00 -4.86361E+00 -4.74645E+00 -4.66794E+00 -4.54441E+00 -4.43156E+00 -4.30233E+00 -4.15067E+00 -4.00448E+00 -3.82350E+00
  -3.65999E+00 -3.46369E+00 -3.28574E+00 -3.08361E+00 -2.88338E+00 -2.67669E+00 -2.44866E+00 -2.23595E+00 -1.97431E+00 -1.76492E+00
  -1.48575E+00 -1.28058E+00 -9.87857E-01 -7.75983E-01 -4.73223E-01 -2.48170E-01  6.20856E-02  3.09273E-01  6.32970E-01  9.05745E-01
   1.23268E+00  1.52594E+00  1.84856E+00  2.15759E+00  2.47696E+00  2.80665E+00  3.13300E+00  3.47357E+00  3.80331E+00  4.14726E+00
   4.47986E+00  4.82338E+00  5.15583E+00  5.49632E+00  5.82847E+00  6.16330E+00  6.49485E+00  6.82285E+00  7.15446E+00  7.47541E+00
   7.80677E+00  8.12164E+00  8.45329E+00  8.76268E+00  9.09281E+00  9.39858E+00  9.72775E+00  1.00322E+01  1.03591E+01  1.06593E+01
   1.09789E+01  1.12745E+01  1.15837E+01  1.18740E+01  1.21712E+01  1.24555E+01  1.27403E+01  1.30138E+01  1.32823E+01  1.35440E+01
   1.37957E+01  1.40458E+01  1.42826E+01  1.45208E+01  1.47433E+01  1.49681E+01  1.51764E+01  1.53863E+01  1.55833E+01  1.57795E+01
   1.59640E+01  1.61460E+01  1.63169E+01  1.64824E+01  1.66390E+01  1.67904E+01  1.69338E+01  1.70699E+01  1.71996E+01  1.73228E+01
   1.74406E+01  1.75499E+01  1.76516E+01  1.77472E+01  1.78348E+01  1.79168E+01  1.79892E+01  1.80555E+01  1.81119E+01  1.81634E+01
   1.82032E+01  1.82381E+01  1.82597E+01  1.82772E+01  1.82811E+01  1.82811E+01  1.82676E+01  1.82505E+01  1.82195E+01  1.81857E+01
   1.81379E+01  1.80875E+01  1.80233E+01  1.79572E+01  1.78785E+01  1.77973E+01  1.77056E+01  1.76110E+01  1.75063E+01  1.73981E+01
   1.72808E+01  1.71592E+01  1.70299E+01  1.68976E+01  1.67597E+01  1.66150E+01  1.64656E+01  1.63077E+01  1.61451E+01  1.59705E+01
   1.57887E+01  1.55977E+01  1.53992E+01  1.51901E+01  1.49708E+01  1.47399E+01  1.44966E+01  1.42418E+01  1.39713E+01  1.36918E+01
   1.33972E+01  1.30962E+01  1.27818E+01  1.24635E+01  1.21356E+01  1.18071E+01  1.14738E+01  1.11434E+01  1.08144E+01  1.04905E+01
   1.01736E+01  9.86208E+00  9.56060E+00  9.26101E+00  8.97007E+00  8.67462E+00  8.38204E+00  8.07611E+00  7.76340E+00  7.42694E+00
   7.07227E+00  6.68275E+00  6.26298E+00  5.79720E+00  5.28913E+00  4.72833E+00  4.11706E+00  3.44985E+00  2.72805E+00  1.95133E+00
   1.12086E+00  2.36797E-01 -6.98769E-01 -1.68332E+00 -2.71474E+00 -3.78953E+00 -4.90628E+00 -6.06047E+00 -7.25056E+00 -8.47363E+00
  -9.72826E+00 -1.10125E+01 -1.23249E+01 -1.36645E+01 -1.50302E+01 -1.64213E+01 -1.78372E+01 -1.92772E+01 -2.07412E+01 -2.22289E+01
  -2.37404E+01 -2.52758E+01 -2.68356E+01 -2.84204E+01 -3.00310E+01 -3.16685E+01 -3.33343E+01 -3.50300E+01 -3.67576E+01 -3.85193E+01
  -4.03179E+01 -4.21562E+01 -4.40378E+01 -4.59663E+01 -4.79464E+01 -4.99829E+01 -5.20815E+01 -5.42488E+01 -5.64918E+01 -5.88190E+01
  -6.12399E+01 -6.37655E+01 -6.64090E+01 -6.91865E+01 -7.21190E+01 -7.52394E+01 -7.86119E+01 -8.24246E+01 -8.75921E+01 -9.57114E+01
  -1.00858E+02 -1.08097E+02 -1.12329E+02 -1.18733E+02 -1.21678E+02 -1.26052E+02 -1.25059E+02 -1.28693E+02 -1.28225E+02 -1.28652E+02
  -1.26697E+02 -1.22348E+02 -1.19053E+02 -1.11372E+02 -1.07551E+02 -9.75351E+01 -9.43141E+01 -8.21671E+01 -7.91520E+01 -6.53869E+01
  -6.02864E+01 -4.49736E+01 -3.76070E+01 -2.25223E+01 -1.31998E+01  8.13419E-01  1.22238E+01  2.38496E+01  3.61008E+01  4.54051E+01
   5.82594E+01  6.53128E+01  7.68563E+01  8.00513E+01  8.87034E+01  8.75058E+01  9.20951E+01  8.75020E+01  8.89529E+01  8.52034E+01
   8.51811E+01  8.09439E+01  8.00824E+01  7.62242E+01  7.47673E+01  7.10430E+01  6.76200E+01  6.48148E+01  6.24507E+01  6.01569E+01
   5.79017E+01  5.55072E+01  5.31145E+01  5.06999E+01  4.84829E+01  4.64804E+01  4.48636E+01  4.36038E+01  4.27625E+01  4.22581E+01
   4.20595E+01  4.20534E+01  4.21850E+01  4.23545E+01  4.25156E+01  4.26060E+01  4.25996E+01  4.24809E+01  4.22457E+01  4.19010E+01
   4.14623E+01  4.09514E+01  4.03939E+01  3.98167E+01  3.92466E+01  3.87083E+01  3.82233E+01  3.78088E+01  3.74769E+01  3.72347E+01
   3.70838E+01  3.70206E+01  3.70372E+01  3.71212E+01  3.72573E+01  3.74274E+01  3.76123E+01  3.77916E+01  3.79454E+01  3.80546E+01
   3.81014E+01  3.80706E+01  3.79489E+01  3.77263E+01  3.73953E+01  3.69516E+01  3.63936E+01  3.57223E+01  3.49412E+01  3.40556E+01
   3.30729E+01  3.20015E+01  3.08508E+01  2.96310E+01  2.83523E+01  2.70251E+01  2.56597E+01  2.42656E+01  2.28520E+01  2.14273E+01
   1.99992E+01  1.85745E+01  1.71593E+01  1.57587E+01  1.43773E+01  1.30188E+01  1.16863E+01  1.03823E+01  9.10866E+00  7.86694E+00
   6.65820E+00  5.48312E+00  4.34213E+00  3.23537E+00  2.16278E+00  1.12412E+00  1.19023E-01 -8.53002E-01 -1.79251E+00 -2.70013E+00
  -3.57657E+00 -4.42253E+00 -5.23874E+00 -6.02596E+00 -6.78492E+00 -7.51638E+00 -8.22107E+00 -8.89972E+00 -9.55305E+00 -1.01817E+01
  -1.07864E+01 -1.13678E+01 -1.19265E+01 -1.24631E+01 -1.29782E+01 -1.34723E+01 -1.39461E+01 -1.44000E+01 -1.48345E+01 -1.52501E+01
  -1.56473E+01 -1.60265E+01 -1.63881E+01 -1.67325E+01 -1.70602E+01 -1.73714E+01 -1.76666E+01 -1.79460E+01 -1.82101E+01 -1.84591E+01
  -1.86933E+01 -1.89131E+01 -1.91186E+01 -1.93101E+01 -1.94879E+01 -1.96523E+01 -1.98034E+01 -1.99415E+01 -2.00668E+01 -2.01795E+01
  -2.02797E+01 -2.03677E+01 -2.04436E+01 -2.05076E+01 -2.05598E+01 -2.06004E+01 -2.06295E+01 -2.06472E+01 -2.06536E+01 -2.06488E+01
  -2.06329E+01 -2.06059E+01 -2.05678E+01 -2.05187E+01 -2.04585E+01 -2.03871E+01 -2.03043E+01 -2.02098E+01
 NY background values follow
    -2.347E+00   -2.350E+00   -2.351E+00   -2.352E+00   -2.351E+00   -2.350E+00   -2.349E+00   -2.346E+00   -2.342E+00   -2.337E+00
    -2.331E+00   -2.325E+00   -2.317E+00   -2.307E+00   -2.297E+00   -2.285E+00   -2.272E+00   -2.258E+00   -2.242E+00   -2.225E+00
    -2.206E+00   -2.186E+00   -2.164E+00   -2.141E+00   -2.116E+00   -2.089E+00   -2.061E+00   -2.031E+00   -1.999E+00   -1.965E+00
    -1.929E+00   -1.892E+00   -1.852E+00   -1.811E+00   -1.767E+00   -1.722E+00   -1.674E+00   -1.624E+00   -1.572E+00   -1.518E+00
    -1.461E+00   -1.403E+00   -1.342E+00   -1.278E+00   -1.212E+00   -1.144E+00   -1.073E+00   -9.997E-01   -9.239E-01   -8.455E-01
    -7.644E-01   -6.807E-01   -5.944E-01   -5.053E-01   -4.135E-01   -3.188E-01   -2.214E-01   -1.211E-01   -1.800E-02    8.806E-02
     1.971E-01    3.090E-01    4.240E-01    5.421E-01    6.631E-01    7.873E-01    9.147E-01    1.045E+00    1.179E+00    1.316E+00
     1.456E+00    1.599E+00    1.746E+00    1.896E+00    2.049E+00    2.206E+00    2.366E+00    2.530E+00    2.697E+00    2.868E+00
     3.042E+00    3.220E+00    3.401E+00    3.586E+00    3.774E+00    3.966E+00    4.162E+00    4.361E+00    4.565E+00    4.772E+00
     4.982E+00    5.197E+00    5.415E+00    5.637E+00    5.863E+00    6.093E+00    6.327E+00    6.565E+00    6.806E+00    7.052E+00
     7.301E+00    7.555E+00    7.812E+00    8.074E+00    8.340E+00    8.609E+00    8.883E+00    9.161E+00    9.443E+00    9.729E+00
     1.002E+01    1.031E+01    1.061E+01    1.092E+01    1.122E+01    1.153E+01    1.185E+01    1.217E+01    1.249E+01    1.282E+01
     1.315E+01    1.349E+01    1.383E+01    1.418E+01    1.453E+01    1.488E+01    1.524E+01    1.560E+01    1.597E+01    1.634E+01
     1.671E+01    1.709E+01    1.747E+01    1.785E+01    1.823E+01    1.862E+01    1.901E+01    1.940E+01    1.979E+01    2.019E+01
     2.058E+01    2.098E+01    2.137E+01    2.177E+01    2.217E+01    2.257E+01    2.297E+01    2.336E+01    2.376E+01    2.416E+01
     2.456E+01    2.495E+01    2.535E+01    2.574E+01    2.613E+01    2.653E+01    2.691E+01    2.730E+01    2.769E+01    2.807E+01
     2.845E+01    2.883E+01    2.920E+01    2.957E+01    2.994E+01    3.031E+01    3.067E+01    3.103E+01    3.138E+01    3.173E+01
     3.207E+01    3.242E+01    3.275E+01    3.308E+01    3.341E+01    3.373E+01    3.405E+01    3.436E+01    3.467E+01    3.497E+01
     3.526E+01    3.555E+01    3.583E+01    3.611E+01    3.638E+01    3.664E+01    3.690E+01    3.715E+01    3.739E+01    3.763E+01
     3.786E+01    3.808E+01    3.829E+01    3.850E+01    3.870E+01    3.889E+01    3.907E+01    3.925E+01    3.941E+01    3.957E+01
     3.972E+01    3.986E+01    3.999E+01    4.012E+01    4.023E+01    4.034E+01    4.043E+01    4.052E+01    4.060E+01    4.067E+01
     4.072E+01    4.077E+01    4.081E+01    4.084E+01    4.086E+01    4.087E+01    4.087E+01    4.085E+01    4.083E+01    4.080E+01
     4.075E+01    4.070E+01    4.064E+01    4.056E+01    4.047E+01    4.038E+01    4.027E+01    4.015E+01    4.002E+01    3.987E+01
     3.972E+01    3.955E+01    3.938E+01    3.919E+01    3.899E+01    3.878E+01    3.855E+01    3.832E+01    3.807E+01    3.781E+01
     3.754E+01    3.726E+01    3.696E+01    3.665E+01    3.633E+01    3.600E+01    3.566E+01    3.530E+01    3.493E+01    3.455E+01
     3.416E+01    3.375E+01    3.333E+01    3.290E+01    3.246E+01    3.201E+01    3.155E+01    3.108E+01    3.059E+01    3.010E+01
     2.959E+01    2.908E+01    2.856E+01    2.803E+01    2.748E+01    2.693E+01    2.638E+01    2.581E+01    2.523E+01    2.465E+01
     2.406E+01    2.346E+01    2.286E+01    2.224E+01    2.162E+01    2.100E+01    2.037E+01    1.973E+01    1.908E+01    1.843E+01
     1.778E+01    1.711E+01    1.645E+01    1.578E+01    1.510E+01    1.442E+01    1.373E+01    1.304E+01    1.235E+01    1.165E+01
     1.095E+01    1.025E+01    9.543E+00    8.833E+00    8.120E+00    7.404E+00    6.687E+00    5.967E+00    5.245E+00    4.521E+00
     3.795E+00    3.068E+00    2.340E+00    1.611E+00    8.803E-01    1.492E-01   -5.825E-01   -1.315E+00   -2.047E+00   -2.779E+00
    -3.512E+00   -4.244E+00   -4.975E+00   -5.706E+00   -6.437E+00   -7.166E+00   -7.894E+00   -8.621E+00   -9.347E+00   -1.007E+01
    -1.079E+01   -1.151E+01   -1.223E+01   -1.295E+01   -1.366E+01   -1.437E+01   -1.508E+01   -1.579E+01   -1.649E+01   -1.719E+01
    -1.789E+01   -1.858E+01   -1.927E+01   -1.996E+01   -2.064E+01   -2.132E+01   -2.199E+01   -2.267E+01   -2.333E+01   -2.399E+01
    -2.465E+01   -2.530E+01   -2.595E+01   -2.660E+01   -2.723E+01   -2.787E+01   -2.849E+01   -2.912E+01   -2.973E+01   -3.035E+01
    -3.095E+01   -3.155E+01   -3.215E+01   -3.273E+01   -3.332E+01   -3.389E+01   -3.446E+01   -3.502E+01   -3.558E+01   -3.613E+01
    -3.667E+01   -3.721E+01   -3.774E+01   -3.826E+01   -3.878E+01   -3.928E+01   -3.979E+01   -4.028E+01   -4.077E+01   -4.124E+01
    -4.172E+01   -4.218E+01   -4.263E+01   -4.308E+01   -4.352E+01   -4.396E+01   -4.438E+01   -4.480E+01   -4.521E+01   -4.561E+01
    -4.600E+01   -4.639E+01   -4.677E+01   -4.714E+01   -4.750E+01   -4.786E+01   -4.821E+01   -4.855E+01   -4.889E+01   -4.921E+01
    -4.953E+01   -4.985E+01   -5.015E+01   -5.045E+01   -5.074E+01   -5.103E+01   -5.131E+01   -5.158E+01   -5.184E+01   -5.210E+01
    -5.235E+01   -5.259E+01   -5.282E+01   -5.305E+01   -5.327E+01   -5.349E+01   -5.370E+01   -5.390E+01   -5.409E+01   -5.428E+01
    -5.446E+01   -5.464E+01   -5.481E+01   -5.497E+01   -5.512E+01   -5.527E+01   -5.542E+01   -5.555E+01   -5.568E+01   -5.580E+01
    -5.592E+01   -5.603E+01   -5.613E+01   -5.623E+01   -5.632E+01   -5.641E+01   -5.648E+01   -5.656E+01   -5.662E+01   -5.668E+01
    -5.674E+01   -5.678E+01   -5.682E+01   -5.686E+01   -5.689E+01   -5.691E+01   -5.693E+01   -5.694E+01   -5.694E+01   -5.694E+01
    -5.693E+01   -5.692E+01   -5.690E+01   -5.687E+01   -5.684E+01   -5.680E+01   -5.676E+01   -5.671E+01   -5.665E+01   -5.659E+01
    -5.652E+01   -5.645E+01   -5.637E+01   -5.628E+01   -5.619E+01   -5.609E+01   -5.599E+01   -5.588E+01   -5.577E+01   -5.565E+01
    -5.552E+01   -5.539E+01   -5.525E+01   -5.510E+01   -5.495E+01   -5.480E+01   -5.464E+01   -5.447E+01   -5.430E+01   -5.412E+01
    -5.393E+01   -5.374E+01   -5.354E+01   -5.334E+01   -5.313E+01   -5.292E+01   -5.270E+01   -5.247E+01   -5.224E+01   -5.201E+01
    -5.176E+01   -5.151E+01   -5.126E+01   -5.100E+01   -5.073E+01   -5.046E+01   -5.018E+01   -4.990E+01   -4.961E+01   -4.931E+01
    -4.901E+01   -4.870E+01   -4.839E+01   -4.807E+01   -4.775E+01   -4.741E+01   -4.708E+01   -4.673E+01
 Ala      Conc. = 3.39E+03
