 LCModel (Version 6.3-1L) Copyright: S.W. Provencher.          Ref.: Magn. Reson. Med. 30:672-679 (1993).                
 Slice#3 Row#3 Col#2  K_02_press_1_raw_act
 36 lines in following concentration table = NCONC+1
    Conc.  %SD /Cr+PCr  Metabolite                                         
 5.37E+03  26%  12.555 Ala                                                 
    0.000 999%   0.000 Asp                                                 
  428.006  22%   1.000 Cr                                                  
    0.000 999%   0.000 PCr                                                 
   26.729 468% 6.2E-02 GABA                                                
  164.942  74%   0.385 Glc                                                 
 1.42E+04   7%  33.069 Gln                                                 
 3.43E+03  32%   8.016 Glu                                                 
    0.000 999%   0.000 GPC                                                 
  245.179  16%   0.573 PCh                                                 
    0.000 999%   0.000 GSH                                                 
 3.77E+03  12%   8.798 Ins                                                 
 8.60E+03  16%  20.096 Lac                                                 
    0.000 999%   0.000 NAA                                                 
    0.000 999%   0.000 NAAG                                                
  174.783  19%   0.408 Scyllo                                              
  701.862  27%   1.640 Tau                                                 
    0.000 999%   0.000 -CrCH2                                              
  245.179  16%   0.573 GPC+PCh                                             
    0.000 999%   0.000 NAA+NAAG                                            
  428.006  22%   1.000 Cr+PCr                                              
 1.76E+04  10%  41.085 Glu+Gln                                             
    0.000 999%   0.000 Lip13a                                              
  450.500  33%   1.053 Lip13b                                              
   51.980 178%   0.121 Lip09                                               
  851.146  25%   1.989 MM09                                                
   67.179  95%   0.157 Lip20                                               
 1.14E+04   5%  26.534+MM20                                                
 1.05E+03  41%   2.446 MM12                                                
 8.72E+03  13%  20.365 MM14                                                
    0.000 999%   0.000 MM17                                                
  450.500  33%   1.053 Lip13a+Lip13b                                       
 1.02E+04  12%  23.864 MM14+Lip13a+Lip13b+MM12                             
  903.126  23%   2.110 MM09+Lip09                                          
 1.14E+04   5%  26.691 MM20+Lip20                                          
   6 lines in following misc. output table
  FWHM = 0.168 ppm    S/N =  12                                            
  Data shift = 0.130 ppm                                                   
  Ph:-174 deg      18.6 deg/ppm                                            
  alphaB,S = 3.2E+00,   1.8E+02                                            
    6 spline knots.   Ns = 9(2)                                            
  (15) 6 infls.   ( 3) 1 extrs.                                            
  498 points on ppm-axis = NY
      4.000000     3.992357     3.984714     3.977070     3.969427     3.961784     3.954141     3.946497     3.938854     3.931211
      3.923568     3.915925     3.908281     3.900638     3.892995     3.885352     3.877708     3.870065     3.862422     3.854779
      3.847136     3.839492     3.831849     3.824206     3.816563     3.808919     3.801276     3.793633     3.785990     3.778347
      3.770703     3.763060     3.755417     3.747774     3.740130     3.732487     3.724844     3.717201     3.709558     3.701914
      3.694271     3.686628     3.678985     3.671341     3.663698     3.656055     3.648412     3.640769     3.633125     3.625482
      3.617839     3.610196     3.602552     3.594909     3.587266     3.579623     3.571980     3.564336     3.556693     3.549050
      3.541407     3.533763     3.526120     3.518477     3.510834     3.503191     3.495547     3.487904     3.480261     3.472618
      3.464974     3.457331     3.449688     3.442045     3.434402     3.426758     3.419115     3.411472     3.403829     3.396185
      3.388542     3.380899     3.373256     3.365613     3.357969     3.350326     3.342683     3.335040     3.327396     3.319753
      3.312110     3.304467     3.296824     3.289180     3.281537     3.273894     3.266251     3.258607     3.250964     3.243321
      3.235678     3.228034     3.220391     3.212748     3.205105     3.197462     3.189818     3.182175     3.174532     3.166889
      3.159245     3.151602     3.143959     3.136316     3.128673     3.121029     3.113386     3.105743     3.098100     3.090456
      3.082813     3.075170     3.067527     3.059884     3.052240     3.044597     3.036954     3.029311     3.021667     3.014024
      3.006381     2.998738     2.991095     2.983451     2.975808     2.968165     2.960522     2.952878     2.945235     2.937592
      2.929949     2.922306     2.914662     2.907019     2.899376     2.891733     2.884089     2.876446     2.868803     2.861160
      2.853517     2.845873     2.838230     2.830587     2.822944     2.815300     2.807657     2.800014     2.792371     2.784728
      2.777084     2.769441     2.761798     2.754155     2.746511     2.738868     2.731225     2.723582     2.715939     2.708295
      2.700652     2.693009     2.685366     2.677722     2.670079     2.662436     2.654793     2.647150     2.639506     2.631863
      2.624220     2.616577     2.608933     2.601290     2.593647     2.586004     2.578361     2.570717     2.563074     2.555431
      2.547788     2.540144     2.532501     2.524858     2.517215     2.509572     2.501928     2.494285     2.486642     2.478999
      2.471355     2.463712     2.456069     2.448426     2.440783     2.433139     2.425496     2.417853     2.410210     2.402566
      2.394923     2.387280     2.379637     2.371994     2.364350     2.356707     2.349064     2.341421     2.333777     2.326134
      2.318491     2.310848     2.303205     2.295561     2.287918     2.280275     2.272632     2.264988     2.257345     2.249702
      2.242059     2.234416     2.226772     2.219129     2.211486     2.203843     2.196199     2.188556     2.180913     2.173270
      2.165627     2.157983     2.150340     2.142697     2.135054     2.127410     2.119767     2.112124     2.104481     2.096838
      2.089194     2.081551     2.073908     2.066265     2.058621     2.050978     2.043335     2.035692     2.028049     2.020405
      2.012762     2.005119     1.997476     1.989833     1.982190     1.974546     1.966903     1.959260     1.951617     1.943974
      1.936331     1.928688     1.921045     1.913402     1.905759     1.898115     1.890472     1.882829     1.875186     1.867543
      1.859900     1.852257     1.844614     1.836971     1.829327     1.821684     1.814041     1.806398     1.798755     1.791112
      1.783469     1.775826     1.768183     1.760540     1.752896     1.745253     1.737610     1.729967     1.722324     1.714681
      1.707038     1.699395     1.691752     1.684108     1.676465     1.668822     1.661179     1.653536     1.645893     1.638250
      1.630607     1.622964     1.615321     1.607677     1.600034     1.592391     1.584748     1.577105     1.569462     1.561819
      1.554176     1.546533     1.538890     1.531246     1.523603     1.515960     1.508317     1.500674     1.493031     1.485388
      1.477745     1.470102     1.462458     1.454815     1.447172     1.439529     1.431886     1.424243     1.416600     1.408957
      1.401314     1.393671     1.386027     1.378384     1.370741     1.363098     1.355455     1.347812     1.340169     1.332526
      1.324883     1.317240     1.309596     1.301953     1.294310     1.286667     1.279024     1.271381     1.263738     1.256095
      1.248452     1.240808     1.233165     1.225522     1.217879     1.210236     1.202593     1.194950     1.187307     1.179664
      1.172021     1.164377     1.156734     1.149091     1.141448     1.133805     1.126162     1.118519     1.110876     1.103233
      1.095590     1.087946     1.080303     1.072660     1.065017     1.057374     1.049731     1.042088     1.034445     1.026802
      1.019158     1.011515     1.003872     0.996229     0.988586     0.980943     0.973300     0.965657     0.958014     0.950371
      0.942727     0.935084     0.927441     0.919798     0.912155     0.904512     0.896869     0.889226     0.881583     0.873940
      0.866296     0.858653     0.851010     0.843367     0.835724     0.828081     0.820438     0.812795     0.805152     0.797508
      0.789865     0.782222     0.774579     0.766936     0.759293     0.751650     0.744007     0.736364     0.728721     0.721077
      0.713434     0.705791     0.698148     0.690505     0.682862     0.675219     0.667576     0.659933     0.652290     0.644646
      0.637003     0.629360     0.621717     0.614074     0.606431     0.598788     0.591145     0.583502     0.575858     0.568215
      0.560572     0.552929     0.545286     0.537643     0.530000     0.522357     0.514714     0.507071     0.499427     0.491784
      0.484141     0.476498     0.468855     0.461212     0.453569     0.445925     0.438282     0.430639     0.422996     0.415353
      0.407710     0.400067     0.392424     0.384780     0.377137     0.369494     0.361851     0.354208     0.346565     0.338922
      0.331278     0.323635     0.315992     0.308349     0.300706     0.293063     0.285420     0.277777     0.270133     0.262490
      0.254847     0.247204     0.239561     0.231918     0.224275     0.216631     0.208988     0.201345
 NY phased data points follow
   8.88999E+00  9.01985E+00  1.08386E+01  5.81151E+00  7.20871E+00  6.68472E+00  7.12847E+00  7.35001E+00  9.97076E+00  8.93922E-01
   6.98233E+00  8.20348E+00  3.12186E+00  4.20963E+00  5.32078E+00  2.30748E+00  4.05017E+00  3.71447E+00  5.62558E+00  5.38627E+00
   6.42161E+00 -3.87413E-01  2.98348E+00  3.94688E+00  8.33804E+00  3.73363E+00  3.92501E+00  6.73703E-01  2.07277E+00  3.30204E+00
   6.54270E+00 -3.03598E-01 -7.63203E-01  3.29896E+00  3.13710E+00  5.10953E-01  5.76545E+00 -8.30798E-01  1.09487E+00 -1.01108E+00
   2.57252E+00  1.58662E+00  3.10822E+00  4.34172E+00  9.88131E-01  1.57139E+00 -1.81477E+00 -1.75184E+00 -6.61763E-01 -1.73693E+00
   8.41725E-01 -3.09291E+00  7.12358E-02 -1.70330E-01 -1.17556E+00 -1.84445E+00 -3.55281E+00 -8.25161E-01  5.04323E-03 -2.83599E-01
  -2.23274E+00  5.53123E-01 -2.80613E+00  1.67751E-01 -4.27123E+00 -3.20081E+00 -1.39907E+00 -4.61850E+00 -4.13908E+00 -6.05711E+00
  -2.70536E+00 -4.56891E+00 -2.45057E+00 -4.95055E+00 -2.84004E+00 -1.44102E+00 -3.44022E+00 -4.63058E+00 -5.93794E+00 -3.12824E+00
  -4.18327E+00 -8.26632E+00 -7.95734E+00 -4.04070E+00 -9.73739E+00 -8.16967E+00 -9.09463E+00 -9.85962E+00 -1.05084E+01 -5.44657E+00
  -1.15361E+01 -1.41680E+01 -6.97309E+00 -1.07166E+01 -1.03011E+01 -1.26990E+01 -1.01720E+01 -9.07547E+00 -1.18924E+01 -1.03039E+01
  -1.07944E+01 -9.44303E+00 -8.11885E+00 -8.88457E+00 -1.43882E+01 -1.08009E+01 -1.26084E+01 -1.34164E+01 -1.46591E+01 -1.38620E+01
  -1.37367E+01 -1.24443E+01 -1.41110E+01 -1.23945E+01 -1.35196E+01 -1.49366E+01 -1.28029E+01 -1.16478E+01 -1.16997E+01 -1.15892E+01
  -1.17385E+01 -7.90490E+00 -1.42363E+01 -9.50780E+00 -1.55598E+01 -1.29920E+01 -9.68149E+00 -1.11357E+01 -1.55797E+01 -1.37628E+01
  -1.45316E+01 -1.48119E+01 -1.33405E+01 -1.12397E+01 -1.50157E+01 -1.15092E+01 -1.32163E+01 -1.43615E+01 -1.41476E+01 -1.30092E+01
  -1.74812E+01 -1.73826E+01 -1.45804E+01 -1.89253E+01 -1.40232E+01 -1.76761E+01 -1.74571E+01 -1.93258E+01 -1.81211E+01 -2.01652E+01
  -2.01837E+01 -1.82189E+01 -2.00826E+01 -2.22334E+01 -2.22895E+01 -2.17548E+01 -1.75409E+01 -2.07550E+01 -2.47671E+01 -2.11292E+01
  -2.44408E+01 -2.24590E+01 -2.49713E+01 -2.11562E+01 -2.85955E+01 -2.65410E+01 -2.84068E+01 -2.55414E+01 -2.63674E+01 -2.63197E+01
  -2.82206E+01 -2.56712E+01 -3.24275E+01 -2.79790E+01 -2.98668E+01 -3.06974E+01 -2.78594E+01 -3.14846E+01 -2.88116E+01 -2.93728E+01
  -2.93122E+01 -3.04042E+01 -3.00321E+01 -3.05080E+01 -3.16722E+01 -3.27831E+01 -3.27826E+01 -2.61655E+01 -3.11862E+01 -2.71482E+01
  -2.94802E+01 -2.52831E+01 -2.65614E+01 -2.58424E+01 -2.50129E+01 -2.56675E+01 -2.57359E+01 -2.76629E+01 -2.62613E+01 -2.14436E+01
  -2.31381E+01 -2.17403E+01 -2.40778E+01 -2.37368E+01 -1.84811E+01 -1.90196E+01 -2.12953E+01 -1.98353E+01 -1.55192E+01 -1.57373E+01
  -1.38047E+01 -1.30968E+01 -1.06599E+01 -1.21168E+01 -1.15565E+01 -6.39823E+00 -7.77705E+00 -5.42146E+00 -3.96796E+00 -2.01843E-01
   1.00634E+00  3.16308E+00  2.06679E+00  3.58629E+00  8.47610E+00  9.47543E+00  7.96311E+00  1.50882E+01  1.19642E+01  1.14711E+01
   1.24825E+01  1.19529E+01  1.71631E+01  1.66155E+01  1.64160E+01  1.97226E+01  1.36926E+01  1.65033E+01  2.12086E+01  2.16684E+01
   2.05688E+01  1.62967E+01  2.13619E+01  1.82936E+01  2.53986E+01  2.42935E+01  2.61693E+01  2.42774E+01  2.44713E+01  2.38226E+01
   2.41815E+01  2.52424E+01  2.67698E+01  2.65633E+01  3.07214E+01  2.73341E+01  2.71237E+01  2.39056E+01  2.70297E+01  2.63570E+01
   2.36562E+01  2.32049E+01  2.28374E+01  2.38679E+01  1.94597E+01  2.25292E+01  2.09068E+01  1.89614E+01  1.99228E+01  1.60431E+01
   1.65066E+01  1.46076E+01  1.71359E+01  1.75467E+01  1.52712E+01  1.49782E+01  1.50803E+01  1.35070E+01  1.52276E+01  1.57052E+01
   1.23108E+01  1.38656E+01  1.38256E+01  1.13432E+01  1.41669E+01  1.28168E+01  1.21297E+01  1.14429E+01  7.18697E+00  9.19463E+00
   8.88043E+00  1.16599E+01  1.20007E+01  9.27548E+00  1.10303E+01  9.12192E+00  7.92361E+00  1.02185E+01  1.11957E+01  8.60236E+00
   9.98978E+00  1.09470E+01  1.06877E+01  1.21619E+01  1.11061E+01  9.46314E+00  1.35522E+01  1.77368E+01  1.80043E+01  1.62880E+01
   2.03207E+01  2.12795E+01  2.52683E+01  2.81218E+01  3.13058E+01  3.41490E+01  3.55863E+01  3.94057E+01  4.14036E+01  4.59776E+01
   4.33826E+01  4.96535E+01  4.98250E+01  5.28150E+01  5.89092E+01  6.15949E+01  6.25960E+01  6.66975E+01  6.88737E+01  7.53013E+01
   7.50953E+01  7.81482E+01  7.97366E+01  8.34682E+01  8.71053E+01  8.55133E+01  8.46470E+01  8.00876E+01  7.87160E+01  7.89751E+01
   7.57064E+01  7.50537E+01  7.09527E+01  7.13600E+01  7.18728E+01  6.41208E+01  6.57976E+01  6.04005E+01  5.89517E+01  5.49079E+01
   5.62241E+01  5.11544E+01  5.06818E+01  4.74115E+01  5.05137E+01  4.80759E+01  4.48450E+01  4.23415E+01  4.37847E+01  4.18596E+01
   4.26186E+01  3.63159E+01  3.63249E+01  3.64167E+01  3.67442E+01  3.51105E+01  3.37736E+01  3.51681E+01  3.73549E+01  2.90158E+01
   3.03420E+01  3.17300E+01  2.75823E+01  2.79543E+01  3.11291E+01  3.11555E+01  2.74216E+01  2.58663E+01  2.20623E+01  2.40235E+01
   2.32714E+01  2.37099E+01  2.39495E+01  2.13127E+01  2.38028E+01  2.24174E+01  2.03727E+01  2.39561E+01  2.27673E+01  2.17548E+01
   2.12453E+01  2.12210E+01  1.70583E+01  1.97735E+01  1.71526E+01  1.89980E+01  1.86679E+01  1.81609E+01  1.39793E+01  1.74071E+01
   1.71853E+01  2.12243E+01  1.85785E+01  2.02266E+01  1.87203E+01  1.85791E+01  1.92343E+01  1.66734E+01  1.51369E+01  1.79401E+01
   1.32350E+01  1.69067E+01  1.57158E+01  1.58974E+01  1.69854E+01  1.26175E+01  1.38604E+01  1.80108E+01  1.40395E+01  1.66686E+01
   1.37669E+01  1.56094E+01  1.78080E+01  1.66603E+01  1.72972E+01  1.60518E+01  1.13405E+01  1.72453E+01  1.52437E+01  1.63408E+01
   1.22446E+01  1.02173E+01  1.68850E+01  1.27317E+01  1.24771E+01  1.45383E+01  1.49866E+01  1.17160E+01  1.39610E+01  1.34574E+01
   1.24190E+01  1.42198E+01  1.46960E+01  1.24160E+01  9.82509E+00  1.44892E+01  1.24381E+01  1.07778E+01  1.34699E+01  1.16482E+01
   8.21466E+00  1.16320E+01  1.55563E+01  1.28497E+01  1.10375E+01  1.58907E+01  1.16497E+01  1.47831E+01  1.10735E+01  1.29864E+01
   1.07275E+01  1.08440E+01  1.17475E+01  1.06337E+01  1.14565E+01  1.07630E+01  7.56624E+00  1.32620E+01  1.31333E+01  1.04037E+01
   1.18039E+01  6.82404E+00  9.95951E+00  1.04167E+01  1.10856E+01  6.53047E+00  4.74409E+00  9.15333E+00  7.00330E+00  8.50372E+00
   8.68120E+00  9.57120E+00  7.97215E+00  1.23645E+01  8.04418E+00  9.12411E+00  1.21159E+01  7.68084E+00  1.07753E+01  1.37882E+01
   1.17576E+01  1.59861E+01  9.92098E+00  1.09459E+01  8.83600E+00  9.98298E+00  7.51423E+00  8.40554E+00
 NY points of the fit to the data follow
   6.48831E+00  7.73473E+00  6.02243E+00  6.81871E+00  5.59382E+00  6.45358E+00  5.41153E+00  6.34110E+00  5.21182E+00  5.81351E+00
   4.54114E+00  4.46163E+00  2.92968E+00  3.13514E+00  2.16651E+00  2.81884E+00  2.47631E+00  3.20051E+00  3.33316E+00  3.64619E+00
   3.57914E+00  3.72820E+00  3.55903E+00  3.49345E+00  3.41725E+00  3.25640E+00  3.27196E+00  3.02611E+00  3.19245E+00  2.85498E+00
   3.32931E+00  3.09780E+00  3.68243E+00  3.50275E+00  4.01417E+00  3.68716E+00  4.25428E+00  4.00336E+00  4.50722E+00  4.17195E+00
   4.74429E+00  4.60594E+00  4.75389E+00  4.39337E+00  4.16617E+00  3.64584E+00  3.65752E+00  3.85354E+00  3.58322E+00  3.31925E+00
   2.68763E+00  2.06393E+00  7.87084E-01  7.39346E-02 -4.11362E-01 -4.08042E-01 -7.97289E-01 -6.92230E-01 -1.36032E+00 -1.74883E+00
  -2.81161E+00 -2.71739E+00 -3.91289E+00 -3.71542E+00 -4.81053E+00 -4.35905E+00 -5.43089E+00 -4.89553E+00 -5.92590E+00 -5.41532E+00
  -6.11817E+00 -5.40012E+00 -6.04936E+00 -5.60332E+00 -6.32550E+00 -6.18653E+00 -6.91588E+00 -6.96345E+00 -7.60061E+00 -7.78987E+00
  -8.41992E+00 -8.81464E+00 -9.38343E+00 -9.82247E+00 -1.01940E+01 -1.04126E+01 -1.08336E+01 -1.09542E+01 -1.14096E+01 -1.12629E+01
  -1.17297E+01 -1.13390E+01 -1.19299E+01 -1.13987E+01 -1.20019E+01 -1.12086E+01 -1.19623E+01 -1.09918E+01 -1.18252E+01 -1.07955E+01
  -1.16929E+01 -1.06455E+01 -1.15589E+01 -1.06497E+01 -1.15933E+01 -1.08960E+01 -1.19017E+01 -1.12820E+01 -1.19831E+01 -1.14198E+01
  -1.20400E+01 -1.16245E+01 -1.21862E+01 -1.18560E+01 -1.22379E+01 -1.20143E+01 -1.22839E+01 -1.21601E+01 -1.22617E+01 -1.19649E+01
  -1.18751E+01 -1.16195E+01 -1.15805E+01 -1.15470E+01 -1.13838E+01 -1.10687E+01 -1.09411E+01 -1.08197E+01 -1.08323E+01 -1.08931E+01
  -1.10259E+01 -1.12660E+01 -1.15321E+01 -1.19675E+01 -1.23499E+01 -1.29136E+01 -1.33977E+01 -1.41149E+01 -1.46790E+01 -1.54711E+01
  -1.60749E+01 -1.69009E+01 -1.74903E+01 -1.82050E+01 -1.87481E+01 -1.94004E+01 -1.99198E+01 -2.05819E+01 -2.10061E+01 -2.13468E+01
  -2.16633E+01 -2.19507E+01 -2.22249E+01 -2.24721E+01 -2.27058E+01 -2.29111E+01 -2.31062E+01 -2.32724E+01 -2.34287E+01 -2.35589E+01
  -2.36820E+01 -2.37783E+01 -2.38692E+01 -2.39355E+01 -2.39951E+01 -2.40323E+01 -2.40578E+01 -2.40644E+01 -2.40593E+01 -2.40301E+01
  -2.39908E+01 -2.39377E+01 -2.38681E+01 -2.37911E+01 -2.36897E+01 -2.36354E+01 -2.36648E+01 -2.36598E+01 -2.40012E+01 -2.41475E+01
  -2.47853E+01 -2.50358E+01 -2.58859E+01 -2.59004E+01 -2.64774E+01 -2.61177E+01 -2.64942E+01 -2.54413E+01 -2.56213E+01 -2.42328E+01
  -2.45676E+01 -2.34391E+01 -2.49635E+01 -2.37541E+01 -2.55937E+01 -2.42981E+01 -2.65479E+01 -2.46398E+01 -2.65811E+01 -2.42556E+01
  -2.58507E+01 -2.34788E+01 -2.50549E+01 -2.27126E+01 -2.39556E+01 -2.17579E+01 -2.23958E+01 -2.03298E+01 -2.03988E+01 -1.82632E+01
  -1.73816E+01 -1.53985E+01 -1.39822E+01 -1.22932E+01 -1.04032E+01 -9.08299E+00 -6.71705E+00 -5.77930E+00 -3.83950E+00 -2.93387E+00
  -6.74820E-01  3.29301E-01  2.44886E+00  4.36666E+00  6.72640E+00  8.31302E+00  9.84093E+00  1.16067E+01  1.24978E+01  1.39123E+01
   1.46582E+01  1.47951E+01  1.39646E+01  1.41331E+01  1.39142E+01  1.40857E+01  1.46579E+01  1.51000E+01  1.64979E+01  1.66375E+01
   1.85670E+01  1.81730E+01  2.07386E+01  1.97820E+01  2.24217E+01  2.11887E+01  2.44237E+01  2.28509E+01  2.62840E+01  2.45342E+01
   2.78763E+01  2.55696E+01  2.84106E+01  2.59139E+01  2.82950E+01  2.60286E+01  2.84916E+01  2.61892E+01  2.74074E+01  2.51903E+01
   2.60867E+01  2.39955E+01  2.48218E+01  2.36639E+01  2.40130E+01  2.24600E+01  2.25616E+01  2.08657E+01  2.05594E+01  1.89622E+01
   1.85090E+01  1.69264E+01  1.63486E+01  1.51527E+01  1.46414E+01  1.37445E+01  1.33244E+01  1.27062E+01  1.22473E+01  1.17469E+01
   1.12150E+01  1.06928E+01  1.02480E+01  9.84872E+00  9.49497E+00  9.23777E+00  8.99526E+00  8.80619E+00  8.66304E+00  8.57554E+00
   8.52699E+00  8.52944E+00  8.56513E+00  8.63394E+00  8.74317E+00  8.90957E+00  9.11512E+00  9.37517E+00  9.68245E+00  1.00510E+01
   1.04790E+01  1.09782E+01  1.15516E+01  1.22247E+01  1.30095E+01  1.39421E+01  1.50593E+01  1.64427E+01  1.82702E+01  2.06649E+01
   2.24811E+01  2.52251E+01  2.69773E+01  3.00894E+01  3.13252E+01  3.42384E+01  3.47899E+01  3.83163E+01  3.91739E+01  4.32642E+01
   4.41296E+01  4.85892E+01  4.98816E+01  5.44124E+01  5.60588E+01  6.03507E+01  6.21121E+01  6.61826E+01  6.88766E+01  7.33790E+01
   7.60945E+01  7.93044E+01  8.16520E+01  8.33125E+01  8.49278E+01  8.37575E+01  8.39952E+01  8.13565E+01  8.14889E+01  7.80472E+01
   7.78808E+01  7.37215E+01  7.37925E+01  6.95755E+01  6.95927E+01  6.46791E+01  6.41593E+01  5.90600E+01  5.95703E+01  5.56553E+01
   5.56636E+01  5.21442E+01  5.23111E+01  4.92785E+01  4.97088E+01  4.61996E+01  4.55154E+01  4.24401E+01  4.23365E+01  3.97185E+01
   3.98470E+01  3.74332E+01  3.79352E+01  3.67872E+01  3.73488E+01  3.58665E+01  3.59477E+01  3.39643E+01  3.46038E+01  3.40909E+01
   3.36721E+01  3.24643E+01  3.16766E+01  3.01185E+01  2.90108E+01  2.60197E+01  2.41256E+01  2.29009E+01  2.20043E+01  2.13113E+01
   2.07632E+01  2.03275E+01  1.99839E+01  1.97192E+01  1.95235E+01  1.93890E+01  1.93087E+01  1.92761E+01  1.92848E+01  1.93286E+01
   1.94009E+01  1.94945E+01  1.96021E+01  1.97161E+01  1.98289E+01  1.99333E+01  2.00221E+01  2.00887E+01  2.01273E+01  2.01331E+01
   2.01024E+01  2.00332E+01  1.99242E+01  1.97758E+01  1.95895E+01  1.93681E+01  1.91155E+01  1.88361E+01  1.85351E+01  1.82178E+01
   1.78895E+01  1.75557E+01  1.72212E+01  1.68905E+01  1.65674E+01  1.62551E+01  1.59561E+01  1.56722E+01  1.54047E+01  1.51542E+01
   1.49208E+01  1.47043E+01  1.45040E+01  1.43193E+01  1.41491E+01  1.39924E+01  1.38479E+01  1.37145E+01  1.35912E+01  1.34769E+01
   1.33707E+01  1.32715E+01  1.31786E+01  1.30912E+01  1.30087E+01  1.29305E+01  1.28560E+01  1.27848E+01  1.27165E+01  1.26507E+01
   1.25872E+01  1.25256E+01  1.24658E+01  1.24074E+01  1.23503E+01  1.22945E+01  1.22397E+01  1.21858E+01  1.21327E+01  1.20803E+01
   1.20285E+01  1.19773E+01  1.19266E+01  1.18763E+01  1.18263E+01  1.17767E+01  1.17274E+01  1.16784E+01  1.16296E+01  1.15810E+01
   1.15325E+01  1.14842E+01  1.14361E+01  1.13881E+01  1.13402E+01  1.12924E+01  1.12447E+01  1.11971E+01  1.11496E+01  1.11022E+01
   1.10548E+01  1.10075E+01  1.09603E+01  1.09132E+01  1.08661E+01  1.08192E+01  1.07723E+01  1.07255E+01  1.06788E+01  1.06322E+01
   1.05857E+01  1.05394E+01  1.04932E+01  1.04471E+01  1.04012E+01  1.03555E+01  1.03099E+01  1.02646E+01  1.02196E+01  1.01748E+01
   1.01303E+01  1.00862E+01  1.00425E+01  9.99926E+00  9.95654E+00  9.91445E+00  9.87312E+00  9.83274E+00
 NY background values follow
    -6.808E+00   -6.974E+00   -7.141E+00   -7.308E+00   -7.475E+00   -7.643E+00   -7.811E+00   -7.979E+00   -8.148E+00   -8.317E+00
    -8.486E+00   -8.655E+00   -8.825E+00   -8.994E+00   -9.164E+00   -9.334E+00   -9.504E+00   -9.674E+00   -9.844E+00   -1.001E+01
    -1.018E+01   -1.035E+01   -1.052E+01   -1.069E+01   -1.086E+01   -1.103E+01   -1.120E+01   -1.137E+01   -1.154E+01   -1.171E+01
    -1.188E+01   -1.205E+01   -1.222E+01   -1.239E+01   -1.255E+01   -1.272E+01   -1.289E+01   -1.306E+01   -1.322E+01   -1.339E+01
    -1.355E+01   -1.372E+01   -1.388E+01   -1.405E+01   -1.421E+01   -1.437E+01   -1.454E+01   -1.470E+01   -1.486E+01   -1.502E+01
    -1.518E+01   -1.534E+01   -1.550E+01   -1.566E+01   -1.581E+01   -1.597E+01   -1.613E+01   -1.628E+01   -1.644E+01   -1.659E+01
    -1.674E+01   -1.689E+01   -1.704E+01   -1.719E+01   -1.734E+01   -1.749E+01   -1.764E+01   -1.778E+01   -1.793E+01   -1.807E+01
    -1.821E+01   -1.835E+01   -1.849E+01   -1.863E+01   -1.877E+01   -1.891E+01   -1.904E+01   -1.918E+01   -1.931E+01   -1.944E+01
    -1.957E+01   -1.970E+01   -1.983E+01   -1.996E+01   -2.008E+01   -2.020E+01   -2.033E+01   -2.045E+01   -2.057E+01   -2.068E+01
    -2.080E+01   -2.091E+01   -2.103E+01   -2.114E+01   -2.125E+01   -2.136E+01   -2.146E+01   -2.157E+01   -2.167E+01   -2.177E+01
    -2.187E+01   -2.197E+01   -2.207E+01   -2.216E+01   -2.225E+01   -2.234E+01   -2.243E+01   -2.252E+01   -2.260E+01   -2.269E+01
    -2.277E+01   -2.285E+01   -2.292E+01   -2.300E+01   -2.307E+01   -2.314E+01   -2.321E+01   -2.328E+01   -2.334E+01   -2.340E+01
    -2.346E+01   -2.352E+01   -2.358E+01   -2.363E+01   -2.368E+01   -2.373E+01   -2.378E+01   -2.382E+01   -2.387E+01   -2.391E+01
    -2.394E+01   -2.398E+01   -2.401E+01   -2.404E+01   -2.407E+01   -2.409E+01   -2.411E+01   -2.413E+01   -2.415E+01   -2.417E+01
    -2.418E+01   -2.419E+01   -2.419E+01   -2.420E+01   -2.420E+01   -2.420E+01   -2.419E+01   -2.419E+01   -2.418E+01   -2.416E+01
    -2.415E+01   -2.413E+01   -2.411E+01   -2.409E+01   -2.406E+01   -2.403E+01   -2.400E+01   -2.396E+01   -2.392E+01   -2.388E+01
    -2.384E+01   -2.379E+01   -2.374E+01   -2.368E+01   -2.362E+01   -2.356E+01   -2.350E+01   -2.343E+01   -2.336E+01   -2.329E+01
    -2.321E+01   -2.314E+01   -2.305E+01   -2.297E+01   -2.288E+01   -2.279E+01   -2.269E+01   -2.260E+01   -2.250E+01   -2.239E+01
    -2.229E+01   -2.218E+01   -2.207E+01   -2.196E+01   -2.184E+01   -2.172E+01   -2.160E+01   -2.148E+01   -2.135E+01   -2.122E+01
    -2.109E+01   -2.096E+01   -2.082E+01   -2.068E+01   -2.054E+01   -2.040E+01   -2.026E+01   -2.011E+01   -1.996E+01   -1.981E+01
    -1.966E+01   -1.950E+01   -1.934E+01   -1.918E+01   -1.902E+01   -1.886E+01   -1.869E+01   -1.852E+01   -1.836E+01   -1.818E+01
    -1.801E+01   -1.784E+01   -1.766E+01   -1.748E+01   -1.730E+01   -1.712E+01   -1.694E+01   -1.676E+01   -1.657E+01   -1.638E+01
    -1.619E+01   -1.600E+01   -1.581E+01   -1.562E+01   -1.543E+01   -1.523E+01   -1.503E+01   -1.484E+01   -1.464E+01   -1.444E+01
    -1.424E+01   -1.403E+01   -1.383E+01   -1.363E+01   -1.342E+01   -1.321E+01   -1.301E+01   -1.280E+01   -1.259E+01   -1.238E+01
    -1.217E+01   -1.196E+01   -1.175E+01   -1.153E+01   -1.132E+01   -1.111E+01   -1.089E+01   -1.068E+01   -1.046E+01   -1.024E+01
    -1.003E+01   -9.811E+00   -9.594E+00   -9.376E+00   -9.158E+00   -8.939E+00   -8.721E+00   -8.502E+00   -8.283E+00   -8.064E+00
    -7.845E+00   -7.625E+00   -7.406E+00   -7.186E+00   -6.967E+00   -6.748E+00   -6.528E+00   -6.309E+00   -6.090E+00   -5.871E+00
    -5.652E+00   -5.434E+00   -5.216E+00   -4.998E+00   -4.780E+00   -4.563E+00   -4.346E+00   -4.130E+00   -3.914E+00   -3.699E+00
    -3.484E+00   -3.270E+00   -3.056E+00   -2.843E+00   -2.631E+00   -2.419E+00   -2.208E+00   -1.998E+00   -1.789E+00   -1.580E+00
    -1.373E+00   -1.166E+00   -9.602E-01   -7.553E-01   -5.515E-01   -3.487E-01   -1.469E-01    5.376E-02    2.533E-01    4.517E-01
     6.488E-01    8.448E-01    1.039E+00    1.233E+00    1.425E+00    1.616E+00    1.805E+00    1.993E+00    2.179E+00    2.364E+00
     2.548E+00    2.729E+00    2.910E+00    3.088E+00    3.265E+00    3.441E+00    3.614E+00    3.786E+00    3.956E+00    4.124E+00
     4.291E+00    4.455E+00    4.618E+00    4.778E+00    4.937E+00    5.094E+00    5.248E+00    5.401E+00    5.551E+00    5.699E+00
     5.845E+00    5.989E+00    6.130E+00    6.270E+00    6.407E+00    6.542E+00    6.674E+00    6.805E+00    6.933E+00    7.059E+00
     7.183E+00    7.305E+00    7.424E+00    7.542E+00    7.657E+00    7.771E+00    7.882E+00    7.991E+00    8.099E+00    8.204E+00
     8.307E+00    8.408E+00    8.507E+00    8.605E+00    8.700E+00    8.793E+00    8.885E+00    8.974E+00    9.062E+00    9.148E+00
     9.232E+00    9.314E+00    9.394E+00    9.472E+00    9.549E+00    9.623E+00    9.696E+00    9.768E+00    9.837E+00    9.905E+00
     9.971E+00    1.003E+01    1.010E+01    1.016E+01    1.022E+01    1.028E+01    1.033E+01    1.039E+01    1.044E+01    1.049E+01
     1.054E+01    1.059E+01    1.063E+01    1.068E+01    1.072E+01    1.076E+01    1.080E+01    1.084E+01    1.088E+01    1.091E+01
     1.095E+01    1.098E+01    1.101E+01    1.104E+01    1.107E+01    1.110E+01    1.113E+01    1.115E+01    1.117E+01    1.120E+01
     1.122E+01    1.124E+01    1.126E+01    1.127E+01    1.129E+01    1.130E+01    1.132E+01    1.133E+01    1.134E+01    1.135E+01
     1.136E+01    1.136E+01    1.137E+01    1.138E+01    1.138E+01    1.138E+01    1.138E+01    1.139E+01    1.138E+01    1.138E+01
     1.138E+01    1.138E+01    1.137E+01    1.137E+01    1.136E+01    1.136E+01    1.135E+01    1.134E+01    1.133E+01    1.132E+01
     1.131E+01    1.129E+01    1.128E+01    1.127E+01    1.125E+01    1.123E+01    1.122E+01    1.120E+01    1.118E+01    1.116E+01
     1.114E+01    1.112E+01    1.110E+01    1.108E+01    1.106E+01    1.104E+01    1.101E+01    1.099E+01    1.096E+01    1.094E+01
     1.091E+01    1.088E+01    1.086E+01    1.083E+01    1.080E+01    1.077E+01    1.074E+01    1.071E+01    1.068E+01    1.065E+01
     1.062E+01    1.059E+01    1.055E+01    1.052E+01    1.049E+01    1.046E+01    1.042E+01    1.039E+01    1.035E+01    1.032E+01
     1.028E+01    1.025E+01    1.021E+01    1.018E+01    1.014E+01    1.010E+01    1.007E+01    1.003E+01    9.993E+00    9.956E+00
     9.918E+00    9.881E+00    9.843E+00    9.805E+00    9.767E+00    9.729E+00    9.691E+00    9.653E+00    9.615E+00    9.577E+00
     9.538E+00    9.500E+00    9.462E+00    9.423E+00    9.385E+00    9.347E+00    9.309E+00    9.271E+00
 Ala      Conc. = 5.37E+03
