 LCModel (Version 6.3-1L) Copyright: S.W. Provencher.          Ref.: Magn. Reson. Med. 30:672-679 (1993).                
 Slice#3 Row#5 Col#13  K_02_press_1_raw_act
 36 lines in following concentration table = NCONC+1
    Conc.  %SD /Cr+PCr  Metabolite                                         
 1.65E+04  26% 141.164 Ala                                                 
   11.461 105% 9.8E-02 Asp                                                 
  117.208 110%   1.000 Cr                                                  
    0.000 999%   0.000 PCr                                                 
    6.878 105% 5.9E-02 GABA                                                
    6.878 105% 5.9E-02 Glc                                                 
    0.000 999%   0.000 Gln                                                 
    0.000 999%   0.000 Glu                                                 
   37.345 127%   0.319 GPC                                                 
    0.000 999%   0.000 PCh                                                 
  240.855  67%   2.055 GSH                                                 
  532.892  94%   4.547 Ins                                                 
 2.70E+03 130%  23.003 Lac                                                 
    0.000 999%   0.000 NAA                                                 
    0.000 999%   0.000 NAAG                                                
    2.293 105% 2.0E-02 Scyllo                                              
   11.464 105% 9.8E-02 Tau                                                 
   11.721 110%   0.100 -CrCH2                                              
   37.345 127%   0.319 GPC+PCh                                             
    0.000 999%   0.000 NAA+NAAG                                            
  117.208 110%   1.000 Cr+PCr                                              
    0.000 999%   0.000 Glu+Gln                                             
 1.60E+05   9% 1.4E+03 Lip13a                                              
    0.000 999%   0.000 Lip13b                                              
 3.90E+04  12% 332.405 Lip09                                               
 1.11E+04  25%  94.388 MM09                                                
 9.73E+03  22%  83.018-Lip20                                               
 2.85E+03  25%  24.346 MM20                                                
 5.21E+03  46%  44.454 MM12                                                
 8.22E+04   9% 701.552+MM14                                                
 4.63E+04  14% 395.383+MM17                                                
 1.60E+05   9% 1.4E+03 Lip13a+Lip13b                                       
 2.48E+05   5% 2.1E+03 MM14+Lip13a+Lip13b+MM12                             
 5.00E+04   9% 426.793 MM09+Lip09                                          
 1.26E+04  16% 107.365 MM20+Lip20                                          
   6 lines in following misc. output table
  FWHM = 0.183 ppm    S/N = 159                                            
  Data shift = 0.176 ppm                                                   
  Ph:-170 deg      37.5 deg/ppm                                            
  alphaB,S = 8.3E+00,   4.1E+02                                            
    7 spline knots.   Ns = 9(2)                                            
  (12) 2 infls.   ( 5) 1 extrs.                                            
  498 points on ppm-axis = NY
      4.000000     3.992357     3.984714     3.977070     3.969427     3.961784     3.954141     3.946497     3.938854     3.931211
      3.923568     3.915925     3.908281     3.900638     3.892995     3.885352     3.877708     3.870065     3.862422     3.854779
      3.847136     3.839492     3.831849     3.824206     3.816563     3.808919     3.801276     3.793633     3.785990     3.778347
      3.770703     3.763060     3.755417     3.747774     3.740130     3.732487     3.724844     3.717201     3.709558     3.701914
      3.694271     3.686628     3.678985     3.671341     3.663698     3.656055     3.648412     3.640769     3.633125     3.625482
      3.617839     3.610196     3.602552     3.594909     3.587266     3.579623     3.571980     3.564336     3.556693     3.549050
      3.541407     3.533763     3.526120     3.518477     3.510834     3.503191     3.495547     3.487904     3.480261     3.472618
      3.464974     3.457331     3.449688     3.442045     3.434402     3.426758     3.419115     3.411472     3.403829     3.396185
      3.388542     3.380899     3.373256     3.365613     3.357969     3.350326     3.342683     3.335040     3.327396     3.319753
      3.312110     3.304467     3.296824     3.289180     3.281537     3.273894     3.266251     3.258607     3.250964     3.243321
      3.235678     3.228034     3.220391     3.212748     3.205105     3.197462     3.189818     3.182175     3.174532     3.166889
      3.159245     3.151602     3.143959     3.136316     3.128673     3.121029     3.113386     3.105743     3.098100     3.090456
      3.082813     3.075170     3.067527     3.059884     3.052240     3.044597     3.036954     3.029311     3.021667     3.014024
      3.006381     2.998738     2.991095     2.983451     2.975808     2.968165     2.960522     2.952878     2.945235     2.937592
      2.929949     2.922306     2.914662     2.907019     2.899376     2.891733     2.884089     2.876446     2.868803     2.861160
      2.853517     2.845873     2.838230     2.830587     2.822944     2.815300     2.807657     2.800014     2.792371     2.784728
      2.777084     2.769441     2.761798     2.754155     2.746511     2.738868     2.731225     2.723582     2.715939     2.708295
      2.700652     2.693009     2.685366     2.677722     2.670079     2.662436     2.654793     2.647150     2.639506     2.631863
      2.624220     2.616577     2.608933     2.601290     2.593647     2.586004     2.578361     2.570717     2.563074     2.555431
      2.547788     2.540144     2.532501     2.524858     2.517215     2.509572     2.501928     2.494285     2.486642     2.478999
      2.471355     2.463712     2.456069     2.448426     2.440783     2.433139     2.425496     2.417853     2.410210     2.402566
      2.394923     2.387280     2.379637     2.371994     2.364350     2.356707     2.349064     2.341421     2.333777     2.326134
      2.318491     2.310848     2.303205     2.295561     2.287918     2.280275     2.272632     2.264988     2.257345     2.249702
      2.242059     2.234416     2.226772     2.219129     2.211486     2.203843     2.196199     2.188556     2.180913     2.173270
      2.165627     2.157983     2.150340     2.142697     2.135054     2.127410     2.119767     2.112124     2.104481     2.096838
      2.089194     2.081551     2.073908     2.066265     2.058621     2.050978     2.043335     2.035692     2.028049     2.020405
      2.012762     2.005119     1.997476     1.989833     1.982190     1.974546     1.966903     1.959260     1.951617     1.943974
      1.936331     1.928688     1.921045     1.913402     1.905759     1.898115     1.890472     1.882829     1.875186     1.867543
      1.859900     1.852257     1.844614     1.836971     1.829327     1.821684     1.814041     1.806398     1.798755     1.791112
      1.783469     1.775826     1.768183     1.760540     1.752896     1.745253     1.737610     1.729967     1.722324     1.714681
      1.707038     1.699395     1.691752     1.684108     1.676465     1.668822     1.661179     1.653536     1.645893     1.638250
      1.630607     1.622964     1.615321     1.607677     1.600034     1.592391     1.584748     1.577105     1.569462     1.561819
      1.554176     1.546533     1.538890     1.531246     1.523603     1.515960     1.508317     1.500674     1.493031     1.485388
      1.477745     1.470102     1.462458     1.454815     1.447172     1.439529     1.431886     1.424243     1.416600     1.408957
      1.401314     1.393671     1.386027     1.378384     1.370741     1.363098     1.355455     1.347812     1.340169     1.332526
      1.324883     1.317240     1.309596     1.301953     1.294310     1.286667     1.279024     1.271381     1.263738     1.256095
      1.248452     1.240808     1.233165     1.225522     1.217879     1.210236     1.202593     1.194950     1.187307     1.179664
      1.172021     1.164377     1.156734     1.149091     1.141448     1.133805     1.126162     1.118519     1.110876     1.103233
      1.095590     1.087946     1.080303     1.072660     1.065017     1.057374     1.049731     1.042088     1.034445     1.026802
      1.019158     1.011515     1.003872     0.996229     0.988586     0.980943     0.973300     0.965657     0.958014     0.950371
      0.942727     0.935084     0.927441     0.919798     0.912155     0.904512     0.896869     0.889226     0.881583     0.873940
      0.866296     0.858653     0.851010     0.843367     0.835724     0.828081     0.820438     0.812795     0.805152     0.797508
      0.789865     0.782222     0.774579     0.766936     0.759293     0.751650     0.744007     0.736364     0.728721     0.721077
      0.713434     0.705791     0.698148     0.690505     0.682862     0.675219     0.667576     0.659933     0.652290     0.644646
      0.637003     0.629360     0.621717     0.614074     0.606431     0.598788     0.591145     0.583502     0.575858     0.568215
      0.560572     0.552929     0.545286     0.537643     0.530000     0.522357     0.514714     0.507071     0.499427     0.491784
      0.484141     0.476498     0.468855     0.461212     0.453569     0.445925     0.438282     0.430639     0.422996     0.415353
      0.407710     0.400067     0.392424     0.384780     0.377137     0.369494     0.361851     0.354208     0.346565     0.338922
      0.331278     0.323635     0.315992     0.308349     0.300706     0.293063     0.285420     0.277777     0.270133     0.262490
      0.254847     0.247204     0.239561     0.231918     0.224275     0.216631     0.208988     0.201345
 NY phased data points follow
  -4.92670E+01 -4.54858E+01 -4.67895E+01 -4.66527E+01 -4.62269E+01 -4.69140E+01 -5.06795E+01 -5.00694E+01 -4.89504E+01 -4.69924E+01
  -5.05292E+01 -4.99457E+01 -4.71839E+01 -4.87446E+01 -4.83854E+01 -5.11073E+01 -5.04894E+01 -5.09690E+01 -5.19851E+01 -4.90099E+01
  -5.17425E+01 -5.32053E+01 -5.36560E+01 -5.20530E+01 -5.22574E+01 -5.30566E+01 -5.23373E+01 -5.35630E+01 -5.62006E+01 -5.58986E+01
  -5.40629E+01 -5.40052E+01 -5.45857E+01 -5.48754E+01 -5.61636E+01 -5.36126E+01 -5.89743E+01 -5.69883E+01 -5.56391E+01 -5.44463E+01
  -5.80077E+01 -5.59776E+01 -5.92149E+01 -5.78232E+01 -5.83132E+01 -6.13253E+01 -6.05061E+01 -5.67461E+01 -6.08109E+01 -6.12324E+01
  -6.16321E+01 -5.91163E+01 -6.25286E+01 -6.12076E+01 -5.90372E+01 -6.22403E+01 -6.19588E+01 -6.28997E+01 -6.18517E+01 -6.21224E+01
  -6.41246E+01 -6.43125E+01 -6.17238E+01 -6.22075E+01 -6.56938E+01 -6.24373E+01 -6.90966E+01 -6.63192E+01 -6.52840E+01 -6.63174E+01
  -6.66514E+01 -6.53315E+01 -6.84369E+01 -6.76521E+01 -7.26497E+01 -6.96064E+01 -7.10485E+01 -7.17019E+01 -7.20002E+01 -7.04340E+01
  -7.15043E+01 -7.15877E+01 -7.31680E+01 -7.39242E+01 -7.13827E+01 -7.55441E+01 -7.53224E+01 -7.53374E+01 -7.54266E+01 -7.39127E+01
  -7.62027E+01 -7.69208E+01 -7.61740E+01 -7.79031E+01 -7.55914E+01 -7.73901E+01 -7.90113E+01 -7.75010E+01 -8.19681E+01 -7.91927E+01
  -8.17423E+01 -8.60828E+01 -8.22424E+01 -8.04728E+01 -8.27607E+01 -8.03555E+01 -8.30271E+01 -8.09306E+01 -8.53700E+01 -8.31254E+01
  -8.53226E+01 -8.40960E+01 -8.84125E+01 -8.51784E+01 -8.60133E+01 -8.88754E+01 -8.68856E+01 -8.67461E+01 -8.23828E+01 -8.43294E+01
  -8.63577E+01 -8.61208E+01 -8.82557E+01 -8.74091E+01 -8.71414E+01 -8.99417E+01 -8.95488E+01 -8.72584E+01 -8.92928E+01 -9.09237E+01
  -9.29315E+01 -9.28059E+01 -9.33009E+01 -9.28365E+01 -9.24048E+01 -9.18473E+01 -9.28596E+01 -9.34972E+01 -9.33868E+01 -9.36012E+01
  -9.62609E+01 -9.43548E+01 -9.63516E+01 -9.69249E+01 -9.66012E+01 -9.72843E+01 -9.70251E+01 -9.76226E+01 -1.01358E+02 -1.00573E+02
  -9.99512E+01 -1.00905E+02 -1.00737E+02 -1.02963E+02 -1.03819E+02 -1.01755E+02 -1.02793E+02 -1.05267E+02 -1.03489E+02 -1.06659E+02
  -1.06883E+02 -1.06373E+02 -1.06811E+02 -1.07177E+02 -1.10304E+02 -1.09458E+02 -1.10412E+02 -1.11541E+02 -1.12954E+02 -1.13806E+02
  -1.11653E+02 -1.12753E+02 -1.13177E+02 -1.16031E+02 -1.19718E+02 -1.17961E+02 -1.17914E+02 -1.20020E+02 -1.21182E+02 -1.20109E+02
  -1.24908E+02 -1.20431E+02 -1.21840E+02 -1.25718E+02 -1.22962E+02 -1.23616E+02 -1.25328E+02 -1.27077E+02 -1.28543E+02 -1.28513E+02
  -1.25678E+02 -1.28416E+02 -1.26637E+02 -1.29917E+02 -1.29709E+02 -1.30693E+02 -1.31778E+02 -1.32267E+02 -1.30564E+02 -1.32796E+02
  -1.32491E+02 -1.30506E+02 -1.28969E+02 -1.31199E+02 -1.31088E+02 -1.31784E+02 -1.29074E+02 -1.29835E+02 -1.28036E+02 -1.28310E+02
  -1.27968E+02 -1.27998E+02 -1.28218E+02 -1.24233E+02 -1.26072E+02 -1.23231E+02 -1.22406E+02 -1.21737E+02 -1.21949E+02 -1.19594E+02
  -1.20705E+02 -1.20480E+02 -1.23307E+02 -1.20942E+02 -1.22520E+02 -1.18594E+02 -1.20243E+02 -1.21090E+02 -1.20616E+02 -1.20559E+02
  -1.19120E+02 -1.14573E+02 -1.14756E+02 -1.12726E+02 -1.16056E+02 -1.11374E+02 -1.06853E+02 -1.01930E+02 -1.01837E+02 -9.54251E+01
  -9.88424E+01 -9.55559E+01 -9.54873E+01 -9.54865E+01 -9.41948E+01 -9.26571E+01 -9.26193E+01 -9.23733E+01 -9.09758E+01 -8.98358E+01
  -8.78488E+01 -8.78998E+01 -8.97831E+01 -8.83942E+01 -8.47189E+01 -9.03337E+01 -8.84810E+01 -8.84541E+01 -8.26567E+01 -8.73947E+01
  -8.73786E+01 -8.28670E+01 -8.39163E+01 -8.41627E+01 -8.00404E+01 -8.25835E+01 -8.03295E+01 -7.67718E+01 -7.83401E+01 -7.79325E+01
  -7.33154E+01 -7.36627E+01 -6.96586E+01 -6.84900E+01 -6.37496E+01 -6.09665E+01 -5.84178E+01 -5.96666E+01 -5.38998E+01 -5.14169E+01
  -4.54275E+01 -4.35843E+01 -4.17607E+01 -3.80115E+01 -3.49676E+01 -2.78869E+01 -2.03255E+01 -1.55563E+01 -1.22909E+01 -2.44249E+00
   3.41864E+00  9.09496E+00  1.91781E+01  2.74650E+01  3.71131E+01  4.70610E+01  5.45856E+01  6.93805E+01  8.27012E+01  9.27626E+01
   1.06538E+02  1.24467E+02  1.41407E+02  1.57453E+02  1.80100E+02  2.01036E+02  2.17837E+02  2.43631E+02  2.70156E+02  2.95762E+02
   3.19206E+02  3.46636E+02  3.73942E+02  4.02487E+02  4.29507E+02  4.60410E+02  4.89273E+02  5.18365E+02  5.50553E+02  5.84031E+02
   6.18811E+02  6.56430E+02  6.91068E+02  7.26417E+02  7.60939E+02  7.90483E+02  8.17976E+02  8.39589E+02  8.57841E+02  8.67062E+02
   8.70704E+02  8.70990E+02  8.66186E+02  8.54451E+02  8.36857E+02  8.15812E+02  7.96740E+02  7.73835E+02  7.42528E+02  7.13044E+02
   6.82479E+02  6.55133E+02  6.27263E+02  5.98721E+02  5.70056E+02  5.44963E+02  5.21255E+02  4.96056E+02  4.74792E+02  4.54205E+02
   4.31866E+02  4.16321E+02  3.97963E+02  3.80299E+02  3.64648E+02  3.50267E+02  3.32276E+02  3.20614E+02  3.09472E+02  3.00946E+02
   2.88896E+02  2.77731E+02  2.68732E+02  2.55704E+02  2.48416E+02  2.35897E+02  2.27632E+02  2.20665E+02  2.14425E+02  2.06440E+02
   1.96863E+02  1.91566E+02  1.82174E+02  1.75160E+02  1.71994E+02  1.66832E+02  1.60605E+02  1.57042E+02  1.50899E+02  1.44648E+02
   1.42863E+02  1.38966E+02  1.33108E+02  1.27954E+02  1.22410E+02  1.18866E+02  1.17856E+02  1.12355E+02  1.08181E+02  1.03593E+02
   1.03418E+02  9.42118E+01  9.29923E+01  9.08421E+01  8.56230E+01  7.91002E+01  7.73198E+01  7.56151E+01  7.13570E+01  6.78965E+01
   6.72979E+01  6.32039E+01  5.92614E+01  5.48508E+01  5.35309E+01  5.32444E+01  4.99600E+01  4.54397E+01  4.26760E+01  3.96714E+01
   3.84652E+01  3.63103E+01  3.33863E+01  2.92765E+01  3.28543E+01  2.58517E+01  2.44297E+01  2.49672E+01  2.37955E+01  2.14649E+01
   1.75774E+01  1.67170E+01  1.44140E+01  1.19633E+01  1.12468E+01  8.26040E+00  8.86186E+00  8.44012E+00  5.32327E+00  4.95462E+00
   3.01043E+00  3.47277E+00 -2.30670E+00 -3.60883E+00 -4.09916E+00 -2.38801E+00 -6.65663E+00 -4.95569E+00 -1.06350E+01 -7.96109E+00
  -1.08351E+01 -9.47567E+00 -1.05599E+01 -1.26263E+01 -1.55237E+01 -1.39502E+01 -1.57738E+01 -1.78501E+01 -1.66203E+01 -1.84043E+01
  -1.80682E+01 -1.94457E+01 -1.88273E+01 -1.91462E+01 -1.99454E+01 -2.28974E+01 -2.46906E+01 -2.33249E+01 -2.31951E+01 -2.50785E+01
  -2.60854E+01 -2.94206E+01 -2.75946E+01 -2.65614E+01 -2.65688E+01 -2.84514E+01 -3.07313E+01 -3.05599E+01 -2.94592E+01 -3.23281E+01
  -3.14709E+01 -3.13952E+01 -3.21342E+01 -3.29754E+01 -3.02691E+01 -3.43434E+01 -3.26928E+01 -3.38590E+01 -3.37094E+01 -3.37660E+01
  -3.34396E+01 -3.36877E+01 -3.67506E+01 -3.77365E+01 -3.37592E+01 -3.76416E+01 -3.67409E+01 -3.82544E+01 -3.97326E+01 -3.71054E+01
  -3.71562E+01 -3.73315E+01 -3.91127E+01 -4.12305E+01 -3.81810E+01 -4.02862E+01 -3.87244E+01 -3.95547E+01
 NY points of the fit to the data follow
  -4.68800E+01 -4.66174E+01 -4.77962E+01 -4.74926E+01 -4.83999E+01 -4.77509E+01 -4.80760E+01 -4.67578E+01 -4.73784E+01 -4.62613E+01
  -4.73689E+01 -4.66415E+01 -4.83022E+01 -4.81068E+01 -5.05840E+01 -5.00922E+01 -5.23477E+01 -5.15372E+01 -5.33164E+01 -5.20454E+01
  -5.32208E+01 -5.15863E+01 -5.26459E+01 -5.13511E+01 -5.23545E+01 -5.16652E+01 -5.28146E+01 -5.28714E+01 -5.39775E+01 -5.43961E+01
  -5.50291E+01 -5.56328E+01 -5.57442E+01 -5.63762E+01 -5.58727E+01 -5.66097E+01 -5.58278E+01 -5.68787E+01 -5.59398E+01 -5.72308E+01
  -5.63375E+01 -5.77714E+01 -5.69276E+01 -5.83335E+01 -5.74259E+01 -5.87380E+01 -5.78840E+01 -5.89721E+01 -5.85538E+01 -5.96856E+01
  -5.95621E+01 -6.06739E+01 -6.07561E+01 -6.17413E+01 -6.20123E+01 -6.25424E+01 -6.26413E+01 -6.29783E+01 -6.30676E+01 -6.33192E+01
  -6.34721E+01 -6.37447E+01 -6.40950E+01 -6.44986E+01 -6.48931E+01 -6.53261E+01 -6.57336E+01 -6.61737E+01 -6.65798E+01 -6.70211E+01
  -6.74336E+01 -6.79096E+01 -6.83436E+01 -6.88509E+01 -6.92958E+01 -6.98196E+01 -7.02631E+01 -7.07957E+01 -7.12249E+01 -7.17672E+01
  -7.21916E+01 -7.27343E+01 -7.31510E+01 -7.36929E+01 -7.40696E+01 -7.45447E+01 -7.49374E+01 -7.53626E+01 -7.57834E+01 -7.61516E+01
  -7.66010E+01 -7.69117E+01 -7.73989E+01 -7.76695E+01 -7.81940E+01 -7.84467E+01 -7.89990E+01 -7.92348E+01 -7.98057E+01 -8.00161E+01
  -8.06055E+01 -8.07957E+01 -8.14062E+01 -8.15850E+01 -8.22191E+01 -8.24052E+01 -8.30432E+01 -8.32362E+01 -8.38378E+01 -8.39655E+01
  -8.45242E+01 -8.46434E+01 -8.51517E+01 -8.52652E+01 -8.57250E+01 -8.58331E+01 -8.62273E+01 -8.63713E+01 -8.67445E+01 -8.69482E+01
  -8.73270E+01 -8.75801E+01 -8.79372E+01 -8.82165E+01 -8.85263E+01 -8.88245E+01 -8.91309E+01 -8.94791E+01 -8.97861E+01 -9.02090E+01
  -9.05224E+01 -9.10244E+01 -9.13554E+01 -9.19312E+01 -9.22854E+01 -9.29289E+01 -9.33002E+01 -9.39805E+01 -9.43534E+01 -9.50540E+01
  -9.54175E+01 -9.61130E+01 -9.64700E+01 -9.71459E+01 -9.75057E+01 -9.81672E+01 -9.85424E+01 -9.91780E+01 -9.95698E+01 -1.00161E+02
  -1.00589E+02 -1.01186E+02 -1.01670E+02 -1.02277E+02 -1.02816E+02 -1.03434E+02 -1.04019E+02 -1.04668E+02 -1.05316E+02 -1.06000E+02
  -1.06705E+02 -1.07418E+02 -1.08160E+02 -1.08900E+02 -1.09666E+02 -1.10433E+02 -1.11220E+02 -1.12015E+02 -1.12820E+02 -1.13629E+02
  -1.14439E+02 -1.15245E+02 -1.16037E+02 -1.16816E+02 -1.17574E+02 -1.18321E+02 -1.19051E+02 -1.19764E+02 -1.20467E+02 -1.21154E+02
  -1.21845E+02 -1.22483E+02 -1.23137E+02 -1.23719E+02 -1.24329E+02 -1.24846E+02 -1.25401E+02 -1.25844E+02 -1.26333E+02 -1.26701E+02
  -1.27121E+02 -1.27420E+02 -1.27780E+02 -1.28016E+02 -1.28318E+02 -1.28492E+02 -1.28732E+02 -1.28843E+02 -1.29013E+02 -1.29055E+02
  -1.29143E+02 -1.29115E+02 -1.29117E+02 -1.29018E+02 -1.28931E+02 -1.28757E+02 -1.28575E+02 -1.28328E+02 -1.28058E+02 -1.27735E+02
  -1.27379E+02 -1.26985E+02 -1.26548E+02 -1.26095E+02 -1.25603E+02 -1.25087E+02 -1.24539E+02 -1.23964E+02 -1.23363E+02 -1.22724E+02
  -1.22067E+02 -1.21384E+02 -1.20688E+02 -1.19975E+02 -1.19246E+02 -1.18508E+02 -1.17749E+02 -1.16975E+02 -1.16155E+02 -1.15322E+02
  -1.14420E+02 -1.13502E+02 -1.12491E+02 -1.11464E+02 -1.10326E+02 -1.09187E+02 -1.07927E+02 -1.06681E+02 -1.05315E+02 -1.03985E+02
  -1.02545E+02 -1.01163E+02 -9.96914E+01 -9.83014E+01 -9.68499E+01 -9.55104E+01 -9.41416E+01 -9.29069E+01 -9.16748E+01 -9.05870E+01
  -8.95250E+01 -8.85985E+01 -8.77097E+01 -8.69388E+01 -8.62074E+01 -8.55540E+01 -8.49270E+01 -8.43384E+01 -8.37586E+01 -8.31764E+01
  -8.25825E+01 -8.19646E+01 -8.13142E+01 -8.06115E+01 -7.98546E+01 -7.90211E+01 -7.81138E+01 -7.71058E+01 -7.59995E+01 -7.47779E+01
  -7.34372E+01 -7.19619E+01 -7.03437E+01 -6.85686E+01 -6.66254E+01 -6.44986E+01 -6.21745E+01 -5.96359E+01 -5.68682E+01 -5.38527E+01
  -5.05727E+01 -4.70069E+01 -4.31362E+01 -3.89362E+01 -3.43842E+01 -2.94525E+01 -2.41147E+01 -1.83395E+01 -1.20969E+01 -5.35282E+00
   1.92520E+00  9.77251E+00  1.82219E+01  2.73083E+01  3.70623E+01  4.75160E+01  5.86966E+01  7.06327E+01  8.33492E+01  9.68742E+01
   1.11236E+02  1.26470E+02  1.42622E+02  1.59756E+02  1.77960E+02  1.97369E+02  2.18190E+02  2.40792E+02  2.65880E+02  2.93366E+02
   3.19221E+02  3.48086E+02  3.74160E+02  4.04083E+02  4.30166E+02  4.60444E+02  4.86257E+02  5.20354E+02  5.49662E+02  5.86500E+02
   6.18810E+02  6.57082E+02  6.90593E+02  7.27817E+02  7.59281E+02  7.91285E+02  8.16843E+02  8.39581E+02  8.55648E+02  8.66971E+02
   8.71788E+02  8.71131E+02  8.65455E+02  8.53731E+02  8.38861E+02  8.17859E+02  7.96527E+02  7.69559E+02  7.43707E+02  7.12966E+02
   6.85366E+02  6.54309E+02  6.26953E+02  5.97357E+02  5.70946E+02  5.44093E+02  5.19975E+02  4.96349E+02  4.74559E+02  4.54624E+02
   4.33858E+02  4.16188E+02  3.97045E+02  3.81430E+02  3.63609E+02  3.49815E+02  3.33507E+02  3.22582E+02  3.08842E+02  2.99141E+02
   2.86896E+02  2.77861E+02  2.66687E+02  2.57946E+02  2.47615E+02  2.39149E+02  2.29721E+02  2.21574E+02  2.13096E+02  2.05560E+02
   1.97737E+02  1.90620E+02  1.83594E+02  1.76983E+02  1.70744E+02  1.64722E+02  1.59271E+02  1.54232E+02  1.49513E+02  1.45052E+02
   1.40798E+02  1.36705E+02  1.32730E+02  1.28834E+02  1.24984E+02  1.21152E+02  1.17315E+02  1.13461E+02  1.09581E+02  1.05673E+02
   1.01742E+02  9.77982E+01  9.38549E+01  8.99290E+01  8.60385E+01  8.22027E+01  7.84396E+01  7.47665E+01  7.11978E+01  6.77459E+01
   6.44194E+01  6.12248E+01  5.81644E+01  5.52387E+01  5.24444E+01  4.97772E+01  4.72300E+01  4.47953E+01  4.24637E+01  4.02263E+01
   3.80733E+01  3.59957E+01  3.39842E+01  3.20310E+01  3.01279E+01  2.82689E+01  2.64475E+01  2.46594E+01  2.28999E+01  2.11663E+01
   1.94556E+01  1.77665E+01  1.60973E+01  1.44479E+01  1.28177E+01  1.12073E+01  9.61690E+00  8.04764E+00  6.50004E+00  4.97568E+00
   3.47527E+00  2.00052E+00  5.52048E-01 -8.68404E-01 -2.26026E+00 -3.62195E+00 -4.95308E+00 -6.25231E+00 -7.51946E+00 -8.75341E+00
  -9.95422E+00 -1.11210E+01 -1.22541E+01 -1.33529E+01 -1.44179E+01 -1.54486E+01 -1.64459E+01 -1.74094E+01 -1.83402E+01 -1.92380E+01
  -2.01041E+01 -2.09384E+01 -2.17421E+01 -2.25152E+01 -2.32592E+01 -2.39742E+01 -2.46615E+01 -2.53214E+01 -2.59551E+01 -2.65630E+01
  -2.71465E+01 -2.77057E+01 -2.82422E+01 -2.87562E+01 -2.92489E+01 -2.97207E+01 -3.01730E+01 -3.06059E+01 -3.10208E+01 -3.14178E+01
  -3.17983E+01 -3.21624E+01 -3.25114E+01 -3.28453E+01 -3.31655E+01 -3.34719E+01 -3.37658E+01 -3.40472E+01 -3.43173E+01 -3.45760E+01
  -3.48245E+01 -3.50627E+01 -3.52916E+01 -3.55113E+01 -3.57227E+01 -3.59257E+01 -3.61213E+01 -3.63093E+01 -3.64907E+01 -3.66652E+01
  -3.68339E+01 -3.69963E+01 -3.71533E+01 -3.73047E+01 -3.74511E+01 -3.75922E+01 -3.77285E+01 -3.78595E+01
 NY background values follow
    -5.534E+01   -5.556E+01   -5.578E+01   -5.600E+01   -5.623E+01   -5.646E+01   -5.670E+01   -5.694E+01   -5.718E+01   -5.743E+01
    -5.768E+01   -5.793E+01   -5.819E+01   -5.845E+01   -5.871E+01   -5.898E+01   -5.926E+01   -5.953E+01   -5.981E+01   -6.010E+01
    -6.039E+01   -6.068E+01   -6.097E+01   -6.127E+01   -6.158E+01   -6.189E+01   -6.220E+01   -6.251E+01   -6.283E+01   -6.315E+01
    -6.348E+01   -6.381E+01   -6.414E+01   -6.448E+01   -6.482E+01   -6.517E+01   -6.552E+01   -6.587E+01   -6.623E+01   -6.659E+01
    -6.696E+01   -6.733E+01   -6.770E+01   -6.808E+01   -6.846E+01   -6.884E+01   -6.923E+01   -6.962E+01   -7.002E+01   -7.042E+01
    -7.082E+01   -7.123E+01   -7.164E+01   -7.206E+01   -7.248E+01   -7.290E+01   -7.333E+01   -7.376E+01   -7.420E+01   -7.464E+01
    -7.508E+01   -7.553E+01   -7.598E+01   -7.644E+01   -7.690E+01   -7.736E+01   -7.783E+01   -7.830E+01   -7.878E+01   -7.926E+01
    -7.974E+01   -8.023E+01   -8.072E+01   -8.122E+01   -8.172E+01   -8.222E+01   -8.273E+01   -8.324E+01   -8.376E+01   -8.428E+01
    -8.480E+01   -8.533E+01   -8.586E+01   -8.640E+01   -8.694E+01   -8.748E+01   -8.803E+01   -8.858E+01   -8.914E+01   -8.970E+01
    -9.026E+01   -9.083E+01   -9.140E+01   -9.198E+01   -9.256E+01   -9.315E+01   -9.374E+01   -9.433E+01   -9.493E+01   -9.553E+01
    -9.613E+01   -9.674E+01   -9.736E+01   -9.797E+01   -9.860E+01   -9.922E+01   -9.985E+01   -1.005E+02   -1.011E+02   -1.018E+02
    -1.024E+02   -1.031E+02   -1.037E+02   -1.044E+02   -1.050E+02   -1.057E+02   -1.064E+02   -1.071E+02   -1.077E+02   -1.084E+02
    -1.091E+02   -1.098E+02   -1.105E+02   -1.112E+02   -1.119E+02   -1.126E+02   -1.133E+02   -1.141E+02   -1.148E+02   -1.155E+02
    -1.162E+02   -1.170E+02   -1.177E+02   -1.184E+02   -1.192E+02   -1.199E+02   -1.207E+02   -1.214E+02   -1.222E+02   -1.229E+02
    -1.237E+02   -1.244E+02   -1.252E+02   -1.259E+02   -1.267E+02   -1.274E+02   -1.282E+02   -1.290E+02   -1.297E+02   -1.305E+02
    -1.313E+02   -1.320E+02   -1.328E+02   -1.335E+02   -1.343E+02   -1.351E+02   -1.358E+02   -1.366E+02   -1.373E+02   -1.381E+02
    -1.388E+02   -1.396E+02   -1.403E+02   -1.411E+02   -1.418E+02   -1.426E+02   -1.433E+02   -1.441E+02   -1.448E+02   -1.455E+02
    -1.463E+02   -1.470E+02   -1.477E+02   -1.484E+02   -1.491E+02   -1.499E+02   -1.506E+02   -1.513E+02   -1.520E+02   -1.527E+02
    -1.533E+02   -1.540E+02   -1.547E+02   -1.554E+02   -1.560E+02   -1.567E+02   -1.574E+02   -1.580E+02   -1.586E+02   -1.593E+02
    -1.599E+02   -1.605E+02   -1.612E+02   -1.618E+02   -1.624E+02   -1.630E+02   -1.636E+02   -1.641E+02   -1.647E+02   -1.653E+02
    -1.658E+02   -1.664E+02   -1.669E+02   -1.674E+02   -1.680E+02   -1.685E+02   -1.690E+02   -1.695E+02   -1.700E+02   -1.704E+02
    -1.709E+02   -1.713E+02   -1.718E+02   -1.722E+02   -1.727E+02   -1.731E+02   -1.735E+02   -1.739E+02   -1.742E+02   -1.746E+02
    -1.750E+02   -1.753E+02   -1.756E+02   -1.760E+02   -1.763E+02   -1.766E+02   -1.769E+02   -1.771E+02   -1.774E+02   -1.776E+02
    -1.779E+02   -1.781E+02   -1.783E+02   -1.785E+02   -1.787E+02   -1.788E+02   -1.790E+02   -1.791E+02   -1.793E+02   -1.794E+02
    -1.795E+02   -1.795E+02   -1.796E+02   -1.796E+02   -1.797E+02   -1.797E+02   -1.797E+02   -1.797E+02   -1.796E+02   -1.796E+02
    -1.795E+02   -1.795E+02   -1.794E+02   -1.793E+02   -1.791E+02   -1.790E+02   -1.788E+02   -1.787E+02   -1.785E+02   -1.783E+02
    -1.781E+02   -1.778E+02   -1.776E+02   -1.773E+02   -1.770E+02   -1.768E+02   -1.765E+02   -1.761E+02   -1.758E+02   -1.755E+02
    -1.751E+02   -1.748E+02   -1.744E+02   -1.740E+02   -1.736E+02   -1.732E+02   -1.727E+02   -1.723E+02   -1.719E+02   -1.714E+02
    -1.709E+02   -1.704E+02   -1.700E+02   -1.694E+02   -1.689E+02   -1.684E+02   -1.679E+02   -1.673E+02   -1.668E+02   -1.662E+02
    -1.656E+02   -1.650E+02   -1.645E+02   -1.639E+02   -1.632E+02   -1.626E+02   -1.620E+02   -1.614E+02   -1.607E+02   -1.601E+02
    -1.594E+02   -1.587E+02   -1.581E+02   -1.574E+02   -1.567E+02   -1.560E+02   -1.553E+02   -1.546E+02   -1.539E+02   -1.532E+02
    -1.524E+02   -1.517E+02   -1.510E+02   -1.502E+02   -1.495E+02   -1.487E+02   -1.479E+02   -1.472E+02   -1.464E+02   -1.456E+02
    -1.449E+02   -1.441E+02   -1.433E+02   -1.425E+02   -1.417E+02   -1.409E+02   -1.401E+02   -1.393E+02   -1.385E+02   -1.377E+02
    -1.369E+02   -1.360E+02   -1.352E+02   -1.344E+02   -1.336E+02   -1.328E+02   -1.319E+02   -1.311E+02   -1.303E+02   -1.294E+02
    -1.286E+02   -1.278E+02   -1.270E+02   -1.261E+02   -1.253E+02   -1.245E+02   -1.236E+02   -1.228E+02   -1.220E+02   -1.211E+02
    -1.203E+02   -1.195E+02   -1.186E+02   -1.178E+02   -1.170E+02   -1.161E+02   -1.153E+02   -1.145E+02   -1.137E+02   -1.129E+02
    -1.120E+02   -1.112E+02   -1.104E+02   -1.096E+02   -1.088E+02   -1.080E+02   -1.072E+02   -1.064E+02   -1.056E+02   -1.048E+02
    -1.041E+02   -1.033E+02   -1.025E+02   -1.017E+02   -1.010E+02   -1.002E+02   -9.946E+01   -9.871E+01   -9.797E+01   -9.723E+01
    -9.649E+01   -9.576E+01   -9.503E+01   -9.431E+01   -9.359E+01   -9.288E+01   -9.217E+01   -9.147E+01   -9.077E+01   -9.008E+01
    -8.939E+01   -8.871E+01   -8.803E+01   -8.735E+01   -8.669E+01   -8.602E+01   -8.536E+01   -8.471E+01   -8.406E+01   -8.341E+01
    -8.277E+01   -8.214E+01   -8.151E+01   -8.088E+01   -8.026E+01   -7.965E+01   -7.904E+01   -7.843E+01   -7.783E+01   -7.723E+01
    -7.664E+01   -7.606E+01   -7.547E+01   -7.490E+01   -7.433E+01   -7.376E+01   -7.320E+01   -7.264E+01   -7.209E+01   -7.155E+01
    -7.100E+01   -7.047E+01   -6.994E+01   -6.941E+01   -6.889E+01   -6.837E+01   -6.786E+01   -6.735E+01   -6.685E+01   -6.636E+01
    -6.586E+01   -6.538E+01   -6.490E+01   -6.442E+01   -6.395E+01   -6.348E+01   -6.302E+01   -6.257E+01   -6.212E+01   -6.167E+01
    -6.123E+01   -6.079E+01   -6.036E+01   -5.994E+01   -5.952E+01   -5.910E+01   -5.869E+01   -5.829E+01   -5.789E+01   -5.750E+01
    -5.711E+01   -5.672E+01   -5.634E+01   -5.597E+01   -5.560E+01   -5.524E+01   -5.488E+01   -5.453E+01   -5.418E+01   -5.384E+01
    -5.350E+01   -5.317E+01   -5.284E+01   -5.252E+01   -5.220E+01   -5.189E+01   -5.159E+01   -5.129E+01   -5.099E+01   -5.070E+01
    -5.042E+01   -5.014E+01   -4.986E+01   -4.959E+01   -4.933E+01   -4.907E+01   -4.882E+01   -4.857E+01   -4.833E+01   -4.809E+01
    -4.786E+01   -4.763E+01   -4.741E+01   -4.720E+01   -4.699E+01   -4.678E+01   -4.658E+01   -4.639E+01   -4.620E+01   -4.602E+01
    -4.584E+01   -4.567E+01   -4.550E+01   -4.534E+01   -4.518E+01   -4.503E+01   -4.489E+01   -4.475E+01
 Ala      Conc. = 1.65E+04
