 LCModel (Version 6.3-1L) Copyright: S.W. Provencher.          Ref.: Magn. Reson. Med. 30:672-679 (1993).                
 Slice#2 Row#5 Col#3  K_02_press_1_raw_act
 36 lines in following concentration table = NCONC+1
    Conc.  %SD /Cr+PCr  Metabolite                                         
   45.935 431% 3.0E-02 Ala                                                 
    0.000 999%   0.000 Asp                                                 
    0.000 999%   0.000 Cr                                                  
 1.54E+03   4%   1.000 PCr                                                 
  209.348  78%   0.136 GABA                                                
    0.000 999%   0.000 Glc                                                 
 1.14E+03  39%   0.737 Gln                                                 
 1.70E+03  30%   1.098 Glu                                                 
  432.923   6%   0.280 GPC                                                 
    0.000 999%   0.000 PCh                                                 
  387.979  25%   0.251 GSH                                                 
  374.935  80%   0.243 Ins                                                 
  381.242  60%   0.247 Lac                                                 
 2.48E+03   8%   1.604 NAA                                                 
   40.571 523% 2.6E-02 NAAG                                                
  103.851  30% 6.7E-02 Scyllo                                              
    0.000 999%   0.000 Tau                                                 
  335.235  35%   0.217 -CrCH2                                              
  432.923   6%   0.280 GPC+PCh                                             
 2.52E+03   4%   1.630 NAA+NAAG                                            
 1.54E+03   4%   1.000 Cr+PCr                                              
 2.83E+03  30%   1.835 Glu+Gln                                             
   89.338 231% 5.8E-02 Lip13a                                              
    0.000 999%   0.000 Lip13b                                              
    0.000 999%   0.000 Lip09                                               
  902.217  16%   0.584 MM09                                                
   80.716 109% 5.2E-02 Lip20                                               
 2.14E+03  13%   1.388 MM20                                                
  308.237  25%   0.200 MM12                                                
 1.05E+03  20%   0.679 MM14                                                
  796.048  20%   0.515 MM17                                                
   89.338 231% 5.8E-02 Lip13a+Lip13b                                       
 1.45E+03  20%   0.936 MM14+Lip13a+Lip13b+MM12                             
  902.217  16%   0.584 MM09+Lip09                                          
 2.22E+03  13%   1.440 MM20+Lip20                                          
   6 lines in following misc. output table
  FWHM = 0.084 ppm    S/N =  11                                            
  Data shift = 0.046 ppm                                                   
  Ph: -32 deg     -20.3 deg/ppm                                            
  alphaB,S = 2.7E+00,   2.0E+02                                            
   14 spline knots.   Ns =11(1)                                            
  (14) 5 infls.   (11) 1 extrs.                                            
  498 points on ppm-axis = NY
      4.000000     3.992357     3.984714     3.977070     3.969427     3.961784     3.954141     3.946497     3.938854     3.931211
      3.923568     3.915925     3.908281     3.900638     3.892995     3.885352     3.877708     3.870065     3.862422     3.854779
      3.847136     3.839492     3.831849     3.824206     3.816563     3.808919     3.801276     3.793633     3.785990     3.778347
      3.770703     3.763060     3.755417     3.747774     3.740130     3.732487     3.724844     3.717201     3.709558     3.701914
      3.694271     3.686628     3.678985     3.671341     3.663698     3.656055     3.648412     3.640769     3.633125     3.625482
      3.617839     3.610196     3.602552     3.594909     3.587266     3.579623     3.571980     3.564336     3.556693     3.549050
      3.541407     3.533763     3.526120     3.518477     3.510834     3.503191     3.495547     3.487904     3.480261     3.472618
      3.464974     3.457331     3.449688     3.442045     3.434402     3.426758     3.419115     3.411472     3.403829     3.396185
      3.388542     3.380899     3.373256     3.365613     3.357969     3.350326     3.342683     3.335040     3.327396     3.319753
      3.312110     3.304467     3.296824     3.289180     3.281537     3.273894     3.266251     3.258607     3.250964     3.243321
      3.235678     3.228034     3.220391     3.212748     3.205105     3.197462     3.189818     3.182175     3.174532     3.166889
      3.159245     3.151602     3.143959     3.136316     3.128673     3.121029     3.113386     3.105743     3.098100     3.090456
      3.082813     3.075170     3.067527     3.059884     3.052240     3.044597     3.036954     3.029311     3.021667     3.014024
      3.006381     2.998738     2.991095     2.983451     2.975808     2.968165     2.960522     2.952878     2.945235     2.937592
      2.929949     2.922306     2.914662     2.907019     2.899376     2.891733     2.884089     2.876446     2.868803     2.861160
      2.853517     2.845873     2.838230     2.830587     2.822944     2.815300     2.807657     2.800014     2.792371     2.784728
      2.777084     2.769441     2.761798     2.754155     2.746511     2.738868     2.731225     2.723582     2.715939     2.708295
      2.700652     2.693009     2.685366     2.677722     2.670079     2.662436     2.654793     2.647150     2.639506     2.631863
      2.624220     2.616577     2.608933     2.601290     2.593647     2.586004     2.578361     2.570717     2.563074     2.555431
      2.547788     2.540144     2.532501     2.524858     2.517215     2.509572     2.501928     2.494285     2.486642     2.478999
      2.471355     2.463712     2.456069     2.448426     2.440783     2.433139     2.425496     2.417853     2.410210     2.402566
      2.394923     2.387280     2.379637     2.371994     2.364350     2.356707     2.349064     2.341421     2.333777     2.326134
      2.318491     2.310848     2.303205     2.295561     2.287918     2.280275     2.272632     2.264988     2.257345     2.249702
      2.242059     2.234416     2.226772     2.219129     2.211486     2.203843     2.196199     2.188556     2.180913     2.173270
      2.165627     2.157983     2.150340     2.142697     2.135054     2.127410     2.119767     2.112124     2.104481     2.096838
      2.089194     2.081551     2.073908     2.066265     2.058621     2.050978     2.043335     2.035692     2.028049     2.020405
      2.012762     2.005119     1.997476     1.989833     1.982190     1.974546     1.966903     1.959260     1.951617     1.943974
      1.936331     1.928688     1.921045     1.913402     1.905759     1.898115     1.890472     1.882829     1.875186     1.867543
      1.859900     1.852257     1.844614     1.836971     1.829327     1.821684     1.814041     1.806398     1.798755     1.791112
      1.783469     1.775826     1.768183     1.760540     1.752896     1.745253     1.737610     1.729967     1.722324     1.714681
      1.707038     1.699395     1.691752     1.684108     1.676465     1.668822     1.661179     1.653536     1.645893     1.638250
      1.630607     1.622964     1.615321     1.607677     1.600034     1.592391     1.584748     1.577105     1.569462     1.561819
      1.554176     1.546533     1.538890     1.531246     1.523603     1.515960     1.508317     1.500674     1.493031     1.485388
      1.477745     1.470102     1.462458     1.454815     1.447172     1.439529     1.431886     1.424243     1.416600     1.408957
      1.401314     1.393671     1.386027     1.378384     1.370741     1.363098     1.355455     1.347812     1.340169     1.332526
      1.324883     1.317240     1.309596     1.301953     1.294310     1.286667     1.279024     1.271381     1.263738     1.256095
      1.248452     1.240808     1.233165     1.225522     1.217879     1.210236     1.202593     1.194950     1.187307     1.179664
      1.172021     1.164377     1.156734     1.149091     1.141448     1.133805     1.126162     1.118519     1.110876     1.103233
      1.095590     1.087946     1.080303     1.072660     1.065017     1.057374     1.049731     1.042088     1.034445     1.026802
      1.019158     1.011515     1.003872     0.996229     0.988586     0.980943     0.973300     0.965657     0.958014     0.950371
      0.942727     0.935084     0.927441     0.919798     0.912155     0.904512     0.896869     0.889226     0.881583     0.873940
      0.866296     0.858653     0.851010     0.843367     0.835724     0.828081     0.820438     0.812795     0.805152     0.797508
      0.789865     0.782222     0.774579     0.766936     0.759293     0.751650     0.744007     0.736364     0.728721     0.721077
      0.713434     0.705791     0.698148     0.690505     0.682862     0.675219     0.667576     0.659933     0.652290     0.644646
      0.637003     0.629360     0.621717     0.614074     0.606431     0.598788     0.591145     0.583502     0.575858     0.568215
      0.560572     0.552929     0.545286     0.537643     0.530000     0.522357     0.514714     0.507071     0.499427     0.491784
      0.484141     0.476498     0.468855     0.461212     0.453569     0.445925     0.438282     0.430639     0.422996     0.415353
      0.407710     0.400067     0.392424     0.384780     0.377137     0.369494     0.361851     0.354208     0.346565     0.338922
      0.331278     0.323635     0.315992     0.308349     0.300706     0.293063     0.285420     0.277777     0.270133     0.262490
      0.254847     0.247204     0.239561     0.231918     0.224275     0.216631     0.208988     0.201345
 NY phased data points follow
  -6.59277E+00 -7.00604E+00 -2.28632E+00  1.12766E+00  2.38759E+00  2.53081E+00  8.53705E+00  5.74964E+00  8.52233E+00  6.67171E+00
   7.28135E+00  5.35272E+00  5.46279E+00 -1.20282E+00 -2.10056E+00 -2.08575E+00 -4.00404E+00 -7.43578E+00 -5.34735E+00 -4.07207E+00
  -6.49260E+00 -9.43180E+00 -8.33979E+00 -5.33954E+00 -4.58654E+00 -4.53173E+00 -2.74318E+00 -3.61833E+00 -8.74778E-01 -5.55941E+00
  -1.58545E+00 -1.96737E+00 -2.74762E+00 -5.21953E+00 -2.03573E+00 -4.08751E+00 -4.84874E+00 -4.84252E+00 -5.40574E+00 -5.59627E+00
  -2.90678E+00 -3.53435E+00 -5.55555E+00 -3.05115E+00 -1.69959E+00  2.47379E+00 -1.63181E+00 -5.32801E+00 -2.73241E+00 -1.42223E+00
  -3.46602E+00 -1.67040E+00 -8.53374E+00 -3.49205E+00 -4.78369E+00 -4.87885E+00 -7.37802E+00 -6.59109E+00 -5.17831E+00 -1.07243E+01
  -8.60635E+00 -9.57862E+00 -7.30565E+00 -1.03477E+01 -1.59502E+01 -1.30518E+01 -1.09365E+01 -1.11387E+01 -9.78512E+00 -7.67649E+00
  -6.74473E+00 -5.70749E+00 -2.04090E+00 -7.75249E+00 -8.10959E+00 -7.82755E+00 -4.88470E+00 -5.05163E+00 -8.69361E+00 -5.79335E+00
  -4.71885E+00 -5.64634E+00 -6.56256E+00 -5.17154E+00 -4.20657E+00 -1.02109E+01  2.10863E-01 -6.11764E+00  3.07948E+00 -3.22665E+00
  -1.05287E+00  4.12169E-01  3.88495E-01  1.66664E+00  1.35843E+00  6.34897E+00  1.05695E+01  7.13253E+00  1.05943E+01  1.45377E+01
   2.02622E+01  2.01730E+01  2.10086E+01  2.01975E+01  1.99429E+01  1.51337E+01  1.62233E+01  1.10161E+01  8.89709E+00  4.62035E+00
   4.12024E+00 -1.74330E+00  1.35425E-01 -1.18774E+00 -2.49155E+00 -1.45607E+00  2.52743E+00  3.01213E+00  9.19649E+00  9.45204E+00
   1.41047E+01  1.67596E+01  2.21634E+01  2.72498E+01  2.82975E+01  3.05073E+01  2.69536E+01  3.09679E+01  2.69579E+01  2.84909E+01
   2.29124E+01  1.60312E+01  1.24557E+01  8.54444E+00  7.75670E+00  2.89299E+00  3.38156E+00  3.69059E+00  5.18858E+00  3.13341E+00
  -1.86969E+00 -2.48037E-01 -2.66445E-01  1.24260E+00 -1.46746E-01 -7.49959E-02 -1.65335E+00  8.30549E-01  2.71535E+00 -1.34123E-02
   3.09331E-01  4.70319E-01 -1.15204E+00 -9.24678E-01  3.24336E-01 -2.11238E+00 -3.81772E+00 -1.09864E-01 -1.71482E+00 -2.62195E+00
   1.80386E-01 -1.41893E+00  1.08795E-01 -1.68226E+00 -2.47542E+00  2.78458E+00 -3.16274E-01 -8.63066E+00 -2.61269E+00 -7.25722E+00
  -7.21632E+00 -8.20285E+00 -9.80789E+00 -9.56076E+00 -9.42218E+00 -1.04502E+01 -9.25323E+00 -9.21856E+00 -8.10103E+00 -1.26053E+01
  -8.96827E+00 -7.27276E+00 -7.88410E+00 -8.11863E+00 -8.74540E+00 -5.27808E+00  3.97041E-01 -1.47256E+00  1.24620E+00  9.51052E-01
   4.32144E+00  4.49086E-01  3.87786E+00  6.85253E+00  3.84674E+00  2.42906E+00  4.74047E+00  3.34353E+00 -9.25633E-01  3.22515E+00
   1.35484E+00  3.45415E+00  3.42789E+00  4.44520E-02  3.73150E+00  1.33348E+00  6.36590E-01  1.25744E+00  1.63943E+00  2.41869E-01
   3.72502E+00  6.03357E+00  2.86156E+00  8.80717E+00  6.85354E+00  8.02714E+00  6.32406E+00  8.39508E+00  5.93556E+00  3.90128E+00
   2.05310E+00  3.34983E+00  4.76884E+00  6.15612E+00  8.32462E+00  8.26998E+00  4.85052E+00  8.94346E+00  4.97245E+00  6.80595E+00
   1.13869E+01  5.71511E+00  6.74503E+00  6.31351E+00  4.42876E+00  1.00384E+01  9.98417E+00  1.04973E+01  1.01526E+01  9.37203E+00
   1.17037E+01  9.63676E+00  9.40307E+00  1.31172E+01  1.05791E+01  1.41277E+01  1.28149E+01  1.36189E+01  1.58006E+01  1.84949E+01
   1.85057E+01  2.33485E+01  2.71230E+01  3.04818E+01  3.60301E+01  4.51167E+01  4.78083E+01  5.36791E+01  6.04611E+01  6.32232E+01
   6.27943E+01  6.43490E+01  5.39434E+01  5.57086E+01  5.04463E+01  4.03444E+01  3.32427E+01  3.27865E+01  2.62029E+01  2.05869E+01
   2.17809E+01  1.77683E+01  1.46539E+01  9.03401E+00  1.00574E+01  1.23675E+01  1.08204E+01  1.46255E+01  1.00202E+01  1.12890E+01
   1.11330E+01  1.03189E+01  1.36462E+01  9.76539E+00  5.71441E+00  1.22729E+01  1.28040E+01  8.55049E+00  7.03036E+00  8.58038E+00
   7.86349E+00  7.21644E+00  8.36590E+00  8.67744E+00  9.58511E+00  5.59390E+00  1.03498E+01  8.60879E+00  9.43462E+00  1.02694E+01
   1.35908E+01  8.66188E+00  1.18117E+01  8.16472E+00  1.29678E+01  1.07294E+01  1.31254E+01  1.13931E+01  1.04640E+01  1.47348E+01
   1.06777E+01  1.48927E+01  1.33590E+01  1.27069E+01  1.58459E+01  1.47314E+01  1.16579E+01  1.34489E+01  1.56599E+01  9.19050E+00
   1.24550E+01  1.49869E+01  1.56268E+01  1.82070E+01  1.13088E+01  1.21084E+01  1.27304E+01  9.52215E+00  8.16613E+00  1.03317E+01
   1.56390E+01  1.05994E+01  1.36678E+01  1.48885E+01  1.70605E+01  1.52807E+01  1.22287E+01  1.27095E+01  1.37056E+01  1.34365E+01
   1.15811E+01  1.10468E+01  1.09010E+01  7.26848E+00  7.24813E+00  8.02697E+00  8.38145E+00  9.77736E+00  7.50262E+00  4.93185E+00
   6.46430E+00  1.04737E+01  1.07183E+01  7.49399E+00  7.16549E+00  1.05812E+01  7.86298E+00  6.11987E+00  7.45757E+00  1.08931E+01
   1.09655E+01  1.28269E+01  1.31259E+01  1.08521E+01  1.43657E+01  1.22719E+01  9.44798E+00  1.21538E+01  1.64089E+01  9.71686E+00
   1.16033E+01  1.13614E+01  1.57123E+01  1.33036E+01  1.13500E+01  9.73479E+00  7.47153E+00  8.31712E+00  9.31218E+00  9.56873E+00
   9.90396E+00  9.22278E+00  7.31560E+00  9.23911E+00  1.23682E+01  7.13928E+00  9.09706E+00  8.34045E+00  8.62231E+00  5.64318E+00
   8.34175E+00  9.85838E+00  1.05253E+01  1.10837E+01  1.07093E+01  9.90229E+00  1.26358E+01  6.99073E+00  1.06879E+01  1.12412E+01
   9.74951E+00  9.97524E+00  1.05366E+01  9.94076E+00  1.42931E+01  1.22305E+01  1.18008E+01  1.34631E+01  1.46160E+01  1.25493E+01
   9.12554E+00  9.94670E+00  8.06208E+00  8.52120E+00  9.77490E+00  7.97969E+00  9.08488E+00  1.17854E+01  8.07566E+00  7.13362E+00
   9.62802E+00  1.03676E+01  1.09966E+01  8.99619E+00  7.37589E+00  1.19304E+01  7.09792E+00  7.66782E+00  7.16636E+00  1.08229E+01
   8.11988E+00  8.80896E+00  5.43668E+00  1.27259E+01  7.27015E+00  7.76925E+00  7.92781E+00  1.29699E+01  9.21920E+00  9.97801E+00
   1.05850E+01  7.06594E+00  9.20436E+00  1.20825E+01  7.32517E+00  9.99798E+00  6.98461E+00  9.78135E+00  5.83369E+00  9.52018E+00
   1.25719E+01  4.94789E+00  7.57405E+00  5.60609E+00  1.01649E+01  7.70026E+00  6.72996E+00  7.10538E+00  1.03372E+01  5.72449E+00
   1.07404E+01  7.65255E+00  7.59000E+00  6.44355E+00  6.66456E+00  8.15310E+00  7.99833E+00  8.91761E+00  1.31647E+01  1.08441E+01
   9.28612E+00  8.89212E+00  1.20639E+01  8.79021E+00  7.86798E+00  9.58417E+00  5.98089E+00  1.04524E+00  7.64909E+00  7.17219E+00
   8.14080E+00  1.22722E+01  3.23585E+00  9.09419E+00  1.05884E+01  7.51473E+00  9.68553E+00  7.36503E+00  8.36474E+00  9.43972E+00
   9.26871E+00  7.02120E+00  5.41202E+00  8.81855E+00  6.45031E+00  7.64880E+00  7.08610E+00  5.30655E+00
 NY points of the fit to the data follow
  -6.62109E+00 -4.87173E+00 -2.84425E+00 -6.01773E-01  1.78520E+00  4.10263E+00  5.94360E+00  6.99379E+00  7.27554E+00  6.98104E+00
   6.25608E+00  5.07437E+00  3.38001E+00  1.43128E+00 -3.24601E-01 -1.74416E+00 -2.86372E+00 -3.77415E+00 -4.61939E+00 -5.49596E+00
  -6.35135E+00 -6.62121E+00 -6.34394E+00 -5.94775E+00 -5.44450E+00 -4.86121E+00 -4.18490E+00 -3.42177E+00 -2.65089E+00 -1.99310E+00
  -1.54034E+00 -1.33129E+00 -1.36586E+00 -1.70717E+00 -2.34502E+00 -3.12227E+00 -3.85830E+00 -4.43843E+00 -4.77800E+00 -4.85984E+00
  -4.74549E+00 -4.62824E+00 -4.57541E+00 -4.47908E+00 -4.38418E+00 -4.33669E+00 -4.36038E+00 -4.43110E+00 -4.50712E+00 -4.63458E+00
  -4.84607E+00 -5.12808E+00 -5.45233E+00 -5.79774E+00 -6.11908E+00 -6.36294E+00 -6.52112E+00 -6.65528E+00 -6.78750E+00 -6.91564E+00
  -7.04459E+00 -7.15537E+00 -7.23324E+00 -7.28652E+00 -7.32753E+00 -7.35399E+00 -7.36286E+00 -7.34809E+00 -7.30591E+00 -7.24576E+00
  -7.18688E+00 -7.14794E+00 -7.12436E+00 -7.10324E+00 -7.06483E+00 -6.93334E+00 -6.64678E+00 -6.31708E+00 -5.99969E+00 -5.66891E+00
  -5.29192E+00 -4.86561E+00 -4.40375E+00 -3.94168E+00 -3.55317E+00 -3.30454E+00 -3.21664E+00 -3.26456E+00 -3.40094E+00 -3.58318E+00
  -3.70275E+00 -3.15326E+00 -1.60493E+00  2.86810E-01  2.27632E+00  4.51432E+00  7.11908E+00  1.00169E+01  1.30812E+01  1.61409E+01
   1.87474E+01  2.03292E+01  2.07445E+01  2.01835E+01  1.88921E+01  1.69367E+01  1.42342E+01  1.10312E+01  7.94764E+00  5.39650E+00
   3.43420E+00  2.01307E+00  9.14466E-01 -2.58441E-01 -1.35007E+00 -8.19150E-01  1.43976E+00  4.08175E+00  6.84635E+00  9.95162E+00
   1.35096E+01  1.74585E+01  2.16579E+01  2.56741E+01  2.87464E+01  3.03706E+01  3.05612E+01  2.96039E+01  2.77851E+01  2.50932E+01
   2.14664E+01  1.73930E+01  1.36095E+01  1.04661E+01  8.00820E+00  6.19097E+00  4.65582E+00  2.88448E+00  1.02910E+00  6.66691E-02
  -1.06703E-01 -9.74545E-02 -6.20958E-02 -5.86743E-02 -1.24961E-01 -2.56475E-01 -3.98343E-01 -5.08651E-01 -5.99681E-01 -6.79626E-01
  -7.96602E-01 -9.84573E-01 -1.19117E+00 -1.37436E+00 -1.50073E+00 -1.57729E+00 -1.67629E+00 -1.81052E+00 -1.95726E+00 -2.08803E+00
  -2.18534E+00 -2.25042E+00 -2.30647E+00 -2.39749E+00 -2.54721E+00 -2.75072E+00 -2.99978E+00 -3.24876E+00 -3.50034E+00 -3.78486E+00
  -4.11851E+00 -4.46321E+00 -4.72841E+00 -4.88259E+00 -4.97553E+00 -5.05369E+00 -5.14527E+00 -5.23878E+00 -5.22507E+00 -5.06493E+00
  -4.78127E+00 -4.40460E+00 -4.00193E+00 -3.61375E+00 -3.19165E+00 -2.69060E+00 -2.08570E+00 -1.44254E+00 -8.34425E-01 -3.19826E-01
   9.69438E-02  4.84861E-01  8.63133E-01  1.25709E+00  1.66679E+00  2.07186E+00  2.50472E+00  2.98741E+00  3.47110E+00  3.80190E+00
   4.00632E+00  4.08345E+00  3.94656E+00  3.55269E+00  2.99282E+00  2.45354E+00  1.98957E+00  1.58846E+00  1.37487E+00  1.42582E+00
   1.74826E+00  2.21108E+00  2.71910E+00  3.30971E+00  3.92844E+00  4.28745E+00  4.24051E+00  3.92436E+00  3.49309E+00  3.01534E+00
   2.60411E+00  2.45116E+00  2.64564E+00  3.05317E+00  3.63129E+00  4.30931E+00  5.04166E+00  5.73116E+00  6.28347E+00  6.78332E+00
   7.28646E+00  7.69819E+00  8.00549E+00  8.35662E+00  8.84377E+00  9.33192E+00  9.62948E+00  9.74642E+00  9.76025E+00  9.69389E+00
   9.59739E+00  9.52254E+00  9.55918E+00  9.75946E+00  1.00775E+01  1.05056E+01  1.11358E+01  1.19744E+01  1.30305E+01  1.50212E+01
   1.89027E+01  2.35493E+01  2.81492E+01  3.29032E+01  3.81439E+01  4.38148E+01  4.96995E+01  5.54452E+01  6.01984E+01  6.29821E+01
   6.34373E+01  6.18804E+01  5.88349E+01  5.45837E+01  4.89926E+01  4.22952E+01  3.55653E+01  2.97596E+01  2.51193E+01  2.16080E+01
   1.89321E+01  1.62985E+01  1.32194E+01  1.05919E+01  9.47673E+00  9.04505E+00  8.76467E+00  8.54542E+00  8.34685E+00  8.13960E+00
   7.94964E+00  7.79418E+00  7.67962E+00  7.60457E+00  7.56649E+00  7.55276E+00  7.56112E+00  7.59801E+00  7.66306E+00  7.75530E+00
   7.87404E+00  8.01658E+00  8.18468E+00  8.37845E+00  8.59197E+00  8.82493E+00  9.07561E+00  9.33843E+00  9.61168E+00  9.89491E+00
   1.01830E+01  1.04685E+01  1.07464E+01  1.10124E+01  1.12609E+01  1.14881E+01  1.16919E+01  1.18690E+01  1.20187E+01  1.21414E+01
   1.22393E+01  1.23152E+01  1.23727E+01  1.24164E+01  1.24516E+01  1.24858E+01  1.25275E+01  1.25682E+01  1.25993E+01  1.26261E+01
   1.26528E+01  1.26774E+01  1.26937E+01  1.26949E+01  1.26845E+01  1.26658E+01  1.26320E+01  1.25844E+01  1.25305E+01  1.24769E+01
   1.24264E+01  1.23852E+01  1.23652E+01  1.23716E+01  1.24033E+01  1.24764E+01  1.26278E+01  1.27569E+01  1.27651E+01  1.26857E+01
   1.25610E+01  1.23778E+01  1.20957E+01  1.17012E+01  1.12790E+01  1.08132E+01  1.02544E+01  9.64993E+00  9.10286E+00  8.68728E+00
   8.42204E+00  8.34018E+00  8.49254E+00  8.85449E+00  9.31481E+00  9.77239E+00  1.01756E+01  1.04823E+01  1.06454E+01  1.06813E+01
   1.06882E+01  1.06639E+01  1.05860E+01  1.04959E+01  1.04270E+01  1.03623E+01  1.02314E+01  1.00184E+01  9.84158E+00  9.72754E+00
   9.64191E+00  9.57148E+00  9.51180E+00  9.46124E+00  9.41972E+00  9.38772E+00  9.36632E+00  9.35664E+00  9.35997E+00  9.37733E+00
   9.40984E+00  9.45833E+00  9.52368E+00  9.60636E+00  9.70676E+00  9.82478E+00  9.96023E+00  1.01124E+01  1.02805E+01  1.04631E+01
   1.06584E+01  1.08641E+01  1.10774E+01  1.12953E+01  1.15142E+01  1.17301E+01  1.19390E+01  1.21364E+01  1.23180E+01  1.24796E+01
   1.26172E+01  1.27273E+01  1.28069E+01  1.28538E+01  1.28666E+01  1.28447E+01  1.27886E+01  1.26992E+01  1.25789E+01  1.24302E+01
   1.22566E+01  1.20621E+01  1.18506E+01  1.16266E+01  1.13942E+01  1.11576E+01  1.09205E+01  1.06865E+01  1.04584E+01  1.02388E+01
   1.00295E+01  9.83202E+00  9.64746E+00  9.47631E+00  9.31881E+00  9.17477E+00  9.04392E+00  8.92564E+00  8.81933E+00  8.72412E+00
   8.63925E+00  8.56378E+00  8.49696E+00  8.43794E+00  8.38603E+00  8.34042E+00  8.30051E+00  8.26564E+00  8.23535E+00  8.20911E+00
   8.18653E+00  8.16715E+00  8.15068E+00  8.13677E+00  8.12522E+00  8.11574E+00  8.10818E+00  8.10225E+00  8.09787E+00  8.09484E+00
   8.09311E+00  8.09249E+00  8.09294E+00  8.09428E+00  8.09651E+00  8.09950E+00  8.10328E+00  8.10769E+00  8.11274E+00  8.11831E+00
   8.12444E+00  8.13103E+00  8.13813E+00  8.14561E+00  8.15351E+00  8.16172E+00  8.17033E+00  8.17924E+00  8.18849E+00  8.19799E+00
   8.20778E+00  8.21779E+00  8.22809E+00  8.23861E+00  8.24939E+00  8.26033E+00  8.27152E+00  8.28287E+00  8.29447E+00  8.30623E+00
   8.31821E+00  8.33033E+00  8.34266E+00  8.35515E+00  8.36788E+00  8.38076E+00  8.39386E+00  8.40710E+00  8.42059E+00  8.43426E+00
   8.44820E+00  8.46234E+00  8.47674E+00  8.49137E+00  8.50634E+00  8.52160E+00  8.53726E+00  8.55326E+00
 NY background values follow
    -1.275E+01   -1.268E+01   -1.261E+01   -1.255E+01   -1.248E+01   -1.241E+01   -1.234E+01   -1.227E+01   -1.221E+01   -1.214E+01
    -1.207E+01   -1.200E+01   -1.193E+01   -1.186E+01   -1.180E+01   -1.173E+01   -1.166E+01   -1.159E+01   -1.152E+01   -1.145E+01
    -1.139E+01   -1.132E+01   -1.125E+01   -1.118E+01   -1.111E+01   -1.104E+01   -1.098E+01   -1.091E+01   -1.084E+01   -1.077E+01
    -1.070E+01   -1.063E+01   -1.056E+01   -1.050E+01   -1.043E+01   -1.036E+01   -1.029E+01   -1.022E+01   -1.015E+01   -1.009E+01
    -1.002E+01   -9.949E+00   -9.880E+00   -9.812E+00   -9.743E+00   -9.675E+00   -9.606E+00   -9.538E+00   -9.469E+00   -9.401E+00
    -9.332E+00   -9.264E+00   -9.195E+00   -9.127E+00   -9.058E+00   -8.990E+00   -8.921E+00   -8.853E+00   -8.784E+00   -8.716E+00
    -8.647E+00   -8.579E+00   -8.510E+00   -8.442E+00   -8.374E+00   -8.305E+00   -8.237E+00   -8.168E+00   -8.100E+00   -8.032E+00
    -7.963E+00   -7.895E+00   -7.827E+00   -7.758E+00   -7.690E+00   -7.622E+00   -7.554E+00   -7.485E+00   -7.417E+00   -7.349E+00
    -7.281E+00   -7.213E+00   -7.145E+00   -7.077E+00   -7.009E+00   -6.940E+00   -6.872E+00   -6.804E+00   -6.737E+00   -6.669E+00
    -6.601E+00   -6.533E+00   -6.465E+00   -6.397E+00   -6.329E+00   -6.262E+00   -6.194E+00   -6.126E+00   -6.059E+00   -5.991E+00
    -5.923E+00   -5.856E+00   -5.788E+00   -5.721E+00   -5.654E+00   -5.586E+00   -5.519E+00   -5.452E+00   -5.384E+00   -5.317E+00
    -5.250E+00   -5.183E+00   -5.116E+00   -5.049E+00   -4.982E+00   -4.915E+00   -4.848E+00   -4.782E+00   -4.715E+00   -4.648E+00
    -4.582E+00   -4.515E+00   -4.449E+00   -4.382E+00   -4.316E+00   -4.250E+00   -4.184E+00   -4.118E+00   -4.052E+00   -3.986E+00
    -3.920E+00   -3.854E+00   -3.788E+00   -3.723E+00   -3.657E+00   -3.591E+00   -3.526E+00   -3.461E+00   -3.395E+00   -3.330E+00
    -3.265E+00   -3.200E+00   -3.135E+00   -3.070E+00   -3.005E+00   -2.941E+00   -2.876E+00   -2.812E+00   -2.747E+00   -2.683E+00
    -2.619E+00   -2.554E+00   -2.490E+00   -2.426E+00   -2.363E+00   -2.299E+00   -2.235E+00   -2.172E+00   -2.108E+00   -2.045E+00
    -1.981E+00   -1.918E+00   -1.855E+00   -1.792E+00   -1.729E+00   -1.666E+00   -1.604E+00   -1.541E+00   -1.479E+00   -1.416E+00
    -1.354E+00   -1.292E+00   -1.230E+00   -1.168E+00   -1.106E+00   -1.045E+00   -9.830E-01   -9.216E-01   -8.602E-01   -7.990E-01
    -7.379E-01   -6.769E-01   -6.160E-01   -5.552E-01   -4.946E-01   -4.341E-01   -3.737E-01   -3.135E-01   -2.534E-01   -1.935E-01
    -1.336E-01   -7.397E-02   -1.445E-02    4.491E-02    1.041E-01    1.632E-01    2.221E-01    2.808E-01    3.393E-01    3.977E-01
     4.559E-01    5.140E-01    5.718E-01    6.295E-01    6.870E-01    7.442E-01    8.013E-01    8.583E-01    9.150E-01    9.715E-01
     1.028E+00    1.084E+00    1.140E+00    1.195E+00    1.251E+00    1.306E+00    1.361E+00    1.416E+00    1.470E+00    1.525E+00
     1.579E+00    1.633E+00    1.686E+00    1.740E+00    1.793E+00    1.846E+00    1.898E+00    1.951E+00    2.003E+00    2.054E+00
     2.106E+00    2.157E+00    2.208E+00    2.259E+00    2.310E+00    2.360E+00    2.410E+00    2.460E+00    2.509E+00    2.558E+00
     2.607E+00    2.656E+00    2.704E+00    2.753E+00    2.800E+00    2.848E+00    2.895E+00    2.942E+00    2.989E+00    3.036E+00
     3.082E+00    3.128E+00    3.174E+00    3.219E+00    3.264E+00    3.309E+00    3.353E+00    3.398E+00    3.442E+00    3.485E+00
     3.529E+00    3.572E+00    3.615E+00    3.657E+00    3.700E+00    3.742E+00    3.783E+00    3.825E+00    3.866E+00    3.907E+00
     3.947E+00    3.987E+00    4.027E+00    4.067E+00    4.106E+00    4.145E+00    4.184E+00    4.223E+00    4.261E+00    4.299E+00
     4.336E+00    4.374E+00    4.411E+00    4.448E+00    4.484E+00    4.520E+00    4.556E+00    4.592E+00    4.627E+00    4.663E+00
     4.698E+00    4.732E+00    4.766E+00    4.801E+00    4.834E+00    4.868E+00    4.901E+00    4.934E+00    4.967E+00    4.999E+00
     5.032E+00    5.064E+00    5.095E+00    5.127E+00    5.158E+00    5.189E+00    5.220E+00    5.250E+00    5.281E+00    5.311E+00
     5.340E+00    5.370E+00    5.399E+00    5.428E+00    5.457E+00    5.486E+00    5.514E+00    5.542E+00    5.570E+00    5.598E+00
     5.625E+00    5.652E+00    5.679E+00    5.706E+00    5.732E+00    5.759E+00    5.785E+00    5.811E+00    5.836E+00    5.862E+00
     5.887E+00    5.912E+00    5.937E+00    5.962E+00    5.986E+00    6.010E+00    6.035E+00    6.058E+00    6.082E+00    6.106E+00
     6.129E+00    6.152E+00    6.175E+00    6.198E+00    6.221E+00    6.243E+00    6.265E+00    6.288E+00    6.310E+00    6.331E+00
     6.353E+00    6.375E+00    6.396E+00    6.417E+00    6.438E+00    6.459E+00    6.480E+00    6.501E+00    6.521E+00    6.542E+00
     6.562E+00    6.582E+00    6.602E+00    6.622E+00    6.641E+00    6.661E+00    6.681E+00    6.700E+00    6.719E+00    6.738E+00
     6.757E+00    6.776E+00    6.795E+00    6.814E+00    6.832E+00    6.851E+00    6.869E+00    6.887E+00    6.906E+00    6.924E+00
     6.942E+00    6.960E+00    6.978E+00    6.995E+00    7.013E+00    7.031E+00    7.048E+00    7.066E+00    7.083E+00    7.100E+00
     7.117E+00    7.135E+00    7.152E+00    7.169E+00    7.186E+00    7.203E+00    7.220E+00    7.236E+00    7.253E+00    7.270E+00
     7.286E+00    7.303E+00    7.320E+00    7.336E+00    7.353E+00    7.369E+00    7.386E+00    7.402E+00    7.418E+00    7.435E+00
     7.451E+00    7.467E+00    7.483E+00    7.500E+00    7.516E+00    7.532E+00    7.548E+00    7.564E+00    7.580E+00    7.596E+00
     7.612E+00    7.628E+00    7.644E+00    7.660E+00    7.676E+00    7.692E+00    7.707E+00    7.723E+00    7.739E+00    7.755E+00
     7.770E+00    7.786E+00    7.802E+00    7.817E+00    7.833E+00    7.848E+00    7.864E+00    7.879E+00    7.895E+00    7.910E+00
     7.925E+00    7.941E+00    7.956E+00    7.971E+00    7.986E+00    8.002E+00    8.017E+00    8.032E+00    8.047E+00    8.062E+00
     8.077E+00    8.092E+00    8.107E+00    8.122E+00    8.137E+00    8.152E+00    8.167E+00    8.182E+00    8.197E+00    8.211E+00
     8.226E+00    8.241E+00    8.256E+00    8.270E+00    8.285E+00    8.300E+00    8.314E+00    8.329E+00    8.343E+00    8.358E+00
     8.373E+00    8.387E+00    8.402E+00    8.416E+00    8.431E+00    8.445E+00    8.459E+00    8.474E+00    8.488E+00    8.503E+00
     8.517E+00    8.531E+00    8.546E+00    8.560E+00    8.574E+00    8.589E+00    8.603E+00    8.617E+00    8.632E+00    8.646E+00
     8.660E+00    8.674E+00    8.689E+00    8.703E+00    8.717E+00    8.731E+00    8.746E+00    8.760E+00
 Ala      Conc. = 4.59E+01
