 LCModel (Version 6.3-1L) Copyright: S.W. Provencher.          Ref.: Magn. Reson. Med. 30:672-679 (1993).                
 Slice#3 Row#12 Col#14  K_02_press_1_raw_act
 36 lines in following concentration table = NCONC+1
    Conc.  %SD /Cr+PCr  Metabolite                                         
 1.02E+04  11% 181.109 Ala                                                 
    3.195 106% 5.7E-02 Asp                                                 
   56.164 418%   1.000 Cr                                                  
    0.000 999%   0.000 PCr                                                 
    1.917 106% 3.4E-02 GABA                                                
    1.917 106% 3.4E-02 Glc                                                 
  352.511 120%   6.276 Gln                                                 
 1.16E+03  45%  20.579 Glu                                                 
    2.581 579% 4.6E-02 GPC                                                 
    0.000 999%   0.000 PCh                                                 
  125.538  66%   2.235 GSH                                                 
  101.600 191%   1.809 Ins                                                 
 1.75E+03  65%  31.219 Lac                                                 
    0.000 999%   0.000 NAA                                                 
    0.000 999%   0.000 NAAG                                                
    0.639 106% 1.1E-02 Scyllo                                              
    3.195 106% 5.7E-02 Tau                                                 
    5.562  71% 9.9E-02 -CrCH2                                              
    2.581 579% 4.6E-02 GPC+PCh                                             
    0.000 999%   0.000 NAA+NAAG                                            
   56.164  63%   1.000 Cr+PCr                                              
 1.51E+03  56%  26.855 Glu+Gln                                             
 4.00E+04   4% 711.777 Lip13a                                              
    0.000 999%   0.000 Lip13b                                              
    0.000 999%   0.000-Lip09                                               
  202.628  53%   3.608 MM09                                                
    0.000 999%   0.000-Lip20                                               
    0.000 999%   0.000 MM20                                                
   65.958 190%   1.174 MM12                                                
 4.58E+03   6%  81.468+MM14                                                
 1.71E+03  19%  30.442+MM17                                                
 4.00E+04   4% 711.777 Lip13a+Lip13b                                       
 4.46E+04   4% 794.419 MM14+Lip13a+Lip13b+MM12                             
  202.628  53%   3.608 MM09+Lip09                                          
    0.000 999%   0.000 MM20+Lip20                                          
   6 lines in following misc. output table
  FWHM = 0.153 ppm    S/N =  31                                            
  Data shift = 0.107 ppm                                                   
  Ph:  49 deg      -5.5 deg/ppm                                            
  alphaB,S = 8.5E+01,   4.1E+02                                            
    6 spline knots.   Ns = 9(2)                                            
   2 inflections.     1 extrema                                            
  498 points on ppm-axis = NY
      4.000000     3.992357     3.984714     3.977070     3.969427     3.961784     3.954141     3.946497     3.938854     3.931211
      3.923568     3.915925     3.908281     3.900638     3.892995     3.885352     3.877708     3.870065     3.862422     3.854779
      3.847136     3.839492     3.831849     3.824206     3.816563     3.808919     3.801276     3.793633     3.785990     3.778347
      3.770703     3.763060     3.755417     3.747774     3.740130     3.732487     3.724844     3.717201     3.709558     3.701914
      3.694271     3.686628     3.678985     3.671341     3.663698     3.656055     3.648412     3.640769     3.633125     3.625482
      3.617839     3.610196     3.602552     3.594909     3.587266     3.579623     3.571980     3.564336     3.556693     3.549050
      3.541407     3.533763     3.526120     3.518477     3.510834     3.503191     3.495547     3.487904     3.480261     3.472618
      3.464974     3.457331     3.449688     3.442045     3.434402     3.426758     3.419115     3.411472     3.403829     3.396185
      3.388542     3.380899     3.373256     3.365613     3.357969     3.350326     3.342683     3.335040     3.327396     3.319753
      3.312110     3.304467     3.296824     3.289180     3.281537     3.273894     3.266251     3.258607     3.250964     3.243321
      3.235678     3.228034     3.220391     3.212748     3.205105     3.197462     3.189818     3.182175     3.174532     3.166889
      3.159245     3.151602     3.143959     3.136316     3.128673     3.121029     3.113386     3.105743     3.098100     3.090456
      3.082813     3.075170     3.067527     3.059884     3.052240     3.044597     3.036954     3.029311     3.021667     3.014024
      3.006381     2.998738     2.991095     2.983451     2.975808     2.968165     2.960522     2.952878     2.945235     2.937592
      2.929949     2.922306     2.914662     2.907019     2.899376     2.891733     2.884089     2.876446     2.868803     2.861160
      2.853517     2.845873     2.838230     2.830587     2.822944     2.815300     2.807657     2.800014     2.792371     2.784728
      2.777084     2.769441     2.761798     2.754155     2.746511     2.738868     2.731225     2.723582     2.715939     2.708295
      2.700652     2.693009     2.685366     2.677722     2.670079     2.662436     2.654793     2.647150     2.639506     2.631863
      2.624220     2.616577     2.608933     2.601290     2.593647     2.586004     2.578361     2.570717     2.563074     2.555431
      2.547788     2.540144     2.532501     2.524858     2.517215     2.509572     2.501928     2.494285     2.486642     2.478999
      2.471355     2.463712     2.456069     2.448426     2.440783     2.433139     2.425496     2.417853     2.410210     2.402566
      2.394923     2.387280     2.379637     2.371994     2.364350     2.356707     2.349064     2.341421     2.333777     2.326134
      2.318491     2.310848     2.303205     2.295561     2.287918     2.280275     2.272632     2.264988     2.257345     2.249702
      2.242059     2.234416     2.226772     2.219129     2.211486     2.203843     2.196199     2.188556     2.180913     2.173270
      2.165627     2.157983     2.150340     2.142697     2.135054     2.127410     2.119767     2.112124     2.104481     2.096838
      2.089194     2.081551     2.073908     2.066265     2.058621     2.050978     2.043335     2.035692     2.028049     2.020405
      2.012762     2.005119     1.997476     1.989833     1.982190     1.974546     1.966903     1.959260     1.951617     1.943974
      1.936331     1.928688     1.921045     1.913402     1.905759     1.898115     1.890472     1.882829     1.875186     1.867543
      1.859900     1.852257     1.844614     1.836971     1.829327     1.821684     1.814041     1.806398     1.798755     1.791112
      1.783469     1.775826     1.768183     1.760540     1.752896     1.745253     1.737610     1.729967     1.722324     1.714681
      1.707038     1.699395     1.691752     1.684108     1.676465     1.668822     1.661179     1.653536     1.645893     1.638250
      1.630607     1.622964     1.615321     1.607677     1.600034     1.592391     1.584748     1.577105     1.569462     1.561819
      1.554176     1.546533     1.538890     1.531246     1.523603     1.515960     1.508317     1.500674     1.493031     1.485388
      1.477745     1.470102     1.462458     1.454815     1.447172     1.439529     1.431886     1.424243     1.416600     1.408957
      1.401314     1.393671     1.386027     1.378384     1.370741     1.363098     1.355455     1.347812     1.340169     1.332526
      1.324883     1.317240     1.309596     1.301953     1.294310     1.286667     1.279024     1.271381     1.263738     1.256095
      1.248452     1.240808     1.233165     1.225522     1.217879     1.210236     1.202593     1.194950     1.187307     1.179664
      1.172021     1.164377     1.156734     1.149091     1.141448     1.133805     1.126162     1.118519     1.110876     1.103233
      1.095590     1.087946     1.080303     1.072660     1.065017     1.057374     1.049731     1.042088     1.034445     1.026802
      1.019158     1.011515     1.003872     0.996229     0.988586     0.980943     0.973300     0.965657     0.958014     0.950371
      0.942727     0.935084     0.927441     0.919798     0.912155     0.904512     0.896869     0.889226     0.881583     0.873940
      0.866296     0.858653     0.851010     0.843367     0.835724     0.828081     0.820438     0.812795     0.805152     0.797508
      0.789865     0.782222     0.774579     0.766936     0.759293     0.751650     0.744007     0.736364     0.728721     0.721077
      0.713434     0.705791     0.698148     0.690505     0.682862     0.675219     0.667576     0.659933     0.652290     0.644646
      0.637003     0.629360     0.621717     0.614074     0.606431     0.598788     0.591145     0.583502     0.575858     0.568215
      0.560572     0.552929     0.545286     0.537643     0.530000     0.522357     0.514714     0.507071     0.499427     0.491784
      0.484141     0.476498     0.468855     0.461212     0.453569     0.445925     0.438282     0.430639     0.422996     0.415353
      0.407710     0.400067     0.392424     0.384780     0.377137     0.369494     0.361851     0.354208     0.346565     0.338922
      0.331278     0.323635     0.315992     0.308349     0.300706     0.293063     0.285420     0.277777     0.270133     0.262490
      0.254847     0.247204     0.239561     0.231918     0.224275     0.216631     0.208988     0.201345
 NY phased data points follow
   8.36876E+00  9.76353E+00  8.66341E+00  7.38788E+00  8.30393E+00  6.92929E+00  8.46510E+00  7.98156E+00  7.10738E+00  9.30829E+00
   8.72880E+00  7.07845E+00  7.21151E+00  8.99502E+00  6.69856E+00  8.31945E+00  9.52416E+00  6.60738E+00  8.53452E+00  8.98235E+00
   7.43609E+00  7.67907E+00  6.91630E+00  8.62923E+00  6.26506E+00  7.02973E+00  7.99405E+00  6.15881E+00  6.95072E+00  8.03142E+00
   7.60728E+00  6.57278E+00  6.24317E+00  7.90747E+00  7.83746E+00  7.08214E+00  7.31020E+00  6.75922E+00  6.43545E+00  5.62021E+00
   5.62633E+00  6.85923E+00  6.38238E+00  5.37284E+00  6.58880E+00  5.70357E+00  6.69224E+00  5.01970E+00  6.64828E+00  7.54046E+00
   6.39346E+00  6.90988E+00  5.99003E+00  5.03228E+00  6.00454E+00  5.39882E+00  6.36100E+00  6.39647E+00  6.28396E+00  7.34590E+00
   5.88971E+00  5.64726E+00  5.38399E+00  5.21153E+00  7.08171E+00  6.27317E+00  4.54620E+00  4.49309E+00  6.28354E+00  6.70468E+00
   5.87859E+00  6.08797E+00  4.21571E+00  4.81926E+00  5.56235E+00  4.65603E+00  6.06004E+00  6.15087E+00  4.93351E+00  4.76538E+00
   5.61024E+00  4.86019E+00  6.12153E+00  5.03964E+00  6.35948E+00  4.79964E+00  4.12012E+00  4.27081E+00  3.34525E+00  6.15707E+00
   6.85401E+00  5.96876E+00  5.61540E+00  5.52417E+00  4.33767E+00  5.26014E+00  5.24040E+00  3.98724E+00  4.41401E+00  4.83588E+00
   4.34349E+00  5.72869E+00  5.58151E+00  5.54068E+00  4.72900E+00  4.79480E+00  4.24848E+00  5.51224E+00  4.19599E+00  4.11159E+00
   3.00582E+00  4.62054E+00  4.62290E+00  5.38118E+00  6.34041E+00  8.28996E+00  6.05136E+00  5.93597E+00  4.05576E+00  4.97329E+00
   6.74083E+00  5.16429E+00  3.47490E+00  3.91813E+00  5.48220E+00  5.31019E+00  4.96728E+00  4.39219E+00  4.90746E+00  4.26364E+00
   5.13781E+00  5.99209E+00  5.98927E+00  5.48167E+00  5.25441E+00  5.36774E+00  5.95819E+00  5.61258E+00  4.36133E+00  5.41610E+00
   5.31037E+00  3.40779E+00  5.11576E+00  5.65286E+00  5.04539E+00  4.57513E+00  3.64018E+00  4.69863E+00  3.94692E+00  5.08553E+00
   4.85934E+00  5.33507E+00  7.00762E+00  4.78647E+00  4.85611E+00  4.84175E+00  5.02828E+00  4.59171E+00  3.07072E+00  5.29421E+00
   5.38786E+00  4.78619E+00  5.03490E+00  5.17216E+00  4.66036E+00  5.82376E+00  5.14146E+00  1.86643E+00  4.79687E+00  4.11170E+00
   4.42692E+00  6.56356E+00  4.79282E+00  5.18836E+00  5.37767E+00  3.38348E+00  4.40262E+00  5.26219E+00  5.63080E+00  3.86121E+00
   4.43240E+00  4.36744E+00  4.74967E+00  4.77824E+00  3.97022E+00  4.90419E+00  5.13661E+00  3.15176E+00  4.01487E+00  4.77967E+00
   5.22537E+00  3.90226E+00  4.49749E+00  6.13280E+00  5.88335E+00  4.07493E+00  4.73351E+00  3.96703E+00  3.83904E+00  3.77029E+00
   3.76210E+00  5.76229E+00  5.07465E+00  5.32039E+00  5.28043E+00  6.83004E+00  4.66101E+00  1.93418E+00  3.68946E+00  4.45693E+00
   4.56064E+00  2.06651E+00  4.66759E+00  2.95498E+00  3.90741E+00  4.13171E+00  4.46417E+00  3.99568E+00  4.12422E+00  3.81812E+00
   3.76046E+00  4.01635E+00  5.32013E+00  4.67960E+00  4.12129E+00  4.58793E+00  5.37246E+00  5.98988E+00  7.21360E+00  5.03687E+00
   5.73765E+00  5.85882E+00  4.44831E+00  6.60538E+00  5.81568E+00  4.41718E+00  5.83104E+00  4.32005E+00  6.70480E+00  6.29115E+00
   5.61948E+00  6.70973E+00  5.16074E+00  7.18024E+00  6.56806E+00  5.58650E+00  5.71843E+00  9.29964E+00  1.14792E+01  1.17692E+01
   1.00343E+01  8.32285E+00  5.70859E+00  6.14879E+00  7.18970E+00  5.44406E+00  6.79771E+00  7.05034E+00  7.83583E+00  6.79569E+00
   8.97837E+00  6.64338E+00  8.92157E+00  9.42588E+00  7.16651E+00  9.54060E+00  9.97947E+00  9.52617E+00  9.88543E+00  9.66477E+00
   1.09267E+01  9.86139E+00  1.08173E+01  1.07737E+01  1.05757E+01  1.13925E+01  1.18243E+01  1.13937E+01  1.26177E+01  1.17769E+01
   1.39382E+01  1.43259E+01  1.46572E+01  1.37074E+01  1.41079E+01  1.56015E+01  1.66618E+01  1.67438E+01  1.48710E+01  1.87651E+01
   1.84436E+01  1.75673E+01  1.92655E+01  1.96188E+01  2.18945E+01  2.32919E+01  2.39507E+01  2.51086E+01  2.52224E+01  2.78448E+01
   3.03333E+01  3.20512E+01  3.50136E+01  3.63752E+01  4.00535E+01  4.38250E+01  4.78296E+01  4.99025E+01  5.38766E+01  5.74414E+01
   6.21006E+01  6.65673E+01  6.93604E+01  7.14561E+01  7.54443E+01  7.90740E+01  8.12787E+01  8.26613E+01  8.43016E+01  8.51406E+01
   8.80876E+01  8.86942E+01  8.63318E+01  8.78262E+01  8.62595E+01  8.56561E+01  8.26838E+01  8.28300E+01  8.23029E+01  8.37270E+01
   8.28237E+01  8.38101E+01  8.15745E+01  8.32858E+01  8.40364E+01  8.47054E+01  8.64402E+01  8.63947E+01  8.74124E+01  8.88602E+01
   8.92702E+01  8.94663E+01  9.01158E+01  8.99228E+01  9.01350E+01  8.97230E+01  8.99079E+01  8.86146E+01  9.00331E+01  8.72702E+01
   8.92123E+01  8.91725E+01  8.88763E+01  8.64199E+01  8.47524E+01  8.37645E+01  8.40970E+01  8.36906E+01  8.20625E+01  7.97117E+01
   7.89705E+01  7.84878E+01  7.83464E+01  7.60202E+01  7.41779E+01  7.40988E+01  7.32949E+01  7.01670E+01  6.90678E+01  6.88994E+01
   6.66749E+01  6.45595E+01  6.46117E+01  6.34738E+01  6.02297E+01  5.88513E+01  5.74465E+01  5.55182E+01  5.41596E+01  5.33339E+01
   5.07815E+01  5.11832E+01  4.93380E+01  4.58944E+01  4.47185E+01  4.32238E+01  4.03742E+01  4.00516E+01  3.71914E+01  3.74451E+01
   3.63054E+01  3.43089E+01  3.42456E+01  3.20832E+01  3.17815E+01  3.16228E+01  3.05487E+01  3.00131E+01  2.77927E+01  2.83343E+01
   2.47147E+01  2.60529E+01  2.39977E+01  2.40543E+01  2.27468E+01  2.37792E+01  2.11058E+01  1.91408E+01  2.04142E+01  2.09766E+01
   1.90451E+01  1.90254E+01  1.82778E+01  1.56565E+01  1.62163E+01  1.57808E+01  1.72584E+01  1.39119E+01  1.43022E+01  1.47988E+01
   1.45089E+01  1.32734E+01  1.36057E+01  1.40138E+01  1.29851E+01  1.22753E+01  1.23636E+01  1.02975E+01  9.29539E+00  1.00316E+01
   8.81369E+00  9.86204E+00  8.14591E+00  8.00795E+00  9.94148E+00  8.33937E+00  8.33818E+00  7.44159E+00  7.61019E+00  7.41190E+00
   6.63857E+00  7.59391E+00  6.66080E+00  6.11378E+00  6.53115E+00  6.32617E+00  5.22693E+00  6.58454E+00  5.15309E+00  5.49705E+00
   4.18488E+00  6.17298E+00  5.47917E+00  5.03304E+00  3.45651E+00  4.88274E+00  4.64577E+00  4.12968E+00  3.90592E+00  4.96519E+00
   4.48049E+00  5.13528E+00  3.30004E+00  3.82574E+00  3.55038E+00  4.22436E+00  4.69426E+00  3.52693E+00  4.43650E+00  2.50660E+00
   2.98984E+00  2.24535E+00  2.66101E+00  2.08817E+00  1.98412E+00  1.89969E+00  1.57577E+00  4.06433E+00  3.57340E+00  3.02027E+00
   2.69523E+00  1.82484E+00  1.96854E+00  2.11638E+00  3.07275E+00  2.10863E+00  2.52239E+00  2.51318E+00  1.52239E+00 -4.96847E-01
   7.31738E-01  2.01824E+00  1.92227E+00  1.98129E+00  5.74685E-01  1.74113E+00  1.73153E+00  2.15657E+00
 NY points of the fit to the data follow
   7.41028E+00  7.64714E+00  7.20399E+00  7.47270E+00  7.18796E+00  7.58768E+00  7.50182E+00  8.13680E+00  7.89902E+00  8.42453E+00
   7.91657E+00  8.35342E+00  7.71462E+00  8.21159E+00  7.40989E+00  8.17737E+00  7.44649E+00  8.32624E+00  7.54757E+00  8.26124E+00
   7.31722E+00  7.92608E+00  6.97305E+00  7.42475E+00  6.64891E+00  6.98830E+00  6.52285E+00  6.78996E+00  6.63987E+00  6.71758E+00
   6.83858E+00  6.71465E+00  7.08443E+00  6.79774E+00  7.32414E+00  6.84259E+00  7.46746E+00  6.80331E+00  7.46118E+00  6.63216E+00
   7.17109E+00  6.33916E+00  6.85317E+00  6.08707E+00  6.65835E+00  6.05819E+00  6.70508E+00  6.36092E+00  6.78223E+00  6.39503E+00
   6.62329E+00  6.20068E+00  6.26920E+00  5.85725E+00  5.83678E+00  5.70123E+00  5.81755E+00  5.78118E+00  5.91847E+00  5.92794E+00
   6.03136E+00  6.05611E+00  6.05742E+00  6.01905E+00  6.00007E+00  5.95282E+00  5.93060E+00  5.88357E+00  5.86342E+00  5.82072E+00
   5.80358E+00  5.75874E+00  5.73818E+00  5.69048E+00  5.66790E+00  5.61814E+00  5.59468E+00  5.54294E+00  5.51992E+00  5.46675E+00
   5.44370E+00  5.39174E+00  5.37106E+00  5.32165E+00  5.30532E+00  5.26148E+00  5.24653E+00  5.20802E+00  5.19333E+00  5.16100E+00
   5.14638E+00  5.12220E+00  5.10630E+00  5.09023E+00  5.07361E+00  5.06440E+00  5.04514E+00  5.04102E+00  5.01880E+00  5.01773E+00
   4.99351E+00  4.99365E+00  4.96683E+00  4.96687E+00  4.93907E+00  4.93909E+00  4.91287E+00  4.91505E+00  4.89676E+00  4.92587E+00
   4.91828E+00  4.95918E+00  4.95832E+00  5.00651E+00  5.01568E+00  5.08764E+00  5.11133E+00  5.18861E+00  5.21569E+00  5.28828E+00
   5.31162E+00  5.37673E+00  5.39992E+00  5.44523E+00  5.46959E+00  5.48663E+00  5.50572E+00  5.48615E+00  5.49886E+00  5.44288E+00
   5.45257E+00  5.36687E+00  5.37763E+00  5.26876E+00  5.28433E+00  5.16360E+00  5.18421E+00  5.05611E+00  5.08006E+00  4.94980E+00
   4.97587E+00  4.85475E+00  4.88014E+00  4.76787E+00  4.78792E+00  4.68090E+00  4.69389E+00  4.60268E+00  4.61396E+00  4.55365E+00
   4.56250E+00  4.51059E+00  4.51189E+00  4.47093E+00  4.46951E+00  4.44402E+00  4.44262E+00  4.41923E+00  4.41089E+00  4.38929E+00
   4.37538E+00  4.36067E+00  4.34837E+00  4.34097E+00  4.33322E+00  4.32766E+00  4.32184E+00  4.31315E+00  4.30788E+00  4.29635E+00
   4.29305E+00  4.28195E+00  4.28623E+00  4.27858E+00  4.29227E+00  4.28453E+00  4.29873E+00  4.28790E+00  4.29756E+00  4.27787E+00
   4.28436E+00  4.26918E+00  4.27824E+00  4.28134E+00  4.30226E+00  4.32345E+00  4.34953E+00  4.40055E+00  4.42434E+00  4.48266E+00
   4.51276E+00  4.53793E+00  4.54118E+00  4.55304E+00  4.57114E+00  4.58937E+00  4.66437E+00  4.72851E+00  4.87540E+00  4.89208E+00
   5.09355E+00  5.01586E+00  5.25302E+00  5.05864E+00  5.30030E+00  5.01752E+00  5.34790E+00  4.99936E+00  5.41423E+00  4.98132E+00
   5.42791E+00  4.90971E+00  5.37272E+00  4.79579E+00  5.26076E+00  4.67761E+00  5.15149E+00  4.60935E+00  5.07264E+00  4.60512E+00
   5.05339E+00  4.68780E+00  5.11219E+00  4.87483E+00  5.24415E+00  5.11290E+00  5.43720E+00  5.41004E+00  5.67419E+00  5.71450E+00
   5.89797E+00  5.93491E+00  6.01201E+00  6.05001E+00  6.08138E+00  6.15709E+00  6.17919E+00  6.31596E+00  6.35262E+00  6.46182E+00
   6.48831E+00  6.56729E+00  6.57886E+00  6.62131E+00  6.60574E+00  6.66890E+00  6.70503E+00  6.79192E+00  6.87763E+00  6.99467E+00
   7.11170E+00  7.25017E+00  7.39092E+00  7.52643E+00  7.69367E+00  7.83612E+00  8.02997E+00  8.16556E+00  8.37765E+00  8.50187E+00
   8.74367E+00  8.85686E+00  9.10663E+00  9.21597E+00  9.46275E+00  9.55731E+00  9.81548E+00  9.92110E+00  1.01855E+01  1.03093E+01
   1.05781E+01  1.07121E+01  1.09695E+01  1.11228E+01  1.13883E+01  1.15784E+01  1.18556E+01  1.20817E+01  1.23673E+01  1.26175E+01
   1.29129E+01  1.32053E+01  1.35349E+01  1.38864E+01  1.42630E+01  1.46863E+01  1.51326E+01  1.56364E+01  1.61828E+01  1.68011E+01
   1.74796E+01  1.82472E+01  1.90972E+01  2.00548E+01  2.11206E+01  2.23164E+01  2.36404E+01  2.51083E+01  2.67195E+01  2.84840E+01
   3.04016E+01  3.24787E+01  3.47175E+01  3.71308E+01  3.97314E+01  4.25537E+01  4.56556E+01  4.91680E+01  5.33601E+01  5.81436E+01
   6.19686E+01  6.65474E+01  6.94528E+01  7.34910E+01  7.55147E+01  7.89553E+01  7.94418E+01  8.32338E+01  8.32542E+01  8.69503E+01
   8.59759E+01  8.85808E+01  8.61297E+01  8.77725E+01  8.47944E+01  8.58388E+01  8.29570E+01  8.37809E+01  8.18153E+01  8.28904E+01
   8.20037E+01  8.27244E+01  8.27690E+01  8.31288E+01  8.42510E+01  8.44308E+01  8.61039E+01  8.61714E+01  8.81392E+01  8.78456E+01
   8.98289E+01  8.90304E+01  9.04601E+01  8.93253E+01  9.03031E+01  8.89965E+01  8.98988E+01  8.88430E+01  8.98631E+01  8.95166E+01
   8.97746E+01  8.89667E+01  8.86142E+01  8.72822E+01  8.62426E+01  8.45557E+01  8.30868E+01  8.21406E+01  8.12595E+01  8.04474E+01
   7.96359E+01  7.87089E+01  7.77615E+01  7.66537E+01  7.55290E+01  7.42010E+01  7.29548E+01  7.14954E+01  7.01757E+01  6.87787E+01
   6.72593E+01  6.56270E+01  6.39779E+01  6.21399E+01  6.03785E+01  5.84250E+01  5.66223E+01  5.49089E+01  5.32465E+01  5.16240E+01
   5.00376E+01  4.84872E+01  4.69734E+01  4.54979E+01  4.40619E+01  4.26671E+01  4.13144E+01  4.00049E+01  3.87388E+01  3.75166E+01
   3.63377E+01  3.52017E+01  3.41072E+01  3.30532E+01  3.20374E+01  3.10583E+01  3.01132E+01  2.92001E+01  2.83160E+01  2.74589E+01
   2.66261E+01  2.58158E+01  2.50256E+01  2.42542E+01  2.35000E+01  2.27625E+01  2.20407E+01  2.13347E+01  2.06442E+01  1.99700E+01
   1.93120E+01  1.86714E+01  1.80484E+01  1.74440E+01  1.68584E+01  1.62923E+01  1.57459E+01  1.52195E+01  1.47128E+01  1.42260E+01
   1.37582E+01  1.33095E+01  1.28788E+01  1.24659E+01  1.20696E+01  1.16894E+01  1.13244E+01  1.09739E+01  1.06369E+01  1.03129E+01
   1.00010E+01  9.70077E+00  9.41119E+00  9.13202E+00  8.86241E+00  8.60214E+00  8.35042E+00  8.10712E+00  7.87152E+00  7.64354E+00
   7.42255E+00  7.20849E+00  7.00077E+00  6.79939E+00  6.60378E+00  6.41400E+00  6.22951E+00  6.05038E+00  5.87609E+00  5.70675E+00
   5.54187E+00  5.38157E+00  5.22539E+00  5.07345E+00  4.92530E+00  4.78109E+00  4.64039E+00  4.50338E+00  4.36960E+00  4.23926E+00
   4.11191E+00  3.98778E+00  3.86643E+00  3.74809E+00  3.63234E+00  3.51939E+00  3.40886E+00  3.30096E+00  3.19532E+00  3.09215E+00
   2.99107E+00  2.89233E+00  2.79554E+00  2.70095E+00  2.60819E+00  2.51750E+00  2.42852E+00  2.34150E+00  2.25609E+00  2.17254E+00
   2.09049E+00  2.01020E+00  1.93134E+00  1.85414E+00  1.77829E+00  1.70405E+00  1.63107E+00  1.55963E+00  1.48940E+00  1.42065E+00
   1.35308E+00  1.28696E+00  1.22197E+00  1.15843E+00  1.09604E+00  1.03513E+00  9.75440E-01  9.17349E-01
 NY background values follow
     6.120E+00    6.097E+00    6.074E+00    6.051E+00    6.028E+00    6.005E+00    5.982E+00    5.959E+00    5.936E+00    5.913E+00
     5.890E+00    5.867E+00    5.845E+00    5.822E+00    5.799E+00    5.776E+00    5.753E+00    5.730E+00    5.707E+00    5.684E+00
     5.661E+00    5.638E+00    5.615E+00    5.592E+00    5.569E+00    5.546E+00    5.523E+00    5.500E+00    5.478E+00    5.455E+00
     5.432E+00    5.409E+00    5.386E+00    5.363E+00    5.340E+00    5.317E+00    5.295E+00    5.272E+00    5.249E+00    5.226E+00
     5.203E+00    5.180E+00    5.158E+00    5.135E+00    5.112E+00    5.089E+00    5.066E+00    5.044E+00    5.021E+00    4.998E+00
     4.975E+00    4.953E+00    4.930E+00    4.907E+00    4.885E+00    4.862E+00    4.839E+00    4.816E+00    4.794E+00    4.771E+00
     4.749E+00    4.726E+00    4.703E+00    4.681E+00    4.658E+00    4.636E+00    4.613E+00    4.590E+00    4.568E+00    4.545E+00
     4.523E+00    4.500E+00    4.478E+00    4.456E+00    4.433E+00    4.411E+00    4.388E+00    4.366E+00    4.344E+00    4.321E+00
     4.299E+00    4.276E+00    4.254E+00    4.232E+00    4.210E+00    4.187E+00    4.165E+00    4.143E+00    4.121E+00    4.098E+00
     4.076E+00    4.054E+00    4.032E+00    4.010E+00    3.988E+00    3.966E+00    3.944E+00    3.922E+00    3.900E+00    3.878E+00
     3.856E+00    3.834E+00    3.812E+00    3.790E+00    3.768E+00    3.746E+00    3.724E+00    3.703E+00    3.681E+00    3.659E+00
     3.637E+00    3.616E+00    3.594E+00    3.572E+00    3.551E+00    3.529E+00    3.507E+00    3.486E+00    3.464E+00    3.443E+00
     3.421E+00    3.400E+00    3.378E+00    3.357E+00    3.335E+00    3.314E+00    3.293E+00    3.271E+00    3.250E+00    3.229E+00
     3.208E+00    3.186E+00    3.165E+00    3.144E+00    3.123E+00    3.102E+00    3.081E+00    3.060E+00    3.039E+00    3.018E+00
     2.997E+00    2.976E+00    2.955E+00    2.934E+00    2.913E+00    2.893E+00    2.872E+00    2.851E+00    2.830E+00    2.810E+00
     2.789E+00    2.768E+00    2.748E+00    2.727E+00    2.707E+00    2.686E+00    2.666E+00    2.646E+00    2.625E+00    2.605E+00
     2.585E+00    2.564E+00    2.544E+00    2.524E+00    2.504E+00    2.484E+00    2.463E+00    2.443E+00    2.423E+00    2.403E+00
     2.383E+00    2.364E+00    2.344E+00    2.324E+00    2.304E+00    2.284E+00    2.265E+00    2.245E+00    2.225E+00    2.206E+00
     2.186E+00    2.166E+00    2.147E+00    2.127E+00    2.108E+00    2.089E+00    2.069E+00    2.050E+00    2.031E+00    2.011E+00
     1.992E+00    1.973E+00    1.954E+00    1.934E+00    1.915E+00    1.896E+00    1.877E+00    1.858E+00    1.839E+00    1.820E+00
     1.801E+00    1.783E+00    1.764E+00    1.745E+00    1.726E+00    1.707E+00    1.689E+00    1.670E+00    1.651E+00    1.633E+00
     1.614E+00    1.596E+00    1.577E+00    1.559E+00    1.540E+00    1.522E+00    1.504E+00    1.485E+00    1.467E+00    1.449E+00
     1.431E+00    1.412E+00    1.394E+00    1.376E+00    1.358E+00    1.340E+00    1.322E+00    1.304E+00    1.286E+00    1.268E+00
     1.250E+00    1.232E+00    1.214E+00    1.197E+00    1.179E+00    1.161E+00    1.143E+00    1.126E+00    1.108E+00    1.091E+00
     1.073E+00    1.055E+00    1.038E+00    1.020E+00    1.003E+00    9.855E-01    9.681E-01    9.508E-01    9.335E-01    9.162E-01
     8.989E-01    8.817E-01    8.645E-01    8.474E-01    8.302E-01    8.131E-01    7.961E-01    7.790E-01    7.620E-01    7.450E-01
     7.281E-01    7.112E-01    6.943E-01    6.774E-01    6.606E-01    6.438E-01    6.271E-01    6.104E-01    5.937E-01    5.770E-01
     5.604E-01    5.437E-01    5.272E-01    5.106E-01    4.941E-01    4.776E-01    4.612E-01    4.448E-01    4.284E-01    4.120E-01
     3.957E-01    3.794E-01    3.631E-01    3.468E-01    3.306E-01    3.144E-01    2.983E-01    2.822E-01    2.661E-01    2.500E-01
     2.340E-01    2.180E-01    2.020E-01    1.860E-01    1.701E-01    1.542E-01    1.384E-01    1.225E-01    1.067E-01    9.097E-02
     7.523E-02    5.951E-02    4.383E-02    2.817E-02    1.254E-02   -3.056E-03   -1.863E-02   -3.417E-02   -4.968E-02   -6.517E-02
    -8.062E-02   -9.605E-02   -1.114E-01   -1.268E-01   -1.422E-01   -1.575E-01   -1.728E-01   -1.880E-01   -2.033E-01   -2.185E-01
    -2.336E-01   -2.488E-01   -2.639E-01   -2.790E-01   -2.940E-01   -3.091E-01   -3.241E-01   -3.391E-01   -3.540E-01   -3.689E-01
    -3.838E-01   -3.987E-01   -4.136E-01   -4.284E-01   -4.432E-01   -4.579E-01   -4.727E-01   -4.874E-01   -5.020E-01   -5.167E-01
    -5.313E-01   -5.459E-01   -5.605E-01   -5.751E-01   -5.896E-01   -6.041E-01   -6.186E-01   -6.330E-01   -6.474E-01   -6.618E-01
    -6.762E-01   -6.906E-01   -7.049E-01   -7.192E-01   -7.335E-01   -7.477E-01   -7.620E-01   -7.762E-01   -7.904E-01   -8.045E-01
    -8.187E-01   -8.328E-01   -8.469E-01   -8.610E-01   -8.750E-01   -8.890E-01   -9.031E-01   -9.170E-01   -9.310E-01   -9.449E-01
    -9.589E-01   -9.728E-01   -9.866E-01   -1.001E+00   -1.014E+00   -1.028E+00   -1.042E+00   -1.056E+00   -1.069E+00   -1.083E+00
    -1.097E+00   -1.111E+00   -1.124E+00   -1.138E+00   -1.152E+00   -1.165E+00   -1.179E+00   -1.192E+00   -1.206E+00   -1.220E+00
    -1.233E+00   -1.247E+00   -1.260E+00   -1.274E+00   -1.287E+00   -1.300E+00   -1.314E+00   -1.327E+00   -1.341E+00   -1.354E+00
    -1.367E+00   -1.381E+00   -1.394E+00   -1.407E+00   -1.421E+00   -1.434E+00   -1.447E+00   -1.461E+00   -1.474E+00   -1.487E+00
    -1.500E+00   -1.513E+00   -1.527E+00   -1.540E+00   -1.553E+00   -1.566E+00   -1.579E+00   -1.592E+00   -1.605E+00   -1.618E+00
    -1.631E+00   -1.645E+00   -1.658E+00   -1.671E+00   -1.684E+00   -1.697E+00   -1.710E+00   -1.723E+00   -1.736E+00   -1.748E+00
    -1.761E+00   -1.774E+00   -1.787E+00   -1.800E+00   -1.813E+00   -1.826E+00   -1.839E+00   -1.852E+00   -1.865E+00   -1.877E+00
    -1.890E+00   -1.903E+00   -1.916E+00   -1.929E+00   -1.942E+00   -1.954E+00   -1.967E+00   -1.980E+00   -1.993E+00   -2.005E+00
    -2.018E+00   -2.031E+00   -2.044E+00   -2.056E+00   -2.069E+00   -2.082E+00   -2.094E+00   -2.107E+00   -2.120E+00   -2.133E+00
    -2.145E+00   -2.158E+00   -2.171E+00   -2.183E+00   -2.196E+00   -2.208E+00   -2.221E+00   -2.234E+00   -2.246E+00   -2.259E+00
    -2.272E+00   -2.284E+00   -2.297E+00   -2.309E+00   -2.322E+00   -2.335E+00   -2.347E+00   -2.360E+00   -2.372E+00   -2.385E+00
    -2.398E+00   -2.410E+00   -2.423E+00   -2.435E+00   -2.448E+00   -2.460E+00   -2.473E+00   -2.485E+00   -2.498E+00   -2.511E+00
    -2.523E+00   -2.536E+00   -2.548E+00   -2.561E+00   -2.573E+00   -2.586E+00   -2.598E+00   -2.611E+00
 Ala      Conc. = 1.02E+04
