 LCModel (Version 6.3-1L) Copyright: S.W. Provencher.          Ref.: Magn. Reson. Med. 30:672-679 (1993).                
 Slice#3 Row#7 Col#13  K_02_press_1_raw_act
 36 lines in following concentration table = NCONC+1
    Conc.  %SD /Cr+PCr  Metabolite                                         
    0.000 999%   0.000 Ala                                                 
   68.121  20%   0.789 Asp                                                 
   86.348  66%   1.000 Cr                                                  
    0.000 999%   0.000 PCr                                                 
   40.795  20%   0.472 GABA                                                
   40.810  20%   0.473 Glc                                                 
  236.681 117%   2.741 Gln                                                 
  833.630  36%   9.654 Glu                                                 
   51.322  37%   0.594 GPC                                                 
    0.000 999%   0.000 PCh                                                 
    0.000 999%   0.000 GSH                                                 
  623.644  38%   7.222 Ins                                                 
    0.000 999%   0.000 Lac                                                 
  709.796  20%   8.220 NAA                                                 
  410.342  31%   4.752 NAAG                                                
   13.734  20%   0.159 Scyllo                                              
   68.210  20%   0.790 Tau                                                 
    0.450 999% 5.2E-03 -CrCH2                                              
   51.322  37%   0.594 GPC+PCh                                             
 1.12E+03  16%  12.972 NAA+NAAG                                            
   86.348  66%   1.000 Cr+PCr                                              
 1.07E+03  41%  12.395 Glu+Gln                                             
 6.06E+04   8% 701.599 Lip13a                                              
    0.000 999%   0.000 Lip13b                                              
 1.08E+04  14% 124.843 Lip09                                               
 5.42E+03  16%  62.750 MM09                                                
    0.000 999%   0.000-Lip20                                               
 2.13E+03  27%  24.645 MM20                                                
 2.78E+03  20%  32.186 MM12                                                
 1.81E+04  12% 209.739+MM14                                                
 9.36E+03  16% 108.373+MM17                                                
 6.06E+04   8% 701.599 Lip13a+Lip13b                                       
 8.15E+04   5% 943.524 MM14+Lip13a+Lip13b+MM12                             
 1.62E+04   9% 187.594 MM09+Lip09                                          
 2.13E+03  27%  24.645 MM20+Lip20                                          
   6 lines in following misc. output table
  FWHM = 0.076 ppm    S/N =  38                                            
  Data shift = 0.107 ppm                                                   
  Ph: -44 deg     -29.2 deg/ppm                                            
  alphaB,S = 3.9E+01,   3.0E+01                                            
    6 spline knots.   Ns = 9(2)                                            
  ( 9) 7 infls.   (11) 7 extrs.                                            
  498 points on ppm-axis = NY
      4.000000     3.992357     3.984714     3.977070     3.969427     3.961784     3.954141     3.946497     3.938854     3.931211
      3.923568     3.915925     3.908281     3.900638     3.892995     3.885352     3.877708     3.870065     3.862422     3.854779
      3.847136     3.839492     3.831849     3.824206     3.816563     3.808919     3.801276     3.793633     3.785990     3.778347
      3.770703     3.763060     3.755417     3.747774     3.740130     3.732487     3.724844     3.717201     3.709558     3.701914
      3.694271     3.686628     3.678985     3.671341     3.663698     3.656055     3.648412     3.640769     3.633125     3.625482
      3.617839     3.610196     3.602552     3.594909     3.587266     3.579623     3.571980     3.564336     3.556693     3.549050
      3.541407     3.533763     3.526120     3.518477     3.510834     3.503191     3.495547     3.487904     3.480261     3.472618
      3.464974     3.457331     3.449688     3.442045     3.434402     3.426758     3.419115     3.411472     3.403829     3.396185
      3.388542     3.380899     3.373256     3.365613     3.357969     3.350326     3.342683     3.335040     3.327396     3.319753
      3.312110     3.304467     3.296824     3.289180     3.281537     3.273894     3.266251     3.258607     3.250964     3.243321
      3.235678     3.228034     3.220391     3.212748     3.205105     3.197462     3.189818     3.182175     3.174532     3.166889
      3.159245     3.151602     3.143959     3.136316     3.128673     3.121029     3.113386     3.105743     3.098100     3.090456
      3.082813     3.075170     3.067527     3.059884     3.052240     3.044597     3.036954     3.029311     3.021667     3.014024
      3.006381     2.998738     2.991095     2.983451     2.975808     2.968165     2.960522     2.952878     2.945235     2.937592
      2.929949     2.922306     2.914662     2.907019     2.899376     2.891733     2.884089     2.876446     2.868803     2.861160
      2.853517     2.845873     2.838230     2.830587     2.822944     2.815300     2.807657     2.800014     2.792371     2.784728
      2.777084     2.769441     2.761798     2.754155     2.746511     2.738868     2.731225     2.723582     2.715939     2.708295
      2.700652     2.693009     2.685366     2.677722     2.670079     2.662436     2.654793     2.647150     2.639506     2.631863
      2.624220     2.616577     2.608933     2.601290     2.593647     2.586004     2.578361     2.570717     2.563074     2.555431
      2.547788     2.540144     2.532501     2.524858     2.517215     2.509572     2.501928     2.494285     2.486642     2.478999
      2.471355     2.463712     2.456069     2.448426     2.440783     2.433139     2.425496     2.417853     2.410210     2.402566
      2.394923     2.387280     2.379637     2.371994     2.364350     2.356707     2.349064     2.341421     2.333777     2.326134
      2.318491     2.310848     2.303205     2.295561     2.287918     2.280275     2.272632     2.264988     2.257345     2.249702
      2.242059     2.234416     2.226772     2.219129     2.211486     2.203843     2.196199     2.188556     2.180913     2.173270
      2.165627     2.157983     2.150340     2.142697     2.135054     2.127410     2.119767     2.112124     2.104481     2.096838
      2.089194     2.081551     2.073908     2.066265     2.058621     2.050978     2.043335     2.035692     2.028049     2.020405
      2.012762     2.005119     1.997476     1.989833     1.982190     1.974546     1.966903     1.959260     1.951617     1.943974
      1.936331     1.928688     1.921045     1.913402     1.905759     1.898115     1.890472     1.882829     1.875186     1.867543
      1.859900     1.852257     1.844614     1.836971     1.829327     1.821684     1.814041     1.806398     1.798755     1.791112
      1.783469     1.775826     1.768183     1.760540     1.752896     1.745253     1.737610     1.729967     1.722324     1.714681
      1.707038     1.699395     1.691752     1.684108     1.676465     1.668822     1.661179     1.653536     1.645893     1.638250
      1.630607     1.622964     1.615321     1.607677     1.600034     1.592391     1.584748     1.577105     1.569462     1.561819
      1.554176     1.546533     1.538890     1.531246     1.523603     1.515960     1.508317     1.500674     1.493031     1.485388
      1.477745     1.470102     1.462458     1.454815     1.447172     1.439529     1.431886     1.424243     1.416600     1.408957
      1.401314     1.393671     1.386027     1.378384     1.370741     1.363098     1.355455     1.347812     1.340169     1.332526
      1.324883     1.317240     1.309596     1.301953     1.294310     1.286667     1.279024     1.271381     1.263738     1.256095
      1.248452     1.240808     1.233165     1.225522     1.217879     1.210236     1.202593     1.194950     1.187307     1.179664
      1.172021     1.164377     1.156734     1.149091     1.141448     1.133805     1.126162     1.118519     1.110876     1.103233
      1.095590     1.087946     1.080303     1.072660     1.065017     1.057374     1.049731     1.042088     1.034445     1.026802
      1.019158     1.011515     1.003872     0.996229     0.988586     0.980943     0.973300     0.965657     0.958014     0.950371
      0.942727     0.935084     0.927441     0.919798     0.912155     0.904512     0.896869     0.889226     0.881583     0.873940
      0.866296     0.858653     0.851010     0.843367     0.835724     0.828081     0.820438     0.812795     0.805152     0.797508
      0.789865     0.782222     0.774579     0.766936     0.759293     0.751650     0.744007     0.736364     0.728721     0.721077
      0.713434     0.705791     0.698148     0.690505     0.682862     0.675219     0.667576     0.659933     0.652290     0.644646
      0.637003     0.629360     0.621717     0.614074     0.606431     0.598788     0.591145     0.583502     0.575858     0.568215
      0.560572     0.552929     0.545286     0.537643     0.530000     0.522357     0.514714     0.507071     0.499427     0.491784
      0.484141     0.476498     0.468855     0.461212     0.453569     0.445925     0.438282     0.430639     0.422996     0.415353
      0.407710     0.400067     0.392424     0.384780     0.377137     0.369494     0.361851     0.354208     0.346565     0.338922
      0.331278     0.323635     0.315992     0.308349     0.300706     0.293063     0.285420     0.277777     0.270133     0.262490
      0.254847     0.247204     0.239561     0.231918     0.224275     0.216631     0.208988     0.201345
 NY phased data points follow
   2.19292E+01  2.19554E+01  2.10200E+01  1.79153E+01  2.21702E+01  1.80118E+01  1.74878E+01  1.73785E+01  2.13436E+01  2.04484E+01
   2.16384E+01  1.84151E+01  1.94806E+01  1.72166E+01  2.01535E+01  1.79361E+01  2.03508E+01  1.99253E+01  1.99812E+01  2.13500E+01
   1.98821E+01  2.04181E+01  1.92956E+01  2.07305E+01  2.15958E+01  2.16167E+01  2.04121E+01  1.97540E+01  2.23080E+01  2.10236E+01
   2.12398E+01  2.30535E+01  2.05254E+01  2.33327E+01  1.93629E+01  2.13814E+01  2.14457E+01  1.92822E+01  1.88820E+01  2.11751E+01
   2.10525E+01  1.86163E+01  2.03504E+01  2.03906E+01  1.97340E+01  1.87091E+01  1.84899E+01  2.12354E+01  2.04974E+01  2.17623E+01
   1.98971E+01  2.11837E+01  2.11362E+01  1.87629E+01  2.11643E+01  2.05844E+01  1.99260E+01  2.10638E+01  1.78802E+01  1.93761E+01
   2.02946E+01  2.11800E+01  1.89405E+01  2.13747E+01  2.14753E+01  1.90860E+01  1.74140E+01  2.14048E+01  2.09575E+01  2.01436E+01
   1.78422E+01  1.95343E+01  2.08866E+01  1.89656E+01  2.06890E+01  1.86173E+01  1.97306E+01  2.19762E+01  2.11440E+01  1.79157E+01
   2.02649E+01  1.93028E+01  1.93794E+01  2.00006E+01  1.72139E+01  1.88642E+01  2.01744E+01  2.13449E+01  2.13548E+01  2.13207E+01
   2.02036E+01  2.12085E+01  2.12736E+01  2.11773E+01  1.98785E+01  2.09180E+01  1.84122E+01  1.83468E+01  2.16936E+01  1.98851E+01
   1.69775E+01  1.81951E+01  2.09691E+01  1.95345E+01  2.02181E+01  1.96939E+01  1.85073E+01  1.97458E+01  1.98139E+01  1.89405E+01
   2.20997E+01  2.21121E+01  1.83667E+01  2.01943E+01  2.10487E+01  1.96619E+01  2.33547E+01  2.25289E+01  2.09849E+01  2.26653E+01
   2.01996E+01  2.23781E+01  2.10708E+01  1.94844E+01  1.91982E+01  1.99997E+01  1.91294E+01  2.02085E+01  2.05463E+01  2.10335E+01
   2.03429E+01  2.19605E+01  2.17076E+01  2.22911E+01  2.00067E+01  2.12993E+01  2.11976E+01  2.39996E+01  2.17506E+01  1.90808E+01
   2.23406E+01  2.07242E+01  1.95577E+01  1.93019E+01  2.00494E+01  2.07008E+01  1.89245E+01  1.99020E+01  1.85988E+01  2.00586E+01
   2.14883E+01  1.88832E+01  2.13127E+01  1.98480E+01  2.04844E+01  2.05308E+01  1.79557E+01  2.01508E+01  1.92952E+01  1.76642E+01
   2.07192E+01  1.93851E+01  1.97822E+01  1.79398E+01  1.84821E+01  1.75496E+01  1.90588E+01  1.95182E+01  1.92145E+01  1.65668E+01
   1.92374E+01  1.66499E+01  2.05422E+01  2.05432E+01  2.00094E+01  2.24138E+01  1.75719E+01  1.89541E+01  1.95643E+01  1.85187E+01
   1.97700E+01  2.05095E+01  1.86126E+01  1.86612E+01  1.79523E+01  2.29021E+01  2.10781E+01  2.14010E+01  2.49882E+01  1.90648E+01
   2.14027E+01  1.83783E+01  2.06115E+01  2.18467E+01  2.24597E+01  2.06256E+01  2.31750E+01  2.24911E+01  2.23063E+01  2.58866E+01
   2.68659E+01  2.50769E+01  2.53007E+01  2.50817E+01  2.40503E+01  2.57074E+01  2.20025E+01  2.38541E+01  2.45484E+01  2.24407E+01
   2.28525E+01  2.24107E+01  2.50144E+01  2.60047E+01  2.55133E+01  2.80526E+01  2.61728E+01  2.69003E+01  2.85648E+01  2.65836E+01
   2.77623E+01  2.79008E+01  3.02580E+01  2.91179E+01  2.93772E+01  2.95689E+01  3.01188E+01  2.90028E+01  2.84120E+01  3.13047E+01
   3.05723E+01  3.29424E+01  3.13795E+01  3.28471E+01  3.27778E+01  3.56236E+01  3.49202E+01  3.66457E+01  3.55910E+01  4.17462E+01
   4.26188E+01  4.27918E+01  4.75851E+01  5.43182E+01  6.16704E+01  6.11893E+01  5.86114E+01  5.45429E+01  5.38952E+01  5.21061E+01
   5.09833E+01  4.99893E+01  4.65689E+01  4.69773E+01  4.53423E+01  4.41643E+01  4.44879E+01  4.51526E+01  4.56921E+01  4.74549E+01
   4.46666E+01  4.53251E+01  4.66262E+01  4.78038E+01  4.75198E+01  4.66909E+01  4.59862E+01  4.69031E+01  4.72718E+01  4.82208E+01
   4.81205E+01  4.92847E+01  5.19647E+01  5.19679E+01  4.98406E+01  5.26501E+01  5.37435E+01  5.66935E+01  5.74151E+01  5.76727E+01
   5.68045E+01  5.74096E+01  5.97605E+01  6.29754E+01  6.37312E+01  6.31351E+01  6.74265E+01  6.96272E+01  7.22710E+01  7.14241E+01
   7.45842E+01  7.61514E+01  8.10293E+01  8.09469E+01  8.29957E+01  8.50499E+01  9.16970E+01  9.58948E+01  9.56162E+01  1.01780E+02
   1.01819E+02  1.08014E+02  1.09406E+02  1.11920E+02  1.18213E+02  1.19202E+02  1.24351E+02  1.28316E+02  1.30351E+02  1.33449E+02
   1.39593E+02  1.43763E+02  1.48760E+02  1.50781E+02  1.55692E+02  1.59856E+02  1.66262E+02  1.70953E+02  1.71685E+02  1.78885E+02
   1.83694E+02  1.84755E+02  1.87624E+02  1.93709E+02  1.97295E+02  2.01019E+02  2.00325E+02  2.06881E+02  2.08048E+02  2.09312E+02
   2.11429E+02  2.14617E+02  2.19417E+02  2.14872E+02  2.16879E+02  2.17119E+02  2.19701E+02  2.18627E+02  2.20176E+02  2.18401E+02
   2.18388E+02  2.17284E+02  2.13730E+02  2.13817E+02  2.12100E+02  2.09693E+02  2.06794E+02  2.05771E+02  2.01552E+02  2.00998E+02
   2.00246E+02  1.96121E+02  1.93525E+02  1.93136E+02  1.89027E+02  1.86470E+02  1.87255E+02  1.83265E+02  1.85783E+02  1.81919E+02
   1.76499E+02  1.76280E+02  1.74156E+02  1.69337E+02  1.71212E+02  1.68801E+02  1.66753E+02  1.64098E+02  1.60961E+02  1.59482E+02
   1.54854E+02  1.53907E+02  1.55040E+02  1.53540E+02  1.51155E+02  1.48170E+02  1.45631E+02  1.45047E+02  1.41674E+02  1.41961E+02
   1.36689E+02  1.35104E+02  1.31752E+02  1.32318E+02  1.30419E+02  1.26955E+02  1.23907E+02  1.21475E+02  1.20007E+02  1.19668E+02
   1.18140E+02  1.14228E+02  1.15321E+02  1.13372E+02  1.11480E+02  1.11638E+02  1.07914E+02  1.05019E+02  1.04035E+02  1.00042E+02
   9.99583E+01  9.84702E+01  9.80297E+01  9.51829E+01  9.38191E+01  9.34027E+01  9.16799E+01  8.98918E+01  8.64385E+01  8.66833E+01
   8.60754E+01  8.37414E+01  8.29365E+01  8.22825E+01  7.86606E+01  7.80076E+01  7.73027E+01  7.69982E+01  7.48028E+01  7.65432E+01
   7.33333E+01  7.54451E+01  7.24203E+01  7.03965E+01  6.84961E+01  6.83736E+01  6.84796E+01  6.67574E+01  6.91226E+01  6.52791E+01
   6.10051E+01  6.29319E+01  6.08654E+01  6.15549E+01  6.32247E+01  5.98057E+01  6.14928E+01  5.88523E+01  5.82602E+01  5.82291E+01
   5.82946E+01  5.66688E+01  5.59784E+01  5.41274E+01  5.52307E+01  5.40941E+01  5.42719E+01  5.33809E+01  5.22564E+01  5.38146E+01
   5.33082E+01  5.13997E+01  5.04449E+01  4.85772E+01  4.96861E+01  4.68476E+01  4.74648E+01  4.88327E+01  4.64316E+01  4.63476E+01
   4.46246E+01  4.64576E+01  4.71400E+01  4.70592E+01  4.77458E+01  4.59944E+01  4.54703E+01  4.37218E+01  4.12064E+01  4.48561E+01
   4.36565E+01  4.33357E+01  4.24277E+01  4.18492E+01  4.10934E+01  4.19963E+01  3.98984E+01  4.13371E+01  3.93477E+01  4.19865E+01
   4.01428E+01  4.16215E+01  4.00702E+01  3.98098E+01  3.76962E+01  4.04024E+01  3.70510E+01  3.78052E+01  3.70282E+01  3.75368E+01
   4.07966E+01  3.65087E+01  3.92934E+01  3.65670E+01  3.85168E+01  3.67371E+01  3.46683E+01  3.83891E+01
 NY points of the fit to the data follow
   2.04108E+01  2.01664E+01  2.00232E+01  1.98029E+01  1.97523E+01  1.97065E+01  1.98432E+01  1.99909E+01  2.01733E+01  2.03331E+01
   1.99113E+01  1.98985E+01  1.92242E+01  1.92006E+01  1.92189E+01  1.95962E+01  1.98918E+01  2.04138E+01  2.04463E+01  2.07103E+01
   2.03812E+01  2.02597E+01  1.99705E+01  1.97629E+01  1.95424E+01  1.94579E+01  1.93138E+01  1.93851E+01  1.97745E+01  2.04687E+01
   2.11910E+01  2.17486E+01  2.19170E+01  2.19300E+01  2.15993E+01  2.13633E+01  2.09362E+01  2.05924E+01  2.02299E+01  1.98948E+01
   1.96474E+01  1.96529E+01  1.95969E+01  1.99050E+01  1.98858E+01  2.00431E+01  2.00775E+01  2.01293E+01  2.03634E+01  2.05103E+01
   2.04684E+01  2.04346E+01  1.99804E+01  1.99095E+01  1.97146E+01  1.97733E+01  1.99138E+01  2.00399E+01  2.01723E+01  2.02894E+01
   2.03642E+01  2.03720E+01  2.04822E+01  2.05318E+01  2.05456E+01  2.03431E+01  2.00627E+01  1.96993E+01  1.95147E+01  1.92993E+01
   1.92363E+01  1.89662E+01  1.88731E+01  1.87531E+01  1.88270E+01  1.88515E+01  1.89497E+01  1.89545E+01  1.90952E+01  1.89146E+01
   1.90267E+01  1.88868E+01  1.89357E+01  1.89705E+01  1.93279E+01  2.02821E+01  2.04153E+01  2.14991E+01  2.11477E+01  2.15934E+01
   2.11166E+01  2.13154E+01  2.07548E+01  2.06181E+01  2.01236E+01  1.97617E+01  1.94565E+01  1.92448E+01  1.92087E+01  1.92154E+01
   1.92344E+01  1.92878E+01  1.92212E+01  1.91949E+01  1.91218E+01  1.92132E+01  1.91745E+01  1.93885E+01  1.96148E+01  2.03542E+01
   2.06434E+01  2.12553E+01  2.13519E+01  2.13879E+01  2.13655E+01  2.13714E+01  2.13020E+01  2.13302E+01  2.12788E+01  2.13633E+01
   2.11523E+01  2.10351E+01  2.07632E+01  2.04806E+01  2.04869E+01  2.05391E+01  2.05917E+01  2.06590E+01  2.07371E+01  2.08400E+01
   2.08955E+01  2.09236E+01  2.09354E+01  2.09418E+01  2.09315E+01  2.08943E+01  2.07711E+01  2.06467E+01  2.05338E+01  2.04953E+01
   2.05364E+01  2.06545E+01  2.06269E+01  2.06599E+01  2.05279E+01  2.02966E+01  2.01995E+01  1.99814E+01  1.98256E+01  1.98339E+01
   1.96217E+01  1.95749E+01  1.93655E+01  1.94381E+01  1.92876E+01  1.94066E+01  1.92788E+01  1.92170E+01  1.89922E+01  1.89539E+01
   1.89369E+01  1.90193E+01  1.91369E+01  1.90269E+01  1.90717E+01  1.89504E+01  1.91894E+01  1.92232E+01  1.95028E+01  1.94519E+01
   1.97764E+01  1.98345E+01  2.02522E+01  2.04964E+01  2.08828E+01  2.09940E+01  2.11746E+01  2.11606E+01  2.12226E+01  2.13475E+01
   2.13622E+01  2.15901E+01  2.14981E+01  2.16754E+01  2.17395E+01  2.20542E+01  2.24111E+01  2.28105E+01  2.31985E+01  2.32599E+01
   2.33197E+01  2.29700E+01  2.23133E+01  2.21020E+01  2.14501E+01  2.14569E+01  2.14594E+01  2.19179E+01  2.29484E+01  2.37235E+01
   2.48096E+01  2.52190E+01  2.54959E+01  2.52546E+01  2.45966E+01  2.38321E+01  2.30867E+01  2.28872E+01  2.26642E+01  2.32064E+01
   2.33852E+01  2.42574E+01  2.47770E+01  2.56806E+01  2.61859E+01  2.68139E+01  2.71345E+01  2.75686E+01  2.77815E+01  2.80984E+01
   2.82122E+01  2.85810E+01  2.86508E+01  2.89436E+01  2.86479E+01  2.85482E+01  2.84735E+01  2.85617E+01  2.92276E+01  2.95224E+01
   3.07024E+01  3.09999E+01  3.20294E+01  3.22541E+01  3.26471E+01  3.28600E+01  3.32443E+01  3.49194E+01  3.80481E+01  3.93903E+01
   4.32406E+01  4.41009E+01  5.06938E+01  5.24339E+01  5.73594E+01  5.77096E+01  5.77680E+01  5.67821E+01  5.51268E+01  5.42311E+01
   5.14103E+01  5.06506E+01  4.78813E+01  4.71673E+01  4.56143E+01  4.52650E+01  4.51530E+01  4.52965E+01  4.58959E+01  4.59190E+01
   4.63541E+01  4.64538E+01  4.72736E+01  4.74535E+01  4.77611E+01  4.76698E+01  4.77064E+01  4.79376E+01  4.82038E+01  4.87549E+01
   4.91960E+01  4.98348E+01  5.11687E+01  5.14268E+01  5.28128E+01  5.32142E+01  5.44730E+01  5.57270E+01  5.60602E+01  5.67892E+01
   5.59390E+01  5.66505E+01  5.79272E+01  5.94335E+01  6.10366E+01  6.28436E+01  6.47913E+01  6.68732E+01  6.91289E+01  7.15172E+01
   7.40626E+01  7.66924E+01  7.94353E+01  8.22396E+01  8.51423E+01  8.81145E+01  9.11934E+01  9.43250E+01  9.75263E+01  1.00757E+02
   1.04037E+02  1.07328E+02  1.10648E+02  1.13971E+02  1.17340E+02  1.20741E+02  1.24197E+02  1.27712E+02  1.31319E+02  1.34998E+02
   1.38781E+02  1.42657E+02  1.46635E+02  1.50722E+02  1.54917E+02  1.59199E+02  1.63569E+02  1.67985E+02  1.72431E+02  1.76863E+02
   1.81238E+02  1.85516E+02  1.89655E+02  1.93613E+02  1.97350E+02  2.00830E+02  2.04022E+02  2.06901E+02  2.09449E+02  2.11654E+02
   2.13514E+02  2.15031E+02  2.16213E+02  2.17076E+02  2.17636E+02  2.17915E+02  2.17933E+02  2.17713E+02  2.17276E+02  2.16640E+02
   2.15823E+02  2.14839E+02  2.13700E+02  2.12415E+02  2.10994E+02  2.09442E+02  2.07766E+02  2.05974E+02  2.04072E+02  2.02072E+02
   1.99985E+02  1.97824E+02  1.95607E+02  1.93350E+02  1.91074E+02  1.88795E+02  1.86533E+02  1.84302E+02  1.82115E+02  1.79981E+02
   1.77902E+02  1.75876E+02  1.73897E+02  1.71954E+02  1.70032E+02  1.68114E+02  1.66184E+02  1.64226E+02  1.62226E+02  1.60176E+02
   1.58073E+02  1.55919E+02  1.53721E+02  1.51494E+02  1.49252E+02  1.47015E+02  1.44803E+02  1.42633E+02  1.40521E+02  1.38476E+02
   1.36506E+02  1.34610E+02  1.32782E+02  1.31013E+02  1.29289E+02  1.27593E+02  1.25909E+02  1.24219E+02  1.22509E+02  1.20767E+02
   1.18986E+02  1.17162E+02  1.15296E+02  1.13392E+02  1.11460E+02  1.09509E+02  1.07554E+02  1.05607E+02  1.03683E+02  1.01794E+02
   9.99537E+01  9.81703E+01  9.64516E+01  9.48027E+01  9.32263E+01  9.17229E+01  9.02907E+01  8.89266E+01  8.76257E+01  8.63826E+01
   8.51909E+01  8.40440E+01  8.29354E+01  8.18585E+01  8.08075E+01  7.97770E+01  7.87622E+01  7.77590E+01  7.67642E+01  7.57753E+01
   7.47903E+01  7.38081E+01  7.28281E+01  7.18501E+01  7.08745E+01  6.99021E+01  6.89338E+01  6.79711E+01  6.70151E+01  6.60675E+01
   6.51299E+01  6.42037E+01  6.32905E+01  6.23919E+01  6.15091E+01  6.06433E+01  5.97957E+01  5.89673E+01  5.81589E+01  5.73712E+01
   5.66046E+01  5.58597E+01  5.51366E+01  5.44356E+01  5.37566E+01  5.30996E+01  5.24644E+01  5.18508E+01  5.12584E+01  5.06870E+01
   5.01360E+01  4.96051E+01  4.90936E+01  4.86012E+01  4.81271E+01  4.76710E+01  4.72322E+01  4.68101E+01  4.64041E+01  4.60138E+01
   4.56385E+01  4.52776E+01  4.49307E+01  4.45973E+01  4.42766E+01  4.39684E+01  4.36721E+01  4.33872E+01  4.31133E+01  4.28500E+01
   4.25967E+01  4.23531E+01  4.21189E+01  4.18937E+01  4.16769E+01  4.14685E+01  4.12679E+01  4.10750E+01  4.08894E+01  4.07107E+01
   4.05388E+01  4.03733E+01  4.02141E+01  4.00609E+01  3.99133E+01  3.97713E+01  3.96346E+01  3.95031E+01  3.93765E+01  3.92546E+01
   3.91373E+01  3.90245E+01  3.89159E+01  3.88115E+01  3.87111E+01  3.86147E+01  3.85220E+01  3.84332E+01
 NY background values follow
     1.711E+01    1.711E+01    1.710E+01    1.709E+01    1.709E+01    1.708E+01    1.707E+01    1.707E+01    1.706E+01    1.705E+01
     1.704E+01    1.704E+01    1.703E+01    1.702E+01    1.701E+01    1.700E+01    1.700E+01    1.699E+01    1.698E+01    1.697E+01
     1.696E+01    1.696E+01    1.695E+01    1.694E+01    1.693E+01    1.692E+01    1.691E+01    1.691E+01    1.690E+01    1.689E+01
     1.688E+01    1.687E+01    1.686E+01    1.686E+01    1.685E+01    1.684E+01    1.683E+01    1.682E+01    1.681E+01    1.681E+01
     1.680E+01    1.679E+01    1.678E+01    1.677E+01    1.676E+01    1.676E+01    1.675E+01    1.674E+01    1.673E+01    1.672E+01
     1.672E+01    1.671E+01    1.670E+01    1.669E+01    1.668E+01    1.668E+01    1.667E+01    1.666E+01    1.665E+01    1.665E+01
     1.664E+01    1.663E+01    1.662E+01    1.662E+01    1.661E+01    1.660E+01    1.660E+01    1.659E+01    1.658E+01    1.657E+01
     1.657E+01    1.656E+01    1.656E+01    1.655E+01    1.654E+01    1.654E+01    1.653E+01    1.652E+01    1.652E+01    1.651E+01
     1.651E+01    1.650E+01    1.650E+01    1.649E+01    1.649E+01    1.648E+01    1.648E+01    1.647E+01    1.647E+01    1.646E+01
     1.646E+01    1.646E+01    1.645E+01    1.645E+01    1.645E+01    1.644E+01    1.644E+01    1.644E+01    1.643E+01    1.643E+01
     1.643E+01    1.643E+01    1.642E+01    1.642E+01    1.642E+01    1.642E+01    1.642E+01    1.642E+01    1.642E+01    1.642E+01
     1.642E+01    1.642E+01    1.642E+01    1.642E+01    1.642E+01    1.642E+01    1.642E+01    1.642E+01    1.642E+01    1.642E+01
     1.642E+01    1.643E+01    1.643E+01    1.643E+01    1.643E+01    1.644E+01    1.644E+01    1.644E+01    1.645E+01    1.645E+01
     1.646E+01    1.646E+01    1.647E+01    1.647E+01    1.648E+01    1.648E+01    1.649E+01    1.650E+01    1.650E+01    1.651E+01
     1.652E+01    1.652E+01    1.653E+01    1.654E+01    1.655E+01    1.656E+01    1.657E+01    1.658E+01    1.658E+01    1.659E+01
     1.661E+01    1.662E+01    1.663E+01    1.664E+01    1.665E+01    1.666E+01    1.667E+01    1.669E+01    1.670E+01    1.671E+01
     1.673E+01    1.674E+01    1.676E+01    1.677E+01    1.679E+01    1.680E+01    1.682E+01    1.683E+01    1.685E+01    1.687E+01
     1.688E+01    1.690E+01    1.692E+01    1.694E+01    1.696E+01    1.698E+01    1.700E+01    1.701E+01    1.704E+01    1.706E+01
     1.708E+01    1.710E+01    1.712E+01    1.714E+01    1.716E+01    1.719E+01    1.721E+01    1.723E+01    1.726E+01    1.728E+01
     1.730E+01    1.733E+01    1.735E+01    1.738E+01    1.740E+01    1.743E+01    1.745E+01    1.748E+01    1.751E+01    1.753E+01
     1.756E+01    1.759E+01    1.762E+01    1.765E+01    1.767E+01    1.770E+01    1.773E+01    1.776E+01    1.779E+01    1.782E+01
     1.785E+01    1.788E+01    1.791E+01    1.794E+01    1.797E+01    1.800E+01    1.804E+01    1.807E+01    1.810E+01    1.813E+01
     1.817E+01    1.820E+01    1.823E+01    1.827E+01    1.830E+01    1.833E+01    1.837E+01    1.840E+01    1.844E+01    1.847E+01
     1.851E+01    1.854E+01    1.858E+01    1.861E+01    1.865E+01    1.869E+01    1.872E+01    1.876E+01    1.880E+01    1.883E+01
     1.887E+01    1.891E+01    1.895E+01    1.898E+01    1.902E+01    1.906E+01    1.910E+01    1.914E+01    1.918E+01    1.922E+01
     1.926E+01    1.930E+01    1.934E+01    1.938E+01    1.942E+01    1.946E+01    1.950E+01    1.954E+01    1.958E+01    1.962E+01
     1.966E+01    1.970E+01    1.974E+01    1.979E+01    1.983E+01    1.987E+01    1.991E+01    1.995E+01    2.000E+01    2.004E+01
     2.008E+01    2.013E+01    2.017E+01    2.021E+01    2.026E+01    2.030E+01    2.034E+01    2.039E+01    2.043E+01    2.047E+01
     2.052E+01    2.056E+01    2.061E+01    2.065E+01    2.070E+01    2.074E+01    2.079E+01    2.083E+01    2.088E+01    2.092E+01
     2.097E+01    2.101E+01    2.106E+01    2.110E+01    2.115E+01    2.120E+01    2.124E+01    2.129E+01    2.133E+01    2.138E+01
     2.143E+01    2.147E+01    2.152E+01    2.157E+01    2.161E+01    2.166E+01    2.171E+01    2.175E+01    2.180E+01    2.185E+01
     2.189E+01    2.194E+01    2.199E+01    2.204E+01    2.208E+01    2.213E+01    2.218E+01    2.223E+01    2.227E+01    2.232E+01
     2.237E+01    2.242E+01    2.246E+01    2.251E+01    2.256E+01    2.261E+01    2.266E+01    2.270E+01    2.275E+01    2.280E+01
     2.285E+01    2.290E+01    2.294E+01    2.299E+01    2.304E+01    2.309E+01    2.314E+01    2.318E+01    2.323E+01    2.328E+01
     2.333E+01    2.338E+01    2.342E+01    2.347E+01    2.352E+01    2.357E+01    2.362E+01    2.366E+01    2.371E+01    2.376E+01
     2.381E+01    2.386E+01    2.391E+01    2.395E+01    2.400E+01    2.405E+01    2.410E+01    2.415E+01    2.419E+01    2.424E+01
     2.429E+01    2.434E+01    2.439E+01    2.444E+01    2.448E+01    2.453E+01    2.458E+01    2.463E+01    2.468E+01    2.473E+01
     2.477E+01    2.482E+01    2.487E+01    2.492E+01    2.497E+01    2.501E+01    2.506E+01    2.511E+01    2.516E+01    2.521E+01
     2.526E+01    2.530E+01    2.535E+01    2.540E+01    2.545E+01    2.550E+01    2.554E+01    2.559E+01    2.564E+01    2.569E+01
     2.574E+01    2.578E+01    2.583E+01    2.588E+01    2.593E+01    2.597E+01    2.602E+01    2.607E+01    2.612E+01    2.617E+01
     2.621E+01    2.626E+01    2.631E+01    2.636E+01    2.640E+01    2.645E+01    2.650E+01    2.655E+01    2.660E+01    2.664E+01
     2.669E+01    2.674E+01    2.678E+01    2.683E+01    2.688E+01    2.693E+01    2.697E+01    2.702E+01    2.707E+01    2.712E+01
     2.716E+01    2.721E+01    2.726E+01    2.730E+01    2.735E+01    2.740E+01    2.745E+01    2.749E+01    2.754E+01    2.759E+01
     2.763E+01    2.768E+01    2.773E+01    2.777E+01    2.782E+01    2.787E+01    2.791E+01    2.796E+01    2.800E+01    2.805E+01
     2.810E+01    2.814E+01    2.819E+01    2.824E+01    2.828E+01    2.833E+01    2.837E+01    2.842E+01    2.847E+01    2.851E+01
     2.856E+01    2.860E+01    2.865E+01    2.869E+01    2.874E+01    2.879E+01    2.883E+01    2.888E+01    2.892E+01    2.897E+01
     2.901E+01    2.906E+01    2.910E+01    2.915E+01    2.919E+01    2.924E+01    2.928E+01    2.933E+01    2.937E+01    2.942E+01
     2.946E+01    2.951E+01    2.955E+01    2.959E+01    2.964E+01    2.968E+01    2.973E+01    2.977E+01    2.982E+01    2.986E+01
     2.990E+01    2.995E+01    2.999E+01    3.003E+01    3.008E+01    3.012E+01    3.017E+01    3.021E+01    3.025E+01    3.030E+01
     3.034E+01    3.038E+01    3.042E+01    3.047E+01    3.051E+01    3.055E+01    3.060E+01    3.064E+01
 Asp      Conc. = 6.81E+01
