 LCModel (Version 6.3-1L) Copyright: S.W. Provencher.          Ref.: Magn. Reson. Med. 30:672-679 (1993).                
 Slice#1 Row#8 Col#8  K_02_press_1_raw_act
 Data of: Institute of Biomedical Engineering, Bogazici University, Istanbul
 03-January-2018  23:40
 36 lines in following concentration table = NCONC+1
    Conc.  %SD /Cr+PCr  Metabolite                                         
    0.000 999%   0.000 Ala                                                 
  183.952 102%   0.206 Asp                                                 
  156.072 159%   0.175 Cr                                                  
  737.144  35%   0.825 PCr                                                 
  119.676  96%   0.134 GABA                                                
   32.692 354% 3.7E-02 Glc                                                 
  446.852  72%   0.500 Gln                                                 
 1.41E+03  26%   1.577 Glu                                                 
  296.714  10%   0.332 GPC                                                 
    0.000 999%   0.000 PCh                                                 
  107.129  98%   0.120 GSH                                                 
 1.08E+03  31%   1.207 Ins                                                 
    0.000 999%   0.000 Lac                                                 
 1.76E+03   8%   1.966 NAA                                                 
  192.137  80%   0.215 NAAG                                                
   66.984  44% 7.5E-02 Scyllo                                              
  164.690 107%   0.184 Tau                                                 
  209.755  61%   0.235 -CrCH2                                              
  296.714  10%   0.332 GPC+PCh                                             
 1.95E+03   6%   2.181 NAA+NAAG                                            
  893.216   9%   1.000 Cr+PCr                                              
 1.86E+03  28%   2.077 Glu+Gln                                             
    0.000 999%   0.000 Lip13a                                              
    0.000 999%   0.000 Lip13b                                              
    0.000 999%   0.000 Lip09                                               
 1.43E+03  15%   1.604 MM09                                                
   10.800 999% 1.2E-02 Lip20                                               
 2.52E+03  16%   2.825 MM20                                                
  513.783  26%   0.575 MM12                                                
    0.000 999%   0.000 MM14                                                
 1.02E+03  22%   1.141 MM17                                                
    0.000 999%   0.000 Lip13a+Lip13b                                       
  513.783  26%   0.575 MM14+Lip13a+Lip13b+MM12                             
 1.43E+03  15%   1.604 MM09+Lip09                                          
 2.53E+03  16%   2.837 MM20+Lip20                                          
   6 lines in following misc. output table
  FWHM = 0.046 ppm    S/N =   6                                            
  Data shift = 0.000 ppm                                                   
  Ph: -64 deg     -13.9 deg/ppm                                            
  alphaB,S = 8.5E+01,   5.1E+01                                            
   14 spline knots.   Ns = 6(1)                                            
  (10) 5 infls.   (11) 1 extrs.                                            
  498 points on ppm-axis = NY
      4.000000     3.992357     3.984714     3.977070     3.969427     3.961784     3.954141     3.946497     3.938854     3.931211
      3.923568     3.915925     3.908281     3.900638     3.892995     3.885352     3.877708     3.870065     3.862422     3.854779
      3.847136     3.839492     3.831849     3.824206     3.816563     3.808919     3.801276     3.793633     3.785990     3.778347
      3.770703     3.763060     3.755417     3.747774     3.740130     3.732487     3.724844     3.717201     3.709558     3.701914
      3.694271     3.686628     3.678985     3.671341     3.663698     3.656055     3.648412     3.640769     3.633125     3.625482
      3.617839     3.610196     3.602552     3.594909     3.587266     3.579623     3.571980     3.564336     3.556693     3.549050
      3.541407     3.533763     3.526120     3.518477     3.510834     3.503191     3.495547     3.487904     3.480261     3.472618
      3.464974     3.457331     3.449688     3.442045     3.434402     3.426758     3.419115     3.411472     3.403829     3.396185
      3.388542     3.380899     3.373256     3.365613     3.357969     3.350326     3.342683     3.335040     3.327396     3.319753
      3.312110     3.304467     3.296824     3.289180     3.281537     3.273894     3.266251     3.258607     3.250964     3.243321
      3.235678     3.228034     3.220391     3.212748     3.205105     3.197462     3.189818     3.182175     3.174532     3.166889
      3.159245     3.151602     3.143959     3.136316     3.128673     3.121029     3.113386     3.105743     3.098100     3.090456
      3.082813     3.075170     3.067527     3.059884     3.052240     3.044597     3.036954     3.029311     3.021667     3.014024
      3.006381     2.998738     2.991095     2.983451     2.975808     2.968165     2.960522     2.952878     2.945235     2.937592
      2.929949     2.922306     2.914662     2.907019     2.899376     2.891733     2.884089     2.876446     2.868803     2.861160
      2.853517     2.845873     2.838230     2.830587     2.822944     2.815300     2.807657     2.800014     2.792371     2.784728
      2.777084     2.769441     2.761798     2.754155     2.746511     2.738868     2.731225     2.723582     2.715939     2.708295
      2.700652     2.693009     2.685366     2.677722     2.670079     2.662436     2.654793     2.647150     2.639506     2.631863
      2.624220     2.616577     2.608933     2.601290     2.593647     2.586004     2.578361     2.570717     2.563074     2.555431
      2.547788     2.540144     2.532501     2.524858     2.517215     2.509572     2.501928     2.494285     2.486642     2.478999
      2.471355     2.463712     2.456069     2.448426     2.440783     2.433139     2.425496     2.417853     2.410210     2.402566
      2.394923     2.387280     2.379637     2.371994     2.364350     2.356707     2.349064     2.341421     2.333777     2.326134
      2.318491     2.310848     2.303205     2.295561     2.287918     2.280275     2.272632     2.264988     2.257345     2.249702
      2.242059     2.234416     2.226772     2.219129     2.211486     2.203843     2.196199     2.188556     2.180913     2.173270
      2.165627     2.157983     2.150340     2.142697     2.135054     2.127410     2.119767     2.112124     2.104481     2.096838
      2.089194     2.081551     2.073908     2.066265     2.058621     2.050978     2.043335     2.035692     2.028049     2.020405
      2.012762     2.005119     1.997476     1.989833     1.982190     1.974546     1.966903     1.959260     1.951617     1.943974
      1.936331     1.928688     1.921045     1.913402     1.905759     1.898115     1.890472     1.882829     1.875186     1.867543
      1.859900     1.852257     1.844614     1.836971     1.829327     1.821684     1.814041     1.806398     1.798755     1.791112
      1.783469     1.775826     1.768183     1.760540     1.752896     1.745253     1.737610     1.729967     1.722324     1.714681
      1.707038     1.699395     1.691752     1.684108     1.676465     1.668822     1.661179     1.653536     1.645893     1.638250
      1.630607     1.622964     1.615321     1.607677     1.600034     1.592391     1.584748     1.577105     1.569462     1.561819
      1.554176     1.546533     1.538890     1.531246     1.523603     1.515960     1.508317     1.500674     1.493031     1.485388
      1.477745     1.470102     1.462458     1.454815     1.447172     1.439529     1.431886     1.424243     1.416600     1.408957
      1.401314     1.393671     1.386027     1.378384     1.370741     1.363098     1.355455     1.347812     1.340169     1.332526
      1.324883     1.317240     1.309596     1.301953     1.294310     1.286667     1.279024     1.271381     1.263738     1.256095
      1.248452     1.240808     1.233165     1.225522     1.217879     1.210236     1.202593     1.194950     1.187307     1.179664
      1.172021     1.164377     1.156734     1.149091     1.141448     1.133805     1.126162     1.118519     1.110876     1.103233
      1.095590     1.087946     1.080303     1.072660     1.065017     1.057374     1.049731     1.042088     1.034445     1.026802
      1.019158     1.011515     1.003872     0.996229     0.988586     0.980943     0.973300     0.965657     0.958014     0.950371
      0.942727     0.935084     0.927441     0.919798     0.912155     0.904512     0.896869     0.889226     0.881583     0.873940
      0.866296     0.858653     0.851010     0.843367     0.835724     0.828081     0.820438     0.812795     0.805152     0.797508
      0.789865     0.782222     0.774579     0.766936     0.759293     0.751650     0.744007     0.736364     0.728721     0.721077
      0.713434     0.705791     0.698148     0.690505     0.682862     0.675219     0.667576     0.659933     0.652290     0.644646
      0.637003     0.629360     0.621717     0.614074     0.606431     0.598788     0.591145     0.583502     0.575858     0.568215
      0.560572     0.552929     0.545286     0.537643     0.530000     0.522357     0.514714     0.507071     0.499427     0.491784
      0.484141     0.476498     0.468855     0.461212     0.453569     0.445925     0.438282     0.430639     0.422996     0.415353
      0.407710     0.400067     0.392424     0.384780     0.377137     0.369494     0.361851     0.354208     0.346565     0.338922
      0.331278     0.323635     0.315992     0.308349     0.300706     0.293063     0.285420     0.277777     0.270133     0.262490
      0.254847     0.247204     0.239561     0.231918     0.224275     0.216631     0.208988     0.201345
 NY phased data points follow
  -6.96629E+00 -1.35971E+01 -1.48462E+01 -1.46662E+01  6.38987E-01 -8.88479E+00 -2.96258E+00  8.06680E+00  1.25042E+01 -4.32907E-02
   4.99098E+00  1.15077E+01  4.36267E+00  2.77095E+00 -1.65772E+00  5.26878E+00  4.86605E+00 -7.52118E+00 -1.44054E+01 -3.97242E+00
   1.29979E+00 -8.83878E-02 -4.08331E+00 -4.75714E+00 -6.08393E+00 -7.37511E-01 -3.30447E+00 -1.83164E+00 -3.37512E+00 -1.41846E+01
  -2.33423E+00 -6.53014E+00 -2.62791E+00 -2.85821E+00 -4.93808E+00  6.53863E-02 -5.55944E+00 -9.13979E+00 -7.40445E+00 -1.42216E+00
   4.26395E+00 -4.73450E+00  4.93932E-01  3.99782E+00 -1.02126E+00 -2.68299E-01  1.75826E+01 -6.76650E+00  1.40254E+01  9.89085E+00
   3.55296E+00  3.30091E+00 -2.36065E+00  2.08012E+00 -1.81840E+00 -7.32082E+00  1.90154E+00 -1.97271E+00  2.88186E+00 -2.92116E+00
  -6.81460E+00 -7.14580E+00 -2.57368E+00 -5.26447E+00  4.13668E+00 -1.02359E+01 -3.52303E+00 -4.90914E+00 -7.21083E+00 -5.20531E+00
  -2.19333E+00 -2.90030E+00 -7.94760E+00 -8.28116E+00 -7.70344E+00  3.00989E+00 -3.25080E+00 -1.97703E+00 -7.56979E+00 -9.08120E+00
  -1.31756E+01 -4.11840E+00 -7.26862E+00 -8.07452E+00 -1.26981E+00 -1.13314E+00 -2.96912E+00  2.43559E+00 -1.80312E+00 -5.71116E+00
  -7.69603E+00 -3.54746E+00  7.07363E-01  3.38799E+00  5.90754E+00  1.32716E+00  3.69570E+00  1.12769E+01 -8.87521E+00  6.72217E+00
   1.05648E+01  2.32021E+01  2.73587E+01  3.33470E+01  1.01766E+01  1.53751E+01  6.78783E+00  1.38422E+01  2.62725E+00 -3.03518E+00
  -2.08348E+00  6.54318E+00 -5.69485E+00 -2.80940E+00  5.03706E+00 -1.67799E+00 -1.51807E+01 -4.46199E-02 -5.33593E-01 -2.71833E+00
  -1.85639E+00  8.53058E+00  4.54292E+00  4.86414E+00  1.75541E+01  3.13980E+01  2.44802E+01  3.11139E+01  2.41859E+01  2.69521E+01
   1.04356E+01  7.92548E+00  1.17977E+01  5.13841E+00  1.89511E+00  9.78552E-01  3.59884E+00 -3.40203E+00 -1.56247E+00  9.08426E-01
   7.09528E+00  5.83912E+00  4.15497E+00  1.58046E+00 -5.44145E+00  1.08282E+00  1.12083E+01 -6.09967E-02  1.71400E+00 -7.08869E+00
   3.97252E+00 -8.26794E-01  3.01845E+00 -6.77001E+00 -5.55470E+00 -2.65031E+00  3.13865E+00 -2.69621E+00  2.89267E+00 -8.04320E+00
  -6.88665E+00 -6.37503E+00 -3.92985E-01 -6.66292E+00 -2.55821E+00 -1.30267E+01 -2.43871E+00 -1.18766E+01 -2.33334E+00 -4.89992E+00
  -3.86420E+00 -9.41490E+00 -9.50820E+00 -3.11225E+00 -1.83236E+01 -3.91048E+00 -8.83540E+00 -1.74186E+01 -7.49429E+00 -1.20312E+01
  -1.32289E+01 -1.92301E+01 -1.26068E+01 -9.53644E+00 -3.42896E+00 -1.15251E+01 -6.27310E-01 -5.26269E+00 -1.07147E+01 -4.64581E+00
  -4.75074E+00 -5.81262E+00 -7.32064E+00 -1.37861E+01 -9.64163E+00 -2.63045E+00 -2.12721E+00 -7.71361E+00 -6.59881E+00 -1.60456E+01
  -2.54463E+00 -1.15849E+01  1.16529E+00  9.78095E+00  1.69800E+00  3.04924E+00 -2.24307E+00 -2.43679E+00 -1.13981E+00 -4.70777E+00
   3.65177E+00  7.37543E+00  8.34820E+00 -2.71401E+00  9.97043E+00  1.64691E+01  1.37543E+01  1.42364E+01  1.38934E-01 -3.68921E+00
  -4.08835E+00 -2.88359E+00 -4.55914E+00  2.43484E+00  1.53550E+00  1.62990E+00  5.01392E+00  5.69635E+00  6.26448E+00  1.35484E+00
  -3.82393E+00  8.11375E+00  2.31183E+00  9.79215E+00  4.41934E+00  1.03035E+01  1.01266E+00  1.13198E+01  1.40068E+01  4.95791E+00
   7.23888E+00  1.63176E+00 -1.75419E+00  6.01811E+00  6.38748E+00  4.97735E+00  8.23193E+00  1.42149E+01  9.45101E+00  6.92333E+00
   1.67769E+01  6.33379E+00  1.67117E+01  1.90179E+01  2.64257E+01  2.56712E+01  3.19755E+01  4.42270E+01  3.87340E+01  6.19406E+01
   7.57306E+01  8.09906E+01  6.21936E+01  5.65822E+01  3.82451E+01  2.45054E+01  2.19174E+01  1.11350E+01  2.32375E+00  8.61399E+00
   1.00559E+01 -4.13432E-01 -2.96735E-01 -5.02480E-01  2.61396E+00  3.28656E+00 -2.51364E+00  5.47159E+00  3.21425E+00 -8.14811E+00
   2.46865E+00  3.95743E+00  6.16456E+00  9.46561E+00 -1.68361E+00  4.49600E+00 -8.16993E+00 -1.14217E+00  8.30358E+00  4.40849E+00
   6.38239E+00  1.20941E+01 -6.44665E-01  1.24707E+01  1.09111E+01  4.43603E+00 -4.18206E+00  2.75093E+00 -2.88820E+00 -1.04471E+01
   2.26094E-01 -3.45246E-01  1.65139E+00  1.11685E+00  8.82748E+00  3.48340E+00  6.92930E+00  6.68515E+00  1.32497E+01  6.37244E+00
  -1.68938E+00  6.31106E+00  8.35180E+00  1.38120E+01  1.65690E+01  7.71312E+00  1.05632E+01  3.94897E+00  1.42772E+01  1.82012E+01
   8.30534E+00  9.30345E+00  9.89514E+00  3.94445E+00  5.07666E+00  1.25223E+00 -5.79615E-01  3.40748E+00  9.87443E+00 -9.01258E-01
   5.06026E+00  3.68007E+00 -1.20873E+00  1.10996E+01 -2.49644E+00 -7.29313E+00 -4.70917E+00 -3.61448E+00 -2.73041E+00 -2.65552E+00
  -1.24720E+01 -3.70408E+00 -6.67987E+00 -5.77310E+00 -1.07682E+01 -1.95472E+00  2.20572E-01 -2.98369E+00 -2.32594E+00 -2.65357E+00
   5.43636E+00  9.96571E-01  2.91617E+00  1.14624E+01  2.44218E+00  1.74120E+00  8.65482E+00  2.98613E+00 -1.38427E+00  1.16911E+01
   5.41065E+00  3.93129E+00  3.02534E+00  1.39583E+01  4.83501E+00  1.67390E+01  5.47087E+00  1.58303E+01  7.34177E+00  1.33713E+01
   4.79178E+00  4.08371E+00  6.09579E+00  3.14419E+00  5.01071E+00  9.30221E+00  1.16709E+01  1.43227E+01  1.06040E+01  4.39328E+00
   1.80532E+01  1.23730E+01  8.91565E+00  1.67595E+01  1.76257E+01  2.54545E+00  2.36294E+00  5.32268E+00  1.07391E+01  6.70274E+00
   5.00518E+00  3.77913E+00  2.62451E+00  2.18178E+00  1.47200E+01  1.14130E+01  6.49307E+00  1.00213E+01  1.38761E+01  1.26155E+01
   1.07953E+01  1.08287E+01  3.17562E+00  2.72439E+00  1.58339E+01  1.05439E+01  1.80047E+01  1.50380E+01  1.96191E+00  1.37715E+01
   1.06389E+01  1.69058E+01  7.83789E+00  7.98473E+00  1.39627E+01 -1.43193E+00  4.39568E+00 -6.47846E+00  1.00270E+01  1.18338E+01
   4.51634E+00  7.24316E+00  4.92236E+00  2.93046E+00 -1.98408E+00  5.56021E+00  1.57410E+00  4.34904E+00 -5.46117E-01  6.21092E+00
   1.96227E+00  9.55243E+00  4.82714E+00  2.04693E+00  5.38115E+00  5.52318E+00  1.25714E+01 -3.52508E+00  9.26482E+00  7.52789E+00
   6.33367E+00  3.41979E+00  3.19182E+00  4.50575E+00  5.32808E+00  1.13918E+01  9.19009E+00 -4.20308E+00 -4.32814E+00  5.63178E+00
   4.32734E+00  7.33296E+00  2.59679E+00  1.02528E+01  2.34449E+00 -1.94655E+00  3.98242E+00 -8.94168E-01  5.87629E+00  8.14327E+00
   4.29820E+00  7.19472E+00  9.33007E-01  1.15514E+00  9.69455E+00 -1.54161E-01  5.85010E+00  3.95573E+00  3.77467E+00  1.12762E+00
   5.84979E+00  5.81894E+00  5.40395E+00  7.40530E+00 -1.55734E+00  6.31862E+00  4.42184E+00  1.59145E+00  5.63000E+00 -7.10828E+00
   1.01286E+00  8.09044E+00 -1.31985E-01  3.56607E+00  2.32669E+00  3.19627E+00 -1.61425E+00  3.01544E+00  8.28834E+00 -2.12105E+00
   5.27998E+00  1.73231E-01  1.34105E+01 -1.10633E+00  4.54377E+00  7.80335E+00 -6.19934E+00  1.74939E+00
 NY points of the fit to the data follow
  -6.69620E+00 -7.14676E+00 -7.06277E+00 -6.20273E+00 -4.91138E+00 -2.91207E+00  1.85860E-01  3.90787E+00  7.07898E+00  8.73863E+00
   8.74002E+00  7.51828E+00  5.58795E+00  3.49732E+00  1.51273E+00 -3.46875E-01 -1.81289E+00 -2.77050E+00 -3.58765E+00 -4.13590E+00
  -4.29791E+00 -4.25768E+00 -4.28386E+00 -4.39405E+00 -4.53933E+00 -4.91396E+00 -5.50665E+00 -5.93041E+00 -5.67597E+00 -4.51851E+00
  -2.70091E+00 -7.47490E-01  6.93037E-01  1.13340E+00  5.44883E-01 -7.93002E-01 -2.45017E+00 -3.90368E+00 -4.88404E+00 -5.35155E+00
  -5.28530E+00 -4.71712E+00 -3.75667E+00 -2.58865E+00 -1.18249E+00  6.60813E-01  2.72017E+00  4.21833E+00  4.41011E+00  3.18631E+00
   1.17132E+00 -8.84402E-01 -2.58435E+00 -3.77131E+00 -4.46915E+00 -4.71938E+00 -4.48441E+00 -3.85963E+00 -3.01938E+00 -2.21016E+00
  -1.72564E+00 -1.75186E+00 -2.27313E+00 -3.03412E+00 -3.73168E+00 -4.18451E+00 -4.31378E+00 -4.17931E+00 -3.91088E+00 -3.54423E+00
  -3.06484E+00 -2.60463E+00 -2.29078E+00 -2.15803E+00 -2.17554E+00 -2.33112E+00 -2.62831E+00 -3.02874E+00 -3.48675E+00 -3.86883E+00
  -3.91543E+00 -3.65730E+00 -3.36044E+00 -2.99075E+00 -2.44475E+00 -1.96608E+00 -1.98243E+00 -2.65581E+00 -3.68758E+00 -4.59960E+00
  -5.09267E+00 -5.22403E+00 -5.25853E+00 -5.31350E+00 -5.28902E+00 -4.99661E+00 -3.62928E+00 -1.00117E+00  2.06361E+00  6.41745E+00
   1.30168E+01  2.05178E+01  2.55868E+01  2.58883E+01  2.20432E+01  1.64521E+01  1.11606E+01  7.02520E+00  3.59497E+00  4.54536E-01
  -1.60680E+00 -2.36406E+00 -2.70227E+00 -2.90979E+00 -3.06550E+00 -3.19697E+00 -3.29768E+00 -3.39428E+00 -3.47193E+00 -3.36266E+00
  -2.25557E+00  4.16286E-01  3.81503E+00  8.39052E+00  1.51360E+01  2.31530E+01  2.92551E+01  3.06893E+01  2.74677E+01  2.18460E+01
   1.61172E+01  1.14183E+01  7.51868E+00  3.89024E+00  1.10449E+00 -3.00939E-01 -1.02697E+00 -1.43196E+00 -1.56921E+00 -1.52511E+00
  -1.42541E+00 -1.35926E+00 -1.35503E+00 -1.39060E+00 -1.43155E+00 -1.50617E+00 -1.65847E+00 -1.87532E+00 -2.11616E+00 -2.33994E+00
  -2.52440E+00 -2.68474E+00 -2.83113E+00 -2.95243E+00 -3.03406E+00 -3.11408E+00 -3.24223E+00 -3.40459E+00 -3.67567E+00 -4.08322E+00
  -4.54437E+00 -4.88275E+00 -4.87368E+00 -4.50632E+00 -4.03989E+00 -3.78586E+00 -3.86804E+00 -4.16958E+00 -4.50156E+00 -4.79613E+00
  -5.08698E+00 -5.41407E+00 -5.71981E+00 -5.99844E+00 -6.32210E+00 -6.67260E+00 -6.82894E+00 -6.61294E+00 -6.20256E+00 -5.94042E+00
  -5.94850E+00 -6.05052E+00 -5.96650E+00 -5.55894E+00 -5.11661E+00 -4.87079E+00 -4.62811E+00 -4.09117E+00 -3.18479E+00 -2.15839E+00
  -1.39688E+00 -1.01232E+00 -9.66013E-01 -1.09896E+00 -1.21013E+00 -1.24486E+00 -1.23288E+00 -1.14238E+00 -8.72412E-01 -3.23450E-01
   4.55929E-01  1.30284E+00  2.13068E+00  2.69266E+00  2.55607E+00  1.69473E+00  1.88241E-01 -1.84229E+00 -3.88544E+00 -5.11440E+00
  -4.93038E+00 -3.67947E+00 -1.65739E+00  1.05306E+00  3.91306E+00  5.78571E+00  5.74078E+00  3.79971E+00  7.98407E-01 -2.40082E+00
  -5.27237E+00 -7.13919E+00 -7.31110E+00 -5.54885E+00 -2.48595E+00  5.62608E-01  2.83939E+00  4.27304E+00  5.02035E+00  5.19347E+00
   4.85632E+00  4.43560E+00  4.35976E+00  4.61510E+00  4.98820E+00  5.49798E+00  6.09638E+00  6.61606E+00  6.99015E+00  7.08381E+00
   6.83803E+00  6.45650E+00  6.34554E+00  6.67976E+00  7.30561E+00  8.02402E+00  8.69844E+00  9.22994E+00  9.58698E+00  1.00255E+01
   1.09034E+01  1.21340E+01  1.37475E+01  1.60770E+01  2.00971E+01  2.67571E+01  3.34636E+01  4.06770E+01  5.11709E+01  6.42451E+01
   7.39689E+01  7.45567E+01  6.55892E+01  5.18866E+01  3.85403E+01  2.79876E+01  1.97973E+01  1.25971E+01  7.17368E+00  4.90393E+00
   4.07591E+00  3.71152E+00  3.65645E+00  3.73265E+00  3.78155E+00  3.72814E+00  3.55133E+00  3.27323E+00  2.93213E+00  2.57069E+00
   2.23013E+00  1.95484E+00  1.76470E+00  1.64847E+00  1.58784E+00  1.55858E+00  1.54379E+00  1.53788E+00  1.53719E+00  1.54621E+00
   1.57965E+00  1.64374E+00  1.73093E+00  1.83577E+00  1.96663E+00  2.12955E+00  2.32635E+00  2.56223E+00  2.84113E+00  3.16578E+00
   3.54029E+00  3.96119E+00  4.41752E+00  4.89754E+00  5.38987E+00  5.88409E+00  6.36801E+00  6.82769E+00  7.25028E+00  7.62222E+00
   7.93023E+00  8.16366E+00  8.31383E+00  8.37488E+00  8.34418E+00  8.22255E+00  8.01450E+00  7.72827E+00  7.37482E+00  6.96706E+00
   6.51893E+00  6.04497E+00  5.55974E+00  5.07736E+00  4.61027E+00  4.16871E+00  3.76042E+00  3.39113E+00  3.06462E+00  2.78291E+00
   2.54598E+00  2.35217E+00  2.19858E+00  2.08198E+00  1.99893E+00  1.94593E+00  1.91920E+00  1.91514E+00  1.93047E+00  1.96271E+00
   2.00988E+00  2.07039E+00  2.14264E+00  2.22536E+00  2.31763E+00  2.41910E+00  2.52945E+00  2.64834E+00  2.77507E+00  2.90900E+00
   3.04949E+00  3.19601E+00  3.34766E+00  3.50322E+00  3.66099E+00  3.81932E+00  3.97651E+00  4.13093E+00  4.28060E+00  4.42347E+00
   4.55742E+00  4.68083E+00  4.79244E+00  4.89141E+00  4.97699E+00  5.04890E+00  5.10733E+00  5.15331E+00  5.18841E+00  5.21466E+00
   5.23425E+00  5.24977E+00  5.26418E+00  5.28098E+00  5.30369E+00  5.33582E+00  5.38061E+00  5.44135E+00  5.52125E+00  5.62355E+00
   5.75101E+00  5.90597E+00  6.09018E+00  6.30514E+00  6.55187E+00  6.83087E+00  7.14163E+00  7.48268E+00  7.85151E+00  8.24477E+00
   8.65802E+00  9.08570E+00  9.52080E+00  9.95525E+00  1.03800E+01  1.07858E+01  1.11625E+01  1.15004E+01  1.17897E+01  1.20212E+01
   1.21874E+01  1.22823E+01  1.23018E+01  1.22439E+01  1.21087E+01  1.18986E+01  1.16183E+01  1.12748E+01  1.08764E+01  1.04327E+01
   9.95366E+00  9.45019E+00  8.93293E+00  8.41216E+00  7.89707E+00  7.39569E+00  6.91473E+00  6.45973E+00  6.03484E+00  5.64285E+00
   5.28511E+00  4.96190E+00  4.67261E+00  4.41613E+00  4.19075E+00  3.99435E+00  3.82438E+00  3.67828E+00  3.55354E+00  3.44795E+00
   3.35928E+00  3.28544E+00  3.22437E+00  3.17434E+00  3.13389E+00  3.10189E+00  3.07717E+00  3.05868E+00  3.04543E+00  3.03672E+00
   3.03203E+00  3.03094E+00  3.03293E+00  3.03754E+00  3.04431E+00  3.05307E+00  3.06364E+00  3.07590E+00  3.08955E+00  3.10436E+00
   3.12012E+00  3.13688E+00  3.15457E+00  3.17315E+00  3.19238E+00  3.21216E+00  3.23241E+00  3.25323E+00  3.27460E+00  3.29644E+00
   3.31857E+00  3.34097E+00  3.36364E+00  3.38670E+00  3.41010E+00  3.43375E+00  3.45752E+00  3.48143E+00  3.50554E+00  3.52995E+00
   3.55457E+00  3.57931E+00  3.60409E+00  3.62900E+00  3.65410E+00  3.67945E+00  3.70492E+00  3.73045E+00  3.75600E+00  3.78171E+00
   3.80761E+00  3.83373E+00  3.85991E+00  3.88616E+00  3.91248E+00  3.93901E+00  3.96578E+00  3.99274E+00  4.01979E+00  4.04696E+00
   4.07432E+00  4.10199E+00  4.12995E+00  4.15818E+00  4.18660E+00  4.21531E+00  4.24440E+00  4.27402E+00
 NY background values follow
    -7.436E+00   -7.414E+00   -7.391E+00   -7.368E+00   -7.345E+00   -7.322E+00   -7.300E+00   -7.277E+00   -7.254E+00   -7.231E+00
    -7.208E+00   -7.185E+00   -7.161E+00   -7.138E+00   -7.115E+00   -7.092E+00   -7.069E+00   -7.046E+00   -7.022E+00   -6.999E+00
    -6.976E+00   -6.952E+00   -6.929E+00   -6.905E+00   -6.882E+00   -6.859E+00   -6.835E+00   -6.811E+00   -6.788E+00   -6.764E+00
    -6.741E+00   -6.717E+00   -6.693E+00   -6.670E+00   -6.646E+00   -6.622E+00   -6.598E+00   -6.575E+00   -6.551E+00   -6.527E+00
    -6.503E+00   -6.479E+00   -6.455E+00   -6.431E+00   -6.407E+00   -6.383E+00   -6.359E+00   -6.335E+00   -6.311E+00   -6.287E+00
    -6.263E+00   -6.238E+00   -6.214E+00   -6.190E+00   -6.166E+00   -6.141E+00   -6.117E+00   -6.093E+00   -6.068E+00   -6.044E+00
    -6.020E+00   -5.995E+00   -5.971E+00   -5.946E+00   -5.922E+00   -5.897E+00   -5.873E+00   -5.848E+00   -5.824E+00   -5.799E+00
    -5.774E+00   -5.750E+00   -5.725E+00   -5.700E+00   -5.675E+00   -5.651E+00   -5.626E+00   -5.601E+00   -5.576E+00   -5.551E+00
    -5.527E+00   -5.502E+00   -5.477E+00   -5.452E+00   -5.427E+00   -5.402E+00   -5.377E+00   -5.352E+00   -5.327E+00   -5.302E+00
    -5.277E+00   -5.252E+00   -5.227E+00   -5.201E+00   -5.176E+00   -5.151E+00   -5.126E+00   -5.101E+00   -5.075E+00   -5.050E+00
    -5.025E+00   -5.000E+00   -4.974E+00   -4.949E+00   -4.924E+00   -4.898E+00   -4.873E+00   -4.847E+00   -4.822E+00   -4.797E+00
    -4.771E+00   -4.746E+00   -4.720E+00   -4.695E+00   -4.669E+00   -4.643E+00   -4.618E+00   -4.592E+00   -4.567E+00   -4.541E+00
    -4.515E+00   -4.490E+00   -4.464E+00   -4.438E+00   -4.413E+00   -4.387E+00   -4.361E+00   -4.336E+00   -4.310E+00   -4.284E+00
    -4.258E+00   -4.232E+00   -4.207E+00   -4.181E+00   -4.155E+00   -4.129E+00   -4.103E+00   -4.077E+00   -4.051E+00   -4.025E+00
    -4.000E+00   -3.974E+00   -3.948E+00   -3.922E+00   -3.896E+00   -3.870E+00   -3.844E+00   -3.818E+00   -3.792E+00   -3.765E+00
    -3.739E+00   -3.713E+00   -3.687E+00   -3.661E+00   -3.635E+00   -3.609E+00   -3.583E+00   -3.557E+00   -3.530E+00   -3.504E+00
    -3.478E+00   -3.452E+00   -3.426E+00   -3.399E+00   -3.373E+00   -3.347E+00   -3.321E+00   -3.294E+00   -3.268E+00   -3.242E+00
    -3.216E+00   -3.189E+00   -3.163E+00   -3.137E+00   -3.110E+00   -3.084E+00   -3.058E+00   -3.031E+00   -3.005E+00   -2.978E+00
    -2.952E+00   -2.926E+00   -2.899E+00   -2.873E+00   -2.846E+00   -2.820E+00   -2.793E+00   -2.767E+00   -2.741E+00   -2.714E+00
    -2.688E+00   -2.661E+00   -2.635E+00   -2.608E+00   -2.582E+00   -2.555E+00   -2.529E+00   -2.502E+00   -2.476E+00   -2.449E+00
    -2.423E+00   -2.396E+00   -2.369E+00   -2.343E+00   -2.316E+00   -2.290E+00   -2.263E+00   -2.237E+00   -2.210E+00   -2.183E+00
    -2.157E+00   -2.130E+00   -2.104E+00   -2.077E+00   -2.050E+00   -2.024E+00   -1.997E+00   -1.971E+00   -1.944E+00   -1.917E+00
    -1.891E+00   -1.864E+00   -1.837E+00   -1.811E+00   -1.784E+00   -1.758E+00   -1.731E+00   -1.704E+00   -1.678E+00   -1.651E+00
    -1.624E+00   -1.598E+00   -1.571E+00   -1.544E+00   -1.518E+00   -1.491E+00   -1.464E+00   -1.438E+00   -1.411E+00   -1.384E+00
    -1.358E+00   -1.331E+00   -1.304E+00   -1.278E+00   -1.251E+00   -1.224E+00   -1.198E+00   -1.171E+00   -1.144E+00   -1.118E+00
    -1.091E+00   -1.064E+00   -1.038E+00   -1.011E+00   -9.843E-01   -9.576E-01   -9.309E-01   -9.043E-01   -8.776E-01   -8.510E-01
    -8.243E-01   -7.977E-01   -7.710E-01   -7.444E-01   -7.177E-01   -6.911E-01   -6.644E-01   -6.378E-01   -6.112E-01   -5.845E-01
    -5.579E-01   -5.313E-01   -5.047E-01   -4.780E-01   -4.514E-01   -4.248E-01   -3.982E-01   -3.716E-01   -3.450E-01   -3.184E-01
    -2.918E-01   -2.653E-01   -2.387E-01   -2.121E-01   -1.855E-01   -1.590E-01   -1.324E-01   -1.059E-01   -7.933E-02   -5.279E-02
    -2.626E-02    2.661E-04    2.679E-02    5.330E-02    7.981E-02    1.063E-01    1.328E-01    1.593E-01    1.858E-01    2.122E-01
     2.387E-01    2.652E-01    2.916E-01    3.181E-01    3.445E-01    3.709E-01    3.973E-01    4.237E-01    4.501E-01    4.765E-01
     5.029E-01    5.293E-01    5.557E-01    5.820E-01    6.084E-01    6.347E-01    6.610E-01    6.874E-01    7.137E-01    7.400E-01
     7.663E-01    7.925E-01    8.188E-01    8.451E-01    8.713E-01    8.976E-01    9.238E-01    9.500E-01    9.762E-01    1.002E+00
     1.029E+00    1.055E+00    1.081E+00    1.107E+00    1.133E+00    1.159E+00    1.185E+00    1.212E+00    1.238E+00    1.264E+00
     1.290E+00    1.316E+00    1.342E+00    1.368E+00    1.394E+00    1.420E+00    1.446E+00    1.472E+00    1.498E+00    1.524E+00
     1.550E+00    1.576E+00    1.601E+00    1.627E+00    1.653E+00    1.679E+00    1.705E+00    1.731E+00    1.757E+00    1.782E+00
     1.808E+00    1.834E+00    1.860E+00    1.885E+00    1.911E+00    1.937E+00    1.963E+00    1.988E+00    2.014E+00    2.039E+00
     2.065E+00    2.091E+00    2.116E+00    2.142E+00    2.167E+00    2.193E+00    2.218E+00    2.244E+00    2.269E+00    2.295E+00
     2.320E+00    2.346E+00    2.371E+00    2.397E+00    2.422E+00    2.447E+00    2.473E+00    2.498E+00    2.523E+00    2.549E+00
     2.574E+00    2.599E+00    2.624E+00    2.649E+00    2.675E+00    2.700E+00    2.725E+00    2.750E+00    2.775E+00    2.800E+00
     2.825E+00    2.850E+00    2.875E+00    2.900E+00    2.925E+00    2.950E+00    2.975E+00    3.000E+00    3.025E+00    3.050E+00
     3.075E+00    3.100E+00    3.124E+00    3.149E+00    3.174E+00    3.199E+00    3.223E+00    3.248E+00    3.273E+00    3.297E+00
     3.322E+00    3.347E+00    3.371E+00    3.396E+00    3.420E+00    3.445E+00    3.469E+00    3.494E+00    3.518E+00    3.543E+00
     3.567E+00    3.591E+00    3.616E+00    3.640E+00    3.664E+00    3.689E+00    3.713E+00    3.737E+00    3.761E+00    3.785E+00
     3.809E+00    3.834E+00    3.858E+00    3.882E+00    3.906E+00    3.930E+00    3.954E+00    3.978E+00    4.002E+00    4.026E+00
     4.049E+00    4.073E+00    4.097E+00    4.121E+00    4.145E+00    4.168E+00    4.192E+00    4.216E+00    4.239E+00    4.263E+00
     4.287E+00    4.310E+00    4.334E+00    4.357E+00    4.381E+00    4.404E+00    4.428E+00    4.451E+00    4.474E+00    4.498E+00
     4.521E+00    4.544E+00    4.567E+00    4.591E+00    4.614E+00    4.637E+00    4.660E+00    4.683E+00    4.706E+00    4.729E+00
     4.752E+00    4.775E+00    4.798E+00    4.821E+00    4.844E+00    4.867E+00    4.890E+00    4.913E+00    4.935E+00    4.958E+00
     4.981E+00    5.003E+00    5.026E+00    5.049E+00    5.071E+00    5.094E+00    5.116E+00    5.139E+00
