 LCModel (Version 6.3-1L) Copyright: S.W. Provencher.          Ref.: Magn. Reson. Med. 30:672-679 (1993).                
 Slice#3 Row#10 Col#9  K_02_press_1_raw_act
 36 lines in following concentration table = NCONC+1
    Conc.  %SD /Cr+PCr  Metabolite                                         
  201.036  58% 9.4E-02 Ala                                                 
    0.000 999%   0.000 Asp                                                 
  159.115 153% 7.5E-02 Cr                                                  
 1.97E+03  13%   0.925 PCr                                                 
    0.000 999%   0.000 GABA                                                
  153.404 117% 7.2E-02 Glc                                                 
  553.848  44%   0.260 Gln                                                 
 1.67E+03  16%   0.784 Glu                                                 
  734.019   4%   0.345 GPC                                                 
    0.000 999%   0.000 PCh                                                 
  536.470  15%   0.252 GSH                                                 
 1.95E+03  15%   0.919 Ins                                                 
  230.605  54%   0.108 Lac                                                 
 2.35E+03   6%   1.105 NAA                                                 
  209.058  66% 9.8E-02 NAAG                                                
  216.393  15%   0.102 Scyllo                                              
  309.034  79%   0.145 Tau                                                 
   43.827 266% 2.1E-02 -CrCH2                                              
  734.019   4%   0.345 GPC+PCh                                             
 2.56E+03   3%   1.203 NAA+NAAG                                            
 2.13E+03   3%   1.000 Cr+PCr                                              
 2.22E+03  18%   1.045 Glu+Gln                                             
    0.000 999%   0.000 Lip13a                                              
    0.000 999%   0.000 Lip13b                                              
    0.000 999%   0.000 Lip09                                               
 1.28E+03  15%   0.602 MM09                                                
    0.000 999%   0.000 Lip20                                               
 2.85E+03  13%   1.338 MM20                                                
  352.559  42%   0.166 MM12                                                
    0.000 999%   0.000 MM14                                                
  633.593  32%   0.298 MM17                                                
    0.000 999%   0.000 Lip13a+Lip13b                                       
  352.559  42%   0.166 MM14+Lip13a+Lip13b+MM12                             
 1.28E+03  15%   0.602 MM09+Lip09                                          
 2.85E+03  13%   1.338 MM20+Lip20                                          
   6 lines in following misc. output table
  FWHM = 0.046 ppm    S/N =  12                                            
  Data shift = 0.031 ppm                                                   
  Ph: -36 deg     -19.4 deg/ppm                                            
  alphaB,S = 1.2E+00,   5.5E+01                                            
   14 spline knots.   Ns = 7(1)                                            
  (12) 3 infls.   ( 3) 3 extrs.                                            
  498 points on ppm-axis = NY
      4.000000     3.992357     3.984714     3.977070     3.969427     3.961784     3.954141     3.946497     3.938854     3.931211
      3.923568     3.915925     3.908281     3.900638     3.892995     3.885352     3.877708     3.870065     3.862422     3.854779
      3.847136     3.839492     3.831849     3.824206     3.816563     3.808919     3.801276     3.793633     3.785990     3.778347
      3.770703     3.763060     3.755417     3.747774     3.740130     3.732487     3.724844     3.717201     3.709558     3.701914
      3.694271     3.686628     3.678985     3.671341     3.663698     3.656055     3.648412     3.640769     3.633125     3.625482
      3.617839     3.610196     3.602552     3.594909     3.587266     3.579623     3.571980     3.564336     3.556693     3.549050
      3.541407     3.533763     3.526120     3.518477     3.510834     3.503191     3.495547     3.487904     3.480261     3.472618
      3.464974     3.457331     3.449688     3.442045     3.434402     3.426758     3.419115     3.411472     3.403829     3.396185
      3.388542     3.380899     3.373256     3.365613     3.357969     3.350326     3.342683     3.335040     3.327396     3.319753
      3.312110     3.304467     3.296824     3.289180     3.281537     3.273894     3.266251     3.258607     3.250964     3.243321
      3.235678     3.228034     3.220391     3.212748     3.205105     3.197462     3.189818     3.182175     3.174532     3.166889
      3.159245     3.151602     3.143959     3.136316     3.128673     3.121029     3.113386     3.105743     3.098100     3.090456
      3.082813     3.075170     3.067527     3.059884     3.052240     3.044597     3.036954     3.029311     3.021667     3.014024
      3.006381     2.998738     2.991095     2.983451     2.975808     2.968165     2.960522     2.952878     2.945235     2.937592
      2.929949     2.922306     2.914662     2.907019     2.899376     2.891733     2.884089     2.876446     2.868803     2.861160
      2.853517     2.845873     2.838230     2.830587     2.822944     2.815300     2.807657     2.800014     2.792371     2.784728
      2.777084     2.769441     2.761798     2.754155     2.746511     2.738868     2.731225     2.723582     2.715939     2.708295
      2.700652     2.693009     2.685366     2.677722     2.670079     2.662436     2.654793     2.647150     2.639506     2.631863
      2.624220     2.616577     2.608933     2.601290     2.593647     2.586004     2.578361     2.570717     2.563074     2.555431
      2.547788     2.540144     2.532501     2.524858     2.517215     2.509572     2.501928     2.494285     2.486642     2.478999
      2.471355     2.463712     2.456069     2.448426     2.440783     2.433139     2.425496     2.417853     2.410210     2.402566
      2.394923     2.387280     2.379637     2.371994     2.364350     2.356707     2.349064     2.341421     2.333777     2.326134
      2.318491     2.310848     2.303205     2.295561     2.287918     2.280275     2.272632     2.264988     2.257345     2.249702
      2.242059     2.234416     2.226772     2.219129     2.211486     2.203843     2.196199     2.188556     2.180913     2.173270
      2.165627     2.157983     2.150340     2.142697     2.135054     2.127410     2.119767     2.112124     2.104481     2.096838
      2.089194     2.081551     2.073908     2.066265     2.058621     2.050978     2.043335     2.035692     2.028049     2.020405
      2.012762     2.005119     1.997476     1.989833     1.982190     1.974546     1.966903     1.959260     1.951617     1.943974
      1.936331     1.928688     1.921045     1.913402     1.905759     1.898115     1.890472     1.882829     1.875186     1.867543
      1.859900     1.852257     1.844614     1.836971     1.829327     1.821684     1.814041     1.806398     1.798755     1.791112
      1.783469     1.775826     1.768183     1.760540     1.752896     1.745253     1.737610     1.729967     1.722324     1.714681
      1.707038     1.699395     1.691752     1.684108     1.676465     1.668822     1.661179     1.653536     1.645893     1.638250
      1.630607     1.622964     1.615321     1.607677     1.600034     1.592391     1.584748     1.577105     1.569462     1.561819
      1.554176     1.546533     1.538890     1.531246     1.523603     1.515960     1.508317     1.500674     1.493031     1.485388
      1.477745     1.470102     1.462458     1.454815     1.447172     1.439529     1.431886     1.424243     1.416600     1.408957
      1.401314     1.393671     1.386027     1.378384     1.370741     1.363098     1.355455     1.347812     1.340169     1.332526
      1.324883     1.317240     1.309596     1.301953     1.294310     1.286667     1.279024     1.271381     1.263738     1.256095
      1.248452     1.240808     1.233165     1.225522     1.217879     1.210236     1.202593     1.194950     1.187307     1.179664
      1.172021     1.164377     1.156734     1.149091     1.141448     1.133805     1.126162     1.118519     1.110876     1.103233
      1.095590     1.087946     1.080303     1.072660     1.065017     1.057374     1.049731     1.042088     1.034445     1.026802
      1.019158     1.011515     1.003872     0.996229     0.988586     0.980943     0.973300     0.965657     0.958014     0.950371
      0.942727     0.935084     0.927441     0.919798     0.912155     0.904512     0.896869     0.889226     0.881583     0.873940
      0.866296     0.858653     0.851010     0.843367     0.835724     0.828081     0.820438     0.812795     0.805152     0.797508
      0.789865     0.782222     0.774579     0.766936     0.759293     0.751650     0.744007     0.736364     0.728721     0.721077
      0.713434     0.705791     0.698148     0.690505     0.682862     0.675219     0.667576     0.659933     0.652290     0.644646
      0.637003     0.629360     0.621717     0.614074     0.606431     0.598788     0.591145     0.583502     0.575858     0.568215
      0.560572     0.552929     0.545286     0.537643     0.530000     0.522357     0.514714     0.507071     0.499427     0.491784
      0.484141     0.476498     0.468855     0.461212     0.453569     0.445925     0.438282     0.430639     0.422996     0.415353
      0.407710     0.400067     0.392424     0.384780     0.377137     0.369494     0.361851     0.354208     0.346565     0.338922
      0.331278     0.323635     0.315992     0.308349     0.300706     0.293063     0.285420     0.277777     0.270133     0.262490
      0.254847     0.247204     0.239561     0.231918     0.224275     0.216631     0.208988     0.201345
 NY phased data points follow
  -8.30617E+01 -7.60673E+01 -7.50631E+01 -7.54266E+01 -6.45264E+01 -5.96128E+01 -5.56334E+01 -4.26064E+01 -3.34645E+01 -2.81469E+01
  -2.67859E+01 -2.93038E+01 -3.73150E+01 -4.45039E+01 -5.14325E+01 -5.28527E+01 -6.55836E+01 -7.09028E+01 -6.67285E+01 -7.27625E+01
  -7.28746E+01 -7.02612E+01 -6.50461E+01 -6.56654E+01 -6.39014E+01 -6.19671E+01 -6.18821E+01 -5.68265E+01 -5.65537E+01 -5.11235E+01
  -4.59989E+01 -5.08627E+01 -5.04967E+01 -5.27541E+01 -5.27989E+01 -5.31175E+01 -5.12681E+01 -5.07299E+01 -5.15786E+01 -5.29989E+01
  -4.95895E+01 -4.88096E+01 -4.55558E+01 -4.89373E+01 -4.46607E+01 -3.82511E+01 -3.82873E+01 -3.74980E+01 -4.09131E+01 -4.08234E+01
  -4.35438E+01 -4.64500E+01 -4.01008E+01 -4.64792E+01 -4.35850E+01 -4.39132E+01 -4.60542E+01 -4.22818E+01 -4.02142E+01 -4.00073E+01
  -4.53102E+01 -4.62318E+01 -4.43830E+01 -5.35700E+01 -5.04443E+01 -4.94835E+01 -4.60194E+01 -5.00486E+01 -4.59017E+01 -4.30873E+01
  -4.26872E+01 -4.29296E+01 -4.20948E+01 -4.03311E+01 -3.83205E+01 -4.08877E+01 -3.84944E+01 -4.23372E+01 -3.50075E+01 -3.56343E+01
  -3.60755E+01 -3.76919E+01 -3.41441E+01 -3.46918E+01 -3.66043E+01 -3.48995E+01 -2.98726E+01 -2.88812E+01 -2.88968E+01 -2.76663E+01
  -2.55883E+01 -2.82892E+01 -2.41614E+01 -2.45889E+01 -2.40890E+01 -2.00445E+01 -1.80309E+01 -1.62926E+01 -1.60758E+01 -3.21396E+00
   7.75944E+00  2.48187E+01  3.29900E+01  3.07346E+01  2.22651E+01  1.78584E+01  5.70094E+00 -1.01745E+00 -7.42961E+00 -1.16112E+01
  -1.91028E+01 -1.88017E+01 -2.32280E+01 -2.34793E+01 -2.38136E+01 -1.96069E+01 -2.40185E+01 -1.82487E+01 -1.35836E+01 -1.39221E+01
  -1.24312E+01 -1.48649E+01 -1.14959E+01  4.82637E-01  1.26703E+01  2.72574E+01  3.75204E+01  4.49614E+01  4.10361E+01  3.61462E+01
   2.15131E+01  1.52932E+01  4.03018E+00 -3.44120E+00 -1.01086E+01 -1.59786E+01 -1.84733E+01 -2.24236E+01 -2.00637E+01 -2.08318E+01
  -2.04414E+01 -1.72510E+01 -1.78585E+01 -1.99039E+01 -2.27439E+01 -2.00320E+01 -1.87217E+01 -2.00566E+01 -1.84582E+01 -1.95158E+01
  -1.67831E+01 -1.93196E+01 -1.87363E+01 -1.88305E+01 -1.81249E+01 -2.09839E+01 -2.15554E+01 -1.54775E+01 -1.93255E+01 -1.25583E+01
  -1.74833E+01 -2.01016E+01 -2.32084E+01 -1.91636E+01 -1.79279E+01 -1.57246E+01 -1.71448E+01 -1.68007E+01 -1.61235E+01 -1.78475E+01
  -1.91836E+01 -2.04755E+01 -2.23059E+01 -2.68256E+01 -2.78282E+01 -2.67355E+01 -2.64477E+01 -2.34123E+01 -2.17117E+01 -2.59477E+01
  -2.12525E+01 -2.37498E+01 -2.48998E+01 -2.31569E+01 -2.23465E+01 -2.26012E+01 -1.74152E+01 -1.79222E+01 -1.22837E+01 -9.12827E+00
  -5.19995E+00 -3.90451E+00 -2.31522E+00  1.51531E+00 -8.37411E-01 -1.33135E+00  1.38852E+00 -7.22862E+00 -5.94545E+00 -4.09577E+00
  -4.96208E+00 -4.13999E+00 -3.26009E+00 -3.63174E+00  3.70425E-01 -2.58658E+00 -4.41247E+00 -5.30906E+00 -1.23323E+01 -9.69237E+00
  -1.27414E+01 -9.61399E+00 -3.27062E+00 -2.67686E+00 -2.61366E+00  4.44627E+00  9.71195E+00  5.47300E+00  2.38287E+00  1.13931E+00
  -4.06878E+00 -9.26461E+00 -7.73249E+00 -7.85047E+00 -3.19545E+00 -1.79672E+00  2.98971E+00  5.89789E+00  6.36534E+00  7.39855E+00
   3.65480E+00  8.43456E+00  2.60001E+00  6.05698E+00  4.15785E+00  5.42569E+00  6.78783E+00  6.48567E+00  4.46950E+00  3.86077E+00
   2.85198E+00  3.87809E+00  3.51476E+00  2.26175E+00  4.46798E+00  6.30322E+00  1.34407E+01  1.31853E+01  1.33312E+01  1.50652E+01
   1.72671E+01  1.70305E+01  2.83050E+01  3.17197E+01  3.09471E+01  3.19627E+01  4.32304E+01  4.69449E+01  6.70073E+01  8.31455E+01
   8.89897E+01  8.91648E+01  7.97853E+01  6.61513E+01  5.23597E+01  4.04597E+01  2.84646E+01  1.84075E+01  1.67883E+01  1.59391E+01
   1.30115E+01  7.96775E+00  1.26975E+01  1.47801E+01  1.29383E+01  1.29099E+01  1.24853E+01  9.64370E+00  1.27491E+01  1.02400E+01
   8.95446E+00  9.20301E+00  8.56891E+00  3.83891E+00  9.05355E+00  5.82145E+00  6.01031E+00  3.66800E+00  9.06736E+00  8.42861E+00
   6.21049E+00  1.25585E+01  9.05639E+00  8.60875E+00  9.45694E+00  1.74181E+00  1.16583E+01  7.23470E+00  1.08557E+01  6.76629E+00
   7.23212E+00  3.58868E+00  6.55035E+00  3.28773E+00  9.70940E+00  5.68781E+00  8.05550E+00  8.99286E+00  8.94247E+00  9.67980E+00
   8.75704E+00  1.35367E+01  1.38859E+01  1.66043E+01  1.35523E+01  1.43253E+01  1.87075E+01  1.85663E+01  1.60259E+01  1.77031E+01
   1.47236E+01  1.41410E+01  1.21466E+01  1.54535E+01  1.20105E+01  1.07436E+01  8.75278E+00  9.68775E+00  9.96346E+00  7.68096E+00
   3.90520E+00  4.97020E+00  8.73698E+00  1.11003E+01  1.48854E+01  1.61178E+01  1.19163E+01  1.38398E+01  1.08335E+01  1.17048E+01
   1.09832E+01  1.41987E+01  8.28895E+00  1.50168E+01  1.12436E+01  1.42496E+01  1.17581E+01  1.12931E+01  1.31972E+01  1.00114E+01
   1.16407E+01  9.74143E+00  7.36053E+00  1.15618E+01  9.45047E+00  1.14297E+01  1.28816E+01  1.56982E+01  1.24694E+01  1.63852E+01
   1.45192E+01  1.56292E+01  1.38686E+01  1.52486E+01  1.67424E+01  1.40125E+01  1.40475E+01  1.31532E+01  1.40863E+01  1.48432E+01
   1.44826E+01  1.38984E+01  1.43995E+01  1.37527E+01  1.39747E+01  1.57748E+01  1.29674E+01  1.68467E+01  1.70643E+01  1.54891E+01
   1.30563E+01  1.13830E+01  1.17758E+01  1.61321E+01  1.22880E+01  1.70660E+01  1.41916E+01  1.72690E+01  1.51263E+01  1.59719E+01
   1.87393E+01  1.99024E+01  1.63077E+01  1.96480E+01  2.04356E+01  1.71896E+01  2.16387E+01  1.94321E+01  2.11605E+01  1.84564E+01
   2.04479E+01  1.94191E+01  2.24258E+01  2.20939E+01  2.42803E+01  2.30547E+01  2.13167E+01  2.54352E+01  2.51542E+01  2.51974E+01
   2.36815E+01  2.10563E+01  2.24240E+01  2.42111E+01  2.66068E+01  2.20027E+01  2.27010E+01  2.31254E+01  2.00637E+01  1.98304E+01
   1.60690E+01  1.88503E+01  2.00053E+01  1.82146E+01  1.83164E+01  1.86540E+01  1.67892E+01  2.11337E+01  1.52205E+01  2.00259E+01
   1.84416E+01  2.04880E+01  1.67043E+01  1.67129E+01  1.83576E+01  1.85298E+01  1.60922E+01  1.79037E+01  1.62618E+01  1.49889E+01
   1.65833E+01  1.78157E+01  1.58121E+01  1.95779E+01  1.46394E+01  1.72153E+01  1.86893E+01  1.76924E+01  2.07579E+01  1.83705E+01
   1.54289E+01  1.70187E+01  1.55901E+01  1.26318E+01  1.73370E+01  1.84266E+01  1.87347E+01  1.72979E+01  1.88799E+01  1.96036E+01
   1.84450E+01  1.81912E+01  1.87690E+01  2.05362E+01  1.61660E+01  1.73063E+01  1.70867E+01  1.66393E+01  1.47736E+01  1.89067E+01
   2.19661E+01  1.53670E+01  1.68847E+01  1.62210E+01  2.01889E+01  1.91031E+01  1.59178E+01  1.82078E+01  1.64252E+01  1.40585E+01
   1.99231E+01  1.72418E+01  1.79443E+01  1.77330E+01  1.68637E+01  1.46251E+01  1.50575E+01  1.81886E+01  1.95626E+01  1.50590E+01
   1.66275E+01  1.75701E+01  1.75123E+01  1.36842E+01  1.96710E+01  2.03744E+01  8.90570E+00  1.52593E+01
 NY points of the fit to the data follow
  -7.69137E+01 -7.51413E+01 -7.08085E+01 -6.81320E+01 -6.57246E+01 -6.06923E+01 -5.26341E+01 -4.24491E+01 -3.32144E+01 -2.81705E+01
  -2.83531E+01 -3.24767E+01 -3.86207E+01 -4.49930E+01 -5.05912E+01 -5.53005E+01 -5.96092E+01 -6.33918E+01 -6.50932E+01 -6.55394E+01
  -6.55552E+01 -6.54669E+01 -6.46870E+01 -6.32615E+01 -6.28635E+01 -6.25108E+01 -6.13857E+01 -5.91739E+01 -5.60216E+01 -5.26046E+01
  -4.96617E+01 -4.79641E+01 -4.74455E+01 -4.79426E+01 -4.92243E+01 -5.08275E+01 -5.26606E+01 -5.47740E+01 -5.60820E+01 -5.55437E+01
  -5.43397E+01 -5.33279E+01 -5.19045E+01 -4.93344E+01 -4.58039E+01 -4.22178E+01 -3.97347E+01 -3.91402E+01 -4.02772E+01 -4.25012E+01
  -4.50283E+01 -4.69254E+01 -4.80686E+01 -4.88796E+01 -4.93607E+01 -4.92546E+01 -4.82453E+01 -4.66732E+01 -4.51105E+01 -4.39091E+01
  -4.34029E+01 -4.36449E+01 -4.43010E+01 -4.49098E+01 -4.50260E+01 -4.47641E+01 -4.42650E+01 -4.35487E+01 -4.25203E+01 -4.12980E+01
  -4.02649E+01 -3.95099E+01 -3.89386E+01 -3.84747E+01 -3.80751E+01 -3.77239E+01 -3.75576E+01 -3.76508E+01 -3.79431E+01 -3.82340E+01
  -3.75735E+01 -3.65086E+01 -3.62240E+01 -3.57946E+01 -3.46132E+01 -3.25475E+01 -3.00869E+01 -2.82666E+01 -2.74918E+01 -2.76765E+01
  -2.84598E+01 -2.92503E+01 -2.96850E+01 -2.98129E+01 -2.88274E+01 -2.45520E+01 -2.06757E+01 -1.89964E+01 -1.43327E+01 -4.52391E+00
   9.35675E+00  2.34318E+01  3.21973E+01  3.29635E+01  2.71851E+01  1.77924E+01  7.47345E+00 -1.85935E+00 -9.63564E+00 -1.63918E+01
  -2.24814E+01 -2.61092E+01 -2.70819E+01 -2.72404E+01 -2.71130E+01 -2.68349E+01 -2.64535E+01 -2.58740E+01 -2.47689E+01 -2.12058E+01
  -1.43414E+01 -1.14474E+01 -8.87100E+00 -1.41909E+00  1.13464E+01  2.70585E+01  4.01239E+01  4.54088E+01  4.22252E+01  3.37726E+01
   2.32432E+01  1.31103E+01  4.46056E+00 -3.22199E+00 -1.07462E+01 -1.73262E+01 -2.04132E+01 -2.13180E+01 -2.12244E+01 -2.05404E+01
  -1.96561E+01 -1.88849E+01 -1.83201E+01 -1.79805E+01 -1.78809E+01 -1.79281E+01 -1.80439E+01 -1.82335E+01 -1.84223E+01 -1.85664E+01
  -1.86638E+01 -1.87014E+01 -1.87066E+01 -1.87543E+01 -1.88491E+01 -1.86939E+01 -1.83990E+01 -1.81530E+01 -1.80808E+01 -1.84343E+01
  -1.87951E+01 -1.87794E+01 -1.83866E+01 -1.78414E+01 -1.74256E+01 -1.73173E+01 -1.75017E+01 -1.78264E+01 -1.81623E+01 -1.84531E+01
  -1.85251E+01 -1.84485E+01 -1.85986E+01 -1.89796E+01 -1.93878E+01 -1.94210E+01 -1.90202E+01 -1.84467E+01 -1.80418E+01 -1.78740E+01
  -1.78239E+01 -1.74542E+01 -1.68678E+01 -1.63118E+01 -1.58152E+01 -1.53363E+01 -1.46315E+01 -1.33598E+01 -1.15355E+01 -9.60040E+00
  -8.09401E+00 -7.31317E+00 -6.93965E+00 -6.98617E+00 -7.36945E+00 -7.91696E+00 -8.38243E+00 -8.39476E+00 -7.92954E+00 -7.00790E+00
  -5.81760E+00 -4.37417E+00 -3.12398E+00 -2.41566E+00 -1.97327E+00 -2.33903E+00 -3.67277E+00 -5.33081E+00 -6.83046E+00 -7.54990E+00
  -8.02931E+00 -7.78555E+00 -6.22900E+00 -3.53930E+00 -5.65802E-01  1.49329E+00  2.29456E+00  2.07712E+00  5.73295E-01 -2.31001E+00
  -5.40970E+00 -7.76626E+00 -8.69128E+00 -7.95541E+00 -6.10555E+00 -3.33550E+00 -3.24570E-01  2.08727E+00  3.57362E+00  4.38140E+00
   4.96032E+00  5.13834E+00  5.00641E+00  5.12959E+00  5.78314E+00  6.59665E+00  7.33710E+00  7.97937E+00  8.26788E+00  8.00267E+00
   7.22588E+00  6.44202E+00  6.10969E+00  6.49523E+00  7.49509E+00  8.81374E+00  1.03049E+01  1.16244E+01  1.27317E+01  1.38719E+01
   1.47067E+01  1.56875E+01  1.87792E+01  2.70113E+01  3.34253E+01  3.62166E+01  4.19674E+01  5.30107E+01  6.81272E+01  8.25672E+01
   9.01786E+01  8.83877E+01  7.93831E+01  6.65939E+01  5.32367E+01  4.16387E+01  3.21312E+01  2.36856E+01  1.59140E+01  1.14235E+01
   9.93329E+00  9.29006E+00  8.99378E+00  8.90096E+00  8.84921E+00  8.75829E+00  8.62943E+00  8.45151E+00  8.23552E+00  8.01626E+00
   7.81720E+00  7.64072E+00  7.50426E+00  7.41782E+00  7.36761E+00  7.33940E+00  7.31358E+00  7.29043E+00  7.28325E+00  7.29511E+00
   7.32686E+00  7.38413E+00  7.46579E+00  7.57327E+00  7.69925E+00  7.83908E+00  7.99424E+00  8.16485E+00  8.35616E+00  8.57417E+00
   8.82045E+00  9.09695E+00  9.40103E+00  9.72685E+00  1.00683E+01  1.04199E+01  1.07761E+01  1.11304E+01  1.14742E+01  1.18015E+01
   1.21063E+01  1.23817E+01  1.26226E+01  1.28249E+01  1.29865E+01  1.31081E+01  1.31937E+01  1.32530E+01  1.33087E+01  1.34144E+01
   1.34879E+01  1.32902E+01  1.31688E+01  1.32265E+01  1.32881E+01  1.31390E+01  1.25641E+01  1.16401E+01  1.07965E+01  9.93385E+00
   9.10918E+00  8.60614E+00  8.57279E+00  9.04784E+00  9.87744E+00  1.08225E+01  1.16917E+01  1.22848E+01  1.26179E+01  1.28360E+01
   1.30957E+01  1.31778E+01  1.30156E+01  1.30021E+01  1.32369E+01  1.34927E+01  1.34401E+01  1.28961E+01  1.22065E+01  1.14402E+01
   1.05808E+01  9.97595E+00  9.87553E+00  1.03570E+01  1.12905E+01  1.23661E+01  1.33742E+01  1.41533E+01  1.45737E+01  1.47320E+01
   1.47568E+01  1.47247E+01  1.46349E+01  1.44436E+01  1.42787E+01  1.42194E+01  1.42082E+01  1.42176E+01  1.42368E+01  1.42608E+01
   1.42876E+01  1.43165E+01  1.43478E+01  1.43822E+01  1.44208E+01  1.44649E+01  1.45164E+01  1.45769E+01  1.46486E+01  1.47330E+01
   1.48323E+01  1.49483E+01  1.50833E+01  1.52393E+01  1.54185E+01  1.56229E+01  1.58542E+01  1.61146E+01  1.64055E+01  1.67282E+01
   1.70833E+01  1.74708E+01  1.78896E+01  1.83380E+01  1.88130E+01  1.93102E+01  1.98237E+01  2.03464E+01  2.08701E+01  2.13854E+01
   2.18822E+01  2.23497E+01  2.27771E+01  2.31542E+01  2.34717E+01  2.37214E+01  2.38974E+01  2.39953E+01  2.40134E+01  2.39524E+01
   2.38155E+01  2.36080E+01  2.33374E+01  2.30123E+01  2.26427E+01  2.22394E+01  2.18133E+01  2.13747E+01  2.09335E+01  2.04983E+01
   2.00767E+01  1.96748E+01  1.92975E+01  1.89482E+01  1.86287E+01  1.83399E+01  1.80820E+01  1.78539E+01  1.76545E+01  1.74817E+01
   1.73333E+01  1.72072E+01  1.71010E+01  1.70127E+01  1.69400E+01  1.68809E+01  1.68337E+01  1.67968E+01  1.67687E+01  1.67483E+01
   1.67345E+01  1.67262E+01  1.67226E+01  1.67231E+01  1.67272E+01  1.67342E+01  1.67437E+01  1.67553E+01  1.67687E+01  1.67836E+01
   1.67998E+01  1.68171E+01  1.68352E+01  1.68539E+01  1.68732E+01  1.68930E+01  1.69132E+01  1.69338E+01  1.69544E+01  1.69753E+01
   1.69962E+01  1.70173E+01  1.70384E+01  1.70595E+01  1.70806E+01  1.71016E+01  1.71226E+01  1.71435E+01  1.71644E+01  1.71851E+01
   1.72057E+01  1.72262E+01  1.72466E+01  1.72669E+01  1.72872E+01  1.73072E+01  1.73272E+01  1.73470E+01  1.73669E+01  1.73867E+01
   1.74063E+01  1.74258E+01  1.74453E+01  1.74648E+01  1.74844E+01  1.75038E+01  1.75232E+01  1.75426E+01  1.75621E+01  1.75817E+01
   1.76014E+01  1.76211E+01  1.76409E+01  1.76608E+01  1.76809E+01  1.77013E+01  1.77219E+01  1.77426E+01
 NY background values follow
    -8.335E+01   -8.282E+01   -8.228E+01   -8.174E+01   -8.121E+01   -8.067E+01   -8.014E+01   -7.960E+01   -7.906E+01   -7.853E+01
    -7.799E+01   -7.746E+01   -7.692E+01   -7.639E+01   -7.585E+01   -7.532E+01   -7.478E+01   -7.425E+01   -7.372E+01   -7.318E+01
    -7.265E+01   -7.212E+01   -7.159E+01   -7.106E+01   -7.053E+01   -7.000E+01   -6.947E+01   -6.894E+01   -6.842E+01   -6.789E+01
    -6.737E+01   -6.685E+01   -6.632E+01   -6.580E+01   -6.528E+01   -6.476E+01   -6.425E+01   -6.373E+01   -6.322E+01   -6.270E+01
    -6.219E+01   -6.168E+01   -6.117E+01   -6.066E+01   -6.016E+01   -5.965E+01   -5.915E+01   -5.865E+01   -5.815E+01   -5.765E+01
    -5.716E+01   -5.666E+01   -5.617E+01   -5.568E+01   -5.519E+01   -5.470E+01   -5.422E+01   -5.374E+01   -5.326E+01   -5.278E+01
    -5.230E+01   -5.183E+01   -5.136E+01   -5.089E+01   -5.042E+01   -4.995E+01   -4.949E+01   -4.903E+01   -4.857E+01   -4.812E+01
    -4.766E+01   -4.721E+01   -4.676E+01   -4.632E+01   -4.587E+01   -4.543E+01   -4.499E+01   -4.456E+01   -4.412E+01   -4.369E+01
    -4.327E+01   -4.284E+01   -4.242E+01   -4.200E+01   -4.158E+01   -4.117E+01   -4.076E+01   -4.035E+01   -3.995E+01   -3.955E+01
    -3.915E+01   -3.875E+01   -3.836E+01   -3.797E+01   -3.758E+01   -3.720E+01   -3.682E+01   -3.644E+01   -3.607E+01   -3.570E+01
    -3.533E+01   -3.496E+01   -3.460E+01   -3.424E+01   -3.389E+01   -3.353E+01   -3.318E+01   -3.283E+01   -3.249E+01   -3.214E+01
    -3.180E+01   -3.147E+01   -3.113E+01   -3.080E+01   -3.047E+01   -3.015E+01   -2.982E+01   -2.950E+01   -2.918E+01   -2.887E+01
    -2.855E+01   -2.824E+01   -2.794E+01   -2.763E+01   -2.733E+01   -2.703E+01   -2.673E+01   -2.643E+01   -2.614E+01   -2.585E+01
    -2.556E+01   -2.528E+01   -2.499E+01   -2.471E+01   -2.443E+01   -2.415E+01   -2.388E+01   -2.361E+01   -2.334E+01   -2.307E+01
    -2.281E+01   -2.254E+01   -2.228E+01   -2.202E+01   -2.176E+01   -2.151E+01   -2.125E+01   -2.100E+01   -2.075E+01   -2.050E+01
    -2.026E+01   -2.001E+01   -1.977E+01   -1.952E+01   -1.928E+01   -1.904E+01   -1.881E+01   -1.857E+01   -1.833E+01   -1.810E+01
    -1.787E+01   -1.763E+01   -1.740E+01   -1.717E+01   -1.694E+01   -1.671E+01   -1.649E+01   -1.626E+01   -1.603E+01   -1.581E+01
    -1.558E+01   -1.536E+01   -1.513E+01   -1.491E+01   -1.469E+01   -1.447E+01   -1.424E+01   -1.402E+01   -1.380E+01   -1.358E+01
    -1.336E+01   -1.314E+01   -1.292E+01   -1.270E+01   -1.248E+01   -1.226E+01   -1.204E+01   -1.182E+01   -1.160E+01   -1.138E+01
    -1.116E+01   -1.094E+01   -1.072E+01   -1.050E+01   -1.029E+01   -1.007E+01   -9.853E+00   -9.637E+00   -9.422E+00   -9.207E+00
    -8.993E+00   -8.780E+00   -8.567E+00   -8.355E+00   -8.144E+00   -7.934E+00   -7.724E+00   -7.516E+00   -7.308E+00   -7.101E+00
    -6.895E+00   -6.690E+00   -6.487E+00   -6.284E+00   -6.082E+00   -5.881E+00   -5.682E+00   -5.484E+00   -5.286E+00   -5.091E+00
    -4.896E+00   -4.703E+00   -4.511E+00   -4.320E+00   -4.131E+00   -3.943E+00   -3.757E+00   -3.572E+00   -3.388E+00   -3.207E+00
    -3.026E+00   -2.847E+00   -2.670E+00   -2.493E+00   -2.319E+00   -2.146E+00   -1.974E+00   -1.804E+00   -1.635E+00   -1.467E+00
    -1.301E+00   -1.137E+00   -9.733E-01   -8.114E-01   -6.510E-01   -4.920E-01   -3.343E-01   -1.780E-01   -2.315E-02    1.304E-01
     2.825E-01    4.333E-01    5.828E-01    7.308E-01    8.776E-01    1.023E+00    1.167E+00    1.310E+00    1.451E+00    1.591E+00
     1.730E+00    1.867E+00    2.004E+00    2.138E+00    2.272E+00    2.404E+00    2.535E+00    2.665E+00    2.793E+00    2.920E+00
     3.046E+00    3.171E+00    3.294E+00    3.416E+00    3.537E+00    3.657E+00    3.775E+00    3.892E+00    4.009E+00    4.124E+00
     4.237E+00    4.350E+00    4.462E+00    4.572E+00    4.682E+00    4.790E+00    4.898E+00    5.004E+00    5.110E+00    5.214E+00
     5.318E+00    5.420E+00    5.522E+00    5.623E+00    5.723E+00    5.822E+00    5.920E+00    6.017E+00    6.114E+00    6.209E+00
     6.304E+00    6.399E+00    6.492E+00    6.585E+00    6.676E+00    6.768E+00    6.858E+00    6.948E+00    7.037E+00    7.126E+00
     7.214E+00    7.301E+00    7.388E+00    7.474E+00    7.560E+00    7.645E+00    7.729E+00    7.813E+00    7.897E+00    7.980E+00
     8.063E+00    8.145E+00    8.227E+00    8.308E+00    8.389E+00    8.469E+00    8.549E+00    8.628E+00    8.708E+00    8.786E+00
     8.865E+00    8.943E+00    9.020E+00    9.097E+00    9.174E+00    9.251E+00    9.327E+00    9.403E+00    9.478E+00    9.554E+00
     9.629E+00    9.703E+00    9.777E+00    9.852E+00    9.925E+00    9.999E+00    1.007E+01    1.015E+01    1.022E+01    1.029E+01
     1.036E+01    1.043E+01    1.051E+01    1.058E+01    1.065E+01    1.072E+01    1.079E+01    1.086E+01    1.093E+01    1.101E+01
     1.108E+01    1.115E+01    1.122E+01    1.129E+01    1.136E+01    1.143E+01    1.150E+01    1.157E+01    1.164E+01    1.171E+01
     1.178E+01    1.184E+01    1.191E+01    1.198E+01    1.205E+01    1.212E+01    1.219E+01    1.226E+01    1.233E+01    1.239E+01
     1.246E+01    1.253E+01    1.260E+01    1.266E+01    1.273E+01    1.280E+01    1.286E+01    1.293E+01    1.300E+01    1.306E+01
     1.313E+01    1.319E+01    1.326E+01    1.332E+01    1.339E+01    1.345E+01    1.352E+01    1.358E+01    1.364E+01    1.371E+01
     1.377E+01    1.383E+01    1.390E+01    1.396E+01    1.402E+01    1.408E+01    1.415E+01    1.421E+01    1.427E+01    1.433E+01
     1.439E+01    1.445E+01    1.451E+01    1.457E+01    1.463E+01    1.469E+01    1.475E+01    1.480E+01    1.486E+01    1.492E+01
     1.498E+01    1.503E+01    1.509E+01    1.514E+01    1.520E+01    1.525E+01    1.531E+01    1.536E+01    1.541E+01    1.547E+01
     1.552E+01    1.557E+01    1.562E+01    1.567E+01    1.572E+01    1.577E+01    1.582E+01    1.587E+01    1.592E+01    1.596E+01
     1.601E+01    1.605E+01    1.610E+01    1.614E+01    1.619E+01    1.623E+01    1.627E+01    1.632E+01    1.636E+01    1.640E+01
     1.644E+01    1.647E+01    1.651E+01    1.655E+01    1.659E+01    1.662E+01    1.666E+01    1.669E+01    1.673E+01    1.676E+01
     1.679E+01    1.682E+01    1.685E+01    1.689E+01    1.692E+01    1.695E+01    1.697E+01    1.700E+01    1.703E+01    1.706E+01
     1.709E+01    1.711E+01    1.714E+01    1.716E+01    1.719E+01    1.722E+01    1.724E+01    1.726E+01    1.729E+01    1.731E+01
     1.734E+01    1.736E+01    1.738E+01    1.740E+01    1.743E+01    1.745E+01    1.747E+01    1.749E+01    1.752E+01    1.754E+01
     1.756E+01    1.758E+01    1.760E+01    1.762E+01    1.764E+01    1.767E+01    1.769E+01    1.771E+01
 Ala      Conc. = 2.01E+02
