 LCModel (Version 6.3-1L) Copyright: S.W. Provencher.          Ref.: Magn. Reson. Med. 30:672-679 (1993).                
 Slice#2 Row#13 Col#1  K_02_press_1_raw_act
 36 lines in following concentration table = NCONC+1
    Conc.  %SD /Cr+PCr  Metabolite                                         
 1.21E+03  54%   2.497 Ala                                                 
   37.936  29% 7.8E-02 Asp                                                 
    0.000 999%   0.000 Cr                                                  
  485.793 176%   1.000 PCr                                                 
   21.740  31% 4.5E-02 GABA                                                
   22.290  30% 4.6E-02 Glc                                                 
    0.000 999%   0.000 Gln                                                 
 3.69E+03  24%   7.590 Glu                                                 
    0.000 999%   0.000 GPC                                                 
   84.701  41%   0.174 PCh                                                 
    0.000 999%   0.000 GSH                                                 
  635.469  70%   1.308 Ins                                                 
    0.000 999%   0.000 Lac                                                 
    0.000 999%   0.000 NAA                                                 
    0.000 999%   0.000 NAAG                                                
    7.482  30% 1.5E-02 Scyllo                                              
   37.367  30% 7.7E-02 Tau                                                 
   51.151  30%   0.105 -CrCH2                                              
   84.701  41%   0.174 GPC+PCh                                             
    0.000 999%   0.000 NAA+NAAG                                            
  485.793  17%   1.000 Cr+PCr                                              
 3.69E+03  24%   7.590 Glu+Gln                                             
 1.90E+03  32%   3.917 Lip13a                                              
    0.000 999%   0.000 Lip13b                                              
  618.971  48%   1.274 Lip09                                               
  357.729  51%   0.736 MM09                                                
    0.000 999%   0.000 Lip20                                               
    0.000 999%   0.000 MM20                                                
  143.575  77%   0.296 MM12                                                
 1.03E+03  28%   2.130 MM14                                                
  754.307  28%   1.553 MM17                                                
 1.90E+03  32%   3.917 Lip13a+Lip13b                                       
 3.08E+03  22%   6.343 MM14+Lip13a+Lip13b+MM12                             
  976.701  28%   2.011 MM09+Lip09                                          
    0.000 999%   0.000 MM20+Lip20                                          
   6 lines in following misc. output table
  FWHM = 0.168 ppm    S/N =   2                                            
  Data shift =-0.161 ppm                                                   
  Ph:  25 deg      25.9 deg/ppm                                            
  alphaB,S = 1.2E+00,   2.0E+02                                            
    9 spline knots.   Ns = 9(2)                                            
  (15) 2 infls.   (12) 1 extrs.                                            
  498 points on ppm-axis = NY
      4.000000     3.992357     3.984714     3.977070     3.969427     3.961784     3.954141     3.946497     3.938854     3.931211
      3.923568     3.915925     3.908281     3.900638     3.892995     3.885352     3.877708     3.870065     3.862422     3.854779
      3.847136     3.839492     3.831849     3.824206     3.816563     3.808919     3.801276     3.793633     3.785990     3.778347
      3.770703     3.763060     3.755417     3.747774     3.740130     3.732487     3.724844     3.717201     3.709558     3.701914
      3.694271     3.686628     3.678985     3.671341     3.663698     3.656055     3.648412     3.640769     3.633125     3.625482
      3.617839     3.610196     3.602552     3.594909     3.587266     3.579623     3.571980     3.564336     3.556693     3.549050
      3.541407     3.533763     3.526120     3.518477     3.510834     3.503191     3.495547     3.487904     3.480261     3.472618
      3.464974     3.457331     3.449688     3.442045     3.434402     3.426758     3.419115     3.411472     3.403829     3.396185
      3.388542     3.380899     3.373256     3.365613     3.357969     3.350326     3.342683     3.335040     3.327396     3.319753
      3.312110     3.304467     3.296824     3.289180     3.281537     3.273894     3.266251     3.258607     3.250964     3.243321
      3.235678     3.228034     3.220391     3.212748     3.205105     3.197462     3.189818     3.182175     3.174532     3.166889
      3.159245     3.151602     3.143959     3.136316     3.128673     3.121029     3.113386     3.105743     3.098100     3.090456
      3.082813     3.075170     3.067527     3.059884     3.052240     3.044597     3.036954     3.029311     3.021667     3.014024
      3.006381     2.998738     2.991095     2.983451     2.975808     2.968165     2.960522     2.952878     2.945235     2.937592
      2.929949     2.922306     2.914662     2.907019     2.899376     2.891733     2.884089     2.876446     2.868803     2.861160
      2.853517     2.845873     2.838230     2.830587     2.822944     2.815300     2.807657     2.800014     2.792371     2.784728
      2.777084     2.769441     2.761798     2.754155     2.746511     2.738868     2.731225     2.723582     2.715939     2.708295
      2.700652     2.693009     2.685366     2.677722     2.670079     2.662436     2.654793     2.647150     2.639506     2.631863
      2.624220     2.616577     2.608933     2.601290     2.593647     2.586004     2.578361     2.570717     2.563074     2.555431
      2.547788     2.540144     2.532501     2.524858     2.517215     2.509572     2.501928     2.494285     2.486642     2.478999
      2.471355     2.463712     2.456069     2.448426     2.440783     2.433139     2.425496     2.417853     2.410210     2.402566
      2.394923     2.387280     2.379637     2.371994     2.364350     2.356707     2.349064     2.341421     2.333777     2.326134
      2.318491     2.310848     2.303205     2.295561     2.287918     2.280275     2.272632     2.264988     2.257345     2.249702
      2.242059     2.234416     2.226772     2.219129     2.211486     2.203843     2.196199     2.188556     2.180913     2.173270
      2.165627     2.157983     2.150340     2.142697     2.135054     2.127410     2.119767     2.112124     2.104481     2.096838
      2.089194     2.081551     2.073908     2.066265     2.058621     2.050978     2.043335     2.035692     2.028049     2.020405
      2.012762     2.005119     1.997476     1.989833     1.982190     1.974546     1.966903     1.959260     1.951617     1.943974
      1.936331     1.928688     1.921045     1.913402     1.905759     1.898115     1.890472     1.882829     1.875186     1.867543
      1.859900     1.852257     1.844614     1.836971     1.829327     1.821684     1.814041     1.806398     1.798755     1.791112
      1.783469     1.775826     1.768183     1.760540     1.752896     1.745253     1.737610     1.729967     1.722324     1.714681
      1.707038     1.699395     1.691752     1.684108     1.676465     1.668822     1.661179     1.653536     1.645893     1.638250
      1.630607     1.622964     1.615321     1.607677     1.600034     1.592391     1.584748     1.577105     1.569462     1.561819
      1.554176     1.546533     1.538890     1.531246     1.523603     1.515960     1.508317     1.500674     1.493031     1.485388
      1.477745     1.470102     1.462458     1.454815     1.447172     1.439529     1.431886     1.424243     1.416600     1.408957
      1.401314     1.393671     1.386027     1.378384     1.370741     1.363098     1.355455     1.347812     1.340169     1.332526
      1.324883     1.317240     1.309596     1.301953     1.294310     1.286667     1.279024     1.271381     1.263738     1.256095
      1.248452     1.240808     1.233165     1.225522     1.217879     1.210236     1.202593     1.194950     1.187307     1.179664
      1.172021     1.164377     1.156734     1.149091     1.141448     1.133805     1.126162     1.118519     1.110876     1.103233
      1.095590     1.087946     1.080303     1.072660     1.065017     1.057374     1.049731     1.042088     1.034445     1.026802
      1.019158     1.011515     1.003872     0.996229     0.988586     0.980943     0.973300     0.965657     0.958014     0.950371
      0.942727     0.935084     0.927441     0.919798     0.912155     0.904512     0.896869     0.889226     0.881583     0.873940
      0.866296     0.858653     0.851010     0.843367     0.835724     0.828081     0.820438     0.812795     0.805152     0.797508
      0.789865     0.782222     0.774579     0.766936     0.759293     0.751650     0.744007     0.736364     0.728721     0.721077
      0.713434     0.705791     0.698148     0.690505     0.682862     0.675219     0.667576     0.659933     0.652290     0.644646
      0.637003     0.629360     0.621717     0.614074     0.606431     0.598788     0.591145     0.583502     0.575858     0.568215
      0.560572     0.552929     0.545286     0.537643     0.530000     0.522357     0.514714     0.507071     0.499427     0.491784
      0.484141     0.476498     0.468855     0.461212     0.453569     0.445925     0.438282     0.430639     0.422996     0.415353
      0.407710     0.400067     0.392424     0.384780     0.377137     0.369494     0.361851     0.354208     0.346565     0.338922
      0.331278     0.323635     0.315992     0.308349     0.300706     0.293063     0.285420     0.277777     0.270133     0.262490
      0.254847     0.247204     0.239561     0.231918     0.224275     0.216631     0.208988     0.201345
 NY phased data points follow
  -4.26522E+01 -4.40162E+01 -4.42412E+01 -4.33219E+01 -4.18976E+01 -4.16317E+01 -4.13259E+01 -4.15050E+01 -4.17914E+01 -4.23113E+01
  -4.26971E+01 -4.23159E+01 -4.14684E+01 -3.80191E+01 -3.88130E+01 -3.95849E+01 -3.93858E+01 -3.76383E+01 -3.87415E+01 -3.68335E+01
  -3.85615E+01 -3.74511E+01 -3.86356E+01 -3.71913E+01 -3.68786E+01 -3.78072E+01 -3.52943E+01 -3.51207E+01 -3.52932E+01 -3.55012E+01
  -3.32995E+01 -3.41715E+01 -3.28980E+01 -3.43748E+01 -3.18504E+01 -3.27474E+01 -3.12921E+01 -3.36855E+01 -3.36438E+01 -3.38737E+01
  -3.25589E+01 -3.32643E+01 -2.86548E+01 -2.93834E+01 -3.08130E+01 -3.12666E+01 -2.88076E+01 -2.99182E+01 -2.85593E+01 -2.75729E+01
  -2.95394E+01 -2.88674E+01 -2.86000E+01 -2.91590E+01 -2.76535E+01 -2.99692E+01 -2.71898E+01 -2.62545E+01 -2.82097E+01 -2.54973E+01
  -2.53247E+01 -2.53753E+01 -2.69871E+01 -2.37790E+01 -2.57963E+01 -2.38083E+01 -2.53721E+01 -2.53797E+01 -2.57304E+01 -2.30959E+01
  -2.23646E+01 -2.45815E+01 -2.29392E+01 -2.50932E+01 -2.34003E+01 -2.51791E+01 -2.31577E+01 -2.26197E+01 -2.04259E+01 -2.24803E+01
  -2.05798E+01 -2.25872E+01 -2.02761E+01 -2.06010E+01 -1.99219E+01 -2.13309E+01 -2.05556E+01 -2.23652E+01 -1.93059E+01 -1.87599E+01
  -1.77772E+01 -1.89233E+01 -1.83857E+01 -1.83946E+01 -1.63602E+01 -1.68708E+01 -1.65164E+01 -1.78514E+01 -1.63570E+01 -1.86544E+01
  -1.59031E+01 -1.68820E+01 -1.54784E+01 -1.41950E+01 -1.40354E+01 -1.61749E+01 -1.44310E+01 -1.43879E+01 -1.32661E+01 -1.36800E+01
  -1.18520E+01 -1.37025E+01 -1.20386E+01 -8.77533E+00 -1.12511E+01 -9.89125E+00 -1.02822E+01 -1.03665E+01 -9.16570E+00 -8.72319E+00
  -9.55466E+00 -6.14133E+00 -7.15101E+00 -7.45291E+00 -7.46429E+00 -6.64533E+00 -7.36760E+00 -6.81750E+00 -8.13624E+00 -8.97993E+00
  -8.98892E+00 -7.35686E+00 -7.24985E+00 -8.68369E+00 -9.21560E+00 -1.01384E+01 -1.16605E+01 -1.02168E+01 -1.07642E+01 -1.35881E+01
  -1.16792E+01 -1.32918E+01 -1.10402E+01 -1.43461E+01 -1.53392E+01 -1.64416E+01 -1.56650E+01 -1.53745E+01 -1.51935E+01 -1.49779E+01
  -1.44315E+01 -1.54839E+01 -1.51450E+01 -1.64266E+01 -1.51418E+01 -1.61084E+01 -1.73960E+01 -1.71818E+01 -1.37016E+01 -1.53764E+01
  -1.62066E+01 -1.54230E+01 -1.33351E+01 -1.42345E+01 -1.10562E+01 -1.39460E+01 -1.32724E+01 -1.19357E+01 -1.12069E+01 -1.25075E+01
  -1.21813E+01 -1.34363E+01 -9.67647E+00 -1.15747E+01 -1.08611E+01 -1.04896E+01 -1.00432E+01 -9.48589E+00 -8.82774E+00 -7.65767E+00
  -6.43514E+00 -6.31759E+00 -8.08879E+00 -5.93020E+00 -5.47058E+00 -5.02650E+00 -4.23052E+00 -4.14892E+00 -4.24233E+00 -3.40689E+00
  -2.61293E+00 -2.89890E+00 -3.27091E+00 -1.91448E+00 -3.63115E+00 -3.58878E+00 -5.89565E+00 -3.79343E+00 -5.93858E+00 -7.37738E+00
  -6.13670E+00 -7.78896E+00 -9.27676E+00 -9.71018E+00 -1.18333E+01 -1.08114E+01 -1.10243E+01 -1.47443E+01 -1.69401E+01 -1.59353E+01
  -1.67075E+01 -1.96701E+01 -1.89276E+01 -2.00148E+01 -1.96340E+01 -2.15770E+01 -1.94881E+01 -1.99293E+01 -2.25846E+01 -2.29644E+01
  -2.11763E+01 -2.32358E+01 -2.24422E+01 -2.40867E+01 -2.20857E+01 -2.19682E+01 -2.41049E+01 -2.31611E+01 -2.27564E+01 -2.42475E+01
  -2.48433E+01 -2.15483E+01 -2.37249E+01 -2.17039E+01 -2.43444E+01 -2.27845E+01 -2.22186E+01 -2.45296E+01 -2.49837E+01 -2.46841E+01
  -2.29454E+01 -2.31265E+01 -2.49762E+01 -2.65586E+01 -2.52464E+01 -2.44188E+01 -2.46059E+01 -2.68407E+01 -2.30280E+01 -2.40614E+01
  -2.73957E+01 -2.63464E+01 -2.84078E+01 -2.84183E+01 -2.57457E+01 -2.58065E+01 -2.74839E+01 -2.72725E+01 -2.48926E+01 -2.80913E+01
  -2.55785E+01 -2.62915E+01 -2.83448E+01 -2.53756E+01 -2.62840E+01 -2.84426E+01 -2.48050E+01 -2.71776E+01 -2.51654E+01 -2.73263E+01
  -2.56501E+01 -2.32179E+01 -2.34012E+01 -2.52682E+01 -2.28594E+01 -2.39381E+01 -2.45009E+01 -2.25199E+01 -1.67046E+01 -2.13060E+01
  -1.95691E+01 -1.92677E+01 -1.90648E+01 -1.86339E+01 -1.93505E+01 -1.96520E+01 -2.06639E+01 -2.19911E+01 -2.10106E+01 -2.03375E+01
  -1.67281E+01 -1.88312E+01 -1.74019E+01 -1.76843E+01 -1.92669E+01 -1.88175E+01 -1.62758E+01 -1.73655E+01 -1.74375E+01 -1.63984E+01
  -1.61740E+01 -1.63595E+01 -1.77421E+01 -1.64723E+01 -1.71584E+01 -1.64853E+01 -1.58631E+01 -1.67755E+01 -1.66087E+01 -1.39000E+01
  -1.45211E+01 -1.56896E+01 -1.53948E+01 -1.33293E+01 -1.51867E+01 -1.31934E+01 -1.41641E+01 -1.48097E+01 -1.28825E+01 -1.61319E+01
  -1.45079E+01 -1.43054E+01 -1.11787E+01 -1.32668E+01 -1.42283E+01 -1.03397E+01 -1.52718E+01 -1.17065E+01 -1.28288E+01 -1.30453E+01
  -1.68247E+01 -1.27327E+01 -1.43848E+01 -1.47713E+01 -1.44732E+01 -1.28531E+01 -1.48935E+01 -1.49585E+01 -1.42071E+01 -1.55533E+01
  -1.30678E+01 -1.60593E+01 -1.09717E+01 -1.46801E+01 -1.18473E+01 -1.21750E+01 -1.38084E+01 -1.42900E+01 -1.31725E+01 -1.38690E+01
  -1.21335E+01 -1.29802E+01 -1.31112E+01 -1.41280E+01 -1.34760E+01 -1.19329E+01 -1.30802E+01 -1.20896E+01 -1.35275E+01 -1.26856E+01
  -1.05404E+01 -1.02983E+01 -1.01437E+01 -1.16530E+01 -9.75510E+00 -9.79447E+00 -9.79052E+00 -8.45448E+00 -9.83061E+00 -1.12577E+01
  -1.30256E+01 -9.81056E+00 -9.41753E+00 -7.49280E+00 -7.35991E+00 -8.47159E+00 -9.50397E+00 -7.40619E+00 -9.44643E+00 -9.98314E+00
  -1.08463E+01 -1.04205E+01 -9.73722E+00 -9.82914E+00 -9.21250E+00 -9.45314E+00 -8.42481E+00 -9.64854E+00 -9.19525E+00 -7.99850E+00
  -1.12287E+01 -1.01422E+01 -7.87291E+00 -8.80842E+00 -7.68463E+00 -6.57270E+00 -8.35370E+00 -5.99389E+00 -7.76593E+00 -7.46417E+00
  -7.35505E+00 -8.39302E+00 -6.83291E+00 -6.50262E+00 -6.12171E+00 -6.23571E+00 -5.58108E+00 -8.03930E+00 -7.39153E+00 -7.76702E+00
  -6.47363E+00 -5.04762E+00 -9.62456E+00 -5.33036E+00 -6.82594E+00 -6.55897E+00 -4.89020E+00 -6.15645E+00 -7.78964E+00 -8.10328E+00
  -5.48382E+00 -7.91566E+00 -6.31512E+00 -6.88065E+00 -7.18627E+00 -8.51490E+00 -5.97434E+00 -7.36811E+00 -5.70149E+00 -7.52679E+00
  -6.92157E+00 -6.97547E+00 -4.75864E+00 -5.39887E+00 -6.63557E+00 -6.42883E+00 -6.66464E+00 -6.09497E+00 -5.01167E+00 -5.44114E+00
  -7.45761E+00 -5.23701E+00 -6.21188E+00 -5.17096E+00 -7.11008E+00 -5.00316E+00 -6.59093E+00 -5.37922E+00 -4.74066E+00 -4.23471E+00
  -5.47895E+00 -5.05626E+00 -4.44956E+00 -7.13264E+00 -4.75189E+00 -7.03012E+00 -4.61325E+00 -3.84209E+00 -6.71926E+00 -3.91349E+00
  -3.05741E+00 -3.56562E+00 -5.65767E+00 -5.78263E+00 -3.61113E+00 -4.46721E+00 -3.98381E+00 -5.45666E+00 -5.79609E+00 -5.37957E+00
  -5.65117E+00 -4.50200E+00 -3.15953E+00 -5.04231E+00 -5.40285E+00 -5.89510E+00 -4.48369E+00 -5.46629E+00 -2.32497E+00 -4.46036E+00
  -5.49208E+00 -2.60666E+00 -3.85618E+00 -6.28518E+00 -3.73475E+00 -2.89173E+00 -4.59893E+00 -2.78541E+00 -4.61604E+00 -4.19517E+00
  -3.73576E+00 -4.70226E+00 -4.84291E+00 -2.41451E+00 -4.62987E+00 -4.81965E+00 -3.37730E+00 -4.29831E+00
 NY points of the fit to the data follow
  -4.34008E+01 -4.26065E+01 -4.26762E+01 -4.18775E+01 -4.19794E+01 -4.11349E+01 -4.11726E+01 -4.02086E+01 -4.02301E+01 -3.93645E+01
  -3.96511E+01 -3.89507E+01 -3.95174E+01 -3.89032E+01 -3.95328E+01 -3.86806E+01 -3.90995E+01 -3.81369E+01 -3.84623E+01 -3.75615E+01
  -3.79292E+01 -3.71697E+01 -3.74578E+01 -3.68155E+01 -3.69552E+01 -3.64204E+01 -3.63786E+01 -3.59463E+01 -3.56800E+01 -3.52379E+01
  -3.47099E+01 -3.43855E+01 -3.37283E+01 -3.35725E+01 -3.28700E+01 -3.29062E+01 -3.21902E+01 -3.23342E+01 -3.15643E+01 -3.17500E+01
  -3.09455E+01 -3.11254E+01 -3.03643E+01 -3.05443E+01 -2.99008E+01 -3.00728E+01 -2.95665E+01 -2.96996E+01 -2.92876E+01 -2.93189E+01
  -2.89513E+01 -2.88778E+01 -2.85588E+01 -2.84002E+01 -2.81221E+01 -2.79602E+01 -2.77311E+01 -2.75679E+01 -2.73424E+01 -2.71720E+01
  -2.69058E+01 -2.67198E+01 -2.64229E+01 -2.62195E+01 -2.58990E+01 -2.56846E+01 -2.53546E+01 -2.51345E+01 -2.48072E+01 -2.46384E+01
  -2.43535E+01 -2.42416E+01 -2.39791E+01 -2.38983E+01 -2.36396E+01 -2.35644E+01 -2.32903E+01 -2.32135E+01 -2.29167E+01 -2.28418E+01
  -2.25363E+01 -2.24700E+01 -2.21715E+01 -2.21033E+01 -2.17908E+01 -2.15702E+01 -2.10483E+01 -2.08059E+01 -2.01089E+01 -1.99291E+01
  -1.90914E+01 -1.90352E+01 -1.81139E+01 -1.81887E+01 -1.72240E+01 -1.74204E+01 -1.64456E+01 -1.67386E+01 -1.57753E+01 -1.61415E+01
  -1.52104E+01 -1.56427E+01 -1.47778E+01 -1.52626E+01 -1.44920E+01 -1.50077E+01 -1.43480E+01 -1.48067E+01 -1.40510E+01 -1.39867E+01
  -1.33252E+01 -1.28433E+01 -1.24202E+01 -1.16181E+01 -1.15308E+01 -1.05164E+01 -1.07511E+01 -9.56594E+00 -1.00575E+01 -8.77038E+00
  -9.44241E+00 -8.11967E+00 -8.91929E+00 -7.62642E+00 -8.52589E+00 -7.37263E+00 -8.37219E+00 -7.40468E+00 -8.46168E+00 -7.73621E+00
  -8.77162E+00 -8.26218E+00 -9.22386E+00 -8.92013E+00 -9.76451E+00 -9.63746E+00 -1.03474E+01 -1.03880E+01 -1.09288E+01 -1.10734E+01
  -1.14094E+01 -1.15533E+01 -1.17020E+01 -1.17813E+01 -1.18017E+01 -1.18082E+01 -1.17569E+01 -1.16942E+01 -1.16553E+01 -1.16105E+01
  -1.15814E+01 -1.15416E+01 -1.15205E+01 -1.14869E+01 -1.14743E+01 -1.14479E+01 -1.14438E+01 -1.14240E+01 -1.14292E+01 -1.14171E+01
  -1.14319E+01 -1.14290E+01 -1.14545E+01 -1.14625E+01 -1.14977E+01 -1.15173E+01 -1.15606E+01 -1.15911E+01 -1.16442E+01 -1.16860E+01
  -1.17469E+01 -1.17992E+01 -1.18677E+01 -1.19312E+01 -1.20070E+01 -1.20822E+01 -1.21629E+01 -1.22480E+01 -1.23311E+01 -1.24211E+01
  -1.25006E+01 -1.25888E+01 -1.26644E+01 -1.27460E+01 -1.28125E+01 -1.28763E+01 -1.29174E+01 -1.29348E+01 -1.29365E+01 -1.30112E+01
  -1.29708E+01 -1.31826E+01 -1.32417E+01 -1.35777E+01 -1.37317E+01 -1.40582E+01 -1.41072E+01 -1.41314E+01 -1.36153E+01 -1.37022E+01
  -1.28172E+01 -1.32660E+01 -1.22611E+01 -1.34418E+01 -1.28350E+01 -1.47035E+01 -1.41442E+01 -1.62876E+01 -1.56447E+01 -1.77205E+01
  -1.68888E+01 -1.87519E+01 -1.77946E+01 -1.95075E+01 -1.85459E+01 -2.01142E+01 -1.92585E+01 -2.06409E+01 -1.99327E+01 -2.10018E+01
  -2.03915E+01 -2.11102E+01 -2.06800E+01 -2.10866E+01 -2.08758E+01 -2.11085E+01 -2.10603E+01 -2.10856E+01 -2.10889E+01 -2.09048E+01
  -2.07964E+01 -2.05063E+01 -2.03234E+01 -2.01557E+01 -1.99533E+01 -1.99922E+01 -1.98520E+01 -2.01865E+01 -2.01784E+01 -2.07129E+01
  -2.08638E+01 -2.14166E+01 -2.16069E+01 -2.19713E+01 -2.21012E+01 -2.22057E+01 -2.23134E+01 -2.22861E+01 -2.24147E+01 -2.22669E+01
  -2.24475E+01 -2.22101E+01 -2.24577E+01 -2.21472E+01 -2.25023E+01 -2.21324E+01 -2.25518E+01 -2.21424E+01 -2.25844E+01 -2.21588E+01
  -2.25628E+01 -2.21566E+01 -2.25092E+01 -2.21715E+01 -2.24623E+01 -2.22147E+01 -2.24720E+01 -2.23205E+01 -2.25211E+01 -2.24481E+01
  -2.26045E+01 -2.25859E+01 -2.26906E+01 -2.26861E+01 -2.27519E+01 -2.27378E+01 -2.27651E+01 -2.27138E+01 -2.26859E+01 -2.25748E+01
  -2.24560E+01 -2.22782E+01 -2.20733E+01 -2.18332E+01 -2.15496E+01 -2.12548E+01 -2.09116E+01 -2.05554E+01 -2.01659E+01 -1.97698E+01
  -1.93583E+01 -1.89543E+01 -1.85605E+01 -1.81894E+01 -1.78566E+01 -1.75684E+01 -1.73402E+01 -1.71654E+01 -1.70570E+01 -1.69987E+01
  -1.69972E+01 -1.70281E+01 -1.70891E+01 -1.71529E+01 -1.72097E+01 -1.72272E+01 -1.71843E+01 -1.70285E+01 -1.66682E+01 -1.60608E+01
  -1.58336E+01 -1.51112E+01 -1.51570E+01 -1.44548E+01 -1.48632E+01 -1.43535E+01 -1.51574E+01 -1.43648E+01 -1.51429E+01 -1.41367E+01
  -1.48283E+01 -1.37182E+01 -1.43364E+01 -1.32942E+01 -1.39207E+01 -1.30583E+01 -1.37067E+01 -1.30864E+01 -1.37385E+01 -1.33558E+01
  -1.39019E+01 -1.36669E+01 -1.40501E+01 -1.39379E+01 -1.41229E+01 -1.41048E+01 -1.40996E+01 -1.41995E+01 -1.40154E+01 -1.41347E+01
  -1.37607E+01 -1.38309E+01 -1.33563E+01 -1.33701E+01 -1.29007E+01 -1.29287E+01 -1.25662E+01 -1.26284E+01 -1.24516E+01 -1.25340E+01
  -1.24190E+01 -1.24093E+01 -1.22870E+01 -1.21769E+01 -1.20203E+01 -1.18045E+01 -1.15921E+01 -1.13888E+01 -1.12009E+01 -1.10296E+01
  -1.08806E+01 -1.07533E+01 -1.06516E+01 -1.05730E+01 -1.05199E+01 -1.04884E+01 -1.04793E+01 -1.04875E+01 -1.05129E+01 -1.05497E+01
  -1.05971E+01 -1.06489E+01 -1.07041E+01 -1.07565E+01 -1.08053E+01 -1.08446E+01 -1.08739E+01 -1.08878E+01 -1.08867E+01 -1.08656E+01
  -1.08256E+01 -1.07625E+01 -1.06781E+01 -1.05690E+01 -1.04379E+01 -1.02822E+01 -1.01055E+01 -9.90611E+00 -9.68854E+00 -9.45221E+00
  -9.20244E+00 -8.93960E+00 -8.66984E+00 -8.39426E+00 -8.11960E+00 -7.84731E+00 -7.58427E+00 -7.33184E+00 -7.09653E+00 -6.87907E+00
  -6.68509E+00 -6.51421E+00 -6.37080E+00 -6.25312E+00 -6.16410E+00 -6.10058E+00 -6.06415E+00 -6.05044E+00 -6.05999E+00 -6.08760E+00
  -6.13322E+00 -6.19123E+00 -6.26142E+00 -6.33823E+00 -6.42164E+00 -6.50643E+00 -6.59302E+00 -6.67667E+00 -6.75837E+00 -6.83396E+00
  -6.90501E+00 -6.96793E+00 -7.02478E+00 -7.07243E+00 -7.11336E+00 -7.14480E+00 -7.16950E+00 -7.18493E+00 -7.19407E+00 -7.19451E+00
  -7.18934E+00 -7.17625E+00 -7.15836E+00 -7.13340E+00 -7.10449E+00 -7.06934E+00 -7.03107E+00 -6.98735E+00 -6.94125E+00 -6.89040E+00
  -6.83785E+00 -6.78117E+00 -6.72335E+00 -6.66194E+00 -6.59988E+00 -6.53466E+00 -6.46921E+00 -6.40097E+00 -6.33284E+00 -6.26222E+00
  -6.19198E+00 -6.11952E+00 -6.04766E+00 -5.97378E+00 -5.90069E+00 -5.82575E+00 -5.75176E+00 -5.67605E+00 -5.60141E+00 -5.52516E+00
  -5.45009E+00 -5.37350E+00 -5.29816E+00 -5.22138E+00 -5.14592E+00 -5.06907E+00 -4.99360E+00 -4.91678E+00 -4.84138E+00 -4.76469E+00
  -4.68943E+00 -4.61290E+00 -4.53784E+00 -4.46154E+00 -4.38672E+00 -4.31067E+00 -4.23611E+00 -4.16033E+00 -4.08606E+00 -4.01057E+00
  -3.93659E+00 -3.86140E+00 -3.78771E+00 -3.71281E+00 -3.63941E+00 -3.56479E+00 -3.49166E+00 -3.41730E+00 -3.34443E+00 -3.27030E+00
  -3.19763E+00 -3.12369E+00 -3.05119E+00 -2.97738E+00 -2.90495E+00 -2.83116E+00 -2.75869E+00 -2.68476E+00
 NY background values follow
    -4.792E+01   -4.759E+01   -4.725E+01   -4.692E+01   -4.658E+01   -4.625E+01   -4.591E+01   -4.558E+01   -4.524E+01   -4.491E+01
    -4.458E+01   -4.424E+01   -4.391E+01   -4.358E+01   -4.325E+01   -4.292E+01   -4.259E+01   -4.226E+01   -4.193E+01   -4.160E+01
    -4.127E+01   -4.094E+01   -4.062E+01   -4.029E+01   -3.996E+01   -3.964E+01   -3.931E+01   -3.899E+01   -3.867E+01   -3.834E+01
    -3.802E+01   -3.770E+01   -3.738E+01   -3.706E+01   -3.674E+01   -3.642E+01   -3.610E+01   -3.579E+01   -3.547E+01   -3.516E+01
    -3.484E+01   -3.453E+01   -3.422E+01   -3.391E+01   -3.360E+01   -3.329E+01   -3.298E+01   -3.267E+01   -3.237E+01   -3.206E+01
    -3.176E+01   -3.146E+01   -3.115E+01   -3.085E+01   -3.055E+01   -3.025E+01   -2.996E+01   -2.966E+01   -2.937E+01   -2.907E+01
    -2.878E+01   -2.849E+01   -2.820E+01   -2.791E+01   -2.762E+01   -2.734E+01   -2.705E+01   -2.677E+01   -2.648E+01   -2.620E+01
    -2.592E+01   -2.565E+01   -2.537E+01   -2.509E+01   -2.482E+01   -2.455E+01   -2.428E+01   -2.401E+01   -2.374E+01   -2.347E+01
    -2.321E+01   -2.295E+01   -2.269E+01   -2.243E+01   -2.217E+01   -2.191E+01   -2.166E+01   -2.140E+01   -2.115E+01   -2.090E+01
    -2.066E+01   -2.041E+01   -2.017E+01   -1.993E+01   -1.969E+01   -1.945E+01   -1.921E+01   -1.898E+01   -1.875E+01   -1.852E+01
    -1.830E+01   -1.807E+01   -1.785E+01   -1.764E+01   -1.742E+01   -1.721E+01   -1.700E+01   -1.679E+01   -1.659E+01   -1.638E+01
    -1.618E+01   -1.599E+01   -1.580E+01   -1.561E+01   -1.542E+01   -1.524E+01   -1.505E+01   -1.488E+01   -1.470E+01   -1.453E+01
    -1.436E+01   -1.420E+01   -1.404E+01   -1.388E+01   -1.373E+01   -1.358E+01   -1.343E+01   -1.329E+01   -1.315E+01   -1.302E+01
    -1.289E+01   -1.276E+01   -1.264E+01   -1.252E+01   -1.240E+01   -1.229E+01   -1.218E+01   -1.208E+01   -1.198E+01   -1.189E+01
    -1.180E+01   -1.171E+01   -1.163E+01   -1.155E+01   -1.148E+01   -1.141E+01   -1.135E+01   -1.129E+01   -1.124E+01   -1.119E+01
    -1.114E+01   -1.111E+01   -1.107E+01   -1.104E+01   -1.102E+01   -1.100E+01   -1.098E+01   -1.097E+01   -1.097E+01   -1.097E+01
    -1.098E+01   -1.099E+01   -1.101E+01   -1.103E+01   -1.106E+01   -1.109E+01   -1.113E+01   -1.118E+01   -1.123E+01   -1.128E+01
    -1.134E+01   -1.141E+01   -1.148E+01   -1.156E+01   -1.164E+01   -1.172E+01   -1.181E+01   -1.191E+01   -1.201E+01   -1.211E+01
    -1.222E+01   -1.233E+01   -1.244E+01   -1.256E+01   -1.268E+01   -1.281E+01   -1.294E+01   -1.307E+01   -1.321E+01   -1.335E+01
    -1.349E+01   -1.364E+01   -1.378E+01   -1.393E+01   -1.409E+01   -1.424E+01   -1.440E+01   -1.456E+01   -1.472E+01   -1.489E+01
    -1.505E+01   -1.522E+01   -1.539E+01   -1.556E+01   -1.574E+01   -1.591E+01   -1.608E+01   -1.626E+01   -1.644E+01   -1.662E+01
    -1.680E+01   -1.697E+01   -1.715E+01   -1.734E+01   -1.752E+01   -1.770E+01   -1.788E+01   -1.806E+01   -1.824E+01   -1.842E+01
    -1.860E+01   -1.878E+01   -1.896E+01   -1.914E+01   -1.932E+01   -1.950E+01   -1.967E+01   -1.985E+01   -2.002E+01   -2.019E+01
    -2.036E+01   -2.053E+01   -2.070E+01   -2.087E+01   -2.103E+01   -2.119E+01   -2.135E+01   -2.151E+01   -2.166E+01   -2.182E+01
    -2.197E+01   -2.211E+01   -2.226E+01   -2.240E+01   -2.254E+01   -2.268E+01   -2.281E+01   -2.294E+01   -2.306E+01   -2.318E+01
    -2.330E+01   -2.342E+01   -2.353E+01   -2.364E+01   -2.374E+01   -2.384E+01   -2.394E+01   -2.403E+01   -2.412E+01   -2.421E+01
    -2.429E+01   -2.437E+01   -2.445E+01   -2.452E+01   -2.459E+01   -2.466E+01   -2.472E+01   -2.478E+01   -2.484E+01   -2.489E+01
    -2.494E+01   -2.499E+01   -2.503E+01   -2.507E+01   -2.511E+01   -2.514E+01   -2.517E+01   -2.520E+01   -2.523E+01   -2.525E+01
    -2.527E+01   -2.529E+01   -2.530E+01   -2.531E+01   -2.532E+01   -2.532E+01   -2.533E+01   -2.533E+01   -2.532E+01   -2.532E+01
    -2.531E+01   -2.529E+01   -2.528E+01   -2.526E+01   -2.524E+01   -2.522E+01   -2.519E+01   -2.517E+01   -2.514E+01   -2.510E+01
    -2.507E+01   -2.503E+01   -2.499E+01   -2.495E+01   -2.490E+01   -2.485E+01   -2.480E+01   -2.475E+01   -2.470E+01   -2.464E+01
    -2.458E+01   -2.452E+01   -2.445E+01   -2.439E+01   -2.432E+01   -2.425E+01   -2.417E+01   -2.410E+01   -2.402E+01   -2.394E+01
    -2.386E+01   -2.377E+01   -2.369E+01   -2.360E+01   -2.351E+01   -2.342E+01   -2.332E+01   -2.323E+01   -2.313E+01   -2.303E+01
    -2.293E+01   -2.282E+01   -2.272E+01   -2.261E+01   -2.250E+01   -2.239E+01   -2.228E+01   -2.217E+01   -2.205E+01   -2.193E+01
    -2.181E+01   -2.169E+01   -2.157E+01   -2.145E+01   -2.132E+01   -2.120E+01   -2.107E+01   -2.094E+01   -2.081E+01   -2.068E+01
    -2.055E+01   -2.041E+01   -2.028E+01   -2.014E+01   -2.000E+01   -1.987E+01   -1.973E+01   -1.959E+01   -1.945E+01   -1.930E+01
    -1.916E+01   -1.902E+01   -1.887E+01   -1.873E+01   -1.858E+01   -1.844E+01   -1.829E+01   -1.814E+01   -1.799E+01   -1.785E+01
    -1.770E+01   -1.755E+01   -1.740E+01   -1.725E+01   -1.710E+01   -1.695E+01   -1.679E+01   -1.664E+01   -1.649E+01   -1.634E+01
    -1.619E+01   -1.604E+01   -1.588E+01   -1.573E+01   -1.558E+01   -1.543E+01   -1.528E+01   -1.512E+01   -1.497E+01   -1.482E+01
    -1.467E+01   -1.452E+01   -1.437E+01   -1.422E+01   -1.407E+01   -1.392E+01   -1.377E+01   -1.362E+01   -1.347E+01   -1.333E+01
    -1.318E+01   -1.303E+01   -1.289E+01   -1.274E+01   -1.260E+01   -1.246E+01   -1.231E+01   -1.217E+01   -1.203E+01   -1.189E+01
    -1.175E+01   -1.162E+01   -1.148E+01   -1.134E+01   -1.121E+01   -1.108E+01   -1.094E+01   -1.081E+01   -1.068E+01   -1.055E+01
    -1.043E+01   -1.030E+01   -1.017E+01   -1.005E+01   -9.925E+00   -9.802E+00   -9.681E+00   -9.560E+00   -9.441E+00   -9.323E+00
    -9.205E+00   -9.089E+00   -8.973E+00   -8.858E+00   -8.745E+00   -8.632E+00   -8.520E+00   -8.409E+00   -8.299E+00   -8.190E+00
    -8.082E+00   -7.975E+00   -7.868E+00   -7.762E+00   -7.657E+00   -7.553E+00   -7.450E+00   -7.348E+00   -7.246E+00   -7.145E+00
    -7.045E+00   -6.946E+00   -6.847E+00   -6.749E+00   -6.652E+00   -6.555E+00   -6.459E+00   -6.364E+00   -6.270E+00   -6.176E+00
    -6.083E+00   -5.990E+00   -5.898E+00   -5.807E+00   -5.716E+00   -5.626E+00   -5.537E+00   -5.448E+00   -5.360E+00   -5.272E+00
    -5.184E+00   -5.098E+00   -5.011E+00   -4.926E+00   -4.840E+00   -4.756E+00   -4.671E+00   -4.587E+00   -4.504E+00   -4.421E+00
    -4.339E+00   -4.256E+00   -4.175E+00   -4.093E+00   -4.012E+00   -3.932E+00   -3.852E+00   -3.772E+00   -3.692E+00   -3.613E+00
    -3.534E+00   -3.456E+00   -3.377E+00   -3.299E+00   -3.221E+00   -3.144E+00   -3.067E+00   -2.990E+00
 Ala      Conc. = 1.21E+03
