 LCModel (Version 6.3-1L) Copyright: S.W. Provencher.          Ref.: Magn. Reson. Med. 30:672-679 (1993).                
 Slice#2 Row#13 Col#6  K_02_press_1_raw_act
 36 lines in following concentration table = NCONC+1
    Conc.  %SD /Cr+PCr  Metabolite                                         
    0.000 999%   0.000 Ala                                                 
    0.000 999%   0.000 Asp                                                 
  627.118   7%   1.000 Cr                                                  
    0.000 999%   0.000 PCr                                                 
   61.129 156% 9.7E-02 GABA                                                
    0.000 999%   0.000 Glc                                                 
 1.36E+03  27%   2.165 Gln                                                 
 1.56E+03  27%   2.491 Glu                                                 
  262.768   7%   0.419 GPC                                                 
    0.000 999%   0.000 PCh                                                 
  498.068  15%   0.794 GSH                                                 
 2.55E+03  13%   4.065 Ins                                                 
   97.605 158%   0.156 Lac                                                 
 1.22E+03   4%   1.946 NAA                                                 
    0.000 999%   0.000 NAAG                                                
  102.886  22%   0.164 Scyllo                                              
    0.000 999%   0.000 Tau                                                 
    0.000 999%   0.000 -CrCH2                                              
  262.768   7%   0.419 GPC+PCh                                             
 1.22E+03   4%   1.946 NAA+NAAG                                            
  627.118   7%   1.000 Cr+PCr                                              
 2.92E+03  24%   4.655 Glu+Gln                                             
    0.000 999%   0.000 Lip13a                                              
   57.537 117% 9.2E-02 Lip13b                                              
   19.419 296% 3.1E-02 Lip09                                               
  455.270  27%   0.726 MM09                                                
   15.018 266% 2.4E-02 Lip20                                               
  522.114  49%   0.833 MM20                                                
  143.571  57%   0.229 MM12                                                
  433.924  41%   0.692 MM14                                                
    0.000 999%   0.000 MM17                                                
   57.537 117% 9.2E-02 Lip13a+Lip13b                                       
  635.032  35%   1.013 MM14+Lip13a+Lip13b+MM12                             
  474.689  25%   0.757 MM09+Lip09                                          
  537.132  48%   0.857 MM20+Lip20                                          
   6 lines in following misc. output table
  FWHM = 0.076 ppm    S/N =   7                                            
  Data shift = 0.000 ppm                                                   
  Ph: -51 deg     -19.4 deg/ppm                                            
  alphaB,S = 5.7E-01,   2.6E+01                                            
   14 spline knots.   Ns =10(1)                                            
  (19) 8 infls.   (19) 3 extrs.                                            
  498 points on ppm-axis = NY
      4.000000     3.992357     3.984714     3.977070     3.969427     3.961784     3.954141     3.946497     3.938854     3.931211
      3.923568     3.915925     3.908281     3.900638     3.892995     3.885352     3.877708     3.870065     3.862422     3.854779
      3.847136     3.839492     3.831849     3.824206     3.816563     3.808919     3.801276     3.793633     3.785990     3.778347
      3.770703     3.763060     3.755417     3.747774     3.740130     3.732487     3.724844     3.717201     3.709558     3.701914
      3.694271     3.686628     3.678985     3.671341     3.663698     3.656055     3.648412     3.640769     3.633125     3.625482
      3.617839     3.610196     3.602552     3.594909     3.587266     3.579623     3.571980     3.564336     3.556693     3.549050
      3.541407     3.533763     3.526120     3.518477     3.510834     3.503191     3.495547     3.487904     3.480261     3.472618
      3.464974     3.457331     3.449688     3.442045     3.434402     3.426758     3.419115     3.411472     3.403829     3.396185
      3.388542     3.380899     3.373256     3.365613     3.357969     3.350326     3.342683     3.335040     3.327396     3.319753
      3.312110     3.304467     3.296824     3.289180     3.281537     3.273894     3.266251     3.258607     3.250964     3.243321
      3.235678     3.228034     3.220391     3.212748     3.205105     3.197462     3.189818     3.182175     3.174532     3.166889
      3.159245     3.151602     3.143959     3.136316     3.128673     3.121029     3.113386     3.105743     3.098100     3.090456
      3.082813     3.075170     3.067527     3.059884     3.052240     3.044597     3.036954     3.029311     3.021667     3.014024
      3.006381     2.998738     2.991095     2.983451     2.975808     2.968165     2.960522     2.952878     2.945235     2.937592
      2.929949     2.922306     2.914662     2.907019     2.899376     2.891733     2.884089     2.876446     2.868803     2.861160
      2.853517     2.845873     2.838230     2.830587     2.822944     2.815300     2.807657     2.800014     2.792371     2.784728
      2.777084     2.769441     2.761798     2.754155     2.746511     2.738868     2.731225     2.723582     2.715939     2.708295
      2.700652     2.693009     2.685366     2.677722     2.670079     2.662436     2.654793     2.647150     2.639506     2.631863
      2.624220     2.616577     2.608933     2.601290     2.593647     2.586004     2.578361     2.570717     2.563074     2.555431
      2.547788     2.540144     2.532501     2.524858     2.517215     2.509572     2.501928     2.494285     2.486642     2.478999
      2.471355     2.463712     2.456069     2.448426     2.440783     2.433139     2.425496     2.417853     2.410210     2.402566
      2.394923     2.387280     2.379637     2.371994     2.364350     2.356707     2.349064     2.341421     2.333777     2.326134
      2.318491     2.310848     2.303205     2.295561     2.287918     2.280275     2.272632     2.264988     2.257345     2.249702
      2.242059     2.234416     2.226772     2.219129     2.211486     2.203843     2.196199     2.188556     2.180913     2.173270
      2.165627     2.157983     2.150340     2.142697     2.135054     2.127410     2.119767     2.112124     2.104481     2.096838
      2.089194     2.081551     2.073908     2.066265     2.058621     2.050978     2.043335     2.035692     2.028049     2.020405
      2.012762     2.005119     1.997476     1.989833     1.982190     1.974546     1.966903     1.959260     1.951617     1.943974
      1.936331     1.928688     1.921045     1.913402     1.905759     1.898115     1.890472     1.882829     1.875186     1.867543
      1.859900     1.852257     1.844614     1.836971     1.829327     1.821684     1.814041     1.806398     1.798755     1.791112
      1.783469     1.775826     1.768183     1.760540     1.752896     1.745253     1.737610     1.729967     1.722324     1.714681
      1.707038     1.699395     1.691752     1.684108     1.676465     1.668822     1.661179     1.653536     1.645893     1.638250
      1.630607     1.622964     1.615321     1.607677     1.600034     1.592391     1.584748     1.577105     1.569462     1.561819
      1.554176     1.546533     1.538890     1.531246     1.523603     1.515960     1.508317     1.500674     1.493031     1.485388
      1.477745     1.470102     1.462458     1.454815     1.447172     1.439529     1.431886     1.424243     1.416600     1.408957
      1.401314     1.393671     1.386027     1.378384     1.370741     1.363098     1.355455     1.347812     1.340169     1.332526
      1.324883     1.317240     1.309596     1.301953     1.294310     1.286667     1.279024     1.271381     1.263738     1.256095
      1.248452     1.240808     1.233165     1.225522     1.217879     1.210236     1.202593     1.194950     1.187307     1.179664
      1.172021     1.164377     1.156734     1.149091     1.141448     1.133805     1.126162     1.118519     1.110876     1.103233
      1.095590     1.087946     1.080303     1.072660     1.065017     1.057374     1.049731     1.042088     1.034445     1.026802
      1.019158     1.011515     1.003872     0.996229     0.988586     0.980943     0.973300     0.965657     0.958014     0.950371
      0.942727     0.935084     0.927441     0.919798     0.912155     0.904512     0.896869     0.889226     0.881583     0.873940
      0.866296     0.858653     0.851010     0.843367     0.835724     0.828081     0.820438     0.812795     0.805152     0.797508
      0.789865     0.782222     0.774579     0.766936     0.759293     0.751650     0.744007     0.736364     0.728721     0.721077
      0.713434     0.705791     0.698148     0.690505     0.682862     0.675219     0.667576     0.659933     0.652290     0.644646
      0.637003     0.629360     0.621717     0.614074     0.606431     0.598788     0.591145     0.583502     0.575858     0.568215
      0.560572     0.552929     0.545286     0.537643     0.530000     0.522357     0.514714     0.507071     0.499427     0.491784
      0.484141     0.476498     0.468855     0.461212     0.453569     0.445925     0.438282     0.430639     0.422996     0.415353
      0.407710     0.400067     0.392424     0.384780     0.377137     0.369494     0.361851     0.354208     0.346565     0.338922
      0.331278     0.323635     0.315992     0.308349     0.300706     0.293063     0.285420     0.277777     0.270133     0.262490
      0.254847     0.247204     0.239561     0.231918     0.224275     0.216631     0.208988     0.201345
 NY phased data points follow
  -2.96682E+02 -2.94285E+02 -2.93268E+02 -2.83968E+02 -2.77295E+02 -2.74547E+02 -2.70046E+02 -2.64541E+02 -2.60960E+02 -2.57339E+02
  -2.56351E+02 -2.48776E+02 -2.45449E+02 -2.44666E+02 -2.43685E+02 -2.41325E+02 -2.38122E+02 -2.38825E+02 -2.38662E+02 -2.30891E+02
  -2.32916E+02 -2.29376E+02 -2.25070E+02 -2.20650E+02 -2.18843E+02 -2.14675E+02 -2.14202E+02 -2.09686E+02 -2.02035E+02 -2.02908E+02
  -1.99260E+02 -1.96440E+02 -1.92808E+02 -1.89468E+02 -1.88655E+02 -1.85213E+02 -1.83772E+02 -1.82467E+02 -1.80583E+02 -1.77211E+02
  -1.74357E+02 -1.70627E+02 -1.67092E+02 -1.64627E+02 -1.63677E+02 -1.59334E+02 -1.59299E+02 -1.54354E+02 -1.53447E+02 -1.53917E+02
  -1.51713E+02 -1.53213E+02 -1.46775E+02 -1.51987E+02 -1.46183E+02 -1.45862E+02 -1.45796E+02 -1.42578E+02 -1.41974E+02 -1.39178E+02
  -1.37283E+02 -1.38893E+02 -1.35765E+02 -1.38393E+02 -1.35039E+02 -1.33320E+02 -1.29715E+02 -1.29320E+02 -1.29973E+02 -1.27553E+02
  -1.26031E+02 -1.25849E+02 -1.25413E+02 -1.24240E+02 -1.19831E+02 -1.21090E+02 -1.19627E+02 -1.13713E+02 -1.14905E+02 -1.15500E+02
  -1.15876E+02 -1.11333E+02 -1.11396E+02 -1.06925E+02 -1.08957E+02 -1.07115E+02 -1.05004E+02 -1.06088E+02 -1.03140E+02 -1.03311E+02
  -9.85604E+01 -1.02373E+02 -9.45645E+01 -9.80995E+01 -9.47147E+01 -9.11539E+01 -9.18751E+01 -8.93632E+01 -8.63062E+01 -8.39084E+01
  -8.14384E+01 -7.88086E+01 -7.60520E+01 -7.41314E+01 -7.54437E+01 -7.46653E+01 -7.44484E+01 -7.40280E+01 -7.90484E+01 -7.50262E+01
  -7.75421E+01 -7.45747E+01 -7.74589E+01 -7.61890E+01 -7.57978E+01 -7.57899E+01 -7.45277E+01 -7.26172E+01 -7.14654E+01 -7.03952E+01
  -7.12125E+01 -6.97200E+01 -6.50814E+01 -5.87160E+01 -5.77809E+01 -5.38155E+01 -5.54577E+01 -5.32650E+01 -5.31395E+01 -5.01939E+01
  -5.06528E+01 -5.04527E+01 -5.63141E+01 -5.25298E+01 -5.39318E+01 -5.48887E+01 -5.77807E+01 -5.54748E+01 -5.32806E+01 -5.74748E+01
  -5.58476E+01 -5.59407E+01 -5.79775E+01 -5.39383E+01 -5.53446E+01 -5.54639E+01 -5.17213E+01 -4.94249E+01 -5.24421E+01 -5.23624E+01
  -5.18792E+01 -5.26178E+01 -4.84202E+01 -4.64278E+01 -5.11189E+01 -4.73703E+01 -4.52281E+01 -4.44098E+01 -4.30605E+01 -4.31160E+01
  -4.46741E+01 -4.46249E+01 -4.24741E+01 -4.02156E+01 -3.98756E+01 -4.22060E+01 -4.17679E+01 -4.28900E+01 -4.24075E+01 -4.25832E+01
  -4.14511E+01 -4.16710E+01 -4.23657E+01 -4.56361E+01 -4.47644E+01 -4.44334E+01 -4.30997E+01 -4.10898E+01 -4.03768E+01 -4.18046E+01
  -4.02965E+01 -3.91386E+01 -4.05040E+01 -3.76890E+01 -3.88903E+01 -3.77954E+01 -3.76878E+01 -3.76831E+01 -3.63009E+01 -3.23341E+01
  -3.36718E+01 -3.22378E+01 -3.14822E+01 -2.95684E+01 -3.05275E+01 -2.91390E+01 -2.80479E+01 -2.89444E+01 -2.70490E+01 -2.46032E+01
  -2.80280E+01 -2.39503E+01 -2.86943E+01 -2.54853E+01 -2.45358E+01 -2.58387E+01 -2.66397E+01 -2.49699E+01 -2.26314E+01 -2.14450E+01
  -2.15836E+01 -2.09093E+01 -2.15955E+01 -2.07739E+01 -1.92886E+01 -1.82893E+01 -1.97212E+01 -1.93438E+01 -1.74942E+01 -1.87105E+01
  -1.74306E+01 -1.81139E+01 -1.64648E+01 -1.70761E+01 -1.60072E+01 -1.79955E+01 -1.59500E+01 -1.66533E+01 -1.16407E+01 -1.60858E+01
  -1.48649E+01 -1.13045E+01 -9.41444E+00 -1.20092E+01 -1.31874E+01 -1.04386E+01 -1.08489E+01 -1.06570E+01 -1.56415E+01 -1.20201E+01
  -1.11208E+01 -1.51376E+01 -1.21402E+01 -9.86297E+00 -1.10624E+01 -8.54970E+00 -1.15845E+01 -7.50957E+00 -7.84565E+00 -6.65548E+00
  -3.61591E+00 -2.05202E+00 -3.63585E+00 -6.57690E-01  3.88750E+00  5.82830E+00  1.06248E+01  1.63290E+01  1.93454E+01  2.44059E+01
   2.08753E+01  2.17910E+01  1.87870E+01  1.69432E+01  1.92270E+01  1.53586E+01  8.57921E+00  8.15967E+00  4.69104E+00  1.73256E+00
   1.55805E+00 -1.76759E+00 -6.51290E-01 -3.09829E+00 -3.87768E+00 -1.74018E+00  1.09587E+00  6.73649E-01  4.14714E-01 -7.41025E-02
  -8.20306E-01 -3.54973E-01 -8.00747E-01  2.04902E-01  1.78950E+00  9.01070E-02  4.43504E+00  4.88672E+00  8.74286E-01  6.49268E-01
   2.24569E+00  8.49448E-01  2.79544E+00  9.55614E-01  9.79712E-01  1.60610E+00 -3.82184E-01  2.70596E+00  3.08095E+00  2.49451E+00
   2.67784E+00 -1.18144E+00  6.03087E+00  4.14313E+00  3.80814E+00  5.72089E+00  2.00377E+00  3.49311E+00  5.20339E+00  4.59129E+00
   6.22628E+00  9.00713E+00  7.91701E+00  6.30789E+00  5.58866E+00  9.84906E+00  7.33634E+00  8.94249E+00  8.17064E+00  9.92082E+00
   9.87884E+00  1.01659E+01  1.24184E+01  9.02931E+00  7.25897E+00  9.68660E+00  8.60127E+00  1.23427E+01  1.36723E+01  9.46193E+00
   8.67485E+00  1.57461E+01  1.12627E+01  1.44458E+01  1.06194E+01  1.25430E+01  1.42164E+01  1.41466E+01  1.32644E+01  1.33215E+01
   1.40776E+01  1.44768E+01  1.13041E+01  1.39568E+01  1.50672E+01  1.27785E+01  1.12920E+01  1.08057E+01  1.13154E+01  1.53978E+01
   1.25013E+01  1.24629E+01  1.52524E+01  1.36477E+01  1.64549E+01  1.66377E+01  1.80268E+01  1.40886E+01  1.85899E+01  1.42127E+01
   1.45552E+01  1.59686E+01  1.60671E+01  1.45316E+01  1.60372E+01  1.27393E+01  1.44949E+01  1.51497E+01  1.53845E+01  1.86934E+01
   1.58863E+01  1.74534E+01  1.53706E+01  1.75655E+01  1.87898E+01  1.65248E+01  1.67684E+01  1.62146E+01  1.88184E+01  1.85659E+01
   1.61909E+01  1.69684E+01  1.52874E+01  2.04925E+01  1.43061E+01  1.76895E+01  1.57461E+01  1.73416E+01  1.63337E+01  1.67915E+01
   1.70362E+01  1.89902E+01  1.91686E+01  1.60391E+01  2.07706E+01  1.94117E+01  2.02460E+01  2.01642E+01  1.76631E+01  1.87224E+01
   1.78631E+01  1.89180E+01  1.81846E+01  2.03807E+01  1.88172E+01  2.09744E+01  2.12095E+01  2.29716E+01  2.32370E+01  2.29038E+01
   2.14584E+01  2.25231E+01  1.87510E+01  2.27067E+01  2.11159E+01  2.30437E+01  2.34854E+01  2.21638E+01  2.42617E+01  2.13259E+01
   2.00395E+01  2.00138E+01  1.93838E+01  1.75030E+01  1.91584E+01  1.67254E+01  1.75529E+01  1.70487E+01  1.74250E+01  1.68415E+01
   1.87740E+01  1.57907E+01  1.87129E+01  1.71977E+01  2.15741E+01  2.10414E+01  2.19596E+01  1.72598E+01  1.75752E+01  2.02275E+01
   1.96075E+01  1.73804E+01  1.87751E+01  1.95708E+01  1.78087E+01  2.03229E+01  1.89391E+01  1.98824E+01  1.87504E+01  1.99381E+01
   1.86225E+01  1.95491E+01  1.80577E+01  1.82191E+01  1.85813E+01  1.90698E+01  2.09606E+01  2.05892E+01  1.99060E+01  1.87859E+01
   1.93435E+01  2.06690E+01  2.56049E+01  2.18754E+01  2.21411E+01  2.14976E+01  1.85112E+01  2.20230E+01  2.04068E+01  2.20001E+01
   1.96544E+01  2.13325E+01  1.90886E+01  1.71321E+01  1.94176E+01  2.10779E+01  1.80991E+01  2.09291E+01  1.94796E+01  2.00244E+01
   2.05921E+01  1.87233E+01  2.19501E+01  2.03563E+01  1.94108E+01  1.86644E+01  2.27131E+01  2.06468E+01  1.86549E+01  1.75544E+01
   2.08465E+01  1.75155E+01  2.05799E+01  1.97927E+01  2.11928E+01  2.02421E+01  2.13276E+01  2.01300E+01
 NY points of the fit to the data follow
  -2.91041E+02 -2.88206E+02 -2.85030E+02 -2.82107E+02 -2.78645E+02 -2.74941E+02 -2.70987E+02 -2.66640E+02 -2.62268E+02 -2.58227E+02
  -2.54640E+02 -2.51505E+02 -2.48683E+02 -2.46021E+02 -2.43172E+02 -2.40504E+02 -2.38923E+02 -2.37463E+02 -2.35348E+02 -2.33308E+02
  -2.31261E+02 -2.28632E+02 -2.25924E+02 -2.23279E+02 -2.20120E+02 -2.16506E+02 -2.12370E+02 -2.08028E+02 -2.03991E+02 -2.00342E+02
  -1.97193E+02 -1.94718E+02 -1.92589E+02 -1.90398E+02 -1.88444E+02 -1.87009E+02 -1.85275E+02 -1.82905E+02 -1.80646E+02 -1.78502E+02
  -1.75943E+02 -1.72857E+02 -1.69362E+02 -1.65869E+02 -1.63107E+02 -1.61026E+02 -1.59313E+02 -1.57918E+02 -1.56399E+02 -1.54669E+02
  -1.53599E+02 -1.53387E+02 -1.52601E+02 -1.50999E+02 -1.49528E+02 -1.48128E+02 -1.46383E+02 -1.44686E+02 -1.43088E+02 -1.41572E+02
  -1.39852E+02 -1.38000E+02 -1.36384E+02 -1.34940E+02 -1.33442E+02 -1.31912E+02 -1.30339E+02 -1.28714E+02 -1.27091E+02 -1.25549E+02
  -1.24061E+02 -1.22662E+02 -1.21291E+02 -1.19872E+02 -1.18559E+02 -1.17614E+02 -1.16639E+02 -1.15506E+02 -1.14597E+02 -1.13723E+02
  -1.12807E+02 -1.11895E+02 -1.10893E+02 -1.09801E+02 -1.08704E+02 -1.07560E+02 -1.06499E+02 -1.05427E+02 -1.04397E+02 -1.03205E+02
  -1.01872E+02 -1.00896E+02 -9.97109E+01 -9.74340E+01 -9.56269E+01 -9.38840E+01 -9.16912E+01 -8.91462E+01 -8.61304E+01 -8.28584E+01
  -8.00090E+01 -7.77691E+01 -7.63091E+01 -7.54972E+01 -7.50811E+01 -7.44490E+01 -7.36317E+01 -7.42344E+01 -7.57957E+01 -7.61555E+01
  -7.62393E+01 -7.69653E+01 -7.74682E+01 -7.73225E+01 -7.72892E+01 -7.68595E+01 -7.59063E+01 -7.42437E+01 -7.22039E+01 -7.05316E+01
  -6.84764E+01 -6.61870E+01 -6.35381E+01 -6.04748E+01 -5.74441E+01 -5.50277E+01 -5.34164E+01 -5.24607E+01 -5.19625E+01 -5.16860E+01
  -5.11426E+01 -5.11569E+01 -5.26703E+01 -5.41174E+01 -5.45520E+01 -5.52672E+01 -5.61188E+01 -5.62770E+01 -5.62205E+01 -5.63158E+01
  -5.57979E+01 -5.50860E+01 -5.44406E+01 -5.37547E+01 -5.30639E+01 -5.24563E+01 -5.18981E+01 -5.14058E+01 -5.09460E+01 -5.05073E+01
  -5.01260E+01 -4.98384E+01 -4.94982E+01 -4.91273E+01 -4.87453E+01 -4.82938E+01 -4.78620E+01 -4.74936E+01 -4.71116E+01 -4.66925E+01
  -4.62165E+01 -4.57312E+01 -4.52780E+01 -4.48677E+01 -4.45363E+01 -4.42232E+01 -4.38664E+01 -4.35395E+01 -4.31945E+01 -4.28968E+01
  -4.26567E+01 -4.24137E+01 -4.21416E+01 -4.18586E+01 -4.15487E+01 -4.11725E+01 -4.08203E+01 -4.05008E+01 -4.01504E+01 -3.97452E+01
  -3.92684E+01 -3.86317E+01 -3.79965E+01 -3.74592E+01 -3.68630E+01 -3.60914E+01 -3.52604E+01 -3.44073E+01 -3.37480E+01 -3.32078E+01
  -3.26580E+01 -3.21163E+01 -3.15777E+01 -3.10817E+01 -3.04885E+01 -2.96982E+01 -2.88242E+01 -2.78758E+01 -2.68519E+01 -2.60975E+01
  -2.56037E+01 -2.50126E+01 -2.47631E+01 -2.46750E+01 -2.47942E+01 -2.52162E+01 -2.54222E+01 -2.53021E+01 -2.48279E+01 -2.42276E+01
  -2.34357E+01 -2.23644E+01 -2.15648E+01 -2.09046E+01 -1.97151E+01 -1.89436E+01 -1.91060E+01 -1.91565E+01 -1.89348E+01 -1.88652E+01
  -1.90847E+01 -1.90559E+01 -1.85965E+01 -1.80463E+01 -1.76695E+01 -1.73835E+01 -1.67066E+01 -1.56678E+01 -1.47622E+01 -1.41450E+01
  -1.34311E+01 -1.26215E+01 -1.21957E+01 -1.17657E+01 -1.12512E+01 -1.09283E+01 -1.06127E+01 -1.04570E+01 -1.07800E+01 -1.11481E+01
  -1.10871E+01 -1.10212E+01 -1.11857E+01 -1.11054E+01 -1.07728E+01 -1.06182E+01 -1.04378E+01 -9.74890E+00 -9.07698E+00 -8.28803E+00
  -6.29204E+00 -3.14120E+00 -1.13186E+00  1.43349E+00  4.43311E+00  7.81850E+00  1.20044E+01  1.62045E+01  1.92934E+01  2.09618E+01
   2.12936E+01  2.06359E+01  1.94620E+01  1.89132E+01  1.79749E+01  1.40851E+01  9.95332E+00  8.24924E+00  6.06408E+00  3.12777E+00
   1.26337E+00  1.97460E-01 -1.19144E+00 -1.59086E+00 -1.51885E+00 -1.40009E+00 -1.22266E+00 -1.01066E+00 -8.51352E-01 -6.99133E-01
  -5.21499E-01 -3.50392E-01 -1.95094E-01 -3.34859E-02  1.31747E-01  3.07195E-01  4.95335E-01  6.87651E-01  8.92353E-01  1.10978E+00
   1.32547E+00  1.53878E+00  1.75858E+00  1.97961E+00  2.19572E+00  2.41222E+00  2.63399E+00  2.85610E+00  3.07878E+00  3.30646E+00
   3.53687E+00  3.76840E+00  4.00247E+00  4.23882E+00  4.47640E+00  4.71656E+00  4.95945E+00  5.20445E+00  5.45147E+00  5.70169E+00
   5.95524E+00  6.21218E+00  6.47314E+00  6.73831E+00  7.00733E+00  7.28066E+00  7.55841E+00  7.84027E+00  8.12590E+00  8.41468E+00
   8.70586E+00  8.99868E+00  9.29221E+00  9.58530E+00  9.87653E+00  1.01644E+01  1.04476E+01  1.07246E+01  1.09941E+01  1.12549E+01
   1.15058E+01  1.17460E+01  1.19754E+01  1.21944E+01  1.24047E+01  1.26105E+01  1.28231E+01  1.30541E+01  1.32309E+01  1.33798E+01
   1.35325E+01  1.36656E+01  1.37835E+01  1.38581E+01  1.38693E+01  1.38828E+01  1.38608E+01  1.38401E+01  1.38606E+01  1.39420E+01
   1.41021E+01  1.42665E+01  1.44529E+01  1.47513E+01  1.50414E+01  1.52393E+01  1.54060E+01  1.55872E+01  1.57690E+01  1.58764E+01
   1.58738E+01  1.58743E+01  1.58900E+01  1.58584E+01  1.58111E+01  1.57995E+01  1.57824E+01  1.57790E+01  1.58045E+01  1.58453E+01
   1.58945E+01  1.59483E+01  1.60049E+01  1.60629E+01  1.61219E+01  1.61819E+01  1.62431E+01  1.63061E+01  1.63715E+01  1.64400E+01
   1.65124E+01  1.65895E+01  1.66721E+01  1.67614E+01  1.68584E+01  1.69641E+01  1.70796E+01  1.72060E+01  1.73447E+01  1.74967E+01
   1.76629E+01  1.78441E+01  1.80408E+01  1.82529E+01  1.84800E+01  1.87210E+01  1.89741E+01  1.92367E+01  1.95054E+01  1.97763E+01
   2.00445E+01  2.03049E+01  2.05518E+01  2.07796E+01  2.09829E+01  2.11568E+01  2.12972E+01  2.14007E+01  2.14655E+01  2.14906E+01
   2.14769E+01  2.14262E+01  2.13418E+01  2.12279E+01  2.10893E+01  2.09317E+01  2.07607E+01  2.05820E+01  2.04010E+01  2.02225E+01
   2.00505E+01  1.98886E+01  1.97392E+01  1.96043E+01  1.94849E+01  1.93813E+01  1.92933E+01  1.92205E+01  1.91619E+01  1.91164E+01
   1.90827E+01  1.90596E+01  1.90456E+01  1.90397E+01  1.90407E+01  1.90476E+01  1.90593E+01  1.90752E+01  1.90945E+01  1.91166E+01
   1.91411E+01  1.91675E+01  1.91954E+01  1.92245E+01  1.92546E+01  1.92855E+01  1.93169E+01  1.93488E+01  1.93810E+01  1.94133E+01
   1.94457E+01  1.94782E+01  1.95105E+01  1.95427E+01  1.95747E+01  1.96064E+01  1.96377E+01  1.96687E+01  1.96992E+01  1.97291E+01
   1.97586E+01  1.97874E+01  1.98157E+01  1.98432E+01  1.98701E+01  1.98962E+01  1.99214E+01  1.99460E+01  1.99696E+01  1.99924E+01
   2.00143E+01  2.00352E+01  2.00551E+01  2.00741E+01  2.00920E+01  2.01089E+01  2.01247E+01  2.01393E+01  2.01529E+01  2.01653E+01
   2.01765E+01  2.01864E+01  2.01951E+01  2.02026E+01  2.02088E+01  2.02137E+01  2.02172E+01  2.02194E+01  2.02201E+01  2.02196E+01
   2.02176E+01  2.02142E+01  2.02093E+01  2.02029E+01  2.01951E+01  2.01859E+01  2.01751E+01  2.01629E+01
 NY background values follow
    -2.967E+02   -2.937E+02   -2.907E+02   -2.877E+02   -2.847E+02   -2.818E+02   -2.788E+02   -2.758E+02   -2.728E+02   -2.699E+02
    -2.669E+02   -2.640E+02   -2.611E+02   -2.582E+02   -2.553E+02   -2.524E+02   -2.495E+02   -2.466E+02   -2.438E+02   -2.410E+02
    -2.381E+02   -2.353E+02   -2.326E+02   -2.298E+02   -2.271E+02   -2.243E+02   -2.216E+02   -2.190E+02   -2.163E+02   -2.137E+02
    -2.111E+02   -2.085E+02   -2.059E+02   -2.034E+02   -2.009E+02   -1.984E+02   -1.959E+02   -1.935E+02   -1.911E+02   -1.887E+02
    -1.864E+02   -1.841E+02   -1.818E+02   -1.796E+02   -1.774E+02   -1.752E+02   -1.730E+02   -1.709E+02   -1.689E+02   -1.668E+02
    -1.648E+02   -1.628E+02   -1.609E+02   -1.590E+02   -1.571E+02   -1.553E+02   -1.534E+02   -1.516E+02   -1.499E+02   -1.481E+02
    -1.464E+02   -1.447E+02   -1.431E+02   -1.414E+02   -1.398E+02   -1.382E+02   -1.366E+02   -1.351E+02   -1.336E+02   -1.321E+02
    -1.306E+02   -1.291E+02   -1.277E+02   -1.263E+02   -1.249E+02   -1.235E+02   -1.221E+02   -1.208E+02   -1.194E+02   -1.181E+02
    -1.168E+02   -1.155E+02   -1.142E+02   -1.129E+02   -1.117E+02   -1.105E+02   -1.092E+02   -1.080E+02   -1.068E+02   -1.056E+02
    -1.044E+02   -1.032E+02   -1.020E+02   -1.009E+02   -9.972E+01   -9.857E+01   -9.743E+01   -9.629E+01   -9.517E+01   -9.405E+01
    -9.295E+01   -9.185E+01   -9.076E+01   -8.968E+01   -8.861E+01   -8.755E+01   -8.650E+01   -8.546E+01   -8.443E+01   -8.341E+01
    -8.240E+01   -8.140E+01   -8.041E+01   -7.943E+01   -7.846E+01   -7.750E+01   -7.655E+01   -7.561E+01   -7.468E+01   -7.376E+01
    -7.285E+01   -7.196E+01   -7.107E+01   -7.020E+01   -6.934E+01   -6.849E+01   -6.765E+01   -6.682E+01   -6.601E+01   -6.520E+01
    -6.441E+01   -6.363E+01   -6.286E+01   -6.211E+01   -6.136E+01   -6.063E+01   -5.991E+01   -5.921E+01   -5.851E+01   -5.783E+01
    -5.716E+01   -5.650E+01   -5.585E+01   -5.522E+01   -5.459E+01   -5.397E+01   -5.337E+01   -5.277E+01   -5.218E+01   -5.160E+01
    -5.103E+01   -5.047E+01   -4.991E+01   -4.937E+01   -4.883E+01   -4.829E+01   -4.777E+01   -4.725E+01   -4.674E+01   -4.623E+01
    -4.573E+01   -4.524E+01   -4.475E+01   -4.426E+01   -4.378E+01   -4.330E+01   -4.283E+01   -4.236E+01   -4.190E+01   -4.144E+01
    -4.098E+01   -4.052E+01   -4.007E+01   -3.961E+01   -3.916E+01   -3.871E+01   -3.826E+01   -3.782E+01   -3.737E+01   -3.692E+01
    -3.648E+01   -3.603E+01   -3.558E+01   -3.513E+01   -3.468E+01   -3.423E+01   -3.378E+01   -3.334E+01   -3.289E+01   -3.244E+01
    -3.199E+01   -3.154E+01   -3.109E+01   -3.065E+01   -3.020E+01   -2.976E+01   -2.931E+01   -2.887E+01   -2.843E+01   -2.799E+01
    -2.755E+01   -2.711E+01   -2.668E+01   -2.625E+01   -2.581E+01   -2.539E+01   -2.496E+01   -2.453E+01   -2.411E+01   -2.369E+01
    -2.328E+01   -2.286E+01   -2.245E+01   -2.204E+01   -2.164E+01   -2.124E+01   -2.084E+01   -2.044E+01   -2.005E+01   -1.966E+01
    -1.928E+01   -1.890E+01   -1.853E+01   -1.815E+01   -1.779E+01   -1.743E+01   -1.707E+01   -1.671E+01   -1.637E+01   -1.602E+01
    -1.568E+01   -1.534E+01   -1.501E+01   -1.469E+01   -1.436E+01   -1.404E+01   -1.373E+01   -1.341E+01   -1.310E+01   -1.280E+01
    -1.250E+01   -1.220E+01   -1.190E+01   -1.161E+01   -1.132E+01   -1.103E+01   -1.075E+01   -1.047E+01   -1.019E+01   -9.911E+00
    -9.637E+00   -9.365E+00   -9.095E+00   -8.827E+00   -8.561E+00   -8.297E+00   -8.035E+00   -7.774E+00   -7.515E+00   -7.258E+00
    -7.001E+00   -6.746E+00   -6.492E+00   -6.240E+00   -5.988E+00   -5.737E+00   -5.486E+00   -5.237E+00   -4.988E+00   -4.739E+00
    -4.491E+00   -4.242E+00   -3.995E+00   -3.747E+00   -3.499E+00   -3.252E+00   -3.005E+00   -2.758E+00   -2.512E+00   -2.266E+00
    -2.020E+00   -1.775E+00   -1.530E+00   -1.285E+00   -1.042E+00   -7.983E-01   -5.556E-01   -3.135E-01   -7.205E-02    1.687E-01
     4.088E-01    6.482E-01    8.868E-01    1.125E+00    1.362E+00    1.598E+00    1.833E+00    2.067E+00    2.301E+00    2.533E+00
     2.764E+00    2.995E+00    3.224E+00    3.452E+00    3.679E+00    3.905E+00    4.129E+00    4.353E+00    4.575E+00    4.795E+00
     5.015E+00    5.233E+00    5.450E+00    5.665E+00    5.879E+00    6.091E+00    6.302E+00    6.511E+00    6.719E+00    6.925E+00
     7.129E+00    7.332E+00    7.533E+00    7.733E+00    7.930E+00    8.126E+00    8.320E+00    8.513E+00    8.703E+00    8.892E+00
     9.079E+00    9.264E+00    9.447E+00    9.628E+00    9.807E+00    9.984E+00    1.016E+01    1.033E+01    1.050E+01    1.067E+01
     1.084E+01    1.100E+01    1.117E+01    1.133E+01    1.148E+01    1.164E+01    1.179E+01    1.195E+01    1.209E+01    1.224E+01
     1.239E+01    1.253E+01    1.267E+01    1.280E+01    1.294E+01    1.307E+01    1.320E+01    1.333E+01    1.345E+01    1.357E+01
     1.369E+01    1.381E+01    1.392E+01    1.403E+01    1.414E+01    1.425E+01    1.435E+01    1.446E+01    1.455E+01    1.465E+01
     1.475E+01    1.484E+01    1.493E+01    1.502E+01    1.510E+01    1.519E+01    1.527E+01    1.535E+01    1.543E+01    1.551E+01
     1.558E+01    1.566E+01    1.573E+01    1.580E+01    1.587E+01    1.594E+01    1.601E+01    1.607E+01    1.614E+01    1.620E+01
     1.626E+01    1.632E+01    1.638E+01    1.644E+01    1.650E+01    1.656E+01    1.662E+01    1.667E+01    1.673E+01    1.679E+01
     1.684E+01    1.690E+01    1.695E+01    1.700E+01    1.706E+01    1.711E+01    1.716E+01    1.722E+01    1.727E+01    1.732E+01
     1.738E+01    1.743E+01    1.748E+01    1.754E+01    1.759E+01    1.764E+01    1.770E+01    1.775E+01    1.780E+01    1.785E+01
     1.790E+01    1.796E+01    1.801E+01    1.806E+01    1.811E+01    1.816E+01    1.821E+01    1.826E+01    1.831E+01    1.836E+01
     1.841E+01    1.846E+01    1.851E+01    1.856E+01    1.860E+01    1.865E+01    1.870E+01    1.874E+01    1.879E+01    1.884E+01
     1.888E+01    1.893E+01    1.897E+01    1.902E+01    1.906E+01    1.910E+01    1.914E+01    1.919E+01    1.923E+01    1.927E+01
     1.931E+01    1.935E+01    1.939E+01    1.943E+01    1.946E+01    1.950E+01    1.954E+01    1.957E+01    1.961E+01    1.964E+01
     1.967E+01    1.971E+01    1.974E+01    1.977E+01    1.980E+01    1.983E+01    1.986E+01    1.988E+01    1.991E+01    1.994E+01
     1.996E+01    1.998E+01    2.000E+01    2.003E+01    2.005E+01    2.006E+01    2.008E+01    2.010E+01    2.011E+01    2.013E+01
     2.014E+01    2.015E+01    2.016E+01    2.017E+01    2.018E+01    2.018E+01    2.019E+01    2.019E+01    2.019E+01    2.019E+01
     2.019E+01    2.019E+01    2.018E+01    2.017E+01    2.017E+01    2.016E+01    2.015E+01    2.013E+01
 Cr       Conc. = 6.27E+02
