 LCModel (Version 6.3-1L) Copyright: S.W. Provencher.          Ref.: Magn. Reson. Med. 30:672-679 (1993).                
 Slice#2 Row#12 Col#9  K_02_press_1_raw_act
 36 lines in following concentration table = NCONC+1
    Conc.  %SD /Cr+PCr  Metabolite                                         
    0.000 999%   0.000 Ala                                                 
    0.000 999%   0.000 Asp                                                 
  549.124  43%   0.306 Cr                                                  
 1.24E+03  20%   0.694 PCr                                                 
    0.000 999%   0.000 GABA                                                
   11.365 999% 6.3E-03 Glc                                                 
  490.196  49%   0.273 Gln                                                 
 1.38E+03  19%   0.771 Glu                                                 
  581.100   4%   0.324 GPC                                                 
    0.000 999%   0.000 PCh                                                 
  563.989  12%   0.314 GSH                                                 
 2.43E+03  12%   1.356 Ins                                                 
  126.278 101% 7.0E-02 Lac                                                 
 2.39E+03   6%   1.330 NAA                                                 
  493.606  30%   0.275 NAAG                                                
  169.083  18% 9.4E-02 Scyllo                                              
    0.000 999%   0.000 Tau                                                 
    0.000 999%   0.000 -CrCH2                                              
  581.100   4%   0.324 GPC+PCh                                             
 2.88E+03   3%   1.605 NAA+NAAG                                            
 1.79E+03   3%   1.000 Cr+PCr                                              
 1.87E+03  22%   1.045 Glu+Gln                                             
  832.653  74%   0.464 Lip13a                                              
   26.569 748% 1.5E-02 Lip13b                                              
  103.297 195% 5.8E-02 Lip09                                               
 1.41E+03  19%   0.789 MM09                                                
  138.817  92% 7.7E-02 Lip20                                               
 3.01E+03  14%   1.678 MM20                                                
  525.130  36%   0.293 MM12                                                
 1.54E+03  12%   0.860 MM14                                                
  662.773  39%   0.369 MM17                                                
  859.222  57%   0.479 Lip13a+Lip13b                                       
 2.93E+03  17%   1.632 MM14+Lip13a+Lip13b+MM12                             
 1.52E+03  16%   0.846 MM09+Lip09                                          
 3.15E+03  14%   1.755 MM20+Lip20                                          
   6 lines in following misc. output table
  FWHM = 0.061 ppm    S/N =  16                                            
  Data shift = 0.008 ppm                                                   
  Ph: -62 deg     -16.1 deg/ppm                                            
  alphaB,S = 5.6E-01,   1.8E+02                                            
   14 spline knots.   Ns = 9(1)                                            
  (17) 2 infls.   ( 7) 1 extrs.                                            
  498 points on ppm-axis = NY
      4.000000     3.992357     3.984714     3.977070     3.969427     3.961784     3.954141     3.946497     3.938854     3.931211
      3.923568     3.915925     3.908281     3.900638     3.892995     3.885352     3.877708     3.870065     3.862422     3.854779
      3.847136     3.839492     3.831849     3.824206     3.816563     3.808919     3.801276     3.793633     3.785990     3.778347
      3.770703     3.763060     3.755417     3.747774     3.740130     3.732487     3.724844     3.717201     3.709558     3.701914
      3.694271     3.686628     3.678985     3.671341     3.663698     3.656055     3.648412     3.640769     3.633125     3.625482
      3.617839     3.610196     3.602552     3.594909     3.587266     3.579623     3.571980     3.564336     3.556693     3.549050
      3.541407     3.533763     3.526120     3.518477     3.510834     3.503191     3.495547     3.487904     3.480261     3.472618
      3.464974     3.457331     3.449688     3.442045     3.434402     3.426758     3.419115     3.411472     3.403829     3.396185
      3.388542     3.380899     3.373256     3.365613     3.357969     3.350326     3.342683     3.335040     3.327396     3.319753
      3.312110     3.304467     3.296824     3.289180     3.281537     3.273894     3.266251     3.258607     3.250964     3.243321
      3.235678     3.228034     3.220391     3.212748     3.205105     3.197462     3.189818     3.182175     3.174532     3.166889
      3.159245     3.151602     3.143959     3.136316     3.128673     3.121029     3.113386     3.105743     3.098100     3.090456
      3.082813     3.075170     3.067527     3.059884     3.052240     3.044597     3.036954     3.029311     3.021667     3.014024
      3.006381     2.998738     2.991095     2.983451     2.975808     2.968165     2.960522     2.952878     2.945235     2.937592
      2.929949     2.922306     2.914662     2.907019     2.899376     2.891733     2.884089     2.876446     2.868803     2.861160
      2.853517     2.845873     2.838230     2.830587     2.822944     2.815300     2.807657     2.800014     2.792371     2.784728
      2.777084     2.769441     2.761798     2.754155     2.746511     2.738868     2.731225     2.723582     2.715939     2.708295
      2.700652     2.693009     2.685366     2.677722     2.670079     2.662436     2.654793     2.647150     2.639506     2.631863
      2.624220     2.616577     2.608933     2.601290     2.593647     2.586004     2.578361     2.570717     2.563074     2.555431
      2.547788     2.540144     2.532501     2.524858     2.517215     2.509572     2.501928     2.494285     2.486642     2.478999
      2.471355     2.463712     2.456069     2.448426     2.440783     2.433139     2.425496     2.417853     2.410210     2.402566
      2.394923     2.387280     2.379637     2.371994     2.364350     2.356707     2.349064     2.341421     2.333777     2.326134
      2.318491     2.310848     2.303205     2.295561     2.287918     2.280275     2.272632     2.264988     2.257345     2.249702
      2.242059     2.234416     2.226772     2.219129     2.211486     2.203843     2.196199     2.188556     2.180913     2.173270
      2.165627     2.157983     2.150340     2.142697     2.135054     2.127410     2.119767     2.112124     2.104481     2.096838
      2.089194     2.081551     2.073908     2.066265     2.058621     2.050978     2.043335     2.035692     2.028049     2.020405
      2.012762     2.005119     1.997476     1.989833     1.982190     1.974546     1.966903     1.959260     1.951617     1.943974
      1.936331     1.928688     1.921045     1.913402     1.905759     1.898115     1.890472     1.882829     1.875186     1.867543
      1.859900     1.852257     1.844614     1.836971     1.829327     1.821684     1.814041     1.806398     1.798755     1.791112
      1.783469     1.775826     1.768183     1.760540     1.752896     1.745253     1.737610     1.729967     1.722324     1.714681
      1.707038     1.699395     1.691752     1.684108     1.676465     1.668822     1.661179     1.653536     1.645893     1.638250
      1.630607     1.622964     1.615321     1.607677     1.600034     1.592391     1.584748     1.577105     1.569462     1.561819
      1.554176     1.546533     1.538890     1.531246     1.523603     1.515960     1.508317     1.500674     1.493031     1.485388
      1.477745     1.470102     1.462458     1.454815     1.447172     1.439529     1.431886     1.424243     1.416600     1.408957
      1.401314     1.393671     1.386027     1.378384     1.370741     1.363098     1.355455     1.347812     1.340169     1.332526
      1.324883     1.317240     1.309596     1.301953     1.294310     1.286667     1.279024     1.271381     1.263738     1.256095
      1.248452     1.240808     1.233165     1.225522     1.217879     1.210236     1.202593     1.194950     1.187307     1.179664
      1.172021     1.164377     1.156734     1.149091     1.141448     1.133805     1.126162     1.118519     1.110876     1.103233
      1.095590     1.087946     1.080303     1.072660     1.065017     1.057374     1.049731     1.042088     1.034445     1.026802
      1.019158     1.011515     1.003872     0.996229     0.988586     0.980943     0.973300     0.965657     0.958014     0.950371
      0.942727     0.935084     0.927441     0.919798     0.912155     0.904512     0.896869     0.889226     0.881583     0.873940
      0.866296     0.858653     0.851010     0.843367     0.835724     0.828081     0.820438     0.812795     0.805152     0.797508
      0.789865     0.782222     0.774579     0.766936     0.759293     0.751650     0.744007     0.736364     0.728721     0.721077
      0.713434     0.705791     0.698148     0.690505     0.682862     0.675219     0.667576     0.659933     0.652290     0.644646
      0.637003     0.629360     0.621717     0.614074     0.606431     0.598788     0.591145     0.583502     0.575858     0.568215
      0.560572     0.552929     0.545286     0.537643     0.530000     0.522357     0.514714     0.507071     0.499427     0.491784
      0.484141     0.476498     0.468855     0.461212     0.453569     0.445925     0.438282     0.430639     0.422996     0.415353
      0.407710     0.400067     0.392424     0.384780     0.377137     0.369494     0.361851     0.354208     0.346565     0.338922
      0.331278     0.323635     0.315992     0.308349     0.300706     0.293063     0.285420     0.277777     0.270133     0.262490
      0.254847     0.247204     0.239561     0.231918     0.224275     0.216631     0.208988     0.201345
 NY phased data points follow
  -1.01411E+02 -9.84249E+01 -9.68990E+01 -9.17339E+01 -8.60135E+01 -8.14653E+01 -7.50103E+01 -7.40548E+01 -6.34690E+01 -6.14174E+01
  -5.87889E+01 -5.99658E+01 -6.33717E+01 -7.01700E+01 -7.81718E+01 -7.90272E+01 -8.26140E+01 -8.90263E+01 -8.76644E+01 -8.68489E+01
  -8.77904E+01 -8.56775E+01 -8.38995E+01 -8.06714E+01 -7.85957E+01 -7.83510E+01 -7.26357E+01 -7.23015E+01 -7.16712E+01 -7.12224E+01
  -6.83334E+01 -6.92284E+01 -6.72067E+01 -6.50942E+01 -6.83206E+01 -6.83580E+01 -6.75574E+01 -6.80718E+01 -6.54785E+01 -6.46904E+01
  -6.56419E+01 -6.00999E+01 -6.13859E+01 -5.80584E+01 -5.91294E+01 -5.48248E+01 -5.04835E+01 -5.42743E+01 -5.31809E+01 -5.53413E+01
  -5.61770E+01 -5.52024E+01 -5.57174E+01 -5.75908E+01 -5.81040E+01 -5.48049E+01 -5.34254E+01 -5.39615E+01 -5.33278E+01 -5.43116E+01
  -5.72257E+01 -5.46120E+01 -5.72559E+01 -5.66949E+01 -5.72063E+01 -6.09957E+01 -5.59366E+01 -5.98579E+01 -5.15215E+01 -5.42256E+01
  -5.60932E+01 -5.14626E+01 -5.28942E+01 -5.31289E+01 -4.90203E+01 -4.78768E+01 -5.03052E+01 -4.78713E+01 -4.62624E+01 -4.73871E+01
  -4.80854E+01 -4.48947E+01 -4.83769E+01 -4.51568E+01 -4.69636E+01 -4.52170E+01 -4.26808E+01 -4.20593E+01 -4.23648E+01 -3.93085E+01
  -3.66869E+01 -3.82214E+01 -3.60965E+01 -3.75808E+01 -3.64825E+01 -3.37561E+01 -2.88975E+01 -2.77966E+01 -2.05365E+01 -1.45187E+01
  -9.40419E+00 -4.27897E+00  3.16658E+00  3.41866E+00  2.22128E+00 -5.28271E+00 -1.35627E+01 -1.81585E+01 -2.18494E+01 -2.79187E+01
  -2.89336E+01 -3.00457E+01 -3.06969E+01 -2.96850E+01 -3.36749E+01 -2.92372E+01 -3.25004E+01 -2.96333E+01 -2.41977E+01 -2.37011E+01
  -2.12120E+01 -1.50969E+01 -6.33002E+00 -3.32420E+00  3.23905E+00  8.25346E+00  1.86273E+01  1.80462E+01  2.11608E+01  8.79201E+00
   4.30178E+00 -3.91578E+00 -9.84551E+00 -1.67640E+01 -2.03817E+01 -2.54726E+01 -2.43784E+01 -2.59201E+01 -2.60271E+01 -3.06580E+01
  -2.42928E+01 -2.78697E+01 -2.53216E+01 -2.37187E+01 -2.16646E+01 -2.60603E+01 -2.72067E+01 -2.80667E+01 -2.56626E+01 -2.79394E+01
  -2.79279E+01 -2.46616E+01 -2.48288E+01 -2.25859E+01 -2.64990E+01 -2.36888E+01 -2.64653E+01 -2.75451E+01 -2.65041E+01 -2.26423E+01
  -2.35528E+01 -2.56915E+01 -2.42205E+01 -2.91708E+01 -2.93906E+01 -2.71525E+01 -2.46519E+01 -2.85253E+01 -2.92535E+01 -2.68310E+01
  -3.17669E+01 -2.96558E+01 -3.30684E+01 -3.26334E+01 -3.41586E+01 -3.35310E+01 -3.31318E+01 -3.36329E+01 -3.10184E+01 -2.80765E+01
  -2.96661E+01 -2.90822E+01 -3.06426E+01 -2.85965E+01 -2.64260E+01 -2.82113E+01 -2.46896E+01 -2.38619E+01 -2.36938E+01 -2.11922E+01
  -1.61113E+01 -1.25610E+01 -1.18721E+01 -1.43550E+01 -1.42149E+01 -1.16529E+01 -1.58159E+01 -1.29348E+01 -1.63504E+01 -1.57384E+01
  -1.34324E+01 -1.35776E+01 -1.29372E+01 -9.28583E+00 -1.51754E+01 -1.48918E+01 -1.41484E+01 -1.52768E+01 -1.62273E+01 -1.30045E+01
  -1.47519E+01 -1.35804E+01 -1.16399E+01 -9.33657E+00 -7.59118E+00 -5.81726E+00 -6.18208E+00 -4.64128E+00 -4.25921E+00 -8.04417E+00
  -9.69863E+00 -1.15488E+01 -1.32166E+01 -1.05251E+01 -1.00743E+01 -5.86964E+00 -2.75500E+00 -1.30737E+00 -2.78235E+00 -7.28311E-02
  -1.57945E+00 -1.11317E+00  6.10560E-03 -2.43809E+00 -7.44745E-01 -5.76145E-02 -1.80646E+00 -1.46857E+00 -5.12465E+00 -9.39449E-01
  -4.80256E+00 -3.52005E+00 -5.25495E-01 -1.76643E+00  6.73366E-01  1.57579E+00  5.16306E+00  4.32277E+00  9.81687E+00  1.47080E+01
   1.64819E+01  1.57828E+01  2.18093E+01  2.53609E+01  3.60338E+01  4.43234E+01  5.39002E+01  6.18792E+01  6.47139E+01  7.26432E+01
   7.55978E+01  7.76973E+01  6.84892E+01  5.49528E+01  4.29024E+01  3.12261E+01  2.32098E+01  1.77201E+01  1.20925E+01  7.91076E+00
   5.62053E+00  5.35755E+00  2.24461E+00  1.25974E+00 -8.55338E-03  3.71069E+00  1.65772E+00  2.97887E+00  2.01212E+00  2.53308E+00
   2.47690E+00  2.92310E+00  3.30424E+00 -3.00831E+00  7.04006E-01 -1.58007E-01 -2.01085E+00 -2.39611E+00  5.64025E-01 -1.19553E-01
  -2.06291E+00  1.49000E+00 -2.37667E+00  5.08919E+00  2.69443E+00  3.72493E+00  4.11869E+00  2.41465E+00  5.38133E+00  7.42963E-02
   2.28710E+00 -1.73310E+00  3.83927E+00  1.73025E+00 -4.78675E-01  3.49146E+00  4.68957E+00  1.26148E+00  3.05942E+00  2.36469E+00
   2.36342E+00  8.28996E-01  4.42960E+00  3.37216E+00 -1.85478E-01  8.19227E-01  1.55089E+00  2.16869E+00  2.61775E+00  2.22933E-01
  -2.20701E+00 -7.23850E-01  1.90813E+00  6.31728E+00  6.51919E+00  8.36154E+00  1.07322E+01  1.05251E+01  6.87302E+00  1.04839E+01
   9.76518E+00  1.22699E+01  1.45210E+01  1.45644E+01  1.63903E+01  1.55674E+01  1.32230E+01  1.15344E+01  1.00595E+01  1.00728E+01
   1.02636E+01  9.97778E+00  9.69971E+00  1.40322E+01  8.70970E+00  8.53125E+00  8.31280E+00  8.55399E+00  7.63508E+00  5.86910E+00
   7.82718E+00  5.75774E+00  7.16436E+00  6.03721E+00  7.56296E+00  7.79980E+00  6.57394E+00  1.15790E+01  8.10428E+00  7.98520E+00
   6.01676E+00  9.64128E+00  1.01501E+01  8.55285E+00  5.40234E+00  7.17492E+00  5.83094E+00  7.84703E+00  5.21237E+00  1.14251E+01
   6.72320E+00  1.09715E+01  5.93770E+00  7.96591E+00  7.77800E+00  7.66828E+00  3.30052E+00  4.03917E+00  4.63940E+00  3.21212E+00
   3.05293E+00  3.45621E+00  2.34202E-01  2.86079E+00  5.41422E+00  3.33886E+00  6.48279E+00  2.62315E+00  4.22571E+00  4.13054E+00
   9.59931E+00  7.57999E+00  7.47324E+00  7.02289E+00  9.37842E+00  1.14542E+01  1.09917E+01  1.13551E+01  8.92354E+00  1.35744E+01
   6.12381E+00  1.13528E+01  1.15462E+01  1.16285E+01  1.12751E+01  1.21834E+01  1.39773E+01  1.48759E+01  1.56535E+01  1.62585E+01
   1.52607E+01  1.30529E+01  1.79181E+01  1.44707E+01  1.36344E+01  1.02584E+01  1.36243E+01  1.23902E+01  1.26772E+01  9.13470E+00
   1.10079E+01  8.81959E+00  1.08768E+01  9.88650E+00  9.30867E+00  1.02928E+01  5.92965E+00  8.69182E+00  6.57539E+00  1.03469E+01
   6.93261E+00  1.03292E+01  9.43118E+00  8.27102E+00  1.16436E+01  7.62806E+00  8.09928E+00  1.08742E+01  8.61152E+00  5.73382E+00
   6.65810E+00  7.35202E+00  9.45614E+00  5.03953E+00  8.04924E+00  8.01673E+00  8.25653E+00  8.10025E+00  7.87848E+00  5.87977E+00
   6.82360E+00  9.54385E+00  7.95269E+00  8.11094E+00  8.94676E+00  7.50395E+00  7.23865E+00  7.55576E+00  8.06036E+00  8.49103E+00
   7.76887E+00  6.87372E+00  4.36995E+00  1.00823E+01  9.26809E+00  8.88695E+00  7.15480E+00  6.63537E+00  8.85505E+00  4.54359E+00
   5.24912E+00  7.93047E+00  6.07339E+00  7.29029E+00  6.88787E+00  5.53237E+00  6.50728E+00  7.90316E+00  6.12673E+00  6.74945E+00
   8.16508E+00  7.04548E+00  7.63130E+00  6.25865E+00  9.55819E+00  9.45796E+00  7.93000E+00  5.70715E+00  9.10620E+00  1.05694E+01
   7.20597E+00  8.80063E+00  6.19334E+00  6.96579E+00  8.18679E+00  7.04167E+00  1.10589E+01  8.51099E+00
 NY points of the fit to the data follow
  -9.92097E+01 -9.69751E+01 -9.38465E+01 -8.99764E+01 -8.55564E+01 -8.08159E+01 -7.58736E+01 -7.07890E+01 -6.58900E+01 -6.21302E+01
  -6.06953E+01 -6.21335E+01 -6.58428E+01 -7.04806E+01 -7.48288E+01 -7.83064E+01 -8.08187E+01 -8.25000E+01 -8.35928E+01 -8.44021E+01
  -8.47194E+01 -8.42064E+01 -8.31635E+01 -8.18521E+01 -8.02566E+01 -7.83737E+01 -7.62684E+01 -7.39743E+01 -7.14036E+01 -6.87877E+01
  -6.66282E+01 -6.53882E+01 -6.52477E+01 -6.59474E+01 -6.70544E+01 -6.82911E+01 -6.93882E+01 -6.99043E+01 -6.95779E+01 -6.85888E+01
  -6.70545E+01 -6.48726E+01 -6.23482E+01 -5.98123E+01 -5.73638E+01 -5.51226E+01 -5.35216E+01 -5.31931E+01 -5.43217E+01 -5.63876E+01
  -5.85332E+01 -6.01032E+01 -6.08655E+01 -6.08929E+01 -6.03315E+01 -5.94434E+01 -5.84593E+01 -5.73731E+01 -5.62298E+01 -5.52946E+01
  -5.48419E+01 -5.48703E+01 -5.51374E+01 -5.53805E+01 -5.53635E+01 -5.49537E+01 -5.41534E+01 -5.31143E+01 -5.20347E+01 -5.10029E+01
  -5.00823E+01 -4.93583E+01 -4.88779E+01 -4.86371E+01 -4.85320E+01 -4.84491E+01 -4.83508E+01 -4.82478E+01 -4.79969E+01 -4.75185E+01
  -4.70014E+01 -4.64618E+01 -4.58352E+01 -4.51545E+01 -4.44463E+01 -4.36501E+01 -4.26719E+01 -4.16448E+01 -4.08800E+01 -4.05615E+01
  -4.05928E+01 -4.06959E+01 -4.05713E+01 -3.95791E+01 -3.70130E+01 -3.36442E+01 -2.98055E+01 -2.54337E+01 -2.05179E+01 -1.51390E+01
  -9.32268E+00 -3.25327E+00  1.82546E+00  3.94645E+00  1.89527E+00 -3.74360E+00 -1.09516E+01 -1.78182E+01 -2.34124E+01 -2.75970E+01
  -3.05053E+01 -3.24097E+01 -3.37789E+01 -3.47107E+01 -3.48237E+01 -3.44905E+01 -3.38716E+01 -3.24660E+01 -2.93543E+01 -2.51003E+01
  -2.02383E+01 -1.46955E+01 -8.60750E+00 -2.27097E+00  4.31443E+00  1.10957E+01  1.69038E+01  1.96552E+01  1.78465E+01  1.18380E+01
   3.72334E+00 -4.26603E+00 -1.09466E+01 -1.61530E+01 -2.01388E+01 -2.31491E+01 -2.55005E+01 -2.72002E+01 -2.77250E+01 -2.73967E+01
  -2.67601E+01 -2.61045E+01 -2.56300E+01 -2.54268E+01 -2.54460E+01 -2.55809E+01 -2.57728E+01 -2.59630E+01 -2.61223E+01 -2.62572E+01
  -2.63593E+01 -2.64426E+01 -2.65576E+01 -2.66762E+01 -2.67587E+01 -2.67781E+01 -2.67017E+01 -2.65889E+01 -2.65341E+01 -2.65860E+01
  -2.67396E+01 -2.69171E+01 -2.69829E+01 -2.68683E+01 -2.66626E+01 -2.65488E+01 -2.66622E+01 -2.70033E+01 -2.74421E+01 -2.77915E+01
  -2.79898E+01 -2.80613E+01 -2.81126E+01 -2.82030E+01 -2.83255E+01 -2.84231E+01 -2.83767E+01 -2.81208E+01 -2.77429E+01 -2.73588E+01
  -2.70166E+01 -2.66685E+01 -2.61608E+01 -2.53949E+01 -2.44390E+01 -2.34078E+01 -2.23114E+01 -2.11155E+01 -1.98100E+01 -1.85086E+01
  -1.73641E+01 -1.65442E+01 -1.61735E+01 -1.62094E+01 -1.64392E+01 -1.65889E+01 -1.65246E+01 -1.61790E+01 -1.55453E+01 -1.46789E+01
  -1.37027E+01 -1.28650E+01 -1.22471E+01 -1.19086E+01 -1.19722E+01 -1.24393E+01 -1.31782E+01 -1.39329E+01 -1.44906E+01 -1.47460E+01
  -1.44876E+01 -1.36686E+01 -1.24481E+01 -1.10936E+01 -9.81114E+00 -8.71422E+00 -8.06732E+00 -8.18577E+00 -9.04441E+00 -1.02815E+01
  -1.14792E+01 -1.23685E+01 -1.26832E+01 -1.21954E+01 -1.08842E+01 -9.04894E+00 -7.16840E+00 -5.54468E+00 -4.24101E+00 -3.31293E+00
  -2.74209E+00 -2.36312E+00 -1.95080E+00 -1.43638E+00 -9.25692E-01 -4.42640E-01  2.01421E-02  3.63181E-01  4.60352E-01  3.13733E-01
   4.98982E-02 -1.42081E-01 -1.00422E-01  3.07664E-01  1.17920E+00  2.43857E+00  3.96731E+00  5.81426E+00  7.74035E+00  9.65210E+00
   1.18597E+01  1.56595E+01  2.18043E+01  2.90168E+01  3.70578E+01  4.56668E+01  5.38824E+01  6.09386E+01  6.71269E+01  7.27061E+01
   7.62047E+01  7.51046E+01  6.81874E+01  5.69215E+01  4.44030E+01  3.30385E+01  2.37915E+01  1.68279E+01  1.18460E+01  8.26922E+00
   5.36100E+00  3.27066E+00  2.41096E+00  2.00554E+00  1.72820E+00  1.49047E+00  1.24993E+00  9.92174E-01  7.49130E-01  5.42089E-01
   3.78335E-01  2.61343E-01  1.94881E-01  1.73567E-01  1.81276E-01  2.09505E-01  2.59748E-01  3.33813E-01  4.30646E-01  5.52774E-01
   7.04268E-01  8.87397E-01  1.09200E+00  1.30233E+00  1.50540E+00  1.69249E+00  1.85670E+00  1.99551E+00  2.10864E+00  2.19840E+00
   2.26743E+00  2.31463E+00  2.33586E+00  2.32998E+00  2.29656E+00  2.23747E+00  2.15736E+00  2.06326E+00  1.96437E+00  1.87041E+00
   1.78979E+00  1.73284E+00  1.70985E+00  1.73020E+00  1.80290E+00  1.93610E+00  2.13653E+00  2.40932E+00  2.75768E+00  3.18272E+00
   3.68318E+00  4.25506E+00  4.89157E+00  5.58311E+00  6.31752E+00  7.08016E+00  7.85436E+00  8.62193E+00  9.36383E+00  1.00611E+01
   1.06957E+01  1.12515E+01  1.17151E+01  1.20766E+01  1.23304E+01  1.24762E+01  1.25202E+01  1.24793E+01  1.23832E+01  1.22182E+01
   1.19610E+01  1.16330E+01  1.12471E+01  1.08053E+01  1.03147E+01  9.78822E+00  9.25460E+00  8.69354E+00  8.08927E+00  7.51081E+00
   7.06526E+00  6.81915E+00  6.77994E+00  6.93293E+00  7.24446E+00  7.63486E+00  7.98447E+00  8.19857E+00  8.27209E+00  8.23641E+00
   8.12075E+00  7.96101E+00  7.77915E+00  7.58999E+00  7.39413E+00  7.18039E+00  6.96698E+00  6.76469E+00  6.56601E+00  6.36901E+00
   6.17471E+00  5.98531E+00  5.80351E+00  5.63232E+00  5.47475E+00  5.33380E+00  5.21223E+00  5.11257E+00  5.03705E+00  4.98771E+00
   4.96637E+00  4.97470E+00  5.01423E+00  5.08634E+00  5.19238E+00  5.33364E+00  5.51138E+00  5.72677E+00  5.98079E+00  6.27414E+00
   6.60716E+00  6.97967E+00  7.39085E+00  7.83899E+00  8.32135E+00  8.83401E+00  9.37180E+00  9.92826E+00  1.04956E+01  1.10649E+01
   1.16261E+01  1.21684E+01  1.26807E+01  1.31519E+01  1.35714E+01  1.39294E+01  1.42175E+01  1.44294E+01  1.45606E+01  1.46091E+01
   1.45754E+01  1.44622E+01  1.42747E+01  1.40199E+01  1.37067E+01  1.33448E+01  1.29451E+01  1.25183E+01  1.20750E+01  1.16254E+01
   1.11787E+01  1.07427E+01  1.03243E+01  9.92853E+00  9.55945E+00  9.21966E+00  8.91062E+00  8.63274E+00  8.38559E+00  8.16806E+00
   7.97858E+00  7.81524E+00  7.67593E+00  7.55841E+00  7.46046E+00  7.37991E+00  7.31474E+00  7.26308E+00  7.22321E+00  7.19353E+00
   7.17264E+00  7.15931E+00  7.15245E+00  7.15112E+00  7.15445E+00  7.16170E+00  7.17221E+00  7.18540E+00  7.20081E+00  7.21800E+00
   7.23655E+00  7.25611E+00  7.27636E+00  7.29708E+00  7.31811E+00  7.33934E+00  7.36065E+00  7.38194E+00  7.40314E+00  7.42423E+00
   7.44515E+00  7.46587E+00  7.48635E+00  7.50656E+00  7.52651E+00  7.54621E+00  7.56567E+00  7.58487E+00  7.60381E+00  7.62251E+00
   7.64102E+00  7.65936E+00  7.67754E+00  7.69559E+00  7.71352E+00  7.73138E+00  7.74923E+00  7.76709E+00  7.78499E+00  7.80295E+00
   7.82102E+00  7.83925E+00  7.85771E+00  7.87643E+00  7.89543E+00  7.91475E+00  7.93446E+00  7.95462E+00  7.97529E+00  7.99649E+00
   8.01826E+00  8.04067E+00  8.06377E+00  8.08765E+00  8.11234E+00  8.13789E+00  8.16436E+00  8.19182E+00
 NY background values follow
    -1.070E+02   -1.062E+02   -1.054E+02   -1.046E+02   -1.038E+02   -1.031E+02   -1.023E+02   -1.015E+02   -1.007E+02   -9.991E+01
    -9.912E+01   -9.834E+01   -9.755E+01   -9.677E+01   -9.599E+01   -9.521E+01   -9.443E+01   -9.365E+01   -9.287E+01   -9.209E+01
    -9.132E+01   -9.055E+01   -8.978E+01   -8.901E+01   -8.824E+01   -8.748E+01   -8.672E+01   -8.596E+01   -8.520E+01   -8.445E+01
    -8.370E+01   -8.295E+01   -8.221E+01   -8.147E+01   -8.073E+01   -8.000E+01   -7.927E+01   -7.854E+01   -7.782E+01   -7.710E+01
    -7.639E+01   -7.568E+01   -7.498E+01   -7.428E+01   -7.358E+01   -7.289E+01   -7.220E+01   -7.152E+01   -7.085E+01   -7.017E+01
    -6.951E+01   -6.885E+01   -6.819E+01   -6.754E+01   -6.689E+01   -6.625E+01   -6.562E+01   -6.499E+01   -6.436E+01   -6.374E+01
    -6.312E+01   -6.251E+01   -6.191E+01   -6.130E+01   -6.071E+01   -6.012E+01   -5.953E+01   -5.895E+01   -5.838E+01   -5.780E+01
    -5.724E+01   -5.668E+01   -5.612E+01   -5.557E+01   -5.503E+01   -5.449E+01   -5.395E+01   -5.342E+01   -5.290E+01   -5.238E+01
    -5.187E+01   -5.136E+01   -5.085E+01   -5.035E+01   -4.986E+01   -4.937E+01   -4.889E+01   -4.841E+01   -4.794E+01   -4.747E+01
    -4.701E+01   -4.655E+01   -4.610E+01   -4.565E+01   -4.521E+01   -4.477E+01   -4.434E+01   -4.391E+01   -4.349E+01   -4.308E+01
    -4.267E+01   -4.226E+01   -4.186E+01   -4.146E+01   -4.107E+01   -4.069E+01   -4.031E+01   -3.993E+01   -3.956E+01   -3.919E+01
    -3.883E+01   -3.848E+01   -3.813E+01   -3.778E+01   -3.744E+01   -3.710E+01   -3.677E+01   -3.645E+01   -3.613E+01   -3.581E+01
    -3.550E+01   -3.519E+01   -3.489E+01   -3.459E+01   -3.430E+01   -3.401E+01   -3.373E+01   -3.345E+01   -3.318E+01   -3.291E+01
    -3.264E+01   -3.238E+01   -3.213E+01   -3.188E+01   -3.163E+01   -3.139E+01   -3.116E+01   -3.093E+01   -3.070E+01   -3.048E+01
    -3.026E+01   -3.004E+01   -2.983E+01   -2.962E+01   -2.942E+01   -2.921E+01   -2.901E+01   -2.882E+01   -2.862E+01   -2.843E+01
    -2.824E+01   -2.805E+01   -2.787E+01   -2.768E+01   -2.750E+01   -2.732E+01   -2.714E+01   -2.696E+01   -2.678E+01   -2.660E+01
    -2.642E+01   -2.624E+01   -2.606E+01   -2.588E+01   -2.570E+01   -2.552E+01   -2.534E+01   -2.516E+01   -2.497E+01   -2.479E+01
    -2.460E+01   -2.441E+01   -2.422E+01   -2.403E+01   -2.383E+01   -2.363E+01   -2.343E+01   -2.323E+01   -2.302E+01   -2.281E+01
    -2.259E+01   -2.238E+01   -2.215E+01   -2.193E+01   -2.170E+01   -2.147E+01   -2.123E+01   -2.099E+01   -2.075E+01   -2.051E+01
    -2.026E+01   -2.001E+01   -1.976E+01   -1.951E+01   -1.926E+01   -1.900E+01   -1.875E+01   -1.849E+01   -1.823E+01   -1.797E+01
    -1.771E+01   -1.745E+01   -1.719E+01   -1.693E+01   -1.666E+01   -1.640E+01   -1.614E+01   -1.588E+01   -1.563E+01   -1.537E+01
    -1.511E+01   -1.485E+01   -1.460E+01   -1.435E+01   -1.410E+01   -1.385E+01   -1.360E+01   -1.336E+01   -1.312E+01   -1.288E+01
    -1.264E+01   -1.241E+01   -1.218E+01   -1.196E+01   -1.173E+01   -1.152E+01   -1.130E+01   -1.109E+01   -1.089E+01   -1.068E+01
    -1.049E+01   -1.029E+01   -1.010E+01   -9.915E+00   -9.732E+00   -9.553E+00   -9.378E+00   -9.206E+00   -9.038E+00   -8.873E+00
    -8.711E+00   -8.553E+00   -8.399E+00   -8.247E+00   -8.099E+00   -7.954E+00   -7.812E+00   -7.673E+00   -7.536E+00   -7.403E+00
    -7.273E+00   -7.145E+00   -7.021E+00   -6.898E+00   -6.779E+00   -6.662E+00   -6.548E+00   -6.436E+00   -6.326E+00   -6.219E+00
    -6.114E+00   -6.011E+00   -5.911E+00   -5.812E+00   -5.716E+00   -5.622E+00   -5.530E+00   -5.439E+00   -5.350E+00   -5.264E+00
    -5.179E+00   -5.095E+00   -5.013E+00   -4.933E+00   -4.854E+00   -4.777E+00   -4.701E+00   -4.627E+00   -4.554E+00   -4.483E+00
    -4.413E+00   -4.344E+00   -4.276E+00   -4.210E+00   -4.144E+00   -4.080E+00   -4.017E+00   -3.955E+00   -3.894E+00   -3.835E+00
    -3.776E+00   -3.718E+00   -3.661E+00   -3.604E+00   -3.549E+00   -3.494E+00   -3.440E+00   -3.387E+00   -3.335E+00   -3.283E+00
    -3.232E+00   -3.181E+00   -3.131E+00   -3.081E+00   -3.032E+00   -2.983E+00   -2.935E+00   -2.887E+00   -2.839E+00   -2.792E+00
    -2.745E+00   -2.698E+00   -2.651E+00   -2.604E+00   -2.558E+00   -2.511E+00   -2.465E+00   -2.418E+00   -2.372E+00   -2.325E+00
    -2.279E+00   -2.232E+00   -2.186E+00   -2.139E+00   -2.092E+00   -2.045E+00   -1.998E+00   -1.951E+00   -1.903E+00   -1.856E+00
    -1.808E+00   -1.760E+00   -1.712E+00   -1.664E+00   -1.615E+00   -1.567E+00   -1.518E+00   -1.468E+00   -1.419E+00   -1.369E+00
    -1.319E+00   -1.268E+00   -1.218E+00   -1.167E+00   -1.115E+00   -1.064E+00   -1.012E+00   -9.591E-01   -9.062E-01   -8.530E-01
    -7.993E-01   -7.452E-01   -6.907E-01   -6.357E-01   -5.803E-01   -5.243E-01   -4.679E-01   -4.110E-01   -3.536E-01   -2.957E-01
    -2.372E-01   -1.782E-01   -1.186E-01   -5.844E-02    2.260E-03    6.352E-02    1.253E-01    1.877E-01    2.506E-01    3.140E-01
     3.780E-01    4.425E-01    5.076E-01    5.732E-01    6.393E-01    7.059E-01    7.731E-01    8.407E-01    9.089E-01    9.776E-01
     1.047E+00    1.116E+00    1.187E+00    1.257E+00    1.328E+00    1.400E+00    1.472E+00    1.545E+00    1.618E+00    1.691E+00
     1.765E+00    1.840E+00    1.915E+00    1.990E+00    2.066E+00    2.142E+00    2.219E+00    2.296E+00    2.374E+00    2.452E+00
     2.531E+00    2.610E+00    2.689E+00    2.769E+00    2.849E+00    2.930E+00    3.011E+00    3.092E+00    3.174E+00    3.256E+00
     3.339E+00    3.422E+00    3.504E+00    3.588E+00    3.671E+00    3.754E+00    3.837E+00    3.921E+00    4.004E+00    4.087E+00
     4.170E+00    4.252E+00    4.335E+00    4.417E+00    4.498E+00    4.580E+00    4.660E+00    4.741E+00    4.820E+00    4.900E+00
     4.978E+00    5.056E+00    5.133E+00    5.209E+00    5.285E+00    5.359E+00    5.433E+00    5.505E+00    5.577E+00    5.648E+00
     5.717E+00    5.785E+00    5.852E+00    5.918E+00    5.983E+00    6.046E+00    6.107E+00    6.168E+00    6.226E+00    6.284E+00
     6.339E+00    6.393E+00    6.446E+00    6.496E+00    6.545E+00    6.592E+00    6.638E+00    6.683E+00    6.725E+00    6.767E+00
     6.807E+00    6.846E+00    6.884E+00    6.920E+00    6.956E+00    6.990E+00    7.024E+00    7.056E+00    7.088E+00    7.119E+00
     7.149E+00    7.179E+00    7.207E+00    7.236E+00    7.263E+00    7.291E+00    7.318E+00    7.344E+00    7.370E+00    7.396E+00
     7.422E+00    7.448E+00    7.473E+00    7.499E+00    7.524E+00    7.550E+00    7.576E+00    7.602E+00    7.628E+00    7.655E+00
     7.682E+00    7.710E+00    7.738E+00    7.766E+00    7.796E+00    7.826E+00    7.856E+00    7.888E+00
 Cr       Conc. = 5.49E+02
