 LCModel (Version 6.3-1L) Copyright: S.W. Provencher.          Ref.: Magn. Reson. Med. 30:672-679 (1993).                
 Slice#1 Row#7 Col#7  K_02_press_1_raw_act
 36 lines in following concentration table = NCONC+1
    Conc.  %SD /Cr+PCr  Metabolite                                         
    0.000 999%   0.000 Ala                                                 
  113.375 133%   0.116 Asp                                                 
  957.863  19%   0.977 Cr                                                  
   22.163 786% 2.3E-02 PCr                                                 
   97.591  92%   0.100 GABA                                                
   89.750 103% 9.2E-02 Glc                                                 
  528.057  48%   0.539 Gln                                                 
 1.16E+03  25%   1.184 Glu                                                 
  332.324   9%   0.339 GPC                                                 
    0.000 999%   0.000 PCh                                                 
  365.074  26%   0.373 GSH                                                 
 1.74E+03  19%   1.777 Ins                                                 
   33.113 416% 3.4E-02 Lac                                                 
 1.26E+03   9%   1.285 NAA                                                 
  331.207  32%   0.338 NAAG                                                
   13.998 180% 1.4E-02 Scyllo                                              
    0.762 999% 7.8E-04 Tau                                                 
    0.000 999%   0.000 -CrCH2                                              
  332.324   9%   0.339 GPC+PCh                                             
 1.59E+03   8%   1.623 NAA+NAAG                                            
  980.026   8%   1.000 Cr+PCr                                              
 1.69E+03  22%   1.723 Glu+Gln                                             
 3.67E+03  21%   3.747 Lip13a                                              
    0.000 999%   0.000 Lip13b                                              
  586.175  82%   0.598 Lip09                                               
 1.52E+03  29%   1.553 MM09                                                
  547.224  69%   0.558 Lip20                                               
 1.91E+03  33%   1.951 MM20                                                
  528.449  51%   0.539 MM12                                                
 1.64E+03  33%   1.677 MM14                                                
  530.693  66%   0.542 MM17                                                
 3.67E+03  21%   3.747 Lip13a+Lip13b                                       
 5.84E+03  11%   5.963 MM14+Lip13a+Lip13b+MM12                             
 2.11E+03  15%   2.151 MM09+Lip09                                          
 2.46E+03  25%   2.510 MM20+Lip20                                          
   6 lines in following misc. output table
  FWHM = 0.031 ppm    S/N =   5                                            
  Data shift = 0.000 ppm                                                   
  Ph:  42 deg      28.2 deg/ppm                                            
  alphaB,S = 1.5E+00,   2.3E+01                                            
   14 spline knots.   Ns = 5(1)                                            
  ( 7) 2 infls.   ( 7) 1 extrs.                                            
  498 points on ppm-axis = NY
      4.000000     3.992357     3.984714     3.977070     3.969427     3.961784     3.954141     3.946497     3.938854     3.931211
      3.923568     3.915925     3.908281     3.900638     3.892995     3.885352     3.877708     3.870065     3.862422     3.854779
      3.847136     3.839492     3.831849     3.824206     3.816563     3.808919     3.801276     3.793633     3.785990     3.778347
      3.770703     3.763060     3.755417     3.747774     3.740130     3.732487     3.724844     3.717201     3.709558     3.701914
      3.694271     3.686628     3.678985     3.671341     3.663698     3.656055     3.648412     3.640769     3.633125     3.625482
      3.617839     3.610196     3.602552     3.594909     3.587266     3.579623     3.571980     3.564336     3.556693     3.549050
      3.541407     3.533763     3.526120     3.518477     3.510834     3.503191     3.495547     3.487904     3.480261     3.472618
      3.464974     3.457331     3.449688     3.442045     3.434402     3.426758     3.419115     3.411472     3.403829     3.396185
      3.388542     3.380899     3.373256     3.365613     3.357969     3.350326     3.342683     3.335040     3.327396     3.319753
      3.312110     3.304467     3.296824     3.289180     3.281537     3.273894     3.266251     3.258607     3.250964     3.243321
      3.235678     3.228034     3.220391     3.212748     3.205105     3.197462     3.189818     3.182175     3.174532     3.166889
      3.159245     3.151602     3.143959     3.136316     3.128673     3.121029     3.113386     3.105743     3.098100     3.090456
      3.082813     3.075170     3.067527     3.059884     3.052240     3.044597     3.036954     3.029311     3.021667     3.014024
      3.006381     2.998738     2.991095     2.983451     2.975808     2.968165     2.960522     2.952878     2.945235     2.937592
      2.929949     2.922306     2.914662     2.907019     2.899376     2.891733     2.884089     2.876446     2.868803     2.861160
      2.853517     2.845873     2.838230     2.830587     2.822944     2.815300     2.807657     2.800014     2.792371     2.784728
      2.777084     2.769441     2.761798     2.754155     2.746511     2.738868     2.731225     2.723582     2.715939     2.708295
      2.700652     2.693009     2.685366     2.677722     2.670079     2.662436     2.654793     2.647150     2.639506     2.631863
      2.624220     2.616577     2.608933     2.601290     2.593647     2.586004     2.578361     2.570717     2.563074     2.555431
      2.547788     2.540144     2.532501     2.524858     2.517215     2.509572     2.501928     2.494285     2.486642     2.478999
      2.471355     2.463712     2.456069     2.448426     2.440783     2.433139     2.425496     2.417853     2.410210     2.402566
      2.394923     2.387280     2.379637     2.371994     2.364350     2.356707     2.349064     2.341421     2.333777     2.326134
      2.318491     2.310848     2.303205     2.295561     2.287918     2.280275     2.272632     2.264988     2.257345     2.249702
      2.242059     2.234416     2.226772     2.219129     2.211486     2.203843     2.196199     2.188556     2.180913     2.173270
      2.165627     2.157983     2.150340     2.142697     2.135054     2.127410     2.119767     2.112124     2.104481     2.096838
      2.089194     2.081551     2.073908     2.066265     2.058621     2.050978     2.043335     2.035692     2.028049     2.020405
      2.012762     2.005119     1.997476     1.989833     1.982190     1.974546     1.966903     1.959260     1.951617     1.943974
      1.936331     1.928688     1.921045     1.913402     1.905759     1.898115     1.890472     1.882829     1.875186     1.867543
      1.859900     1.852257     1.844614     1.836971     1.829327     1.821684     1.814041     1.806398     1.798755     1.791112
      1.783469     1.775826     1.768183     1.760540     1.752896     1.745253     1.737610     1.729967     1.722324     1.714681
      1.707038     1.699395     1.691752     1.684108     1.676465     1.668822     1.661179     1.653536     1.645893     1.638250
      1.630607     1.622964     1.615321     1.607677     1.600034     1.592391     1.584748     1.577105     1.569462     1.561819
      1.554176     1.546533     1.538890     1.531246     1.523603     1.515960     1.508317     1.500674     1.493031     1.485388
      1.477745     1.470102     1.462458     1.454815     1.447172     1.439529     1.431886     1.424243     1.416600     1.408957
      1.401314     1.393671     1.386027     1.378384     1.370741     1.363098     1.355455     1.347812     1.340169     1.332526
      1.324883     1.317240     1.309596     1.301953     1.294310     1.286667     1.279024     1.271381     1.263738     1.256095
      1.248452     1.240808     1.233165     1.225522     1.217879     1.210236     1.202593     1.194950     1.187307     1.179664
      1.172021     1.164377     1.156734     1.149091     1.141448     1.133805     1.126162     1.118519     1.110876     1.103233
      1.095590     1.087946     1.080303     1.072660     1.065017     1.057374     1.049731     1.042088     1.034445     1.026802
      1.019158     1.011515     1.003872     0.996229     0.988586     0.980943     0.973300     0.965657     0.958014     0.950371
      0.942727     0.935084     0.927441     0.919798     0.912155     0.904512     0.896869     0.889226     0.881583     0.873940
      0.866296     0.858653     0.851010     0.843367     0.835724     0.828081     0.820438     0.812795     0.805152     0.797508
      0.789865     0.782222     0.774579     0.766936     0.759293     0.751650     0.744007     0.736364     0.728721     0.721077
      0.713434     0.705791     0.698148     0.690505     0.682862     0.675219     0.667576     0.659933     0.652290     0.644646
      0.637003     0.629360     0.621717     0.614074     0.606431     0.598788     0.591145     0.583502     0.575858     0.568215
      0.560572     0.552929     0.545286     0.537643     0.530000     0.522357     0.514714     0.507071     0.499427     0.491784
      0.484141     0.476498     0.468855     0.461212     0.453569     0.445925     0.438282     0.430639     0.422996     0.415353
      0.407710     0.400067     0.392424     0.384780     0.377137     0.369494     0.361851     0.354208     0.346565     0.338922
      0.331278     0.323635     0.315992     0.308349     0.300706     0.293063     0.285420     0.277777     0.270133     0.262490
      0.254847     0.247204     0.239561     0.231918     0.224275     0.216631     0.208988     0.201345
 NY phased data points follow
   5.27202E+01  5.27890E+01  5.43351E+01  4.99754E+01  4.65207E+01  4.94789E+01  4.75710E+01  5.09800E+01  6.13971E+01  7.07433E+01
   7.39713E+01  7.86569E+01  7.10717E+01  5.47986E+01  5.66574E+01  5.61253E+01  4.68321E+01  5.43438E+01  3.01379E+01  3.91256E+01
   4.61354E+01  4.97559E+01  4.17687E+01  4.46147E+01  5.30318E+01  4.43395E+01  4.38139E+01  4.04155E+01  4.83965E+01  3.94647E+01
   4.51111E+01  4.87616E+01  4.86818E+01  4.43901E+01  3.85139E+01  4.11693E+01  3.27094E+01  3.55711E+01  3.30936E+01  3.47143E+01
   2.85695E+01  3.77519E+01  3.65926E+01  3.34944E+01  4.79087E+01  3.76101E+01  3.67324E+01  5.74240E+01  5.46585E+01  3.34377E+01
   3.13107E+01  3.00116E+01  2.50838E+01  3.17236E+01  3.75524E+01  3.60047E+01  4.24189E+01  4.14149E+01  4.17685E+01  2.96491E+01
   3.68404E+01  2.05230E+01  2.96794E+01  2.31288E+01  3.02640E+01  1.44402E+01  2.98697E+01  2.68006E+01  1.94827E+01  1.55546E+01
   2.34412E+01  2.41571E+01  2.56778E+01  1.89729E+01  2.29276E+01  1.42350E+01  2.02413E+01  2.06870E+01  1.60634E+01  4.69957E+00
   1.48939E+01  9.09402E+00  2.11629E+01  1.32493E+01  2.04329E+01  2.14961E+01  1.05080E+01  1.34536E+01  7.79129E+00  1.51828E+01
   1.12534E+01  9.35475E+00  1.21805E+01  1.77696E+01  1.76528E+01  7.92587E+00  1.73699E+01  1.61070E+01  2.27904E+01  1.52067E+01
   3.42494E+01  4.71631E+01  4.91218E+01  7.08772E+01  4.55634E+01  3.56445E+01  2.72603E+01  1.65837E+01  1.62917E+01  1.37544E+01
   7.84212E+00  7.50607E+00  1.42549E+01  1.02773E+01  1.84346E+01  1.70286E+01  2.74600E+00 -8.21114E-01  2.82384E+00  1.57834E+01
   1.57879E+01  1.72848E+01  1.39051E+01  1.28690E+01  2.26564E+01  4.98360E+01  4.05656E+01  5.27205E+01  5.19404E+01  4.38059E+01
   2.45268E+01  1.64623E+01  1.24982E+01  1.09083E+01  1.10547E+00  1.03060E+01  7.02257E+00  1.22151E+01  9.06034E+00  9.10186E+00
   1.77104E+01  2.18805E+01  1.49102E+01  1.22118E+01  8.15917E+00  4.50439E+00  6.98558E+00 -2.31227E-01  3.68819E+00 -1.42341E+00
   9.25963E+00  1.08435E+01  4.31132E+00  8.78644E+00  1.05499E+01  4.88899E+00  7.31413E+00  7.01518E-02  7.29623E+00  7.46133E+00
   1.03101E+01  8.98846E+00 -2.02033E+00  1.82525E+00  7.01629E+00  1.31101E+01 -5.94416E+00  3.60614E+00  2.07873E+00 -7.83083E+00
  -3.10589E+00 -3.80938E+00 -6.31045E+00 -6.44345E+00 -8.62913E+00 -1.14181E+01 -1.95957E+01 -2.27719E-01 -4.15931E+00 -6.76141E+00
  -1.04852E+01 -1.03412E+01 -4.64244E+00 -1.17947E+01  1.13380E+00 -7.35163E+00  8.86091E+00 -2.10700E+01 -1.08086E+00 -7.26597E+00
  -2.84383E+00 -1.06835E+00 -9.05772E+00 -1.71799E+00 -1.74848E+00 -1.21768E+01 -7.29756E+00 -1.20366E+01 -8.33512E+00 -9.81277E+00
  -6.38698E+00 -1.16243E+01  6.45245E+00 -2.51604E+00  4.18427E+00 -3.27025E+00  1.65877E-01 -2.22484E+00 -1.13714E+01 -1.83613E+00
  -9.61386E+00  2.61795E+00  5.66154E+00  6.59977E+00  3.25759E-01  7.21282E+00  1.10372E+01  7.79086E+00  1.06261E+01 -1.35061E+01
  -9.72433E+00 -1.29012E+01 -3.95263E+00 -2.08189E+00  1.68185E+00  3.85152E+00 -2.16354E+00  2.19857E-01  6.04581E+00  6.50561E+00
  -8.80842E+00 -4.73972E+00 -1.15522E+00 -8.79678E+00  5.69939E+00  8.43307E-01 -8.51291E+00  9.61414E-01  8.40652E+00 -5.21928E+00
   3.44758E+00 -8.44118E+00 -4.98742E+00  6.22176E-01  3.10614E+00  5.08342E+00  4.53859E+00 -2.78231E-01  8.46864E-01 -1.22773E+00
   1.34415E+01 -3.25912E+00  1.30985E+01  1.66870E+01  1.94969E+01  2.68076E+01  3.04172E+01  1.85486E+01  4.42748E+01  7.49462E+01
   7.21631E+01  4.25139E+01  2.57934E+01  1.23414E+01  2.57447E+00 -3.10637E+00 -1.28910E+01  1.43588E+00 -6.97739E+00 -9.73853E+00
   2.13869E+00 -6.15748E+00  4.30908E+00 -9.98233E+00 -9.41933E+00 -4.81726E+00  6.62894E-01 -1.29543E+01 -1.53944E+00 -1.86874E+01
  -1.50143E+00 -9.02347E+00 -1.14840E+01 -7.01806E+00 -1.43867E+01 -9.74338E+00 -1.50316E+01 -9.40345E+00 -5.32774E+00 -1.90451E+01
  -1.22091E+01 -7.10128E+00 -9.03306E+00 -7.31749E+00 -6.13583E+00 -6.91901E+00 -1.69009E+01 -1.18956E+01 -8.48423E+00 -9.84664E+00
  -6.56173E+00 -1.40241E+01 -1.23603E+01 -1.09040E+01 -5.78570E+00 -1.63198E+01 -5.37370E+00 -9.74930E+00 -5.16610E+00  9.23379E-03
   2.17459E-01 -5.16596E+00  3.50903E+00 -7.56740E+00 -9.33635E+00  4.73764E+00 -2.03785E+00 -8.93741E+00 -9.91770E+00 -1.08644E+01
  -5.05679E+00 -4.62379E+00 -4.53253E+00 -1.75689E+00 -6.20086E+00  1.72008E+00 -3.24852E+00 -2.08484E+00  4.34802E+00  2.26325E+00
   6.22510E+00  1.18898E+01  1.51602E+00  7.58471E+00  2.64620E+00 -3.89325E+00 -9.88766E+00 -2.00832E+00 -1.75878E+01 -1.40595E+01
  -1.14348E+01 -5.87734E+00  2.99368E+00 -3.86763E+00  6.26813E+00  5.51461E+00  1.45309E+01  1.96533E+01  4.53187E+00  8.81725E+00
   5.29125E+00 -6.66359E-01  1.20144E+00  8.46458E+00 -7.07837E-01 -5.84461E+00  1.25608E+01 -5.94510E+00  3.19061E+00  1.11707E+01
   6.79381E+00  1.05665E+01  5.97575E+00 -1.92813E+00 -2.62138E+00 -1.88280E+00 -1.37286E+00  1.09014E+01 -6.63151E+00  3.10725E+00
  -3.54089E+00 -5.61961E+00  3.33893E+00 -2.16993E+00 -9.70058E-01  4.88798E+00 -1.95433E+00 -2.55437E+00 -2.60986E+00  1.54814E+00
   1.79467E-01 -9.40143E+00 -5.15337E+00 -1.04509E+01 -5.11267E+00 -6.67408E+00 -4.76752E+00 -1.05282E+01 -2.29651E+00  3.02884E+00
  -4.39255E+00  2.19901E+00  3.97034E+00 -4.06220E+00 -3.72071E+00  3.16480E+00 -4.40440E+00  1.05940E+01  7.85214E+00  3.94767E-01
   1.61445E+00 -5.66020E+00 -3.76114E+00  6.81502E+00 -4.63051E+00  3.90824E+00 -7.31103E-02  5.25998E+00  7.88041E+00 -1.51009E+00
  -2.92483E+00 -4.20919E+00 -1.07514E+01 -1.75037E+00 -1.84825E+01 -9.92085E-01 -1.92613E+01 -2.54492E+01 -1.09698E+01 -9.16294E+00
  -6.87506E+00 -8.38209E+00 -1.10881E+01 -2.37504E+00 -1.58327E+01 -1.27735E+01 -1.02620E+01 -1.06514E+01 -1.55916E+01 -1.31281E+01
  -1.33496E+01 -1.62722E+01 -1.81466E+01 -1.38829E+01 -1.23421E+01 -1.62780E+01 -8.86775E+00 -1.69479E+01 -1.45046E+00 -8.44088E+00
  -9.20655E+00 -1.39210E+01 -1.09356E+01 -1.31193E+01 -1.46609E+01 -1.46985E+01 -2.00511E+01 -1.77828E+01 -7.00856E+00 -1.80891E+01
  -1.72911E+01 -1.88359E+01 -5.65013E+00 -1.38637E+01 -9.31193E+00 -1.91436E+01 -1.21689E+01 -1.05907E+01 -4.62128E+00 -1.45480E+01
  -1.71100E+01 -1.48617E+01 -1.37869E+01 -2.12881E+01 -9.84700E+00 -1.34956E+01 -9.82283E+00 -7.89571E+00 -7.26738E+00 -2.04517E+01
  -1.76006E+01 -1.96555E+01 -6.73684E+00 -8.10553E+00 -1.26009E+01 -1.14829E+01 -2.34946E+01 -1.16877E+01 -8.97353E+00 -1.29868E+01
  -2.03327E+00 -1.73710E+01 -1.42894E+01 -1.49533E+01 -1.17484E+01 -1.07249E+01 -9.39369E+00 -1.67011E+01 -2.17612E+01 -1.91829E+01
  -1.35865E+01 -9.12883E+00 -1.27178E+01 -2.13498E+01 -1.74299E+01 -1.60275E+01 -2.29023E+01 -1.61325E+01
 NY points of the fit to the data follow
   4.31733E+01  4.27274E+01  4.26669E+01  4.29084E+01  4.34057E+01  4.41586E+01  4.56437E+01  4.87093E+01  5.36173E+01  6.10466E+01
   6.88235E+01  7.20133E+01  6.74355E+01  5.82380E+01  5.01033E+01  4.50295E+01  4.19728E+01  3.99900E+01  3.90176E+01  3.86239E+01
   3.85365E+01  3.84572E+01  3.81848E+01  3.77601E+01  3.74545E+01  3.74154E+01  3.78899E+01  4.01651E+01  4.41902E+01  4.78286E+01
   4.89569E+01  4.78267E+01  4.56382E+01  4.25230E+01  3.87715E+01  3.55350E+01  3.35041E+01  3.23986E+01  3.19296E+01  3.19577E+01
   3.22279E+01  3.27876E+01  3.40159E+01  3.61888E+01  3.96602E+01  4.44496E+01  4.86836E+01  4.90597E+01  4.44924E+01  3.76096E+01
   3.18011E+01  2.82763E+01  2.65705E+01  2.61594E+01  2.67180E+01  2.77481E+01  2.89929E+01  3.06137E+01  3.24172E+01  3.35575E+01
   3.30947E+01  3.10304E+01  2.82358E+01  2.57272E+01  2.42231E+01  2.39049E+01  2.45173E+01  2.55587E+01  2.65451E+01  2.73668E+01
   2.80126E+01  2.82596E+01  2.77904E+01  2.67571E+01  2.56782E+01  2.48479E+01  2.42278E+01  2.37108E+01  2.32740E+01  2.28557E+01
   2.24234E+01  2.19827E+01  2.14509E+01  2.07205E+01  1.95227E+01  1.76816E+01  1.54686E+01  1.37622E+01  1.33464E+01  1.42117E+01
   1.57158E+01  1.73054E+01  1.86623E+01  1.95556E+01  1.98345E+01  1.94110E+01  1.84300E+01  1.75916E+01  1.88623E+01  2.37234E+01
   3.29916E+01  4.65848E+01  5.86891E+01  6.09620E+01  5.12271E+01  3.70264E+01  2.60208E+01  1.94220E+01  1.55814E+01  1.37108E+01
   1.32690E+01  1.31733E+01  1.31298E+01  1.30706E+01  1.29806E+01  1.28547E+01  1.27028E+01  1.25134E+01  1.23208E+01  1.22614E+01
   1.24983E+01  1.32583E+01  1.55111E+01  2.06013E+01  2.91483E+01  4.18838E+01  5.45357E+01  5.92145E+01  5.20064E+01  3.85968E+01
   2.71635E+01  1.99978E+01  1.52592E+01  1.15212E+01  8.76558E+00  6.83877E+00  6.05284E+00  6.41188E+00  7.55567E+00  8.91356E+00
   9.85411E+00  1.00460E+01  9.61155E+00  8.93912E+00  8.30494E+00  7.76272E+00  7.27185E+00  6.83005E+00  6.43142E+00  6.01739E+00
   5.57930E+00  5.13784E+00  4.71321E+00  4.39515E+00  4.29567E+00  4.37549E+00  4.39031E+00  4.11305E+00  3.39844E+00  2.39993E+00
   1.62904E+00  1.50596E+00  2.00418E+00  2.55647E+00  2.61754E+00  2.05465E+00  1.20897E+00  4.70732E-01 -8.46342E-03 -2.39240E-01
  -3.16822E-01 -4.58050E-01 -9.03150E-01 -1.66474E+00 -2.49461E+00 -2.89540E+00 -2.64890E+00 -2.10780E+00 -1.99339E+00 -2.49552E+00
  -3.11934E+00 -3.29981E+00 -3.07802E+00 -2.85798E+00 -2.90192E+00 -2.93751E+00 -2.35722E+00 -9.27353E-01  8.76418E-01  2.25519E+00
   2.69101E+00  2.05549E+00  5.82627E-01 -1.21946E+00 -2.77495E+00 -3.91626E+00 -4.47989E+00 -4.13737E+00 -2.80190E+00 -9.40683E-01
   8.79541E-01  2.44376E+00  3.49707E+00  3.71868E+00  2.79092E+00  6.25807E-01 -2.39610E+00 -5.76584E+00 -8.84120E+00 -1.05165E+01
  -9.87544E+00 -6.94915E+00 -2.92870E+00  1.42910E+00  5.24384E+00  6.88935E+00  5.21115E+00  1.04417E+00 -3.64441E+00 -7.85192E+00
  -1.12009E+01 -1.27432E+01 -1.12229E+01 -7.15228E+00 -2.67932E+00  3.68015E-01  1.68383E+00  1.75115E+00  8.28186E-01 -7.38240E-01
  -2.10575E+00 -2.46506E+00 -1.68681E+00 -4.74671E-01  4.84210E-01  1.14203E+00  1.59046E+00  1.53028E+00  6.27907E-01 -6.58596E-01
  -1.89892E+00 -2.87248E+00 -3.20359E+00 -2.33627E+00 -6.38164E-01  8.04973E-01  1.48910E+00  1.59742E+00  1.40578E+00  1.18558E+00
   1.71814E+00  3.78446E+00  7.30358E+00  1.22686E+01  1.78148E+01  2.31953E+01  2.79883E+01  3.54652E+01  4.92193E+01  6.27020E+01
   6.39413E+01  4.98718E+01  3.08620E+01  1.63515E+01  7.27049E+00  1.45501E+00 -1.77973E+00 -3.19390E+00 -4.17498E+00 -4.92036E+00
  -5.35340E+00 -5.47438E+00 -5.38097E+00 -5.24387E+00 -5.28242E+00 -5.58229E+00 -6.06118E+00 -6.58389E+00 -7.08445E+00 -7.53250E+00
  -7.87976E+00 -8.09097E+00 -8.20072E+00 -8.27779E+00 -8.35511E+00 -8.43743E+00 -8.53426E+00 -8.64255E+00 -8.73344E+00 -8.77379E+00
  -8.75066E+00 -8.67970E+00 -8.59836E+00 -8.53543E+00 -8.48671E+00 -8.43451E+00 -8.37828E+00 -8.31473E+00 -8.22380E+00 -8.08928E+00
  -7.91960E+00 -7.73702E+00 -7.55637E+00 -7.38436E+00 -7.22516E+00 -7.08072E+00 -6.94829E+00 -6.82579E+00 -6.71205E+00 -6.60586E+00
  -6.50614E+00 -6.41141E+00 -6.31885E+00 -6.22432E+00 -6.12294E+00 -6.01043E+00 -5.88341E+00 -5.73872E+00 -5.57311E+00 -5.38401E+00
  -5.17020E+00 -4.93186E+00 -4.67008E+00 -4.38630E+00 -4.08244E+00 -3.76138E+00 -3.42712E+00 -3.08417E+00 -2.73673E+00 -2.38834E+00
  -2.04193E+00 -1.70025E+00 -1.36578E+00 -1.04011E+00 -7.23407E-01 -4.14461E-01 -1.11192E-01  1.88916E-01  4.88923E-01  7.92963E-01
   1.10704E+00  1.44106E+00  1.81192E+00  2.21706E+00  2.64225E+00  3.04379E+00  3.31326E+00  3.38741E+00  3.34943E+00  3.36584E+00
   3.51756E+00  3.76197E+00  4.08323E+00  4.51132E+00  4.98308E+00  5.32439E+00  5.41568E+00  5.29601E+00  5.06401E+00  4.76613E+00
   4.40661E+00  3.99494E+00  3.53651E+00  3.02843E+00  2.47431E+00  1.88091E+00  1.25655E+00  6.10680E-01 -4.65063E-02 -7.04651E-01
  -1.35385E+00 -1.98492E+00 -2.58914E+00 -3.15816E+00 -3.68405E+00 -4.15970E+00 -4.57897E+00 -4.93659E+00 -5.22773E+00 -5.44787E+00
  -5.59303E+00 -5.66017E+00 -5.64734E+00 -5.55352E+00 -5.37856E+00 -5.12337E+00 -4.79055E+00 -4.38479E+00 -3.91302E+00 -3.38418E+00
  -2.80916E+00 -2.20090E+00 -1.57452E+00 -9.47087E-01 -3.36905E-01  2.37394E-01  7.57567E-01  1.20624E+00  1.56742E+00  1.82733E+00
   1.97531E+00  2.00454E+00  1.91213E+00  1.69897E+00  1.36949E+00  9.31506E-01  3.96060E-01 -2.23210E-01 -9.10994E-01 -1.65132E+00
  -2.42824E+00 -3.22625E+00 -4.03062E+00 -4.82793E+00 -5.60673E+00 -6.35777E+00 -7.07396E+00 -7.75002E+00 -8.38227E+00 -8.96861E+00
  -9.50857E+00 -1.00030E+01 -1.04538E+01 -1.08630E+01 -1.12332E+01 -1.15670E+01 -1.18678E+01 -1.21387E+01 -1.23829E+01 -1.26030E+01
  -1.28014E+01 -1.29804E+01 -1.31424E+01 -1.32895E+01 -1.34235E+01 -1.35457E+01 -1.36572E+01 -1.37594E+01 -1.38534E+01 -1.39403E+01
  -1.40209E+01 -1.40954E+01 -1.41646E+01 -1.42290E+01 -1.42893E+01 -1.43460E+01 -1.43993E+01 -1.44492E+01 -1.44962E+01 -1.45406E+01
  -1.45828E+01 -1.46230E+01 -1.46610E+01 -1.46970E+01 -1.47312E+01 -1.47640E+01 -1.47955E+01 -1.48256E+01 -1.48543E+01 -1.48817E+01
  -1.49081E+01 -1.49336E+01 -1.49582E+01 -1.49819E+01 -1.50046E+01 -1.50263E+01 -1.50475E+01 -1.50681E+01 -1.50882E+01 -1.51074E+01
  -1.51259E+01 -1.51439E+01 -1.51615E+01 -1.51788E+01 -1.51955E+01 -1.52116E+01 -1.52272E+01 -1.52425E+01 -1.52576E+01 -1.52724E+01
  -1.52868E+01 -1.53006E+01 -1.53142E+01 -1.53276E+01 -1.53409E+01 -1.53539E+01 -1.53665E+01 -1.53787E+01 -1.53908E+01 -1.54029E+01
  -1.54149E+01 -1.54265E+01 -1.54379E+01 -1.54490E+01 -1.54601E+01 -1.54712E+01 -1.54822E+01 -1.54929E+01
 NY background values follow
     3.908E+01    3.882E+01    3.856E+01    3.830E+01    3.804E+01    3.778E+01    3.753E+01    3.727E+01    3.701E+01    3.675E+01
     3.649E+01    3.623E+01    3.597E+01    3.572E+01    3.546E+01    3.520E+01    3.494E+01    3.468E+01    3.442E+01    3.416E+01
     3.391E+01    3.365E+01    3.339E+01    3.313E+01    3.287E+01    3.262E+01    3.236E+01    3.210E+01    3.184E+01    3.159E+01
     3.133E+01    3.107E+01    3.082E+01    3.056E+01    3.030E+01    3.005E+01    2.979E+01    2.954E+01    2.928E+01    2.903E+01
     2.877E+01    2.852E+01    2.826E+01    2.801E+01    2.775E+01    2.750E+01    2.724E+01    2.699E+01    2.674E+01    2.649E+01
     2.623E+01    2.598E+01    2.573E+01    2.548E+01    2.523E+01    2.498E+01    2.473E+01    2.448E+01    2.423E+01    2.398E+01
     2.373E+01    2.348E+01    2.323E+01    2.298E+01    2.274E+01    2.249E+01    2.225E+01    2.200E+01    2.175E+01    2.151E+01
     2.127E+01    2.102E+01    2.078E+01    2.054E+01    2.030E+01    2.006E+01    1.982E+01    1.958E+01    1.934E+01    1.910E+01
     1.886E+01    1.862E+01    1.839E+01    1.815E+01    1.792E+01    1.768E+01    1.745E+01    1.722E+01    1.698E+01    1.675E+01
     1.652E+01    1.629E+01    1.606E+01    1.583E+01    1.561E+01    1.538E+01    1.515E+01    1.493E+01    1.470E+01    1.448E+01
     1.426E+01    1.404E+01    1.381E+01    1.359E+01    1.337E+01    1.316E+01    1.294E+01    1.272E+01    1.250E+01    1.229E+01
     1.207E+01    1.186E+01    1.165E+01    1.144E+01    1.122E+01    1.101E+01    1.080E+01    1.059E+01    1.039E+01    1.018E+01
     9.973E+00    9.768E+00    9.563E+00    9.359E+00    9.156E+00    8.954E+00    8.753E+00    8.552E+00    8.353E+00    8.154E+00
     7.956E+00    7.760E+00    7.563E+00    7.368E+00    7.174E+00    6.980E+00    6.788E+00    6.596E+00    6.405E+00    6.215E+00
     6.026E+00    5.838E+00    5.651E+00    5.464E+00    5.279E+00    5.094E+00    4.911E+00    4.728E+00    4.546E+00    4.365E+00
     4.185E+00    4.006E+00    3.828E+00    3.650E+00    3.474E+00    3.299E+00    3.124E+00    2.950E+00    2.778E+00    2.606E+00
     2.435E+00    2.265E+00    2.097E+00    1.929E+00    1.762E+00    1.595E+00    1.430E+00    1.266E+00    1.103E+00    9.408E-01
     7.796E-01    6.193E-01    4.599E-01    3.016E-01    1.442E-01   -1.221E-02   -1.676E-01   -3.221E-01   -4.755E-01   -6.280E-01
    -7.795E-01   -9.300E-01   -1.079E+00   -1.228E+00   -1.376E+00   -1.522E+00   -1.668E+00   -1.812E+00   -1.956E+00   -2.098E+00
    -2.240E+00   -2.381E+00   -2.521E+00   -2.659E+00   -2.797E+00   -2.934E+00   -3.070E+00   -3.205E+00   -3.339E+00   -3.472E+00
    -3.605E+00   -3.736E+00   -3.866E+00   -3.996E+00   -4.124E+00   -4.252E+00   -4.379E+00   -4.505E+00   -4.630E+00   -4.754E+00
    -4.877E+00   -4.999E+00   -5.120E+00   -5.241E+00   -5.360E+00   -5.479E+00   -5.597E+00   -5.714E+00   -5.830E+00   -5.945E+00
    -6.060E+00   -6.173E+00   -6.286E+00   -6.398E+00   -6.509E+00   -6.619E+00   -6.728E+00   -6.837E+00   -6.944E+00   -7.051E+00
    -7.157E+00   -7.262E+00   -7.367E+00   -7.470E+00   -7.573E+00   -7.675E+00   -7.776E+00   -7.876E+00   -7.976E+00   -8.074E+00
    -8.172E+00   -8.269E+00   -8.366E+00   -8.461E+00   -8.556E+00   -8.649E+00   -8.743E+00   -8.835E+00   -8.926E+00   -9.017E+00
    -9.107E+00   -9.196E+00   -9.284E+00   -9.372E+00   -9.458E+00   -9.544E+00   -9.630E+00   -9.714E+00   -9.798E+00   -9.881E+00
    -9.963E+00   -1.004E+01   -1.012E+01   -1.020E+01   -1.028E+01   -1.036E+01   -1.044E+01   -1.052E+01   -1.059E+01   -1.067E+01
    -1.074E+01   -1.082E+01   -1.089E+01   -1.096E+01   -1.103E+01   -1.110E+01   -1.117E+01   -1.124E+01   -1.131E+01   -1.138E+01
    -1.145E+01   -1.151E+01   -1.158E+01   -1.164E+01   -1.171E+01   -1.177E+01   -1.184E+01   -1.190E+01   -1.196E+01   -1.202E+01
    -1.208E+01   -1.214E+01   -1.220E+01   -1.226E+01   -1.232E+01   -1.237E+01   -1.243E+01   -1.249E+01   -1.254E+01   -1.260E+01
    -1.265E+01   -1.270E+01   -1.276E+01   -1.281E+01   -1.286E+01   -1.291E+01   -1.296E+01   -1.301E+01   -1.306E+01   -1.311E+01
    -1.316E+01   -1.320E+01   -1.325E+01   -1.330E+01   -1.334E+01   -1.339E+01   -1.343E+01   -1.347E+01   -1.352E+01   -1.356E+01
    -1.360E+01   -1.364E+01   -1.369E+01   -1.373E+01   -1.377E+01   -1.381E+01   -1.384E+01   -1.388E+01   -1.392E+01   -1.396E+01
    -1.400E+01   -1.403E+01   -1.407E+01   -1.410E+01   -1.414E+01   -1.417E+01   -1.421E+01   -1.424E+01   -1.427E+01   -1.431E+01
    -1.434E+01   -1.437E+01   -1.440E+01   -1.443E+01   -1.446E+01   -1.449E+01   -1.452E+01   -1.455E+01   -1.458E+01   -1.461E+01
    -1.464E+01   -1.467E+01   -1.469E+01   -1.472E+01   -1.475E+01   -1.477E+01   -1.480E+01   -1.482E+01   -1.485E+01   -1.487E+01
    -1.490E+01   -1.492E+01   -1.494E+01   -1.497E+01   -1.499E+01   -1.501E+01   -1.503E+01   -1.505E+01   -1.508E+01   -1.510E+01
    -1.512E+01   -1.514E+01   -1.516E+01   -1.518E+01   -1.520E+01   -1.521E+01   -1.523E+01   -1.525E+01   -1.527E+01   -1.529E+01
    -1.530E+01   -1.532E+01   -1.534E+01   -1.535E+01   -1.537E+01   -1.539E+01   -1.540E+01   -1.542E+01   -1.543E+01   -1.545E+01
    -1.546E+01   -1.548E+01   -1.549E+01   -1.550E+01   -1.552E+01   -1.553E+01   -1.554E+01   -1.556E+01   -1.557E+01   -1.558E+01
    -1.559E+01   -1.560E+01   -1.562E+01   -1.563E+01   -1.564E+01   -1.565E+01   -1.566E+01   -1.567E+01   -1.568E+01   -1.569E+01
    -1.570E+01   -1.571E+01   -1.572E+01   -1.573E+01   -1.574E+01   -1.574E+01   -1.575E+01   -1.576E+01   -1.577E+01   -1.578E+01
    -1.578E+01   -1.579E+01   -1.580E+01   -1.581E+01   -1.581E+01   -1.582E+01   -1.583E+01   -1.583E+01   -1.584E+01   -1.585E+01
    -1.585E+01   -1.586E+01   -1.587E+01   -1.587E+01   -1.588E+01   -1.588E+01   -1.589E+01   -1.589E+01   -1.590E+01   -1.590E+01
    -1.591E+01   -1.591E+01   -1.592E+01   -1.592E+01   -1.593E+01   -1.593E+01   -1.594E+01   -1.594E+01   -1.595E+01   -1.595E+01
    -1.596E+01   -1.596E+01   -1.596E+01   -1.597E+01   -1.597E+01   -1.598E+01   -1.598E+01   -1.598E+01   -1.599E+01   -1.599E+01
    -1.600E+01   -1.600E+01   -1.600E+01   -1.601E+01   -1.601E+01   -1.602E+01   -1.602E+01   -1.602E+01   -1.603E+01   -1.603E+01
    -1.603E+01   -1.604E+01   -1.604E+01   -1.605E+01   -1.605E+01   -1.605E+01   -1.606E+01   -1.606E+01   -1.606E+01   -1.607E+01
    -1.607E+01   -1.607E+01   -1.608E+01   -1.608E+01   -1.609E+01   -1.609E+01   -1.609E+01   -1.610E+01   -1.610E+01   -1.610E+01
    -1.611E+01   -1.611E+01   -1.611E+01   -1.612E+01   -1.612E+01   -1.613E+01   -1.613E+01   -1.613E+01
 Asp      Conc. = 1.13E+02
