 LCModel (Version 6.3-1L) Copyright: S.W. Provencher.          Ref.: Magn. Reson. Med. 30:672-679 (1993).                
 Slice#1 Row#1 Col#10  K_02_press_1_raw_act
 36 lines in following concentration table = NCONC+1
    Conc.  %SD /Cr+PCr  Metabolite                                         
   76.699  90%   0.387 Ala                                                 
   23.056 105%   0.116 Asp                                                 
  190.716  52%   0.963 Cr                                                  
    7.333 999% 3.7E-02 PCr                                                 
   16.848  86% 8.5E-02 GABA                                                
   16.607  88% 8.4E-02 Glc                                                 
  123.287 110%   0.623 Gln                                                 
   30.893 481%   0.156 Glu                                                 
    0.000 999%   0.000 GPC                                                 
   58.975  22%   0.298 PCh                                                 
   38.048 124%   0.192 GSH                                                 
   87.498 166%   0.442 Ins                                                 
  203.788  38%   1.029 Lac                                                 
  160.630  23%   0.811 NAA                                                 
    0.000 999%   0.000 NAAG                                                
    4.135 115% 2.1E-02 Scyllo                                              
   23.550 102%   0.119 Tau                                                 
    6.371 557% 3.2E-02 -CrCH2                                              
   58.975  22%   0.298 GPC+PCh                                             
  160.630  23%   0.811 NAA+NAAG                                            
  198.049  18%   1.000 Cr+PCr                                              
  154.180 127%   0.778 Glu+Gln                                             
 3.67E+03   9%  18.539 Lip13a                                              
    0.000 999%   0.000 Lip13b                                              
  858.573  13%   4.335 Lip09                                               
    0.000 999%   0.000 MM09                                                
  537.513  18%   2.714 Lip20                                               
    0.000 999%   0.000 MM20                                                
    0.000 999%   0.000 MM12                                                
 4.68E-03 999% 2.4E-05 MM14                                                
    0.000 999%   0.000 MM17                                                
 3.67E+03   9%  18.539 Lip13a+Lip13b                                       
 3.67E+03   9%  18.539 MM14+Lip13a+Lip13b+MM12                             
  858.573  13%   4.335 MM09+Lip09                                          
  537.513  18%   2.714 MM20+Lip20                                          
   6 lines in following misc. output table
  FWHM = 0.046 ppm    S/N =   2                                            
  Data shift = 0.015 ppm                                                   
  Ph:  46 deg     -35.6 deg/ppm                                            
  alphaB,S = 8.5E+01,   5.1E+01                                            
   14 spline knots.   Ns = 5(1)                                            
   2 inflections.     1 extrema                                            
  498 points on ppm-axis = NY
      4.000000     3.992357     3.984714     3.977070     3.969427     3.961784     3.954141     3.946497     3.938854     3.931211
      3.923568     3.915925     3.908281     3.900638     3.892995     3.885352     3.877708     3.870065     3.862422     3.854779
      3.847136     3.839492     3.831849     3.824206     3.816563     3.808919     3.801276     3.793633     3.785990     3.778347
      3.770703     3.763060     3.755417     3.747774     3.740130     3.732487     3.724844     3.717201     3.709558     3.701914
      3.694271     3.686628     3.678985     3.671341     3.663698     3.656055     3.648412     3.640769     3.633125     3.625482
      3.617839     3.610196     3.602552     3.594909     3.587266     3.579623     3.571980     3.564336     3.556693     3.549050
      3.541407     3.533763     3.526120     3.518477     3.510834     3.503191     3.495547     3.487904     3.480261     3.472618
      3.464974     3.457331     3.449688     3.442045     3.434402     3.426758     3.419115     3.411472     3.403829     3.396185
      3.388542     3.380899     3.373256     3.365613     3.357969     3.350326     3.342683     3.335040     3.327396     3.319753
      3.312110     3.304467     3.296824     3.289180     3.281537     3.273894     3.266251     3.258607     3.250964     3.243321
      3.235678     3.228034     3.220391     3.212748     3.205105     3.197462     3.189818     3.182175     3.174532     3.166889
      3.159245     3.151602     3.143959     3.136316     3.128673     3.121029     3.113386     3.105743     3.098100     3.090456
      3.082813     3.075170     3.067527     3.059884     3.052240     3.044597     3.036954     3.029311     3.021667     3.014024
      3.006381     2.998738     2.991095     2.983451     2.975808     2.968165     2.960522     2.952878     2.945235     2.937592
      2.929949     2.922306     2.914662     2.907019     2.899376     2.891733     2.884089     2.876446     2.868803     2.861160
      2.853517     2.845873     2.838230     2.830587     2.822944     2.815300     2.807657     2.800014     2.792371     2.784728
      2.777084     2.769441     2.761798     2.754155     2.746511     2.738868     2.731225     2.723582     2.715939     2.708295
      2.700652     2.693009     2.685366     2.677722     2.670079     2.662436     2.654793     2.647150     2.639506     2.631863
      2.624220     2.616577     2.608933     2.601290     2.593647     2.586004     2.578361     2.570717     2.563074     2.555431
      2.547788     2.540144     2.532501     2.524858     2.517215     2.509572     2.501928     2.494285     2.486642     2.478999
      2.471355     2.463712     2.456069     2.448426     2.440783     2.433139     2.425496     2.417853     2.410210     2.402566
      2.394923     2.387280     2.379637     2.371994     2.364350     2.356707     2.349064     2.341421     2.333777     2.326134
      2.318491     2.310848     2.303205     2.295561     2.287918     2.280275     2.272632     2.264988     2.257345     2.249702
      2.242059     2.234416     2.226772     2.219129     2.211486     2.203843     2.196199     2.188556     2.180913     2.173270
      2.165627     2.157983     2.150340     2.142697     2.135054     2.127410     2.119767     2.112124     2.104481     2.096838
      2.089194     2.081551     2.073908     2.066265     2.058621     2.050978     2.043335     2.035692     2.028049     2.020405
      2.012762     2.005119     1.997476     1.989833     1.982190     1.974546     1.966903     1.959260     1.951617     1.943974
      1.936331     1.928688     1.921045     1.913402     1.905759     1.898115     1.890472     1.882829     1.875186     1.867543
      1.859900     1.852257     1.844614     1.836971     1.829327     1.821684     1.814041     1.806398     1.798755     1.791112
      1.783469     1.775826     1.768183     1.760540     1.752896     1.745253     1.737610     1.729967     1.722324     1.714681
      1.707038     1.699395     1.691752     1.684108     1.676465     1.668822     1.661179     1.653536     1.645893     1.638250
      1.630607     1.622964     1.615321     1.607677     1.600034     1.592391     1.584748     1.577105     1.569462     1.561819
      1.554176     1.546533     1.538890     1.531246     1.523603     1.515960     1.508317     1.500674     1.493031     1.485388
      1.477745     1.470102     1.462458     1.454815     1.447172     1.439529     1.431886     1.424243     1.416600     1.408957
      1.401314     1.393671     1.386027     1.378384     1.370741     1.363098     1.355455     1.347812     1.340169     1.332526
      1.324883     1.317240     1.309596     1.301953     1.294310     1.286667     1.279024     1.271381     1.263738     1.256095
      1.248452     1.240808     1.233165     1.225522     1.217879     1.210236     1.202593     1.194950     1.187307     1.179664
      1.172021     1.164377     1.156734     1.149091     1.141448     1.133805     1.126162     1.118519     1.110876     1.103233
      1.095590     1.087946     1.080303     1.072660     1.065017     1.057374     1.049731     1.042088     1.034445     1.026802
      1.019158     1.011515     1.003872     0.996229     0.988586     0.980943     0.973300     0.965657     0.958014     0.950371
      0.942727     0.935084     0.927441     0.919798     0.912155     0.904512     0.896869     0.889226     0.881583     0.873940
      0.866296     0.858653     0.851010     0.843367     0.835724     0.828081     0.820438     0.812795     0.805152     0.797508
      0.789865     0.782222     0.774579     0.766936     0.759293     0.751650     0.744007     0.736364     0.728721     0.721077
      0.713434     0.705791     0.698148     0.690505     0.682862     0.675219     0.667576     0.659933     0.652290     0.644646
      0.637003     0.629360     0.621717     0.614074     0.606431     0.598788     0.591145     0.583502     0.575858     0.568215
      0.560572     0.552929     0.545286     0.537643     0.530000     0.522357     0.514714     0.507071     0.499427     0.491784
      0.484141     0.476498     0.468855     0.461212     0.453569     0.445925     0.438282     0.430639     0.422996     0.415353
      0.407710     0.400067     0.392424     0.384780     0.377137     0.369494     0.361851     0.354208     0.346565     0.338922
      0.331278     0.323635     0.315992     0.308349     0.300706     0.293063     0.285420     0.277777     0.270133     0.262490
      0.254847     0.247204     0.239561     0.231918     0.224275     0.216631     0.208988     0.201345
 NY phased data points follow
   1.42923E+00  1.88701E+00  1.41336E+00  4.48198E+00  3.40717E+00  3.24234E+00  2.71495E-01  2.69047E+00 -6.46369E-01  6.48681E+00
   6.07556E+00  5.02849E+00  8.02673E+00  9.26761E+00  1.50899E+00  7.60589E-01  1.16906E+00 -6.25138E-01  4.06229E+00 -2.22085E-01
   1.63410E+00  1.28219E+00  1.77917E+00 -2.06984E+00  4.46374E+00  1.59652E+00  1.90060E+00  2.68490E+00  2.55537E+00  2.72655E+00
  -4.19280E-01  3.64288E+00  3.88708E+00  2.15862E+00  4.27792E+00 -1.26764E+00  5.35764E+00  7.10794E-01  1.40334E+00 -9.29200E-01
   3.70725E+00  1.56716E+00  1.00934E+00 -3.31338E+00  2.35708E+00  2.95634E+00  8.53301E-01  2.48085E-01  6.80973E-01  1.22025E+00
   5.57390E+00  7.14279E-02 -1.28567E+00  9.18277E+00  2.19797E+00 -7.34040E-01  2.52721E+00  3.41266E+00  2.02587E+00  4.99764E+00
   1.55190E+00 -6.47008E-01  1.85831E+00  2.07329E+00  2.49998E+00  3.96491E+00  1.95929E+00 -1.96668E+00  9.26554E-01  3.63672E-01
  -4.66915E-01 -8.90062E-03  3.89164E-01  6.12426E+00  4.73107E-01  1.30335E+00  2.85642E-01  1.47268E+00 -1.64205E+00  4.26544E+00
  -3.41934E+00  2.13379E+00 -3.02778E+00  3.27052E+00  1.52870E+00 -1.28536E+00  2.42748E+00  1.21827E+00 -2.46603E+00  5.06441E-01
   1.29696E+00  9.39777E-01 -5.00052E-01  1.13238E+00  2.99577E+00  2.78466E+00  8.59295E-01  1.48690E+00  1.63809E+00  1.55313E+00
   8.23649E-02  9.15783E-01  5.82905E+00  1.16610E+01  1.07371E+01  5.12404E+00  2.24081E+00  5.63241E+00  8.50916E+00  3.43465E+00
  -5.48277E-01  2.08832E+00  7.02468E-02  6.97736E+00  1.20701E+00  3.75556E+00  5.24537E+00  1.70137E+00  1.98961E+00  1.35613E+00
  -1.66178E+00  7.42331E-01  2.04570E+00  1.19382E+00 -7.09528E-01  2.15849E+00  1.10105E+01  7.21181E+00  9.14911E+00  6.65208E+00
   7.42346E+00  8.85338E+00  8.37740E+00  3.66400E+00  6.02467E+00  3.87059E-01  1.58571E+00  5.75756E+00  3.83016E+00  8.12412E+00
   2.90321E+00  1.28196E+00 -9.60343E-01 -8.23899E-01  8.80334E-01  3.75773E+00  4.23143E+00  2.47972E+00  1.54797E+00  2.40744E+00
   1.03545E+00 -2.93483E-01  4.31838E+00  5.93478E+00  7.17093E+00  6.28415E+00  5.40495E+00  4.28144E+00  2.04500E+00  5.85834E-01
   2.33536E+00  2.63916E-01  3.66847E+00  2.40944E+00  4.27108E+00  5.02741E+00  6.87239E+00  3.48740E+00  2.40335E+00  2.71361E+00
   1.31309E+00 -2.91755E+00 -3.00670E-02  3.51784E+00 -1.46940E+00 -1.80305E+00  1.35984E+00 -1.46183E-01  1.73209E+00  2.20168E+00
   7.46356E-01  3.83641E+00 -3.01402E-01 -3.31627E-01 -5.77421E-01  2.02761E-01  4.01305E+00 -6.17935E-02  2.54701E+00  4.09836E+00
   2.69004E+00  3.67580E+00  8.74263E-01  5.22973E-01 -1.20260E+00  4.94451E-01  6.43707E+00  1.64585E+00  1.16035E+00  6.11959E+00
  -5.00111E-01  3.27691E+00  5.73045E-01  9.12011E-01  4.73272E+00  8.10008E-01  2.03120E+00 -5.31961E+00  5.48319E-01 -3.66731E+00
   7.58720E-02  6.34946E+00  1.19522E+00  2.76366E+00  4.15906E+00  4.01191E+00  8.37503E-01 -4.80761E-01  3.85065E+00  2.11230E+00
   7.68978E+00 -1.22814E+00  1.37384E+00  4.21191E+00 -1.49551E+00  5.68548E+00 -5.23260E-01  3.69875E+00  1.05336E+00 -3.56930E-02
   2.81214E+00 -2.95500E+00  4.87286E+00  1.87644E+00  8.74666E-01  1.09134E+00  3.28995E+00  4.98467E+00  3.52004E+00  6.57136E+00
   1.79184E+00  6.46526E+00  3.93838E+00  4.14717E+00  3.08297E+00  5.42269E+00 -1.03074E+00  4.06290E+00  1.50305E+00  2.75660E+00
   2.38579E+00  8.77136E-01 -3.87865E+00  1.50776E+00  4.10428E+00  3.47731E-01 -2.52288E+00  6.86982E+00  4.30578E+00  7.36882E+00
   8.05972E+00  1.57454E+01  5.23936E+00  5.56933E+00  6.69423E+00  9.00524E+00  3.17050E+00  4.17831E+00  3.25876E+00 -6.85386E-01
   3.38876E-01  7.08396E-01  3.25394E+00  2.82413E+00  5.37235E+00  3.21659E+00  9.31188E-01  3.42580E+00  4.17366E+00 -2.83943E+00
  -2.67912E+00  2.50256E+00 -1.16145E+00  4.81913E+00  6.53218E+00  1.07318E+00  1.38700E+00  3.90851E+00  1.32910E-01  1.08171E+00
  -1.48186E-01  3.36663E+00 -2.87710E+00  1.40362E+00  2.01093E+00 -3.38496E+00  4.53558E+00  3.64761E+00  4.62445E+00  4.93432E+00
   2.53526E+00  1.76988E+00 -1.92147E+00  2.17344E+00  5.14204E+00  4.23463E+00  4.47095E-01  1.72139E+00  7.10475E+00  3.32550E+00
   4.35095E+00  4.16757E+00  2.19639E+00  2.56825E+00  4.03112E+00  2.10672E+00  5.26520E+00  2.27750E+00  6.89652E+00  4.06529E+00
  -6.89941E-01  1.03349E+00 -4.62879E+00  5.67359E+00  2.64478E+00  2.63935E+00  1.23707E+01  3.18098E+00  4.46061E+00  8.47607E+00
   9.06923E+00  2.53544E+00  1.14040E+01  7.18280E+00  8.59492E+00  1.07005E+01  1.00627E+01  9.55560E+00  1.34828E+01  1.67846E+01
   1.80156E+01  1.73591E+01  1.67782E+01  1.51708E+01  1.27483E+01  1.64927E+01  1.64072E+01  1.52591E+01  1.47350E+01  9.13197E+00
   1.01251E+01  8.63680E+00  1.17255E+01  1.43204E+01  1.22409E+01  1.31780E+01  1.41010E+01  1.07395E+01  1.56146E+01  6.56913E+00
   1.04777E+01  1.04371E+01  7.19309E+00  1.40189E+01  9.74127E+00  7.57303E+00  8.13302E+00  6.29191E+00  1.28558E+01  1.10291E+01
   1.00228E+01  1.45209E+01  4.20912E+00  1.04016E+01  1.06468E+01  7.45782E+00  1.39065E+01  8.36467E+00  1.06984E+01  9.87239E+00
   8.33987E+00  7.83677E+00  8.56511E+00  5.03220E+00  9.08831E+00  3.62949E+00  6.14482E+00  7.51778E+00  1.88278E+00  1.24516E+01
   8.13189E+00  8.30511E+00  1.39449E+00  7.18279E+00  8.20517E+00  1.04457E+00  9.36310E+00  5.21975E+00  8.03197E+00  7.55371E+00
   3.83963E+00  7.89872E+00  5.36144E+00  8.08547E+00  5.46566E+00  4.24984E+00  9.32506E+00  3.91320E+00 -7.11428E-01  7.18900E+00
   8.63780E+00  5.39572E+00  3.08058E+00  4.18591E+00  8.66356E+00  3.85806E+00  2.28647E+00  5.18328E+00 -1.19492E+00  4.53611E+00
  -8.71483E-01  2.92430E+00  6.14931E+00  1.67535E+00  3.27081E+00  7.65045E-01  1.68811E+00 -2.39348E+00  4.39958E+00  4.02128E+00
   1.24349E+00  1.95375E+00  3.31019E+00  5.75476E-01  4.61507E+00  2.18673E+00  2.19064E+00 -1.82366E+00  4.70749E+00  2.63263E+00
   4.24933E+00  2.65559E+00  4.87169E-01  1.39747E+00  2.12566E+00  7.65131E-01  9.82078E-01  3.27486E+00  2.29398E+00  2.96035E+00
  -1.07245E+00  4.86888E+00  5.91253E+00  4.71990E+00  7.53020E+00  1.83731E+00  7.84465E-01  7.18646E+00  4.78088E-01  2.77339E-01
   1.37463E+00  2.04667E+00  2.12890E-01  1.16089E+00  4.51212E+00  1.63330E+00  3.69834E+00  5.36524E+00  2.79410E+00  3.82511E+00
   9.28484E-01  3.43545E+00  4.85768E+00 -1.95360E-01  3.74800E+00  3.76083E+00  4.16963E+00  7.02826E+00  1.30460E+00  1.03677E+00
  -6.85216E-01 -2.75954E+00  5.29325E+00 -8.48669E-01  4.35782E+00  1.54052E+00  2.01129E+00 -1.52282E+00 -6.72110E-01  6.75045E-01
   1.49354E+00 -4.95157E+00  1.54627E+00  2.86339E+00  1.08341E+00  6.79016E-01 -6.87599E-01  3.74194E+00
 NY points of the fit to the data follow
   1.18348E+00  1.18404E+00  1.21679E+00  1.27491E+00  1.32741E+00  1.37434E+00  1.49219E+00  1.84922E+00  2.59591E+00  3.69117E+00
   4.86114E+00  5.72744E+00  6.02555E+00  5.73660E+00  5.04409E+00  4.14343E+00  3.14637E+00  2.19525E+00  1.55841E+00  1.38412E+00
   1.41462E+00  1.49981E+00  1.58005E+00  1.60741E+00  1.55488E+00  1.45257E+00  1.38928E+00  1.45009E+00  1.65721E+00  1.95214E+00
   2.23799E+00  2.43730E+00  2.51514E+00  2.44077E+00  2.22447E+00  1.93012E+00  1.64937E+00  1.46541E+00  1.36264E+00  1.31128E+00
   1.28935E+00  1.28540E+00  1.29567E+00  1.33684E+00  1.43647E+00  1.59843E+00  1.78059E+00  1.90646E+00  1.92602E+00  1.84651E+00
   1.70555E+00  1.54996E+00  1.40463E+00  1.28674E+00  1.23000E+00  1.24758E+00  1.31210E+00  1.39500E+00  1.47657E+00  1.54233E+00
   1.58087E+00  1.57958E+00  1.54270E+00  1.48744E+00  1.42921E+00  1.37938E+00  1.35132E+00  1.35118E+00  1.37496E+00  1.41606E+00
   1.46362E+00  1.51256E+00  1.55992E+00  1.60106E+00  1.62911E+00  1.63342E+00  1.60926E+00  1.55702E+00  1.49334E+00  1.44188E+00
   1.40823E+00  1.39641E+00  1.41711E+00  1.46370E+00  1.50607E+00  1.51655E+00  1.48290E+00  1.41412E+00  1.33798E+00  1.28088E+00
   1.24708E+00  1.22946E+00  1.22977E+00  1.25741E+00  1.30108E+00  1.34651E+00  1.39348E+00  1.45854E+00  1.62515E+00  2.11421E+00
   3.12925E+00  4.62067E+00  6.22438E+00  7.42663E+00  7.85705E+00  7.48381E+00  6.56530E+00  5.37265E+00  4.04906E+00  2.76380E+00
   1.85735E+00  1.53247E+00  1.44427E+00  1.40748E+00  1.38890E+00  1.38100E+00  1.37629E+00  1.37197E+00  1.36982E+00  1.37556E+00
   1.40066E+00  1.47514E+00  1.71895E+00  2.39175E+00  3.68784E+00  5.48427E+00  7.31589E+00  8.60158E+00  8.98035E+00  8.48331E+00
   7.42126E+00  6.07570E+00  4.58133E+00  3.13920E+00  2.14842E+00  1.75605E+00  1.59235E+00  1.52386E+00  1.53137E+00  1.59821E+00
   1.70523E+00  1.82523E+00  1.92592E+00  1.99548E+00  2.03262E+00  2.04039E+00  2.03202E+00  2.02045E+00  2.01243E+00  2.01133E+00
   2.01064E+00  2.00980E+00  2.01140E+00  2.01836E+00  2.02894E+00  2.03921E+00  2.04283E+00  2.02883E+00  1.99206E+00  1.94003E+00
   1.89134E+00  1.86438E+00  1.86463E+00  1.88264E+00  1.90074E+00  1.90583E+00  1.89399E+00  1.86411E+00  1.81430E+00  1.75160E+00
   1.68650E+00  1.62376E+00  1.56340E+00  1.49677E+00  1.42841E+00  1.37496E+00  1.34475E+00  1.33081E+00  1.31839E+00  1.29970E+00
   1.28125E+00  1.27250E+00  1.26792E+00  1.24975E+00  1.21932E+00  1.20762E+00  1.23822E+00  1.31758E+00  1.42690E+00  1.53784E+00
   1.62412E+00  1.66394E+00  1.64489E+00  1.56445E+00  1.43474E+00  1.29281E+00  1.18788E+00  1.16149E+00  1.24046E+00  1.41964E+00
   1.66217E+00  1.91889E+00  2.14408E+00  2.28669E+00  2.30579E+00  2.16409E+00  1.86969E+00  1.49084E+00  1.13776E+00  9.08137E-01
   8.50520E-01  9.65330E-01  1.21005E+00  1.51901E+00  1.83939E+00  2.12059E+00  2.29911E+00  2.34593E+00  2.32777E+00  2.29566E+00
   2.25930E+00  2.24439E+00  2.27686E+00  2.35644E+00  2.45391E+00  2.54071E+00  2.60030E+00  2.62030E+00  2.59429E+00  2.53139E+00
   2.46111E+00  2.40780E+00  2.37431E+00  2.36071E+00  2.38290E+00  2.46144E+00  2.60373E+00  2.78249E+00  2.93646E+00  3.01545E+00
   3.00967E+00  2.92496E+00  2.77310E+00  2.59308E+00  2.46126E+00  2.40916E+00  2.42710E+00  2.51717E+00  2.67891E+00  2.87160E+00
   3.04969E+00  3.20200E+00  3.32043E+00  3.40601E+00  3.48079E+00  3.65100E+00  4.14161E+00  5.12650E+00  6.51424E+00  7.92337E+00
   8.88226E+00  9.10044E+00  8.60868E+00  7.66300E+00  6.49133E+00  5.20905E+00  3.99748E+00  3.19739E+00  2.88776E+00  2.73507E+00
   2.62642E+00  2.54654E+00  2.48891E+00  2.44785E+00  2.41906E+00  2.39637E+00  2.37232E+00  2.34203E+00  2.30589E+00  2.26604E+00
   2.22611E+00  2.19020E+00  2.16171E+00  2.14405E+00  2.13791E+00  2.14044E+00  2.14888E+00  2.16126E+00  2.17551E+00  2.19046E+00
   2.20516E+00  2.21914E+00  2.23354E+00  2.24981E+00  2.26833E+00  2.28933E+00  2.31348E+00  2.34107E+00  2.37181E+00  2.40565E+00
   2.44273E+00  2.48276E+00  2.52582E+00  2.57212E+00  2.62190E+00  2.67541E+00  2.73296E+00  2.79483E+00  2.86139E+00  2.93305E+00
   3.01028E+00  3.09361E+00  3.18368E+00  3.28122E+00  3.38709E+00  3.50233E+00  3.62825E+00  3.76651E+00  3.91932E+00  4.08995E+00
   4.28382E+00  4.51175E+00  4.79631E+00  5.15106E+00  5.53844E+00  5.87034E+00  6.05657E+00  6.06252E+00  5.93152E+00  5.75314E+00
   5.61878E+00  5.61416E+00  5.83176E+00  6.35367E+00  7.17725E+00  8.13394E+00  9.03261E+00  9.80948E+00  1.04703E+01  1.10431E+01
   1.15463E+01  1.20352E+01  1.26600E+01  1.34796E+01  1.42826E+01  1.47711E+01  1.47255E+01  1.41283E+01  1.31563E+01  1.20790E+01
   1.11766E+01  1.06970E+01  1.08455E+01  1.16942E+01  1.29824E+01  1.41269E+01  1.48391E+01  1.51164E+01  1.50311E+01  1.46139E+01
   1.39028E+01  1.30966E+01  1.24474E+01  1.19098E+01  1.14192E+01  1.09544E+01  1.05082E+01  1.00791E+01  9.66730E+00  9.27413E+00
   8.90112E+00  8.54982E+00  8.22167E+00  7.91785E+00  7.63924E+00  7.38639E+00  7.15956E+00  6.95881E+00  6.78400E+00  6.63482E+00
   6.51070E+00  6.41090E+00  6.33451E+00  6.28051E+00  6.24773E+00  6.23478E+00  6.24007E+00  6.26180E+00  6.29796E+00  6.34637E+00
   6.40465E+00  6.47019E+00  6.54020E+00  6.61176E+00  6.68188E+00  6.74760E+00  6.80600E+00  6.85426E+00  6.88975E+00  6.91016E+00
   6.91354E+00  6.89840E+00  6.86369E+00  6.80882E+00  6.73374E+00  6.63890E+00  6.52525E+00  6.39417E+00  6.24737E+00  6.08685E+00
   5.91484E+00  5.73368E+00  5.54581E+00  5.35361E+00  5.15934E+00  4.96510E+00  4.77278E+00  4.58410E+00  4.40049E+00  4.22312E+00
   4.05288E+00  3.89043E+00  3.73623E+00  3.59053E+00  3.45341E+00  3.32480E+00  3.20448E+00  3.09216E+00  2.98752E+00  2.89016E+00
   2.79966E+00  2.71557E+00  2.63743E+00  2.56482E+00  2.49733E+00  2.43457E+00  2.37616E+00  2.32174E+00  2.27096E+00  2.22354E+00
   2.17921E+00  2.13774E+00  2.09886E+00  2.06236E+00  2.02805E+00  1.99577E+00  1.96536E+00  1.93669E+00  1.90960E+00  1.88398E+00
   1.85971E+00  1.83671E+00  1.81490E+00  1.79419E+00  1.77449E+00  1.75573E+00  1.73786E+00  1.72083E+00  1.70458E+00  1.68907E+00
   1.67422E+00  1.66001E+00  1.64641E+00  1.63338E+00  1.62091E+00  1.60893E+00  1.59742E+00  1.58635E+00  1.57572E+00  1.56551E+00
   1.55568E+00  1.54621E+00  1.53707E+00  1.52826E+00  1.51978E+00  1.51160E+00  1.50370E+00  1.49606E+00  1.48867E+00  1.48153E+00
   1.47464E+00  1.46797E+00  1.46151E+00  1.45525E+00  1.44919E+00  1.44332E+00  1.43764E+00  1.43214E+00  1.42679E+00  1.42159E+00
   1.41656E+00  1.41168E+00  1.40695E+00  1.40236E+00  1.39788E+00  1.39354E+00  1.38933E+00  1.38526E+00
 NY background values follow
     1.032E+00    1.032E+00    1.033E+00    1.033E+00    1.033E+00    1.033E+00    1.033E+00    1.034E+00    1.034E+00    1.034E+00
     1.034E+00    1.034E+00    1.035E+00    1.035E+00    1.035E+00    1.035E+00    1.035E+00    1.035E+00    1.036E+00    1.036E+00
     1.036E+00    1.036E+00    1.036E+00    1.037E+00    1.037E+00    1.037E+00    1.037E+00    1.037E+00    1.037E+00    1.038E+00
     1.038E+00    1.038E+00    1.038E+00    1.038E+00    1.039E+00    1.039E+00    1.039E+00    1.039E+00    1.039E+00    1.040E+00
     1.040E+00    1.040E+00    1.040E+00    1.040E+00    1.040E+00    1.041E+00    1.041E+00    1.041E+00    1.041E+00    1.041E+00
     1.042E+00    1.042E+00    1.042E+00    1.042E+00    1.042E+00    1.042E+00    1.043E+00    1.043E+00    1.043E+00    1.043E+00
     1.043E+00    1.044E+00    1.044E+00    1.044E+00    1.044E+00    1.044E+00    1.045E+00    1.045E+00    1.045E+00    1.045E+00
     1.045E+00    1.045E+00    1.046E+00    1.046E+00    1.046E+00    1.046E+00    1.046E+00    1.047E+00    1.047E+00    1.047E+00
     1.047E+00    1.047E+00    1.047E+00    1.048E+00    1.048E+00    1.048E+00    1.048E+00    1.048E+00    1.049E+00    1.049E+00
     1.049E+00    1.049E+00    1.049E+00    1.049E+00    1.050E+00    1.050E+00    1.050E+00    1.050E+00    1.050E+00    1.051E+00
     1.051E+00    1.051E+00    1.051E+00    1.051E+00    1.052E+00    1.052E+00    1.052E+00    1.052E+00    1.052E+00    1.052E+00
     1.053E+00    1.053E+00    1.053E+00    1.053E+00    1.053E+00    1.054E+00    1.054E+00    1.054E+00    1.054E+00    1.054E+00
     1.054E+00    1.055E+00    1.055E+00    1.055E+00    1.055E+00    1.055E+00    1.056E+00    1.056E+00    1.056E+00    1.056E+00
     1.056E+00    1.057E+00    1.057E+00    1.057E+00    1.057E+00    1.057E+00    1.057E+00    1.058E+00    1.058E+00    1.058E+00
     1.058E+00    1.058E+00    1.059E+00    1.059E+00    1.059E+00    1.059E+00    1.059E+00    1.059E+00    1.060E+00    1.060E+00
     1.060E+00    1.060E+00    1.060E+00    1.061E+00    1.061E+00    1.061E+00    1.061E+00    1.061E+00    1.061E+00    1.062E+00
     1.062E+00    1.062E+00    1.062E+00    1.062E+00    1.063E+00    1.063E+00    1.063E+00    1.063E+00    1.063E+00    1.064E+00
     1.064E+00    1.064E+00    1.064E+00    1.064E+00    1.064E+00    1.065E+00    1.065E+00    1.065E+00    1.065E+00    1.065E+00
     1.066E+00    1.066E+00    1.066E+00    1.066E+00    1.066E+00    1.066E+00    1.067E+00    1.067E+00    1.067E+00    1.067E+00
     1.067E+00    1.068E+00    1.068E+00    1.068E+00    1.068E+00    1.068E+00    1.069E+00    1.069E+00    1.069E+00    1.069E+00
     1.069E+00    1.069E+00    1.070E+00    1.070E+00    1.070E+00    1.070E+00    1.070E+00    1.071E+00    1.071E+00    1.071E+00
     1.071E+00    1.071E+00    1.071E+00    1.072E+00    1.072E+00    1.072E+00    1.072E+00    1.072E+00    1.073E+00    1.073E+00
     1.073E+00    1.073E+00    1.073E+00    1.074E+00    1.074E+00    1.074E+00    1.074E+00    1.074E+00    1.074E+00    1.075E+00
     1.075E+00    1.075E+00    1.075E+00    1.075E+00    1.076E+00    1.076E+00    1.076E+00    1.076E+00    1.076E+00    1.076E+00
     1.077E+00    1.077E+00    1.077E+00    1.077E+00    1.077E+00    1.078E+00    1.078E+00    1.078E+00    1.078E+00    1.078E+00
     1.078E+00    1.079E+00    1.079E+00    1.079E+00    1.079E+00    1.079E+00    1.080E+00    1.080E+00    1.080E+00    1.080E+00
     1.080E+00    1.081E+00    1.081E+00    1.081E+00    1.081E+00    1.081E+00    1.081E+00    1.082E+00    1.082E+00    1.082E+00
     1.082E+00    1.082E+00    1.083E+00    1.083E+00    1.083E+00    1.083E+00    1.083E+00    1.083E+00    1.084E+00    1.084E+00
     1.084E+00    1.084E+00    1.084E+00    1.085E+00    1.085E+00    1.085E+00    1.085E+00    1.085E+00    1.086E+00    1.086E+00
     1.086E+00    1.086E+00    1.086E+00    1.086E+00    1.087E+00    1.087E+00    1.087E+00    1.087E+00    1.087E+00    1.088E+00
     1.088E+00    1.088E+00    1.088E+00    1.088E+00    1.088E+00    1.089E+00    1.089E+00    1.089E+00    1.089E+00    1.089E+00
     1.090E+00    1.090E+00    1.090E+00    1.090E+00    1.090E+00    1.091E+00    1.091E+00    1.091E+00    1.091E+00    1.091E+00
     1.091E+00    1.092E+00    1.092E+00    1.092E+00    1.092E+00    1.092E+00    1.093E+00    1.093E+00    1.093E+00    1.093E+00
     1.093E+00    1.093E+00    1.094E+00    1.094E+00    1.094E+00    1.094E+00    1.094E+00    1.095E+00    1.095E+00    1.095E+00
     1.095E+00    1.095E+00    1.096E+00    1.096E+00    1.096E+00    1.096E+00    1.096E+00    1.096E+00    1.097E+00    1.097E+00
     1.097E+00    1.097E+00    1.097E+00    1.098E+00    1.098E+00    1.098E+00    1.098E+00    1.098E+00    1.098E+00    1.099E+00
     1.099E+00    1.099E+00    1.099E+00    1.099E+00    1.100E+00    1.100E+00    1.100E+00    1.100E+00    1.100E+00    1.101E+00
     1.101E+00    1.101E+00    1.101E+00    1.101E+00    1.101E+00    1.102E+00    1.102E+00    1.102E+00    1.102E+00    1.102E+00
     1.103E+00    1.103E+00    1.103E+00    1.103E+00    1.103E+00    1.103E+00    1.104E+00    1.104E+00    1.104E+00    1.104E+00
     1.104E+00    1.105E+00    1.105E+00    1.105E+00    1.105E+00    1.105E+00    1.106E+00    1.106E+00    1.106E+00    1.106E+00
     1.106E+00    1.106E+00    1.107E+00    1.107E+00    1.107E+00    1.107E+00    1.107E+00    1.108E+00    1.108E+00    1.108E+00
     1.108E+00    1.108E+00    1.108E+00    1.109E+00    1.109E+00    1.109E+00    1.109E+00    1.109E+00    1.110E+00    1.110E+00
     1.110E+00    1.110E+00    1.110E+00    1.111E+00    1.111E+00    1.111E+00    1.111E+00    1.111E+00    1.111E+00    1.112E+00
     1.112E+00    1.112E+00    1.112E+00    1.112E+00    1.113E+00    1.113E+00    1.113E+00    1.113E+00    1.113E+00    1.114E+00
     1.114E+00    1.114E+00    1.114E+00    1.114E+00    1.114E+00    1.115E+00    1.115E+00    1.115E+00    1.115E+00    1.115E+00
     1.116E+00    1.116E+00    1.116E+00    1.116E+00    1.116E+00    1.116E+00    1.117E+00    1.117E+00    1.117E+00    1.117E+00
     1.117E+00    1.118E+00    1.118E+00    1.118E+00    1.118E+00    1.118E+00    1.119E+00    1.119E+00    1.119E+00    1.119E+00
     1.119E+00    1.119E+00    1.120E+00    1.120E+00    1.120E+00    1.120E+00    1.120E+00    1.121E+00    1.121E+00    1.121E+00
     1.121E+00    1.121E+00    1.121E+00    1.122E+00    1.122E+00    1.122E+00    1.122E+00    1.122E+00    1.123E+00    1.123E+00
     1.123E+00    1.123E+00    1.123E+00    1.124E+00    1.124E+00    1.124E+00    1.124E+00    1.124E+00
 Ala      Conc. = 7.67E+01
