 LCModel (Version 6.3-1L) Copyright: S.W. Provencher.          Ref.: Magn. Reson. Med. 30:672-679 (1993).                
 Slice#3 Row#4 Col#7  K_02_press_1_raw_act
 36 lines in following concentration table = NCONC+1
    Conc.  %SD /Cr+PCr  Metabolite                                         
    0.000 999%   0.000 Ala                                                 
  111.229 268% 4.4E-02 Asp                                                 
 1.21E+03  23%   0.483 Cr                                                  
 1.29E+03  22%   0.517 PCr                                                 
    0.000 999%   0.000 GABA                                                
    0.000 999%   0.000 Glc                                                 
 1.46E+03  21%   0.585 Gln                                                 
 2.67E+03  13%   1.068 Glu                                                 
  701.129   4%   0.280 GPC                                                 
    0.000 999%   0.000 PCh                                                 
  712.534  13%   0.285 GSH                                                 
  887.124  34%   0.354 Ins                                                 
    0.000 999%   0.000 Lac                                                 
 2.93E+03   5%   1.172 NAA                                                 
   87.871 197% 3.5E-02 NAAG                                                
    0.000 999%   0.000 Scyllo                                              
    0.000 999%   0.000 Tau                                                 
    0.000 999%   0.000 -CrCH2                                              
  701.129   4%   0.280 GPC+PCh                                             
 3.02E+03   4%   1.207 NAA+NAAG                                            
 2.50E+03   3%   1.000 Cr+PCr                                              
 4.14E+03  12%   1.653 Glu+Gln                                             
 5.33E+03  19%   2.130 Lip13a                                              
    0.000 999%   0.000 Lip13b                                              
    0.000 999%   0.000 Lip09                                               
 2.52E+03  13%   1.008 MM09                                                
  677.890  66%   0.271 Lip20                                               
 4.65E+03  13%   1.857 MM20                                                
  734.188  35%   0.293 MM12                                                
 4.74E+03  16%   1.894 MM14                                                
 2.29E+03  21%   0.915 MM17                                                
 5.33E+03  19%   2.130 Lip13a+Lip13b                                       
 1.08E+04   8%   4.317 MM14+Lip13a+Lip13b+MM12                             
 2.52E+03  13%   1.008 MM09+Lip09                                          
 5.33E+03  11%   2.128 MM20+Lip20                                          
   6 lines in following misc. output table
  FWHM = 0.054 ppm    S/N =  13                                            
  Data shift = 0.023 ppm                                                   
  Ph:   9 deg      -4.9 deg/ppm                                            
  alphaB,S = 8.9E-01,   5.1E+01                                            
   14 spline knots.   Ns = 7(1)                                            
  (13) 5 infls.   (13) 1 extrs.                                            
  498 points on ppm-axis = NY
      4.000000     3.992357     3.984714     3.977070     3.969427     3.961784     3.954141     3.946497     3.938854     3.931211
      3.923568     3.915925     3.908281     3.900638     3.892995     3.885352     3.877708     3.870065     3.862422     3.854779
      3.847136     3.839492     3.831849     3.824206     3.816563     3.808919     3.801276     3.793633     3.785990     3.778347
      3.770703     3.763060     3.755417     3.747774     3.740130     3.732487     3.724844     3.717201     3.709558     3.701914
      3.694271     3.686628     3.678985     3.671341     3.663698     3.656055     3.648412     3.640769     3.633125     3.625482
      3.617839     3.610196     3.602552     3.594909     3.587266     3.579623     3.571980     3.564336     3.556693     3.549050
      3.541407     3.533763     3.526120     3.518477     3.510834     3.503191     3.495547     3.487904     3.480261     3.472618
      3.464974     3.457331     3.449688     3.442045     3.434402     3.426758     3.419115     3.411472     3.403829     3.396185
      3.388542     3.380899     3.373256     3.365613     3.357969     3.350326     3.342683     3.335040     3.327396     3.319753
      3.312110     3.304467     3.296824     3.289180     3.281537     3.273894     3.266251     3.258607     3.250964     3.243321
      3.235678     3.228034     3.220391     3.212748     3.205105     3.197462     3.189818     3.182175     3.174532     3.166889
      3.159245     3.151602     3.143959     3.136316     3.128673     3.121029     3.113386     3.105743     3.098100     3.090456
      3.082813     3.075170     3.067527     3.059884     3.052240     3.044597     3.036954     3.029311     3.021667     3.014024
      3.006381     2.998738     2.991095     2.983451     2.975808     2.968165     2.960522     2.952878     2.945235     2.937592
      2.929949     2.922306     2.914662     2.907019     2.899376     2.891733     2.884089     2.876446     2.868803     2.861160
      2.853517     2.845873     2.838230     2.830587     2.822944     2.815300     2.807657     2.800014     2.792371     2.784728
      2.777084     2.769441     2.761798     2.754155     2.746511     2.738868     2.731225     2.723582     2.715939     2.708295
      2.700652     2.693009     2.685366     2.677722     2.670079     2.662436     2.654793     2.647150     2.639506     2.631863
      2.624220     2.616577     2.608933     2.601290     2.593647     2.586004     2.578361     2.570717     2.563074     2.555431
      2.547788     2.540144     2.532501     2.524858     2.517215     2.509572     2.501928     2.494285     2.486642     2.478999
      2.471355     2.463712     2.456069     2.448426     2.440783     2.433139     2.425496     2.417853     2.410210     2.402566
      2.394923     2.387280     2.379637     2.371994     2.364350     2.356707     2.349064     2.341421     2.333777     2.326134
      2.318491     2.310848     2.303205     2.295561     2.287918     2.280275     2.272632     2.264988     2.257345     2.249702
      2.242059     2.234416     2.226772     2.219129     2.211486     2.203843     2.196199     2.188556     2.180913     2.173270
      2.165627     2.157983     2.150340     2.142697     2.135054     2.127410     2.119767     2.112124     2.104481     2.096838
      2.089194     2.081551     2.073908     2.066265     2.058621     2.050978     2.043335     2.035692     2.028049     2.020405
      2.012762     2.005119     1.997476     1.989833     1.982190     1.974546     1.966903     1.959260     1.951617     1.943974
      1.936331     1.928688     1.921045     1.913402     1.905759     1.898115     1.890472     1.882829     1.875186     1.867543
      1.859900     1.852257     1.844614     1.836971     1.829327     1.821684     1.814041     1.806398     1.798755     1.791112
      1.783469     1.775826     1.768183     1.760540     1.752896     1.745253     1.737610     1.729967     1.722324     1.714681
      1.707038     1.699395     1.691752     1.684108     1.676465     1.668822     1.661179     1.653536     1.645893     1.638250
      1.630607     1.622964     1.615321     1.607677     1.600034     1.592391     1.584748     1.577105     1.569462     1.561819
      1.554176     1.546533     1.538890     1.531246     1.523603     1.515960     1.508317     1.500674     1.493031     1.485388
      1.477745     1.470102     1.462458     1.454815     1.447172     1.439529     1.431886     1.424243     1.416600     1.408957
      1.401314     1.393671     1.386027     1.378384     1.370741     1.363098     1.355455     1.347812     1.340169     1.332526
      1.324883     1.317240     1.309596     1.301953     1.294310     1.286667     1.279024     1.271381     1.263738     1.256095
      1.248452     1.240808     1.233165     1.225522     1.217879     1.210236     1.202593     1.194950     1.187307     1.179664
      1.172021     1.164377     1.156734     1.149091     1.141448     1.133805     1.126162     1.118519     1.110876     1.103233
      1.095590     1.087946     1.080303     1.072660     1.065017     1.057374     1.049731     1.042088     1.034445     1.026802
      1.019158     1.011515     1.003872     0.996229     0.988586     0.980943     0.973300     0.965657     0.958014     0.950371
      0.942727     0.935084     0.927441     0.919798     0.912155     0.904512     0.896869     0.889226     0.881583     0.873940
      0.866296     0.858653     0.851010     0.843367     0.835724     0.828081     0.820438     0.812795     0.805152     0.797508
      0.789865     0.782222     0.774579     0.766936     0.759293     0.751650     0.744007     0.736364     0.728721     0.721077
      0.713434     0.705791     0.698148     0.690505     0.682862     0.675219     0.667576     0.659933     0.652290     0.644646
      0.637003     0.629360     0.621717     0.614074     0.606431     0.598788     0.591145     0.583502     0.575858     0.568215
      0.560572     0.552929     0.545286     0.537643     0.530000     0.522357     0.514714     0.507071     0.499427     0.491784
      0.484141     0.476498     0.468855     0.461212     0.453569     0.445925     0.438282     0.430639     0.422996     0.415353
      0.407710     0.400067     0.392424     0.384780     0.377137     0.369494     0.361851     0.354208     0.346565     0.338922
      0.331278     0.323635     0.315992     0.308349     0.300706     0.293063     0.285420     0.277777     0.270133     0.262490
      0.254847     0.247204     0.239561     0.231918     0.224275     0.216631     0.208988     0.201345
 NY phased data points follow
   6.28405E+01  7.09580E+01  6.71769E+01  6.81733E+01  6.83213E+01  7.71583E+01  8.53794E+01  9.58868E+01  1.02334E+02  1.12893E+02
   1.07122E+02  1.17606E+02  1.10722E+02  1.03574E+02  9.48913E+01  8.84107E+01  8.05171E+01  6.81744E+01  6.17246E+01  6.15579E+01
   6.11556E+01  5.99322E+01  5.72337E+01  5.61079E+01  5.67876E+01  6.17633E+01  5.69739E+01  6.45865E+01  6.25584E+01  6.39960E+01
   6.69741E+01  6.83829E+01  7.10332E+01  6.39625E+01  5.65438E+01  5.64497E+01  5.92622E+01  5.68101E+01  5.27508E+01  5.67686E+01
   5.48687E+01  5.40492E+01  5.27988E+01  5.29123E+01  5.55103E+01  6.06980E+01  5.69065E+01  5.16079E+01  5.87922E+01  5.16280E+01
   5.05488E+01  4.54033E+01  3.93379E+01  4.39319E+01  4.49195E+01  4.47652E+01  3.97291E+01  4.34367E+01  4.53819E+01  3.95303E+01
   3.68724E+01  3.36694E+01  3.27737E+01  3.27272E+01  2.72044E+01  2.05902E+01  2.80811E+01  3.03446E+01  1.80048E+01  2.40246E+01
   2.56031E+01  2.70058E+01  2.64616E+01  2.90751E+01  2.86998E+01  2.64990E+01  2.58950E+01  2.07925E+01  2.35972E+01  1.95425E+01
   2.13802E+01  2.31737E+01  2.27656E+01  2.28479E+01  2.16064E+01  2.03233E+01  1.62595E+01  2.57949E+01  2.31071E+01  2.29965E+01
   2.43135E+01  2.22256E+01  2.14588E+01  2.37427E+01  2.63200E+01  3.14538E+01  2.55099E+01  3.12383E+01  3.14622E+01  4.47441E+01
   5.18026E+01  7.01053E+01  7.92434E+01  8.06820E+01  8.43687E+01  7.20967E+01  6.45836E+01  5.91901E+01  4.69796E+01  4.18983E+01
   3.12300E+01  3.03846E+01  3.13716E+01  2.42376E+01  2.44057E+01  2.61227E+01  2.21663E+01  2.27194E+01  2.62880E+01  3.32002E+01
   2.50320E+01  2.53107E+01  3.39579E+01  4.13688E+01  5.92233E+01  7.22191E+01  9.23728E+01  9.42107E+01  9.10983E+01  8.79252E+01
   6.98852E+01  6.08780E+01  4.97168E+01  4.17907E+01  2.86629E+01  2.68136E+01  2.84859E+01  2.11893E+01  1.44445E+01  1.67067E+01
   1.39972E+01  1.34651E+01  1.11272E+01  1.64815E+01  1.06237E+01  1.39447E+01  1.06824E+01  1.12916E+01  1.70034E+01  1.46855E+01
   1.45809E+01  9.27829E+00  1.04484E+01  1.25594E+01  7.45407E+00  1.37765E+01  9.39355E+00  8.37328E+00  9.59665E+00  9.03148E+00
   3.10119E+00  2.67341E+00  3.21579E+00  4.70709E+00  8.35576E+00  1.22508E+01  6.74390E+00  2.28784E+00  4.64630E+00  6.67904E+00
   3.15819E+00  6.83198E+00  4.37742E-01 -3.27020E+00 -5.19234E+00  2.48516E-01 -4.17126E+00  3.77039E-01  1.01959E+00 -2.36752E+00
  -4.51873E+00 -7.72977E+00 -7.96024E+00 -1.62733E+00 -2.02890E+00 -1.48909E+00 -8.74703E+00 -1.94277E+00  3.16642E+00  4.99627E+00
   8.33614E+00  1.21308E+01  1.10703E+01  1.31438E+01  1.18529E+01  1.17969E+01  9.22725E+00  9.56832E+00  5.42603E+00  5.38651E+00
   6.06677E+00  9.40693E+00  6.61262E+00  1.13751E+01  1.50166E+01  9.72200E+00  1.32065E+00  4.81282E+00 -8.70806E-01  3.09585E+00
  -1.07182E+00  9.25896E+00  5.01998E+00  1.52870E+01  2.45804E+01  2.55801E+01  2.08322E+01  2.41830E+01  2.04586E+01  1.09793E+01
   5.38049E+00 -2.80796E-02  9.88617E-01  6.28095E+00  9.34389E+00  1.06290E+01  1.74349E+01  1.94670E+01  1.31091E+01  2.22862E+01
   1.94479E+01  1.62726E+01  1.38003E+01  2.25367E+01  1.44504E+01  1.05314E+01  2.56590E+01  1.77338E+01  2.06496E+01  1.56148E+01
   1.49057E+01  1.25965E+01  1.42039E+01  1.17691E+01  1.63991E+01  1.65135E+01  2.12754E+01  2.39505E+01  2.37960E+01  3.15126E+01
   2.59063E+01  3.71695E+01  3.67394E+01  4.04887E+01  3.93896E+01  4.77223E+01  5.60888E+01  7.17097E+01  9.87335E+01  1.18705E+02
   1.22167E+02  1.18962E+02  1.00449E+02  8.88363E+01  7.16925E+01  5.24454E+01  4.09871E+01  2.77619E+01  2.55093E+01  2.30761E+01
   1.95490E+01  2.24886E+01  2.51240E+01  2.01173E+01  1.63375E+01  1.96986E+01  1.44994E+01  1.50244E+01  1.69862E+01  7.58560E+00
   1.97299E+01  1.41115E+01  1.31793E+01  1.15521E+01  1.19191E+01  1.48832E+01  1.51064E+01  1.29643E+01  1.30406E+01  1.40849E+01
   1.38194E+01  1.06323E+01  1.78109E+01  1.84195E+01  1.60889E+01  1.59018E+01  7.70495E+00  1.57131E+01  1.78746E+01  1.37740E+01
   1.76481E+01  1.96274E+01  1.99573E+01  2.31665E+01  2.47007E+01  2.28084E+01  2.57192E+01  2.67891E+01  2.54533E+01  2.73397E+01
   2.51285E+01  2.40336E+01  2.99281E+01  2.87266E+01  2.39929E+01  3.01047E+01  2.87174E+01  3.09344E+01  2.89075E+01  2.65794E+01
   3.23747E+01  3.09094E+01  3.60397E+01  4.01951E+01  3.26257E+01  3.23726E+01  3.46861E+01  3.95870E+01  3.54520E+01  4.08360E+01
   4.20459E+01  3.90302E+01  3.82531E+01  4.02947E+01  4.17354E+01  3.86621E+01  3.49900E+01  3.12378E+01  3.60487E+01  3.84131E+01
   3.91275E+01  3.87203E+01  4.03600E+01  4.35666E+01  4.53807E+01  5.07407E+01  4.42691E+01  4.18981E+01  4.57681E+01  4.32765E+01
   4.63039E+01  4.03702E+01  3.91352E+01  3.92132E+01  3.89070E+01  3.39926E+01  3.83033E+01  3.15125E+01  3.18941E+01  3.59122E+01
   3.36019E+01  2.86620E+01  2.81900E+01  3.04878E+01  2.62718E+01  2.75407E+01  2.59002E+01  2.50289E+01  3.02798E+01  2.59784E+01
   2.59511E+01  2.55563E+01  2.05828E+01  2.14764E+01  2.11871E+01  1.91723E+01  2.20634E+01  2.20983E+01  1.80621E+01  2.22774E+01
   2.26419E+01  1.48796E+01  2.51251E+01  2.01612E+01  2.69329E+01  1.92619E+01  1.51265E+01  2.15659E+01  2.02540E+01  2.04432E+01
   2.43772E+01  2.26326E+01  2.21736E+01  1.84804E+01  2.17488E+01  1.89707E+01  2.50845E+01  2.31006E+01  2.67413E+01  2.29342E+01
   1.87690E+01  2.16116E+01  2.20856E+01  2.32736E+01  1.82652E+01  1.87018E+01  2.12094E+01  2.14792E+01  2.16586E+01  2.01725E+01
   2.84964E+01  2.12493E+01  1.59999E+01  1.95870E+01  1.69357E+01  1.71908E+01  1.56186E+01  1.36543E+01  1.68807E+01  1.48437E+01
   1.77343E+01  1.14756E+01  1.44301E+01  1.34006E+01  1.26531E+01  1.16177E+01  1.03599E+01  8.93709E+00  7.19310E+00  1.29123E+01
   1.12269E+01  1.05582E+01  9.32976E+00  1.20810E+01  5.76202E+00  1.06101E+01  7.97202E+00  1.56891E+01  7.01687E+00  1.23480E+01
   7.59978E+00  8.84105E+00  8.75818E+00  9.71694E+00  6.86199E+00  6.96236E+00  9.00746E+00  1.32350E+01  7.56387E+00  1.06426E+01
   1.22884E+01  1.28906E+01  1.01505E+01  8.25609E+00  6.95972E+00  4.76364E+00  1.02773E+01  7.07413E+00  4.33128E+00  9.84804E+00
   7.98885E+00  5.58086E+00  9.23251E+00  6.61049E+00  3.47798E+00  8.15995E+00  8.13092E+00  1.57695E+00  5.40838E+00  5.46674E+00
   9.94778E+00  7.76908E+00  8.43109E+00  8.23862E+00  4.75782E+00  9.35021E+00  2.96117E+00  7.18008E+00  2.52512E+00  8.78644E+00
   4.09649E+00  1.10647E+01  9.21815E+00  1.74336E+00  4.64254E+00  2.02991E+00  5.45894E+00  4.00698E+00  9.24208E+00  2.65029E+00
   5.64247E+00  4.92149E+00  6.19990E+00  5.05458E+00  1.16713E+01  4.67802E+00  7.43736E+00  1.31023E+00
 NY points of the fit to the data follow
   6.40315E+01  6.39584E+01  6.51632E+01  6.72198E+01  6.99191E+01  7.49277E+01  8.17672E+01  9.04413E+01  9.96500E+01  1.07220E+02
   1.11185E+02  1.10501E+02  1.05814E+02  9.87569E+01  9.08912E+01  8.34070E+01  7.67501E+01  7.07833E+01  6.59523E+01  6.28681E+01
   6.04322E+01  5.87259E+01  5.73534E+01  5.64534E+01  5.58160E+01  5.48087E+01  5.48549E+01  5.72947E+01  6.18829E+01  6.67743E+01
   7.02000E+01  7.12785E+01  6.98696E+01  6.67122E+01  6.21363E+01  5.71056E+01  5.31045E+01  5.04844E+01  4.87315E+01  4.78254E+01
   4.82542E+01  4.90108E+01  4.96003E+01  5.03789E+01  5.15526E+01  5.25252E+01  5.26867E+01  5.19605E+01  5.04220E+01  4.86577E+01
   4.68800E+01  4.50823E+01  4.34634E+01  4.22214E+01  4.12391E+01  4.03701E+01  3.98282E+01  3.96572E+01  3.95351E+01  3.91942E+01
   3.85955E+01  3.77276E+01  3.67260E+01  3.57035E+01  3.48294E+01  3.42032E+01  3.37548E+01  3.34297E+01  3.32422E+01  3.31482E+01
   3.30468E+01  3.28379E+01  3.24771E+01  3.19993E+01  3.14625E+01  3.08971E+01  3.03424E+01  2.98090E+01  2.93193E+01  2.88088E+01
   2.82624E+01  2.77216E+01  2.71528E+01  2.64892E+01  2.56806E+01  2.47889E+01  2.39703E+01  2.33695E+01  2.30428E+01  2.29967E+01
   2.31343E+01  2.33980E+01  2.37385E+01  2.40957E+01  2.44692E+01  2.51706E+01  2.77075E+01  3.17479E+01  3.53089E+01  4.17028E+01
   5.31221E+01  6.78243E+01  8.03570E+01  8.58595E+01  8.37416E+01  7.64753E+01  6.68477E+01  5.66178E+01  4.66708E+01  3.81382E+01
   3.16204E+01  2.62198E+01  2.19523E+01  2.04116E+01  1.99380E+01  1.97608E+01  1.97269E+01  1.98173E+01  2.01384E+01  2.12219E+01
   2.49959E+01  3.03830E+01  3.54585E+01  4.43431E+01  5.92655E+01  7.75535E+01  9.24286E+01  9.84661E+01  9.53851E+01  8.63774E+01
   7.49813E+01  6.30524E+01  5.13042E+01  4.07741E+01  3.19613E+01  2.40452E+01  1.78890E+01  1.54523E+01  1.48054E+01  1.49993E+01
   1.55711E+01  1.60972E+01  1.63263E+01  1.63237E+01  1.61093E+01  1.56568E+01  1.50531E+01  1.43793E+01  1.36297E+01  1.29327E+01
   1.22569E+01  1.16691E+01  1.11733E+01  1.07215E+01  1.02527E+01  9.92836E+00  9.65507E+00  9.22325E+00  8.58940E+00  7.74706E+00
   7.11456E+00  6.98894E+00  7.24150E+00  7.50094E+00  7.44130E+00  7.04181E+00  6.45576E+00  5.79234E+00  5.11038E+00  4.43211E+00
   3.79253E+00  3.25881E+00  2.57911E+00  1.68999E+00  9.12925E-01  6.35045E-01  8.10669E-01  1.05659E+00  1.04926E+00  7.89085E-01
   5.52457E-01  6.40587E-01  8.32754E-01  8.66086E-01  8.94741E-01  1.19071E+00  1.96844E+00  3.40638E+00  5.17411E+00  6.96399E+00
   8.25006E+00  8.57394E+00  8.25563E+00  7.68263E+00  6.92803E+00  6.09749E+00  5.54418E+00  5.98797E+00  7.36176E+00  9.32651E+00
   1.14004E+01  1.32017E+01  1.42680E+01  1.43932E+01  1.31223E+01  1.00965E+01  6.10711E+00  2.50366E+00  2.34517E-01  2.33909E-02
   1.15644E+00  3.57401E+00  7.55582E+00  1.27741E+01  1.75559E+01  2.00335E+01  1.97877E+01  1.75899E+01  1.36149E+01  8.17575E+00
   2.84370E+00 -6.01625E-01 -1.25006E+00  7.23721E-01  3.96353E+00  7.90430E+00  1.19107E+01  1.50437E+01  1.67658E+01  1.73611E+01
   1.73459E+01  1.69886E+01  1.64384E+01  1.63395E+01  1.73155E+01  1.91953E+01  2.13128E+01  2.28039E+01  2.29279E+01  2.17412E+01
   1.96714E+01  1.75477E+01  1.62867E+01  1.62985E+01  1.72507E+01  1.88873E+01  2.09220E+01  2.29241E+01  2.45995E+01  2.60419E+01
   2.72982E+01  2.85299E+01  3.07113E+01  3.66011E+01  4.32701E+01  4.87797E+01  5.90926E+01  7.70455E+01  9.88549E+01  1.15609E+02
   1.21010E+02  1.15487E+02  1.03218E+02  8.81833E+01  7.24190E+01  5.73312E+01  4.47648E+01  3.51620E+01  2.64141E+01  2.00709E+01
   1.78370E+01  1.68609E+01  1.63126E+01  1.59985E+01  1.57685E+01  1.54729E+01  1.51400E+01  1.47552E+01  1.43146E+01  1.38634E+01
   1.34697E+01  1.31368E+01  1.28652E+01  1.26752E+01  1.25642E+01  1.25188E+01  1.25245E+01  1.25783E+01  1.26900E+01  1.28662E+01
   1.30981E+01  1.33938E+01  1.37571E+01  1.41894E+01  1.46860E+01  1.52424E+01  1.58572E+01  1.65262E+01  1.72442E+01  1.80067E+01
   1.88055E+01  1.96310E+01  2.04712E+01  2.13126E+01  2.21420E+01  2.29469E+01  2.37171E+01  2.44452E+01  2.51248E+01  2.57529E+01
   2.63294E+01  2.68558E+01  2.73377E+01  2.77836E+01  2.82034E+01  2.86086E+01  2.90108E+01  2.94220E+01  2.98536E+01  3.03156E+01
   3.08156E+01  3.13582E+01  3.19448E+01  3.25738E+01  3.32408E+01  3.39385E+01  3.46573E+01  3.53853E+01  3.61096E+01  3.68174E+01
   3.74964E+01  3.81351E+01  3.87237E+01  3.92539E+01  3.97204E+01  4.01203E+01  4.04533E+01  4.07212E+01  4.09272E+01  4.10758E+01
   4.11728E+01  4.12240E+01  4.12351E+01  4.12104E+01  4.11529E+01  4.10642E+01  4.09444E+01  4.07919E+01  4.06036E+01  4.03747E+01
   4.00999E+01  3.97733E+01  3.93896E+01  3.89441E+01  3.84327E+01  3.78530E+01  3.72040E+01  3.64872E+01  3.57058E+01  3.48649E+01
   3.39713E+01  3.30329E+01  3.20592E+01  3.10605E+01  3.00479E+01  2.90321E+01  2.80238E+01  2.70332E+01  2.60701E+01  2.51434E+01
   2.42613E+01  2.34307E+01  2.26575E+01  2.19467E+01  2.13027E+01  2.07291E+01  2.02285E+01  1.98027E+01  1.94528E+01  1.91797E+01
   1.89837E+01  1.88643E+01  1.88206E+01  1.88505E+01  1.89516E+01  1.91204E+01  1.93529E+01  1.96435E+01  1.99855E+01  2.03709E+01
   2.07907E+01  2.12347E+01  2.16917E+01  2.21492E+01  2.25944E+01  2.30140E+01  2.33949E+01  2.37247E+01  2.39917E+01  2.41857E+01
   2.42980E+01  2.43223E+01  2.42548E+01  2.40941E+01  2.38414E+01  2.35002E+01  2.30762E+01  2.25775E+01  2.20137E+01  2.13956E+01
   2.07344E+01  2.00418E+01  1.93293E+01  1.86079E+01  1.78879E+01  1.71784E+01  1.64869E+01  1.58197E+01  1.51818E+01  1.45772E+01
   1.40081E+01  1.34760E+01  1.29809E+01  1.25225E+01  1.20998E+01  1.17112E+01  1.13548E+01  1.10285E+01  1.07299E+01  1.04568E+01
   1.02071E+01  9.97856E+00  9.76928E+00  9.57720E+00  9.40054E+00  9.23778E+00  9.08759E+00  8.94872E+00  8.81990E+00  8.70001E+00
   8.58814E+00  8.48358E+00  8.38567E+00  8.29374E+00  8.20710E+00  8.12517E+00  8.04755E+00  7.97395E+00  7.90403E+00  7.83738E+00
   7.77362E+00  7.71247E+00  7.65379E+00  7.59746E+00  7.54328E+00  7.49098E+00  7.44035E+00  7.39128E+00  7.34377E+00  7.29774E+00
   7.25303E+00  7.20945E+00  7.16689E+00  7.12538E+00  7.08492E+00  7.04544E+00  7.00679E+00  6.96885E+00  6.93159E+00  6.89508E+00
   6.85933E+00  6.82425E+00  6.78971E+00  6.75566E+00  6.72213E+00  6.68921E+00  6.65686E+00  6.62498E+00  6.59347E+00  6.56234E+00
   6.53166E+00  6.50148E+00  6.47175E+00  6.44236E+00  6.41327E+00  6.38453E+00  6.35622E+00  6.32837E+00  6.30088E+00  6.27368E+00
   6.24677E+00  6.22024E+00  6.19416E+00  6.16852E+00  6.14321E+00  6.11821E+00  6.09356E+00  6.06939E+00
 NY background values follow
     5.940E+01    5.896E+01    5.852E+01    5.807E+01    5.763E+01    5.719E+01    5.675E+01    5.630E+01    5.586E+01    5.542E+01
     5.498E+01    5.453E+01    5.409E+01    5.365E+01    5.321E+01    5.276E+01    5.232E+01    5.188E+01    5.144E+01    5.100E+01
     5.056E+01    5.012E+01    4.968E+01    4.924E+01    4.880E+01    4.836E+01    4.792E+01    4.748E+01    4.705E+01    4.661E+01
     4.618E+01    4.574E+01    4.531E+01    4.488E+01    4.444E+01    4.401E+01    4.358E+01    4.315E+01    4.272E+01    4.230E+01
     4.187E+01    4.145E+01    4.102E+01    4.060E+01    4.018E+01    3.976E+01    3.934E+01    3.892E+01    3.851E+01    3.809E+01
     3.768E+01    3.727E+01    3.686E+01    3.645E+01    3.604E+01    3.563E+01    3.523E+01    3.483E+01    3.443E+01    3.403E+01
     3.363E+01    3.324E+01    3.284E+01    3.245E+01    3.206E+01    3.168E+01    3.129E+01    3.091E+01    3.053E+01    3.015E+01
     2.977E+01    2.940E+01    2.903E+01    2.866E+01    2.829E+01    2.793E+01    2.756E+01    2.720E+01    2.685E+01    2.649E+01
     2.614E+01    2.579E+01    2.544E+01    2.510E+01    2.476E+01    2.442E+01    2.408E+01    2.375E+01    2.342E+01    2.309E+01
     2.277E+01    2.245E+01    2.213E+01    2.182E+01    2.151E+01    2.120E+01    2.089E+01    2.059E+01    2.029E+01    1.999E+01
     1.970E+01    1.941E+01    1.912E+01    1.883E+01    1.855E+01    1.827E+01    1.800E+01    1.772E+01    1.745E+01    1.718E+01
     1.692E+01    1.666E+01    1.640E+01    1.614E+01    1.589E+01    1.564E+01    1.539E+01    1.514E+01    1.490E+01    1.466E+01
     1.443E+01    1.419E+01    1.396E+01    1.373E+01    1.351E+01    1.328E+01    1.306E+01    1.284E+01    1.263E+01    1.242E+01
     1.221E+01    1.200E+01    1.180E+01    1.159E+01    1.139E+01    1.120E+01    1.100E+01    1.081E+01    1.062E+01    1.044E+01
     1.025E+01    1.007E+01    9.893E+00    9.716E+00    9.543E+00    9.372E+00    9.204E+00    9.038E+00    8.875E+00    8.714E+00
     8.556E+00    8.401E+00    8.248E+00    8.098E+00    7.950E+00    7.805E+00    7.662E+00    7.522E+00    7.385E+00    7.250E+00
     7.118E+00    6.988E+00    6.861E+00    6.736E+00    6.614E+00    6.495E+00    6.378E+00    6.263E+00    6.152E+00    6.042E+00
     5.936E+00    5.832E+00    5.730E+00    5.631E+00    5.534E+00    5.441E+00    5.349E+00    5.260E+00    5.174E+00    5.090E+00
     5.009E+00    4.930E+00    4.854E+00    4.781E+00    4.709E+00    4.641E+00    4.574E+00    4.510E+00    4.449E+00    4.389E+00
     4.332E+00    4.277E+00    4.225E+00    4.174E+00    4.125E+00    4.079E+00    4.035E+00    3.992E+00    3.952E+00    3.913E+00
     3.877E+00    3.842E+00    3.809E+00    3.778E+00    3.749E+00    3.721E+00    3.695E+00    3.670E+00    3.648E+00    3.626E+00
     3.607E+00    3.589E+00    3.572E+00    3.557E+00    3.543E+00    3.530E+00    3.519E+00    3.509E+00    3.500E+00    3.493E+00
     3.487E+00    3.482E+00    3.478E+00    3.475E+00    3.473E+00    3.472E+00    3.472E+00    3.473E+00    3.475E+00    3.477E+00
     3.481E+00    3.485E+00    3.491E+00    3.497E+00    3.504E+00    3.512E+00    3.520E+00    3.530E+00    3.540E+00    3.551E+00
     3.562E+00    3.574E+00    3.587E+00    3.601E+00    3.615E+00    3.630E+00    3.646E+00    3.662E+00    3.679E+00    3.696E+00
     3.714E+00    3.732E+00    3.751E+00    3.770E+00    3.790E+00    3.811E+00    3.832E+00    3.853E+00    3.875E+00    3.897E+00
     3.919E+00    3.942E+00    3.966E+00    3.989E+00    4.013E+00    4.037E+00    4.062E+00    4.087E+00    4.112E+00    4.137E+00
     4.163E+00    4.189E+00    4.215E+00    4.241E+00    4.267E+00    4.294E+00    4.321E+00    4.348E+00    4.375E+00    4.402E+00
     4.429E+00    4.456E+00    4.484E+00    4.511E+00    4.539E+00    4.567E+00    4.594E+00    4.622E+00    4.650E+00    4.678E+00
     4.705E+00    4.733E+00    4.761E+00    4.789E+00    4.817E+00    4.844E+00    4.872E+00    4.899E+00    4.927E+00    4.954E+00
     4.982E+00    5.009E+00    5.036E+00    5.063E+00    5.090E+00    5.116E+00    5.143E+00    5.169E+00    5.195E+00    5.221E+00
     5.247E+00    5.272E+00    5.297E+00    5.322E+00    5.347E+00    5.372E+00    5.396E+00    5.420E+00    5.443E+00    5.467E+00
     5.490E+00    5.513E+00    5.535E+00    5.557E+00    5.579E+00    5.601E+00    5.622E+00    5.643E+00    5.664E+00    5.685E+00
     5.705E+00    5.725E+00    5.744E+00    5.764E+00    5.783E+00    5.802E+00    5.820E+00    5.838E+00    5.856E+00    5.874E+00
     5.891E+00    5.908E+00    5.925E+00    5.942E+00    5.958E+00    5.974E+00    5.990E+00    6.005E+00    6.020E+00    6.035E+00
     6.050E+00    6.064E+00    6.078E+00    6.092E+00    6.105E+00    6.118E+00    6.131E+00    6.144E+00    6.156E+00    6.168E+00
     6.180E+00    6.192E+00    6.203E+00    6.214E+00    6.225E+00    6.235E+00    6.245E+00    6.255E+00    6.265E+00    6.274E+00
     6.283E+00    6.292E+00    6.301E+00    6.309E+00    6.317E+00    6.325E+00    6.332E+00    6.340E+00    6.347E+00    6.353E+00
     6.360E+00    6.366E+00    6.372E+00    6.378E+00    6.384E+00    6.389E+00    6.394E+00    6.399E+00    6.404E+00    6.408E+00
     6.412E+00    6.416E+00    6.420E+00    6.424E+00    6.427E+00    6.430E+00    6.433E+00    6.435E+00    6.438E+00    6.440E+00
     6.442E+00    6.444E+00    6.445E+00    6.447E+00    6.448E+00    6.449E+00    6.450E+00    6.450E+00    6.451E+00    6.451E+00
     6.451E+00    6.451E+00    6.450E+00    6.450E+00    6.449E+00    6.448E+00    6.447E+00    6.445E+00    6.443E+00    6.441E+00
     6.439E+00    6.437E+00    6.434E+00    6.431E+00    6.428E+00    6.425E+00    6.421E+00    6.417E+00    6.413E+00    6.409E+00
     6.404E+00    6.400E+00    6.394E+00    6.389E+00    6.383E+00    6.378E+00    6.371E+00    6.365E+00    6.358E+00    6.351E+00
     6.344E+00    6.337E+00    6.329E+00    6.321E+00    6.312E+00    6.303E+00    6.295E+00    6.285E+00    6.276E+00    6.266E+00
     6.256E+00    6.245E+00    6.234E+00    6.223E+00    6.212E+00    6.200E+00    6.188E+00    6.176E+00    6.163E+00    6.151E+00
     6.138E+00    6.124E+00    6.111E+00    6.097E+00    6.083E+00    6.069E+00    6.055E+00    6.040E+00    6.025E+00    6.010E+00
     5.995E+00    5.980E+00    5.965E+00    5.949E+00    5.933E+00    5.918E+00    5.902E+00    5.886E+00    5.870E+00    5.853E+00
     5.837E+00    5.821E+00    5.804E+00    5.788E+00    5.771E+00    5.755E+00    5.738E+00    5.721E+00    5.705E+00    5.688E+00
     5.671E+00    5.655E+00    5.638E+00    5.621E+00    5.605E+00    5.588E+00    5.572E+00    5.555E+00
 Asp      Conc. = 1.11E+02
