 LCModel (Version 6.3-1L) Copyright: S.W. Provencher.          Ref.: Magn. Reson. Med. 30:672-679 (1993).                
 Slice#2 Row#5 Col#14  K_02_press_1_raw_act
 36 lines in following concentration table = NCONC+1
    Conc.  %SD /Cr+PCr  Metabolite                                         
 2.47E+04  25%   0.000 Ala                                                 
   57.133 118%   0.000 Asp                                                 
    0.000 999%   0.000 Cr                                                  
    0.000 999%   0.000 PCr                                                 
   29.722 137%   0.000 GABA                                                
   36.666 111%   0.000 Glc                                                 
    0.000 999%   0.000 Gln                                                 
 1.76E+03  83%   0.000 Glu                                                 
    0.000 999%   0.000 GPC                                                 
   36.881 140%   0.000 PCh                                                 
    0.000 999%   0.000 GSH                                                 
  235.701 229%   0.000 Ins                                                 
 5.25E+03 101%   0.000 Lac                                                 
  945.840  39%   0.000 NAA                                                 
    0.000 999%   0.000 NAAG                                                
   16.586  80%   0.000 Scyllo                                              
   74.176  90%   0.000 Tau                                                 
   25.107 557%   0.000 -CrCH2                                              
   36.881 140%   0.000 GPC+PCh                                             
  945.840  39%   0.000 NAA+NAAG                                            
    0.000 999%   0.000 Cr+PCr                                              
 1.76E+03  83%   0.000 Glu+Gln                                             
    0.000 999%   0.000 Lip13a                                              
 1.53E+04  38%   0.000 Lip13b                                              
 1.26E+03  78%   0.000 Lip09                                               
 3.53E+04   5%   0.000 MM09                                                
    0.000 999%   0.000 Lip20                                               
 5.15E+04   5%   0.000 MM20                                                
 1.06E+04   6%   0.000 MM12                                                
 2.84E+04   4%   0.000 MM14                                                
 1.39E+04   8%   0.000 MM17                                                
 1.53E+04  38%   0.000 Lip13a+Lip13b                                       
 5.43E+04  11%   0.000 MM14+Lip13a+Lip13b+MM12                             
 3.65E+04   5%   0.000 MM09+Lip09                                          
 5.15E+04   5%   0.000 MM20+Lip20                                          
   6 lines in following misc. output table
  FWHM = 0.138 ppm    S/N =  38                                            
  Data shift = 0.321 ppm                                                   
  Ph: -61 deg     -27.2 deg/ppm                                            
  alphaB,S = 8.5E+01,   4.1E+02                                            
    6 spline knots.   Ns = 9(2)                                            
   2 inflections.     1 extrema                                            
  498 points on ppm-axis = NY
      4.000000     3.992357     3.984714     3.977070     3.969427     3.961784     3.954141     3.946497     3.938854     3.931211
      3.923568     3.915925     3.908281     3.900638     3.892995     3.885352     3.877708     3.870065     3.862422     3.854779
      3.847136     3.839492     3.831849     3.824206     3.816563     3.808919     3.801276     3.793633     3.785990     3.778347
      3.770703     3.763060     3.755417     3.747774     3.740130     3.732487     3.724844     3.717201     3.709558     3.701914
      3.694271     3.686628     3.678985     3.671341     3.663698     3.656055     3.648412     3.640769     3.633125     3.625482
      3.617839     3.610196     3.602552     3.594909     3.587266     3.579623     3.571980     3.564336     3.556693     3.549050
      3.541407     3.533763     3.526120     3.518477     3.510834     3.503191     3.495547     3.487904     3.480261     3.472618
      3.464974     3.457331     3.449688     3.442045     3.434402     3.426758     3.419115     3.411472     3.403829     3.396185
      3.388542     3.380899     3.373256     3.365613     3.357969     3.350326     3.342683     3.335040     3.327396     3.319753
      3.312110     3.304467     3.296824     3.289180     3.281537     3.273894     3.266251     3.258607     3.250964     3.243321
      3.235678     3.228034     3.220391     3.212748     3.205105     3.197462     3.189818     3.182175     3.174532     3.166889
      3.159245     3.151602     3.143959     3.136316     3.128673     3.121029     3.113386     3.105743     3.098100     3.090456
      3.082813     3.075170     3.067527     3.059884     3.052240     3.044597     3.036954     3.029311     3.021667     3.014024
      3.006381     2.998738     2.991095     2.983451     2.975808     2.968165     2.960522     2.952878     2.945235     2.937592
      2.929949     2.922306     2.914662     2.907019     2.899376     2.891733     2.884089     2.876446     2.868803     2.861160
      2.853517     2.845873     2.838230     2.830587     2.822944     2.815300     2.807657     2.800014     2.792371     2.784728
      2.777084     2.769441     2.761798     2.754155     2.746511     2.738868     2.731225     2.723582     2.715939     2.708295
      2.700652     2.693009     2.685366     2.677722     2.670079     2.662436     2.654793     2.647150     2.639506     2.631863
      2.624220     2.616577     2.608933     2.601290     2.593647     2.586004     2.578361     2.570717     2.563074     2.555431
      2.547788     2.540144     2.532501     2.524858     2.517215     2.509572     2.501928     2.494285     2.486642     2.478999
      2.471355     2.463712     2.456069     2.448426     2.440783     2.433139     2.425496     2.417853     2.410210     2.402566
      2.394923     2.387280     2.379637     2.371994     2.364350     2.356707     2.349064     2.341421     2.333777     2.326134
      2.318491     2.310848     2.303205     2.295561     2.287918     2.280275     2.272632     2.264988     2.257345     2.249702
      2.242059     2.234416     2.226772     2.219129     2.211486     2.203843     2.196199     2.188556     2.180913     2.173270
      2.165627     2.157983     2.150340     2.142697     2.135054     2.127410     2.119767     2.112124     2.104481     2.096838
      2.089194     2.081551     2.073908     2.066265     2.058621     2.050978     2.043335     2.035692     2.028049     2.020405
      2.012762     2.005119     1.997476     1.989833     1.982190     1.974546     1.966903     1.959260     1.951617     1.943974
      1.936331     1.928688     1.921045     1.913402     1.905759     1.898115     1.890472     1.882829     1.875186     1.867543
      1.859900     1.852257     1.844614     1.836971     1.829327     1.821684     1.814041     1.806398     1.798755     1.791112
      1.783469     1.775826     1.768183     1.760540     1.752896     1.745253     1.737610     1.729967     1.722324     1.714681
      1.707038     1.699395     1.691752     1.684108     1.676465     1.668822     1.661179     1.653536     1.645893     1.638250
      1.630607     1.622964     1.615321     1.607677     1.600034     1.592391     1.584748     1.577105     1.569462     1.561819
      1.554176     1.546533     1.538890     1.531246     1.523603     1.515960     1.508317     1.500674     1.493031     1.485388
      1.477745     1.470102     1.462458     1.454815     1.447172     1.439529     1.431886     1.424243     1.416600     1.408957
      1.401314     1.393671     1.386027     1.378384     1.370741     1.363098     1.355455     1.347812     1.340169     1.332526
      1.324883     1.317240     1.309596     1.301953     1.294310     1.286667     1.279024     1.271381     1.263738     1.256095
      1.248452     1.240808     1.233165     1.225522     1.217879     1.210236     1.202593     1.194950     1.187307     1.179664
      1.172021     1.164377     1.156734     1.149091     1.141448     1.133805     1.126162     1.118519     1.110876     1.103233
      1.095590     1.087946     1.080303     1.072660     1.065017     1.057374     1.049731     1.042088     1.034445     1.026802
      1.019158     1.011515     1.003872     0.996229     0.988586     0.980943     0.973300     0.965657     0.958014     0.950371
      0.942727     0.935084     0.927441     0.919798     0.912155     0.904512     0.896869     0.889226     0.881583     0.873940
      0.866296     0.858653     0.851010     0.843367     0.835724     0.828081     0.820438     0.812795     0.805152     0.797508
      0.789865     0.782222     0.774579     0.766936     0.759293     0.751650     0.744007     0.736364     0.728721     0.721077
      0.713434     0.705791     0.698148     0.690505     0.682862     0.675219     0.667576     0.659933     0.652290     0.644646
      0.637003     0.629360     0.621717     0.614074     0.606431     0.598788     0.591145     0.583502     0.575858     0.568215
      0.560572     0.552929     0.545286     0.537643     0.530000     0.522357     0.514714     0.507071     0.499427     0.491784
      0.484141     0.476498     0.468855     0.461212     0.453569     0.445925     0.438282     0.430639     0.422996     0.415353
      0.407710     0.400067     0.392424     0.384780     0.377137     0.369494     0.361851     0.354208     0.346565     0.338922
      0.331278     0.323635     0.315992     0.308349     0.300706     0.293063     0.285420     0.277777     0.270133     0.262490
      0.254847     0.247204     0.239561     0.231918     0.224275     0.216631     0.208988     0.201345
 NY phased data points follow
   3.28448E+01  3.33009E+01  3.32364E+01  3.25153E+01  3.11649E+01  3.17638E+01  3.50915E+01  3.41758E+01  3.23299E+01  3.40064E+01
   3.73438E+01  3.26203E+01  3.14117E+01  3.14483E+01  3.50680E+01  3.56736E+01  3.26739E+01  3.52699E+01  3.74920E+01  3.50566E+01
   3.31169E+01  3.57865E+01  3.63838E+01  3.69416E+01  3.51108E+01  3.33945E+01  3.66995E+01  3.84738E+01  3.36123E+01  3.75896E+01
   3.62582E+01  3.42473E+01  3.54232E+01  3.90975E+01  3.37782E+01  3.39435E+01  3.87859E+01  3.40263E+01  3.45504E+01  3.66724E+01
   3.56445E+01  3.87659E+01  3.47387E+01  3.67282E+01  3.48106E+01  3.76958E+01  3.70426E+01  3.87119E+01  3.96126E+01  3.80410E+01
   3.55424E+01  3.79159E+01  3.82959E+01  3.75260E+01  3.98086E+01  4.07360E+01  3.98737E+01  3.91969E+01  4.10103E+01  4.14613E+01
   4.01966E+01  4.17411E+01  3.78991E+01  4.03598E+01  3.96986E+01  4.16287E+01  3.98748E+01  4.29112E+01  4.27301E+01  4.32343E+01
   4.11107E+01  4.33399E+01  4.47739E+01  4.28940E+01  4.05687E+01  4.37254E+01  4.32112E+01  4.34859E+01  4.13085E+01  4.22422E+01
   4.48104E+01  4.43773E+01  4.37016E+01  4.68583E+01  4.62150E+01  4.30040E+01  4.25154E+01  4.47408E+01  4.29777E+01  4.27045E+01
   4.55932E+01  4.64079E+01  4.59873E+01  4.63018E+01  4.75246E+01  4.70462E+01  4.73162E+01  4.75943E+01  4.75037E+01  4.41233E+01
   4.57793E+01  4.55091E+01  4.79733E+01  4.86340E+01  4.82656E+01  4.50165E+01  4.75050E+01  4.82057E+01  4.83981E+01  4.74778E+01
   4.95450E+01  4.86755E+01  4.84096E+01  4.56047E+01  4.88981E+01  5.14230E+01  4.94988E+01  4.63214E+01  4.82896E+01  4.85081E+01
   4.75092E+01  4.96299E+01  4.83266E+01  4.96788E+01  5.08532E+01  4.88045E+01  5.13635E+01  5.00159E+01  4.87901E+01  4.94524E+01
   5.15957E+01  5.12993E+01  5.20342E+01  5.13741E+01  5.18863E+01  5.18971E+01  5.40363E+01  5.14118E+01  4.99974E+01  5.19129E+01
   5.07189E+01  5.28281E+01  5.43787E+01  5.36752E+01  5.30565E+01  5.28331E+01  5.22047E+01  5.28751E+01  5.25586E+01  5.27694E+01
   5.26112E+01  5.22047E+01  5.34148E+01  5.24169E+01  5.30973E+01  5.49467E+01  5.22091E+01  5.28989E+01  5.38129E+01  5.66319E+01
   5.55433E+01  5.69465E+01  5.81257E+01  5.65218E+01  5.51844E+01  5.72027E+01  5.54203E+01  5.75301E+01  5.61313E+01  5.65180E+01
   5.96401E+01  5.54313E+01  5.37644E+01  5.54775E+01  5.92174E+01  5.95289E+01  5.70522E+01  5.78554E+01  5.88579E+01  5.90078E+01
   5.89877E+01  6.08131E+01  6.15305E+01  5.86476E+01  5.96124E+01  5.90334E+01  5.99857E+01  6.06554E+01  5.98619E+01  5.90751E+01
   6.15132E+01  6.02184E+01  6.09567E+01  6.01932E+01  6.13537E+01  6.04831E+01  6.34485E+01  6.40396E+01  5.97015E+01  6.38560E+01
   6.61586E+01  6.26551E+01  6.52135E+01  6.44955E+01  6.61252E+01  6.64013E+01  6.57182E+01  6.72356E+01  6.60674E+01  6.70070E+01
   6.64265E+01  7.11964E+01  7.28159E+01  7.11249E+01  7.17147E+01  7.16612E+01  7.59150E+01  7.93808E+01  7.72533E+01  7.91240E+01
   7.54426E+01  7.43043E+01  7.52570E+01  7.98282E+01  8.22811E+01  8.20676E+01  8.42492E+01  8.72451E+01  9.04917E+01  8.98746E+01
   9.31575E+01  9.27805E+01  9.35146E+01  9.31707E+01  9.39142E+01  9.76133E+01  9.99095E+01  1.01380E+02  1.03414E+02  1.03216E+02
   1.03553E+02  1.04336E+02  1.06664E+02  1.09265E+02  1.11917E+02  1.15954E+02  1.15404E+02  1.19328E+02  1.20591E+02  1.20762E+02
   1.24464E+02  1.25212E+02  1.28438E+02  1.31731E+02  1.31817E+02  1.35034E+02  1.40108E+02  1.42664E+02  1.47638E+02  1.47291E+02
   1.53013E+02  1.56794E+02  1.57487E+02  1.63272E+02  1.65473E+02  1.69154E+02  1.74879E+02  1.80303E+02  1.85336E+02  1.90994E+02
   1.94517E+02  2.01246E+02  2.07904E+02  2.14092E+02  2.18478E+02  2.26538E+02  2.34077E+02  2.41982E+02  2.53649E+02  2.61726E+02
   2.67881E+02  2.74744E+02  2.83319E+02  2.94156E+02  3.04065E+02  3.16045E+02  3.25587E+02  3.34591E+02  3.47365E+02  3.55181E+02
   3.66819E+02  3.75782E+02  3.86175E+02  3.90926E+02  3.98660E+02  4.03984E+02  4.10929E+02  4.16185E+02  4.18816E+02  4.21022E+02
   4.23105E+02  4.28885E+02  4.28869E+02  4.29346E+02  4.30220E+02  4.28196E+02  4.24775E+02  4.23403E+02  4.18816E+02  4.17153E+02
   4.11110E+02  4.02226E+02  3.98203E+02  3.89908E+02  3.80174E+02  3.69109E+02  3.59997E+02  3.51800E+02  3.42973E+02  3.35055E+02
   3.25952E+02  3.15962E+02  3.09096E+02  2.98342E+02  2.90140E+02  2.81491E+02  2.73855E+02  2.66839E+02  2.58459E+02  2.52454E+02
   2.46821E+02  2.38354E+02  2.32951E+02  2.27751E+02  2.21353E+02  2.19605E+02  2.12561E+02  2.10494E+02  2.04485E+02  1.98649E+02
   1.99252E+02  1.93149E+02  1.92609E+02  1.86792E+02  1.84025E+02  1.81923E+02  1.76823E+02  1.72933E+02  1.71122E+02  1.69860E+02
   1.64583E+02  1.63530E+02  1.58414E+02  1.57581E+02  1.51140E+02  1.47952E+02  1.45954E+02  1.42137E+02  1.38025E+02  1.35182E+02
   1.31288E+02  1.31486E+02  1.26059E+02  1.22389E+02  1.21755E+02  1.16947E+02  1.15675E+02  1.11731E+02  1.08926E+02  1.07496E+02
   1.03796E+02  1.05515E+02  1.01724E+02  9.60391E+01  9.71357E+01  9.51317E+01  9.18510E+01  8.82660E+01  8.50387E+01  8.49695E+01
   8.12163E+01  8.06075E+01  7.91979E+01  7.60510E+01  7.53048E+01  7.35163E+01  7.41081E+01  7.11840E+01  7.05614E+01  6.61187E+01
   6.77084E+01  6.48857E+01  6.21297E+01  6.13192E+01  5.94599E+01  6.20029E+01  5.64270E+01  5.75343E+01  5.45720E+01  5.29292E+01
   5.36952E+01  5.20852E+01  5.12271E+01  5.12092E+01  5.14348E+01  4.86292E+01  4.66197E+01  4.88395E+01  4.80868E+01  4.61311E+01
   4.39628E+01  4.32271E+01  4.08484E+01  4.25447E+01  4.04075E+01  4.08703E+01  3.98310E+01  4.09846E+01  4.23231E+01  3.97246E+01
   4.06822E+01  3.74262E+01  3.51037E+01  3.65010E+01  3.81330E+01  3.74826E+01  3.83344E+01  3.52763E+01  3.18224E+01  3.63359E+01
   3.61326E+01  3.34559E+01  3.43967E+01  3.44609E+01  3.15714E+01  3.18848E+01  3.37560E+01  3.19208E+01  3.30829E+01  3.10989E+01
   3.15809E+01  3.15430E+01  3.26713E+01  3.11343E+01  3.02916E+01  2.81810E+01  3.18452E+01  3.03606E+01  3.20109E+01  2.99077E+01
   3.10025E+01  2.92877E+01  3.08559E+01  2.98004E+01  2.74455E+01  3.06949E+01  2.77233E+01  2.84415E+01  2.90500E+01  2.82506E+01
   3.07037E+01  2.97374E+01  2.87117E+01  2.68368E+01  2.69460E+01  2.81266E+01  2.68967E+01  2.66663E+01  2.79371E+01  2.94190E+01
   2.74822E+01  2.71389E+01  2.81916E+01  2.58294E+01  2.70787E+01  2.81125E+01  2.75594E+01  2.68474E+01  2.66871E+01  2.71619E+01
   2.74585E+01  2.66676E+01  2.52788E+01  2.49700E+01  2.57003E+01  2.87817E+01  2.91339E+01  2.66013E+01  2.64984E+01  2.80530E+01
   2.76540E+01  2.76477E+01  2.80180E+01  2.55764E+01  2.63346E+01  2.69333E+01  2.57329E+01  2.65257E+01
 NY points of the fit to the data follow
   3.64457E+01  3.64772E+01  3.65387E+01  3.60509E+01  3.65241E+01  3.57445E+01  3.64733E+01  3.51087E+01  3.58787E+01  3.39586E+01
   3.45229E+01  3.23803E+01  3.27653E+01  3.11001E+01  3.17169E+01  3.08825E+01  3.16612E+01  3.16792E+01  3.22876E+01  3.29000E+01
   3.29654E+01  3.39938E+01  3.35939E+01  3.49885E+01  3.42270E+01  3.59666E+01  3.48593E+01  3.66525E+01  3.53891E+01  3.70935E+01
   3.57213E+01  3.72406E+01  3.59213E+01  3.75488E+01  3.66646E+01  3.78308E+01  3.69898E+01  3.78425E+01  3.71548E+01  3.76984E+01
   3.69615E+01  3.71509E+01  3.69967E+01  3.74313E+01  3.75609E+01  3.79835E+01  3.82363E+01  3.86303E+01  3.89288E+01  3.90378E+01
   3.91166E+01  3.91216E+01  3.91439E+01  3.91201E+01  3.91479E+01  3.91563E+01  3.92191E+01  3.92514E+01  3.93043E+01  3.93411E+01
   3.93676E+01  3.94004E+01  3.94567E+01  3.95218E+01  3.95987E+01  3.96821E+01  3.97724E+01  3.98628E+01  3.99720E+01  4.00798E+01
   4.02130E+01  4.03215E+01  4.04651E+01  4.05653E+01  4.07218E+01  4.08117E+01  4.09813E+01  4.10610E+01  4.12452E+01  4.13174E+01
   4.15188E+01  4.15896E+01  4.18036E+01  4.18733E+01  4.20980E+01  4.21955E+01  4.24353E+01  4.25558E+01  4.28124E+01  4.29746E+01
   4.32553E+01  4.34685E+01  4.37744E+01  4.40289E+01  4.43593E+01  4.46351E+01  4.49882E+01  4.52941E+01  4.56740E+01  4.59746E+01
   4.63665E+01  4.66319E+01  4.70223E+01  4.72400E+01  4.76212E+01  4.77982E+01  4.81652E+01  4.83184E+01  4.86830E+01  4.88153E+01
   4.91597E+01  4.92778E+01  4.96069E+01  4.97375E+01  5.00587E+01  5.02122E+01  5.05252E+01  5.07083E+01  5.10193E+01  5.12351E+01
   5.15461E+01  5.17853E+01  5.20857E+01  5.23309E+01  5.26241E+01  5.29059E+01  5.31955E+01  5.34623E+01  5.37296E+01  5.39732E+01
   5.42146E+01  5.44302E+01  5.46420E+01  5.48276E+01  5.50076E+01  5.51616E+01  5.53070E+01  5.54282E+01  5.55385E+01  5.56272E+01
   5.57044E+01  5.57608E+01  5.58024E+01  5.58208E+01  5.58316E+01  5.58158E+01  5.58019E+01  5.57559E+01  5.57150E+01  5.56373E+01
   5.55765E+01  5.54741E+01  5.53987E+01  5.52820E+01  5.51883E+01  5.50574E+01  5.49461E+01  5.48075E+01  5.46826E+01  5.45543E+01
   5.44222E+01  5.43107E+01  5.41661E+01  5.40640E+01  5.39153E+01  5.38277E+01  5.36932E+01  5.36216E+01  5.35151E+01  5.34525E+01
   5.33872E+01  5.33411E+01  5.33361E+01  5.33085E+01  5.33795E+01  5.33688E+01  5.35266E+01  5.35423E+01  5.37940E+01  5.38551E+01
   5.41874E+01  5.43019E+01  5.47043E+01  5.48710E+01  5.53380E+01  5.55800E+01  5.61039E+01  5.64312E+01  5.69821E+01  5.73786E+01
   5.79443E+01  5.84121E+01  5.89653E+01  5.94932E+01  6.00251E+01  6.05993E+01  6.11115E+01  6.17499E+01  6.22869E+01  6.29850E+01
   6.35406E+01  6.42846E+01  6.48825E+01  6.56412E+01  6.62488E+01  6.69984E+01  6.76401E+01  6.83929E+01  6.90396E+01  6.97790E+01
   7.04970E+01  7.12319E+01  7.19808E+01  7.27177E+01  7.34519E+01  7.42151E+01  7.49049E+01  7.57220E+01  7.64656E+01  7.74422E+01
   7.82938E+01  7.94791E+01  8.04386E+01  8.18055E+01  8.28427E+01  8.43468E+01  8.54830E+01  8.70912E+01  8.83346E+01  8.99833E+01
   9.13516E+01  9.30068E+01  9.44425E+01  9.60136E+01  9.74884E+01  9.89339E+01  1.00459E+02  1.01794E+02  1.03456E+02  1.04668E+02
   1.06360E+02  1.07535E+02  1.09484E+02  1.10682E+02  1.12656E+02  1.13870E+02  1.16069E+02  1.17493E+02  1.19965E+02  1.21661E+02
   1.24347E+02  1.26296E+02  1.29035E+02  1.31234E+02  1.34135E+02  1.36640E+02  1.39579E+02  1.42375E+02  1.45250E+02  1.48357E+02
   1.51195E+02  1.54720E+02  1.57718E+02  1.61788E+02  1.65178E+02  1.69874E+02  1.73803E+02  1.79176E+02  1.83689E+02  1.89700E+02
   1.94909E+02  2.01494E+02  2.07327E+02  2.14352E+02  2.20765E+02  2.28184E+02  2.35206E+02  2.43014E+02  2.50615E+02  2.58864E+02
   2.67048E+02  2.75932E+02  2.85188E+02  2.94807E+02  3.04716E+02  3.14878E+02  3.25222E+02  3.35589E+02  3.45898E+02  3.55942E+02
   3.65607E+02  3.74705E+02  3.83162E+02  3.90898E+02  3.98016E+02  4.04757E+02  4.11055E+02  4.15661E+02  4.20140E+02  4.22922E+02
   4.26341E+02  4.27227E+02  4.29343E+02  4.27672E+02  4.29282E+02  4.25892E+02  4.26321E+02  4.21327E+02  4.21151E+02  4.14007E+02
   4.12186E+02  4.02908E+02  3.98635E+02  3.87841E+02  3.80707E+02  3.69320E+02  3.61235E+02  3.51355E+02  3.42900E+02  3.34755E+02
   3.25153E+02  3.18037E+02  3.06826E+02  3.00631E+02  2.88841E+02  2.83593E+02  2.72029E+02  2.67952E+02  2.57323E+02  2.54474E+02
   2.44305E+02  2.41109E+02  2.31550E+02  2.28454E+02  2.20150E+02  2.18451E+02  2.12587E+02  2.10385E+02  2.04755E+02  2.02174E+02
   1.97159E+02  1.94638E+02  1.89123E+02  1.85958E+02  1.82296E+02  1.80545E+02  1.77446E+02  1.75325E+02  1.71911E+02  1.69620E+02
   1.65918E+02  1.63414E+02  1.59444E+02  1.56459E+02  1.52311E+02  1.48800E+02  1.44793E+02  1.41317E+02  1.37692E+02  1.34522E+02
   1.31445E+02  1.28636E+02  1.26055E+02  1.23370E+02  1.20953E+02  1.18231E+02  1.15908E+02  1.13112E+02  1.11149E+02  1.08982E+02
   1.06701E+02  1.04137E+02  1.01734E+02  9.89787E+01  9.64864E+01  9.33110E+01  9.06589E+01  8.82966E+01  8.60798E+01  8.39602E+01
   8.19173E+01  7.99443E+01  7.80385E+01  7.62019E+01  7.44355E+01  7.27418E+01  7.11211E+01  6.95740E+01  6.80982E+01  6.66920E+01
   6.53505E+01  6.40694E+01  6.28421E+01  6.16627E+01  6.05240E+01  5.94201E+01  5.83443E+01  5.72919E+01  5.62573E+01  5.52379E+01
   5.42304E+01  5.32344E+01  5.22486E+01  5.12747E+01  5.03131E+01  4.93668E+01  4.84375E+01  4.75288E+01  4.66428E+01  4.57828E+01
   4.49504E+01  4.41487E+01  4.33782E+01  4.26412E+01  4.19373E+01  4.12676E+01  4.06310E+01  4.00277E+01  3.94559E+01  3.89153E+01
   3.84035E+01  3.79200E+01  3.74621E+01  3.70292E+01  3.66187E+01  3.62299E+01  3.58604E+01  3.55095E+01  3.51750E+01  3.48566E+01
   3.45522E+01  3.42615E+01  3.39826E+01  3.37156E+01  3.34587E+01  3.32121E+01  3.29742E+01  3.27452E+01  3.25237E+01  3.23101E+01
   3.21030E+01  3.19028E+01  3.17084E+01  3.15202E+01  3.13369E+01  3.11593E+01  3.09861E+01  3.08179E+01  3.06537E+01  3.04941E+01
   3.03379E+01  3.01859E+01  3.00371E+01  2.98922E+01  2.97501E+01  2.96115E+01  2.94755E+01  2.93428E+01  2.92124E+01  2.90851E+01
   2.89598E+01  2.88374E+01  2.87170E+01  2.85992E+01  2.84832E+01  2.83698E+01  2.82579E+01  2.81485E+01  2.80405E+01  2.79348E+01
   2.78305E+01  2.77284E+01  2.76276E+01  2.75289E+01  2.74313E+01  2.73359E+01  2.72416E+01  2.71493E+01  2.70582E+01  2.69691E+01
   2.68811E+01  2.67953E+01  2.67106E+01  2.66282E+01  2.65472E+01  2.64689E+01  2.63925E+01  2.63196E+01  2.62504E+01  2.61880E+01
   2.61379E+01  2.61214E+01  2.61511E+01  2.61814E+01  2.62736E+01  2.63568E+01  2.65448E+01  2.66923E+01
 NY background values follow
     3.205E+01    3.205E+01    3.205E+01    3.205E+01    3.205E+01    3.205E+01    3.205E+01    3.205E+01    3.205E+01    3.205E+01
     3.205E+01    3.204E+01    3.204E+01    3.204E+01    3.204E+01    3.204E+01    3.204E+01    3.204E+01    3.203E+01    3.203E+01
     3.203E+01    3.203E+01    3.203E+01    3.203E+01    3.202E+01    3.202E+01    3.202E+01    3.202E+01    3.202E+01    3.201E+01
     3.201E+01    3.201E+01    3.201E+01    3.200E+01    3.200E+01    3.200E+01    3.200E+01    3.199E+01    3.199E+01    3.199E+01
     3.198E+01    3.198E+01    3.198E+01    3.198E+01    3.197E+01    3.197E+01    3.196E+01    3.196E+01    3.196E+01    3.195E+01
     3.195E+01    3.195E+01    3.194E+01    3.194E+01    3.193E+01    3.193E+01    3.193E+01    3.192E+01    3.192E+01    3.191E+01
     3.191E+01    3.190E+01    3.190E+01    3.190E+01    3.189E+01    3.189E+01    3.188E+01    3.188E+01    3.187E+01    3.187E+01
     3.186E+01    3.185E+01    3.185E+01    3.184E+01    3.184E+01    3.183E+01    3.183E+01    3.182E+01    3.181E+01    3.181E+01
     3.180E+01    3.180E+01    3.179E+01    3.178E+01    3.178E+01    3.177E+01    3.176E+01    3.176E+01    3.175E+01    3.174E+01
     3.174E+01    3.173E+01    3.172E+01    3.171E+01    3.171E+01    3.170E+01    3.169E+01    3.168E+01    3.168E+01    3.167E+01
     3.166E+01    3.165E+01    3.164E+01    3.164E+01    3.163E+01    3.162E+01    3.161E+01    3.160E+01    3.159E+01    3.159E+01
     3.158E+01    3.157E+01    3.156E+01    3.155E+01    3.154E+01    3.153E+01    3.152E+01    3.151E+01    3.150E+01    3.149E+01
     3.148E+01    3.147E+01    3.146E+01    3.145E+01    3.144E+01    3.143E+01    3.142E+01    3.141E+01    3.140E+01    3.139E+01
     3.138E+01    3.137E+01    3.136E+01    3.134E+01    3.133E+01    3.132E+01    3.131E+01    3.130E+01    3.129E+01    3.127E+01
     3.126E+01    3.125E+01    3.124E+01    3.123E+01    3.121E+01    3.120E+01    3.119E+01    3.118E+01    3.116E+01    3.115E+01
     3.114E+01    3.112E+01    3.111E+01    3.110E+01    3.108E+01    3.107E+01    3.105E+01    3.104E+01    3.103E+01    3.101E+01
     3.100E+01    3.098E+01    3.097E+01    3.095E+01    3.094E+01    3.093E+01    3.091E+01    3.089E+01    3.088E+01    3.086E+01
     3.085E+01    3.083E+01    3.082E+01    3.080E+01    3.079E+01    3.077E+01    3.075E+01    3.074E+01    3.072E+01    3.070E+01
     3.069E+01    3.067E+01    3.065E+01    3.064E+01    3.062E+01    3.060E+01    3.059E+01    3.057E+01    3.055E+01    3.053E+01
     3.051E+01    3.050E+01    3.048E+01    3.046E+01    3.044E+01    3.042E+01    3.041E+01    3.039E+01    3.037E+01    3.035E+01
     3.033E+01    3.031E+01    3.029E+01    3.027E+01    3.025E+01    3.023E+01    3.021E+01    3.020E+01    3.018E+01    3.016E+01
     3.014E+01    3.012E+01    3.010E+01    3.007E+01    3.005E+01    3.003E+01    3.001E+01    2.999E+01    2.997E+01    2.995E+01
     2.993E+01    2.991E+01    2.989E+01    2.987E+01    2.984E+01    2.982E+01    2.980E+01    2.978E+01    2.976E+01    2.974E+01
     2.971E+01    2.969E+01    2.967E+01    2.965E+01    2.962E+01    2.960E+01    2.958E+01    2.956E+01    2.953E+01    2.951E+01
     2.949E+01    2.946E+01    2.944E+01    2.942E+01    2.939E+01    2.937E+01    2.935E+01    2.932E+01    2.930E+01    2.928E+01
     2.925E+01    2.923E+01    2.920E+01    2.918E+01    2.915E+01    2.913E+01    2.911E+01    2.908E+01    2.906E+01    2.903E+01
     2.901E+01    2.898E+01    2.896E+01    2.893E+01    2.891E+01    2.888E+01    2.885E+01    2.883E+01    2.880E+01    2.878E+01
     2.875E+01    2.873E+01    2.870E+01    2.867E+01    2.865E+01    2.862E+01    2.860E+01    2.857E+01    2.854E+01    2.852E+01
     2.849E+01    2.846E+01    2.844E+01    2.841E+01    2.838E+01    2.835E+01    2.833E+01    2.830E+01    2.827E+01    2.824E+01
     2.822E+01    2.819E+01    2.816E+01    2.813E+01    2.811E+01    2.808E+01    2.805E+01    2.802E+01    2.799E+01    2.797E+01
     2.794E+01    2.791E+01    2.788E+01    2.785E+01    2.782E+01    2.779E+01    2.777E+01    2.774E+01    2.771E+01    2.768E+01
     2.765E+01    2.762E+01    2.759E+01    2.756E+01    2.753E+01    2.750E+01    2.747E+01    2.744E+01    2.741E+01    2.738E+01
     2.735E+01    2.732E+01    2.729E+01    2.726E+01    2.723E+01    2.720E+01    2.717E+01    2.714E+01    2.711E+01    2.708E+01
     2.705E+01    2.702E+01    2.699E+01    2.696E+01    2.693E+01    2.690E+01    2.687E+01    2.684E+01    2.681E+01    2.677E+01
     2.674E+01    2.671E+01    2.668E+01    2.665E+01    2.662E+01    2.659E+01    2.655E+01    2.652E+01    2.649E+01    2.646E+01
     2.643E+01    2.640E+01    2.636E+01    2.633E+01    2.630E+01    2.627E+01    2.624E+01    2.620E+01    2.617E+01    2.614E+01
     2.611E+01    2.607E+01    2.604E+01    2.601E+01    2.598E+01    2.594E+01    2.591E+01    2.588E+01    2.585E+01    2.581E+01
     2.578E+01    2.575E+01    2.572E+01    2.568E+01    2.565E+01    2.562E+01    2.558E+01    2.555E+01    2.552E+01    2.548E+01
     2.545E+01    2.542E+01    2.539E+01    2.535E+01    2.532E+01    2.529E+01    2.525E+01    2.522E+01    2.519E+01    2.515E+01
     2.512E+01    2.509E+01    2.505E+01    2.502E+01    2.498E+01    2.495E+01    2.492E+01    2.488E+01    2.485E+01    2.482E+01
     2.478E+01    2.475E+01    2.472E+01    2.468E+01    2.465E+01    2.462E+01    2.458E+01    2.455E+01    2.451E+01    2.448E+01
     2.445E+01    2.441E+01    2.438E+01    2.435E+01    2.431E+01    2.428E+01    2.424E+01    2.421E+01    2.418E+01    2.414E+01
     2.411E+01    2.407E+01    2.404E+01    2.401E+01    2.397E+01    2.394E+01    2.391E+01    2.387E+01    2.384E+01    2.380E+01
     2.377E+01    2.374E+01    2.370E+01    2.367E+01    2.364E+01    2.360E+01    2.357E+01    2.353E+01    2.350E+01    2.347E+01
     2.343E+01    2.340E+01    2.337E+01    2.333E+01    2.330E+01    2.326E+01    2.323E+01    2.320E+01    2.316E+01    2.313E+01
     2.310E+01    2.306E+01    2.303E+01    2.300E+01    2.296E+01    2.293E+01    2.290E+01    2.286E+01    2.283E+01    2.280E+01
     2.276E+01    2.273E+01    2.270E+01    2.266E+01    2.263E+01    2.260E+01    2.256E+01    2.253E+01    2.250E+01    2.246E+01
     2.243E+01    2.240E+01    2.236E+01    2.233E+01    2.230E+01    2.227E+01    2.223E+01    2.220E+01    2.217E+01    2.214E+01
     2.210E+01    2.207E+01    2.204E+01    2.200E+01    2.197E+01    2.194E+01    2.191E+01    2.188E+01    2.184E+01    2.181E+01
     2.178E+01    2.175E+01    2.171E+01    2.168E+01    2.165E+01    2.162E+01    2.159E+01    2.156E+01
 Ala      Conc. = 2.47E+04
