 LCModel (Version 6.3-1L) Copyright: S.W. Provencher.          Ref.: Magn. Reson. Med. 30:672-679 (1993).                
 Slice#1 Row#13 Col#14  K_02_press_1_raw_act
 36 lines in following concentration table = NCONC+1
    Conc.  %SD /Cr+PCr  Metabolite                                         
 3.64E+03  11%   0.000 Ala                                                 
    1.817 330%   0.000 Asp                                                 
    0.000 999%   0.000 Cr                                                  
    0.000 999%   0.000 PCr                                                 
    1.096 329%   0.000 GABA                                                
    1.271 283%   0.000 Glc                                                 
    0.000 999%   0.000 Gln                                                 
    0.000 999%   0.000 Glu                                                 
    0.000 999%   0.000 GPC                                                 
   14.135 101%   0.000 PCh                                                 
   89.452  66%   0.000 GSH                                                 
    1.600 999%   0.000 Ins                                                 
 4.94E+03   9%   0.000 Lac                                                 
    0.000 999%   0.000 NAA                                                 
    0.000 999%   0.000 NAAG                                                
    0.456 263%   0.000 Scyllo                                              
    2.172 273%   0.000 Tau                                                 
    1.687 719%   0.000 -CrCH2                                              
   14.135 101%   0.000 GPC+PCh                                             
    0.000 999%   0.000 NAA+NAAG                                            
    0.000 999%   0.000 Cr+PCr                                              
    0.000 999%   0.000 Glu+Gln                                             
    0.000 999%   0.000 Lip13a                                              
    0.000 999%   0.000 Lip13b                                              
    0.000 999%   0.000 Lip09                                               
  812.543   8%   0.000 MM09                                                
    0.000 999%   0.000 Lip20                                               
 1.22E+03   8%   0.000 MM20                                                
  243.753   8%   0.000 MM12                                                
  611.479   8%   0.000 MM14                                                
  305.714   8%   0.000 MM17                                                
    0.000 999%   0.000 Lip13a+Lip13b                                       
  855.232   8%   0.000 MM14+Lip13a+Lip13b+MM12                             
  812.543   8%   0.000 MM09+Lip09                                          
 1.22E+03   8%   0.000 MM20+Lip20                                          
   6 lines in following misc. output table
  FWHM = 0.183 ppm    S/N =   7                                            
  Data shift = 0.298 ppm                                                   
  Ph:  55 deg       9.8 deg/ppm                                            
  alphaB,S = 6.6E+00,   3.4E+02                                            
    8 spline knots.   Ns = 9(2)                                            
  (15) 8 infls.   ( 5) 1 extrs.                                            
  498 points on ppm-axis = NY
      4.000000     3.992357     3.984714     3.977070     3.969427     3.961784     3.954141     3.946497     3.938854     3.931211
      3.923568     3.915925     3.908281     3.900638     3.892995     3.885352     3.877708     3.870065     3.862422     3.854779
      3.847136     3.839492     3.831849     3.824206     3.816563     3.808919     3.801276     3.793633     3.785990     3.778347
      3.770703     3.763060     3.755417     3.747774     3.740130     3.732487     3.724844     3.717201     3.709558     3.701914
      3.694271     3.686628     3.678985     3.671341     3.663698     3.656055     3.648412     3.640769     3.633125     3.625482
      3.617839     3.610196     3.602552     3.594909     3.587266     3.579623     3.571980     3.564336     3.556693     3.549050
      3.541407     3.533763     3.526120     3.518477     3.510834     3.503191     3.495547     3.487904     3.480261     3.472618
      3.464974     3.457331     3.449688     3.442045     3.434402     3.426758     3.419115     3.411472     3.403829     3.396185
      3.388542     3.380899     3.373256     3.365613     3.357969     3.350326     3.342683     3.335040     3.327396     3.319753
      3.312110     3.304467     3.296824     3.289180     3.281537     3.273894     3.266251     3.258607     3.250964     3.243321
      3.235678     3.228034     3.220391     3.212748     3.205105     3.197462     3.189818     3.182175     3.174532     3.166889
      3.159245     3.151602     3.143959     3.136316     3.128673     3.121029     3.113386     3.105743     3.098100     3.090456
      3.082813     3.075170     3.067527     3.059884     3.052240     3.044597     3.036954     3.029311     3.021667     3.014024
      3.006381     2.998738     2.991095     2.983451     2.975808     2.968165     2.960522     2.952878     2.945235     2.937592
      2.929949     2.922306     2.914662     2.907019     2.899376     2.891733     2.884089     2.876446     2.868803     2.861160
      2.853517     2.845873     2.838230     2.830587     2.822944     2.815300     2.807657     2.800014     2.792371     2.784728
      2.777084     2.769441     2.761798     2.754155     2.746511     2.738868     2.731225     2.723582     2.715939     2.708295
      2.700652     2.693009     2.685366     2.677722     2.670079     2.662436     2.654793     2.647150     2.639506     2.631863
      2.624220     2.616577     2.608933     2.601290     2.593647     2.586004     2.578361     2.570717     2.563074     2.555431
      2.547788     2.540144     2.532501     2.524858     2.517215     2.509572     2.501928     2.494285     2.486642     2.478999
      2.471355     2.463712     2.456069     2.448426     2.440783     2.433139     2.425496     2.417853     2.410210     2.402566
      2.394923     2.387280     2.379637     2.371994     2.364350     2.356707     2.349064     2.341421     2.333777     2.326134
      2.318491     2.310848     2.303205     2.295561     2.287918     2.280275     2.272632     2.264988     2.257345     2.249702
      2.242059     2.234416     2.226772     2.219129     2.211486     2.203843     2.196199     2.188556     2.180913     2.173270
      2.165627     2.157983     2.150340     2.142697     2.135054     2.127410     2.119767     2.112124     2.104481     2.096838
      2.089194     2.081551     2.073908     2.066265     2.058621     2.050978     2.043335     2.035692     2.028049     2.020405
      2.012762     2.005119     1.997476     1.989833     1.982190     1.974546     1.966903     1.959260     1.951617     1.943974
      1.936331     1.928688     1.921045     1.913402     1.905759     1.898115     1.890472     1.882829     1.875186     1.867543
      1.859900     1.852257     1.844614     1.836971     1.829327     1.821684     1.814041     1.806398     1.798755     1.791112
      1.783469     1.775826     1.768183     1.760540     1.752896     1.745253     1.737610     1.729967     1.722324     1.714681
      1.707038     1.699395     1.691752     1.684108     1.676465     1.668822     1.661179     1.653536     1.645893     1.638250
      1.630607     1.622964     1.615321     1.607677     1.600034     1.592391     1.584748     1.577105     1.569462     1.561819
      1.554176     1.546533     1.538890     1.531246     1.523603     1.515960     1.508317     1.500674     1.493031     1.485388
      1.477745     1.470102     1.462458     1.454815     1.447172     1.439529     1.431886     1.424243     1.416600     1.408957
      1.401314     1.393671     1.386027     1.378384     1.370741     1.363098     1.355455     1.347812     1.340169     1.332526
      1.324883     1.317240     1.309596     1.301953     1.294310     1.286667     1.279024     1.271381     1.263738     1.256095
      1.248452     1.240808     1.233165     1.225522     1.217879     1.210236     1.202593     1.194950     1.187307     1.179664
      1.172021     1.164377     1.156734     1.149091     1.141448     1.133805     1.126162     1.118519     1.110876     1.103233
      1.095590     1.087946     1.080303     1.072660     1.065017     1.057374     1.049731     1.042088     1.034445     1.026802
      1.019158     1.011515     1.003872     0.996229     0.988586     0.980943     0.973300     0.965657     0.958014     0.950371
      0.942727     0.935084     0.927441     0.919798     0.912155     0.904512     0.896869     0.889226     0.881583     0.873940
      0.866296     0.858653     0.851010     0.843367     0.835724     0.828081     0.820438     0.812795     0.805152     0.797508
      0.789865     0.782222     0.774579     0.766936     0.759293     0.751650     0.744007     0.736364     0.728721     0.721077
      0.713434     0.705791     0.698148     0.690505     0.682862     0.675219     0.667576     0.659933     0.652290     0.644646
      0.637003     0.629360     0.621717     0.614074     0.606431     0.598788     0.591145     0.583502     0.575858     0.568215
      0.560572     0.552929     0.545286     0.537643     0.530000     0.522357     0.514714     0.507071     0.499427     0.491784
      0.484141     0.476498     0.468855     0.461212     0.453569     0.445925     0.438282     0.430639     0.422996     0.415353
      0.407710     0.400067     0.392424     0.384780     0.377137     0.369494     0.361851     0.354208     0.346565     0.338922
      0.331278     0.323635     0.315992     0.308349     0.300706     0.293063     0.285420     0.277777     0.270133     0.262490
      0.254847     0.247204     0.239561     0.231918     0.224275     0.216631     0.208988     0.201345
 NY phased data points follow
   2.01220E-01  1.41296E+00 -1.23297E-02  7.41271E-01 -1.25647E-01 -3.17334E-01  1.92889E-01  5.96398E-01 -4.78824E-01  3.08543E-01
  -5.06286E-02  1.04003E+00 -1.42933E-01 -2.31809E+00 -5.88634E-01 -1.28728E+00 -9.60862E-02 -9.63733E-01 -8.97215E-01 -1.98490E-01
   2.19458E-01  2.75330E-01 -4.16595E-01  3.67074E-01 -8.59987E-01  1.15472E+00 -2.00111E-01 -2.97217E-01  9.37570E-01  7.78448E-01
  -3.08224E-01  1.96386E-01  3.68240E-01  3.32315E-02  4.02288E-01  7.05854E-01  1.83532E-01 -1.31127E+00  6.79274E-01 -2.38289E-01
   3.66035E-01  3.48009E-02 -1.79362E+00 -8.84620E-01 -1.88866E-01 -1.35194E+00 -9.87869E-01 -1.66208E-02 -6.44354E-01 -1.32386E+00
   7.59148E-01  1.09554E+00 -4.51404E-01 -3.35851E-01 -9.56536E-01  1.40420E+00  6.97099E-01  8.79977E-01 -9.34798E-02 -4.97889E-01
  -1.40538E+00 -5.68361E-01 -2.36393E+00 -1.51353E+00  5.76265E-01  5.14817E-01 -1.34526E+00  8.73436E-01 -5.59522E-01  2.08392E-01
   1.18088E+00 -4.17841E-01 -2.09006E-01  2.83397E-01 -5.97743E-01 -9.77285E-01 -9.46555E-01 -2.13930E+00  8.03860E-01  1.90184E-01
  -4.91394E-01 -1.57010E+00 -1.04515E+00 -4.02941E-01 -4.70544E-01 -8.26153E-01 -1.17542E-01  1.28409E+00  3.41096E-01  1.07269E+00
   1.32534E+00  2.31687E+00  1.23877E+00 -2.06862E+00  1.47388E-01 -8.98326E-01  1.19056E+00 -6.30209E-01 -1.35557E+00  6.15676E-01
  -7.83447E-01 -1.21306E-01 -2.36406E-02  2.58474E-01 -8.22132E-01 -5.88231E-01  2.17496E+00 -1.49385E-01  5.67825E-01 -4.98192E-01
  -6.42300E-01  1.88580E-01  7.61575E-01  1.37013E-01  9.82238E-01 -9.18869E-01  2.78264E+00 -1.85113E+00 -3.82083E-01  1.34827E+00
   1.75727E+00 -4.68246E-01 -7.15735E-01 -7.18944E-01 -8.12043E-01 -1.95816E+00  1.40328E+00  1.48290E-02 -3.77818E-01  1.82736E+00
  -1.39525E+00 -8.28752E-01  6.90371E-01  5.20712E-01  1.23268E+00  8.67485E-01 -9.15422E-02  1.70871E+00 -7.78262E-01  9.67197E-01
  -1.26039E-01  1.89038E+00  2.05426E-01 -2.84603E-01 -8.14692E-01  1.21360E+00 -1.41236E+00 -2.54602E-01  2.09235E+00 -1.20589E-01
   8.41503E-01 -2.83826E-01  1.23856E+00  4.13959E-01 -2.31544E-01  8.86080E-01  1.01666E+00  1.77931E+00  5.03947E-02  2.06912E-01
  -1.78631E+00  8.67536E-01  1.12318E+00  2.73498E-01  1.62706E+00 -2.06248E+00 -7.70145E-01  3.76653E-01  5.19998E-01  1.41821E-01
  -1.26625E-01 -8.44243E-01 -1.21638E+00  1.66566E+00 -4.11161E-01 -3.56499E-01  1.43504E+00 -9.10306E-01  3.03569E-01  3.58766E-01
   8.67201E-01 -1.22868E+00  5.56727E-01 -3.42182E-01 -1.52454E+00  1.86148E-01  7.80112E-01  2.23412E-01  3.07786E-01  1.11273E+00
   1.73073E+00  9.83106E-01  8.23507E-01 -5.24297E-01 -3.74023E-01 -3.94341E-01 -9.41954E-01  9.96487E-01 -3.93170E-01 -3.97669E-01
  -1.05178E+00  1.47806E+00  3.85452E-01  1.79774E+00 -3.63727E-01 -1.49369E-01  8.65213E-01 -9.22096E-02 -2.45359E-01  1.30982E+00
   6.75465E-03  1.02288E+00 -7.36332E-02 -3.94081E-01 -2.26303E+00 -1.65900E+00 -1.87327E+00  1.60383E+00  3.64615E-01  1.05391E+00
   1.49288E+00  1.89176E+00  2.31064E+00  2.71221E+00  1.64319E+00 -4.06757E-02  2.71791E-01 -1.06640E+00 -1.92697E+00 -1.21964E+00
  -8.36309E-01 -3.69440E-01 -1.19525E-01  1.42315E-01  2.23471E+00 -5.74800E-01 -3.52037E-01 -4.99708E-02 -1.34655E+00 -1.23049E+00
   2.72119E+00 -6.13144E-02  7.64565E-01  1.76914E+00  1.80806E+00  2.80667E+00  5.05040E-02  1.29773E+00  2.24918E-01  1.14313E+00
   2.13571E+00  1.56630E+00  1.13438E+00  5.80588E-01  1.70578E+00  1.28670E+00  2.80365E+00  1.94917E+00  3.49634E+00  1.73310E+00
   1.64331E+00  1.96834E+00  2.76528E+00  1.61603E+00 -6.71846E-01  1.90794E+00  2.23291E+00 -3.40870E-02 -4.36183E-01  4.52228E-01
   2.27000E+00  1.22591E+00  2.50859E+00  2.20233E+00  2.20074E+00  3.91527E+00  3.46082E+00  1.87615E+00  1.44689E+00  2.03765E+00
  -4.25727E-02 -1.66647E+00 -4.68735E-01 -1.52400E+00 -1.34615E+00 -6.02017E-01 -1.51292E+00 -3.06254E+00 -3.91174E+00 -3.08204E+00
  -3.72374E+00 -2.62748E+00 -3.56731E+00 -2.61699E+00 -1.79830E+00 -3.87744E+00 -2.02149E+00 -2.81366E-01  7.39698E-01  3.66159E-01
   4.85112E-04  2.98734E+00  3.06820E+00  1.98001E+00  3.58323E+00  6.55485E+00  4.72427E+00  6.39709E+00  7.68864E+00  6.24103E+00
   8.31340E+00  8.54727E+00  6.41273E+00  7.75793E+00  1.02326E+01  1.12714E+01  1.12660E+01  1.12120E+01  1.21326E+01  1.14733E+01
   1.22140E+01  1.38687E+01  1.42964E+01  1.67804E+01  1.47676E+01  1.63640E+01  1.77632E+01  1.96258E+01  1.79446E+01  1.70201E+01
   1.99344E+01  1.82164E+01  1.77015E+01  1.79031E+01  1.87707E+01  1.76590E+01  1.83587E+01  1.70510E+01  1.57787E+01  1.67251E+01
   1.52257E+01  1.59082E+01  1.52149E+01  1.57792E+01  1.42339E+01  1.30518E+01  1.51530E+01  1.19778E+01  1.23680E+01  1.39196E+01
   1.34597E+01  1.40569E+01  1.30665E+01  1.12603E+01  1.12187E+01  1.20805E+01  1.17992E+01  1.16725E+01  1.10104E+01  9.55615E+00
   1.04159E+01  1.10955E+01  9.20926E+00  1.03238E+01  9.66700E+00  1.03473E+01  1.10819E+01  6.74038E+00  8.64869E+00  8.40209E+00
   8.87303E+00  8.96504E+00  8.74582E+00  8.14647E+00  7.36756E+00  7.82733E+00  7.91271E+00  6.49194E+00  8.21733E+00  6.30992E+00
   7.78011E+00  4.89853E+00  6.60207E+00  6.42527E+00  7.24912E+00  7.41363E+00  4.53496E+00  6.09532E+00  4.06330E+00  4.11470E+00
   2.75689E+00  5.86675E+00  3.58292E+00  4.20403E+00  3.94459E+00  3.13286E+00  2.40213E+00  2.20862E+00  2.98715E+00  2.69147E+00
   1.51238E+00  2.47381E+00  2.20545E+00  1.64096E+00  1.56398E+00 -4.34697E-02 -1.01023E-01  1.27381E+00  1.58194E+00  2.70188E+00
   2.37843E+00  4.77009E-01  8.78181E-02  9.90596E-01 -6.57898E-01  2.40575E+00  7.19415E-01  1.44680E+00  7.70042E-01  3.27510E+00
   1.55472E+00  5.36519E-01 -1.34493E+00 -5.71793E-01 -9.81514E-01  9.04113E-01 -6.58636E-01  4.85613E-01 -7.02975E-01 -1.28662E-01
   1.29018E+00  4.05215E-01  2.70506E-01 -9.86063E-01  2.87416E-04  7.72394E-01  1.79414E-01 -5.22038E-02 -7.29531E-01  1.60130E+00
   3.02331E-01 -9.37501E-01 -3.93387E-01 -9.94090E-01 -2.51652E-02 -1.23520E-01  6.82477E-01 -1.11498E-01 -3.26146E-01  1.15958E-01
  -2.58829E-01 -6.10259E-01 -2.07434E+00 -1.62140E-01 -1.41294E+00  1.12926E-01  2.51493E-01 -1.12338E+00  8.69016E-01  9.12918E-01
   4.79305E-01  5.75363E-01 -3.21374E-01 -4.54140E-01 -1.32059E+00  3.93510E-01 -1.40438E+00 -9.89943E-01 -6.09105E-01  6.35922E-01
  -7.39206E-01 -1.21718E+00 -1.22495E+00 -7.13233E-01 -1.30787E-01  7.59926E-01 -1.20661E+00 -2.04687E+00 -2.82990E-01 -1.65842E+00
  -1.32043E+00 -4.36860E-01 -7.66443E-01 -1.93412E+00  2.55844E-01 -8.57428E-01  1.31287E-01 -9.66603E-01 -2.34876E+00  1.41192E-03
  -1.30547E-01 -1.81247E+00 -1.58971E+00 -1.26232E+00 -6.39296E-01 -5.52143E-01 -2.49161E-01 -1.66107E+00
 NY points of the fit to the data follow
  -7.96931E-01 -5.32099E-02 -8.24852E-01 -1.56017E-01 -5.78247E-01  2.68913E-01 -2.55831E-02  8.19122E-01  3.56702E-01  8.90886E-01
   2.92988E-01  5.06511E-01 -1.42049E-01  1.63678E-01 -5.14414E-01  1.05712E-02 -4.43307E-01  1.34619E-01 -1.56549E-01  3.71344E-01
   6.73348E-02  5.63037E-01  2.13663E-01  5.51759E-01  2.49784E-01  4.11034E-01  1.31650E-01  1.55266E-01  2.17241E-02 -2.60538E-02
   2.47362E-02 -9.71909E-02  1.10709E-01 -4.08982E-02  2.64625E-01 -2.29590E-02  3.07414E-01 -1.01068E-01  2.81012E-01 -2.13414E-01
   7.61627E-02 -4.25621E-01 -1.00552E-01 -5.59563E-01 -1.69061E-01 -5.65704E-01 -1.14409E-01 -3.10929E-01  2.51003E-03 -2.25262E-01
  -1.70606E-02 -2.55132E-01 -1.25297E-01 -3.98243E-01 -4.17060E-01 -5.32384E-01 -4.69104E-01 -5.10627E-01 -4.23237E-01 -4.08732E-01
  -3.18906E-01 -2.74767E-01 -2.65209E-01 -2.63339E-01 -2.67367E-01 -2.71322E-01 -2.77754E-01 -2.82951E-01 -2.89086E-01 -2.93921E-01
  -2.99731E-01 -3.04636E-01 -3.09900E-01 -3.15011E-01 -3.19336E-01 -3.24086E-01 -3.27798E-01 -3.32355E-01 -3.35510E-01 -3.39649E-01
  -3.41705E-01 -3.44771E-01 -3.45513E-01 -3.46236E-01 -3.40233E-01 -3.11189E-01 -2.79491E-01 -2.56186E-01 -2.13155E-01 -1.99817E-01
  -1.46910E-01 -1.40447E-01 -7.64312E-02 -8.09627E-02 -8.87095E-03 -2.72698E-02  4.99965E-02  2.42268E-02  1.08362E-01  7.33314E-02
   1.61762E-01  1.15732E-01  2.03058E-01  1.46244E-01  2.28640E-01  1.58486E-01  2.30859E-01  1.59206E-01  2.21788E-01  1.54338E-01
   2.07922E-01  1.52400E-01  2.00881E-01  1.56371E-01  2.00513E-01  1.73804E-01  2.14434E-01  1.95094E-01  2.26071E-01  2.06351E-01
   2.24546E-01  2.09732E-01  2.23432E-01  2.18015E-01  2.36356E-01  2.49657E-01  2.80421E-01  2.85838E-01  3.18429E-01  3.11732E-01
   3.44236E-01  3.23445E-01  3.51768E-01  3.15900E-01  3.37782E-01  2.87541E-01  3.03316E-01  2.43804E-01  2.57932E-01  1.93523E-01
   2.05962E-01  1.37159E-01  1.43918E-01  6.91323E-02  6.71983E-02 -1.00476E-02 -1.88074E-02 -9.00020E-02 -1.03027E-01 -1.69677E-01
  -1.87151E-01 -2.50197E-01 -2.72040E-01 -3.26322E-01 -3.46754E-01 -3.83736E-01 -3.99523E-01 -4.35590E-01 -4.57007E-01 -4.92935E-01
  -5.20101E-01 -5.49639E-01 -5.74902E-01 -5.95545E-01 -6.14774E-01 -6.32229E-01 -6.48137E-01 -6.67802E-01 -6.81600E-01 -7.02192E-01
  -7.12697E-01 -7.30064E-01 -7.31511E-01 -7.42255E-01 -7.35673E-01 -7.45691E-01 -7.38224E-01 -7.49944E-01 -7.43108E-01 -7.62543E-01
  -7.60557E-01 -7.72327E-01 -7.68899E-01 -7.73667E-01 -7.70122E-01 -7.68346E-01 -7.65351E-01 -7.54745E-01 -7.52539E-01 -7.33865E-01
  -7.32847E-01 -7.09091E-01 -7.12077E-01 -6.84019E-01 -6.89780E-01 -6.55592E-01 -6.62230E-01 -6.22002E-01 -6.25467E-01 -5.78304E-01
  -5.76741E-01 -5.27526E-01 -5.23144E-01 -4.73361E-01 -4.64513E-01 -4.14454E-01 -3.99990E-01 -3.51560E-01 -3.32085E-01 -2.84414E-01
  -2.59549E-01 -2.13180E-01 -1.80709E-01 -1.35876E-01 -9.82203E-02 -4.99414E-02 -5.61782E-03  4.58318E-02  9.68235E-02  1.52284E-01
   2.07600E-01  2.62199E-01  3.18863E-01  3.72644E-01  4.32271E-01  4.85694E-01  5.48462E-01  6.08724E-01  6.83484E-01  7.50281E-01
   8.36832E-01  9.13016E-01  1.01273E+00  1.09839E+00  1.20934E+00  1.30107E+00  1.41983E+00  1.51532E+00  1.63888E+00  1.73546E+00
   1.86060E+00  1.96009E+00  2.08492E+00  2.18442E+00  2.30325E+00  2.39487E+00  2.49856E+00  2.57263E+00  2.65173E+00  2.70297E+00
   2.75352E+00  2.78022E+00  2.79891E+00  2.79245E+00  2.77607E+00  2.74274E+00  2.69797E+00  2.64295E+00  2.57629E+00  2.50994E+00
   2.42872E+00  2.34375E+00  2.24671E+00  2.14838E+00  2.04202E+00  1.93620E+00  1.82548E+00  1.72202E+00  1.61719E+00  1.51851E+00
   1.42048E+00  1.32791E+00  1.23802E+00  1.15225E+00  1.07002E+00  9.92018E-01  9.18845E-01  8.50788E-01  7.88117E-01  7.31074E-01
   6.79895E-01  6.34855E-01  5.96116E-01  5.63938E-01  5.38446E-01  5.19900E-01  5.08460E-01  5.04430E-01  5.08000E-01  5.19515E-01
   5.39347E-01  5.67992E-01  6.06193E-01  6.54838E-01  7.15057E-01  7.88328E-01  8.76575E-01  9.82301E-01  1.10870E+00  1.25980E+00
   1.44071E+00  1.65810E+00  1.92061E+00  2.23980E+00  2.63175E+00  3.12040E+00  3.74572E+00  4.58803E+00  5.84791E+00  7.59463E+00
   8.27618E+00  9.58957E+00  9.73644E+00  1.06911E+01  1.03652E+01  1.08940E+01  9.83633E+00  1.09900E+01  1.04745E+01  1.16920E+01
   1.14889E+01  1.26627E+01  1.25052E+01  1.35569E+01  1.35414E+01  1.43718E+01  1.45655E+01  1.51741E+01  1.59319E+01  1.72881E+01
   1.77964E+01  1.81031E+01  1.84387E+01  1.79056E+01  1.81938E+01  1.68824E+01  1.68469E+01  1.62179E+01  1.64601E+01  1.57650E+01
   1.61828E+01  1.57232E+01  1.58117E+01  1.55074E+01  1.54438E+01  1.50722E+01  1.48972E+01  1.42398E+01  1.39288E+01  1.38042E+01
   1.32734E+01  1.31864E+01  1.26402E+01  1.26431E+01  1.20378E+01  1.21391E+01  1.11960E+01  1.14544E+01  1.08256E+01  1.08456E+01
   1.04561E+01  1.05137E+01  1.00880E+01  1.00372E+01  9.67122E+00  9.41444E+00  9.24525E+00  8.90467E+00  9.20453E+00  9.87088E+00
   9.95176E+00  9.99310E+00  9.80000E+00  9.16716E+00  8.62506E+00  7.31970E+00  6.56185E+00  6.13853E+00  5.88015E+00  5.71886E+00
   5.61931E+00  5.55970E+00  5.52461E+00  5.50260E+00  5.48430E+00  5.46222E+00  5.42992E+00  5.38245E+00  5.31584E+00  5.22754E+00
   5.11582E+00  4.98019E+00  4.82089E+00  4.63930E+00  4.43742E+00  4.21807E+00  3.98431E+00  3.73966E+00  3.48757E+00  3.23168E+00
   2.97535E+00  2.72184E+00  2.47384E+00  2.23377E+00  2.00346E+00  1.78451E+00  1.57792E+00  1.38443E+00  1.20424E+00  1.03739E+00
   8.83536E-01  7.42318E-01  6.13071E-01  4.95164E-01  3.87716E-01  2.89994E-01  2.01125E-01  1.20444E-01  4.71327E-02 -1.94379E-02
  -8.00241E-02 -1.35141E-01 -1.85396E-01 -2.31170E-01 -2.72989E-01 -3.11179E-01 -3.46195E-01 -3.78257E-01 -4.07707E-01 -4.34693E-01
  -4.59532E-01 -4.82354E-01 -5.03427E-01 -5.22806E-01 -5.40699E-01 -5.57139E-01 -5.72344E-01 -5.86341E-01 -5.99309E-01 -6.11219E-01
  -6.22227E-01 -6.32313E-01 -6.41649E-01 -6.50205E-01 -6.58116E-01 -6.65317E-01 -6.71941E-01 -6.77945E-01 -6.83474E-01 -6.88467E-01
  -6.93033E-01 -6.97094E-01 -7.00775E-01 -7.04019E-01 -7.06953E-01 -7.09495E-01 -7.11744E-01 -7.13618E-01 -7.15238E-01 -7.16539E-01
  -7.17629E-01 -7.18420E-01 -7.19002E-01 -7.19299E-01 -7.19425E-01 -7.19309E-01 -7.19046E-01 -7.18542E-01 -7.17889E-01 -7.17013E-01
  -7.16023E-01 -7.14840E-01 -7.13549E-01 -7.12058E-01 -7.10459E-01 -7.08682E-01 -7.06827E-01 -7.04808E-01 -7.02705E-01 -7.00430E-01
  -6.98076E-01 -6.95570E-01 -6.93005E-01 -6.90288E-01 -6.87499E-01 -6.84548E-01 -6.81532E-01 -6.78368E-01 -6.75141E-01 -6.71750E-01
  -6.68271E-01 -6.64611E-01 -6.60856E-01 -6.56902E-01 -6.52813E-01 -6.48460E-01 -6.43889E-01 -6.38948E-01
 NY background values follow
    -2.778E-01   -2.827E-01   -2.876E-01   -2.924E-01   -2.973E-01   -3.022E-01   -3.070E-01   -3.119E-01   -3.167E-01   -3.216E-01
    -3.264E-01   -3.312E-01   -3.360E-01   -3.409E-01   -3.457E-01   -3.505E-01   -3.553E-01   -3.601E-01   -3.649E-01   -3.697E-01
    -3.745E-01   -3.793E-01   -3.841E-01   -3.889E-01   -3.937E-01   -3.985E-01   -4.032E-01   -4.080E-01   -4.128E-01   -4.176E-01
    -4.224E-01   -4.272E-01   -4.320E-01   -4.368E-01   -4.416E-01   -4.463E-01   -4.511E-01   -4.559E-01   -4.607E-01   -4.655E-01
    -4.703E-01   -4.752E-01   -4.800E-01   -4.848E-01   -4.896E-01   -4.944E-01   -4.992E-01   -5.041E-01   -5.089E-01   -5.138E-01
    -5.186E-01   -5.235E-01   -5.283E-01   -5.332E-01   -5.381E-01   -5.429E-01   -5.478E-01   -5.527E-01   -5.576E-01   -5.625E-01
    -5.674E-01   -5.724E-01   -5.773E-01   -5.822E-01   -5.872E-01   -5.922E-01   -5.971E-01   -6.021E-01   -6.071E-01   -6.121E-01
    -6.171E-01   -6.221E-01   -6.272E-01   -6.322E-01   -6.373E-01   -6.423E-01   -6.474E-01   -6.525E-01   -6.576E-01   -6.627E-01
    -6.679E-01   -6.730E-01   -6.782E-01   -6.834E-01   -6.885E-01   -6.938E-01   -6.990E-01   -7.042E-01   -7.095E-01   -7.147E-01
    -7.200E-01   -7.253E-01   -7.306E-01   -7.359E-01   -7.413E-01   -7.467E-01   -7.520E-01   -7.574E-01   -7.629E-01   -7.683E-01
    -7.738E-01   -7.792E-01   -7.847E-01   -7.902E-01   -7.958E-01   -8.013E-01   -8.069E-01   -8.124E-01   -8.180E-01   -8.236E-01
    -8.293E-01   -8.349E-01   -8.406E-01   -8.462E-01   -8.519E-01   -8.576E-01   -8.633E-01   -8.690E-01   -8.748E-01   -8.805E-01
    -8.863E-01   -8.921E-01   -8.978E-01   -9.036E-01   -9.094E-01   -9.153E-01   -9.211E-01   -9.269E-01   -9.328E-01   -9.386E-01
    -9.445E-01   -9.504E-01   -9.562E-01   -9.621E-01   -9.680E-01   -9.739E-01   -9.798E-01   -9.857E-01   -9.917E-01   -9.976E-01
    -1.004E+00   -1.009E+00   -1.015E+00   -1.021E+00   -1.027E+00   -1.033E+00   -1.039E+00   -1.045E+00   -1.051E+00   -1.057E+00
    -1.063E+00   -1.069E+00   -1.075E+00   -1.081E+00   -1.087E+00   -1.093E+00   -1.099E+00   -1.105E+00   -1.111E+00   -1.117E+00
    -1.123E+00   -1.129E+00   -1.135E+00   -1.141E+00   -1.147E+00   -1.153E+00   -1.159E+00   -1.164E+00   -1.170E+00   -1.176E+00
    -1.182E+00   -1.188E+00   -1.194E+00   -1.200E+00   -1.206E+00   -1.212E+00   -1.218E+00   -1.224E+00   -1.230E+00   -1.235E+00
    -1.241E+00   -1.247E+00   -1.253E+00   -1.259E+00   -1.265E+00   -1.270E+00   -1.276E+00   -1.282E+00   -1.288E+00   -1.294E+00
    -1.299E+00   -1.305E+00   -1.311E+00   -1.317E+00   -1.322E+00   -1.328E+00   -1.334E+00   -1.339E+00   -1.345E+00   -1.351E+00
    -1.356E+00   -1.362E+00   -1.368E+00   -1.373E+00   -1.379E+00   -1.384E+00   -1.390E+00   -1.395E+00   -1.401E+00   -1.406E+00
    -1.412E+00   -1.417E+00   -1.423E+00   -1.428E+00   -1.433E+00   -1.439E+00   -1.444E+00   -1.449E+00   -1.454E+00   -1.459E+00
    -1.465E+00   -1.470E+00   -1.475E+00   -1.480E+00   -1.485E+00   -1.490E+00   -1.495E+00   -1.500E+00   -1.505E+00   -1.510E+00
    -1.514E+00   -1.519E+00   -1.524E+00   -1.528E+00   -1.533E+00   -1.538E+00   -1.542E+00   -1.547E+00   -1.551E+00   -1.556E+00
    -1.560E+00   -1.564E+00   -1.568E+00   -1.573E+00   -1.577E+00   -1.581E+00   -1.585E+00   -1.589E+00   -1.593E+00   -1.597E+00
    -1.600E+00   -1.604E+00   -1.608E+00   -1.612E+00   -1.615E+00   -1.619E+00   -1.622E+00   -1.625E+00   -1.629E+00   -1.632E+00
    -1.635E+00   -1.638E+00   -1.641E+00   -1.644E+00   -1.647E+00   -1.650E+00   -1.653E+00   -1.656E+00   -1.658E+00   -1.661E+00
    -1.663E+00   -1.666E+00   -1.668E+00   -1.671E+00   -1.673E+00   -1.675E+00   -1.677E+00   -1.679E+00   -1.681E+00   -1.683E+00
    -1.684E+00   -1.686E+00   -1.687E+00   -1.689E+00   -1.690E+00   -1.692E+00   -1.693E+00   -1.694E+00   -1.695E+00   -1.696E+00
    -1.697E+00   -1.697E+00   -1.698E+00   -1.699E+00   -1.699E+00   -1.700E+00   -1.700E+00   -1.700E+00   -1.700E+00   -1.700E+00
    -1.700E+00   -1.700E+00   -1.700E+00   -1.699E+00   -1.699E+00   -1.698E+00   -1.697E+00   -1.697E+00   -1.696E+00   -1.695E+00
    -1.694E+00   -1.693E+00   -1.691E+00   -1.690E+00   -1.689E+00   -1.687E+00   -1.686E+00   -1.684E+00   -1.682E+00   -1.681E+00
    -1.679E+00   -1.677E+00   -1.675E+00   -1.673E+00   -1.671E+00   -1.668E+00   -1.666E+00   -1.663E+00   -1.661E+00   -1.658E+00
    -1.656E+00   -1.653E+00   -1.650E+00   -1.648E+00   -1.645E+00   -1.642E+00   -1.639E+00   -1.635E+00   -1.632E+00   -1.629E+00
    -1.626E+00   -1.622E+00   -1.619E+00   -1.616E+00   -1.612E+00   -1.608E+00   -1.605E+00   -1.601E+00   -1.597E+00   -1.593E+00
    -1.590E+00   -1.586E+00   -1.582E+00   -1.578E+00   -1.573E+00   -1.569E+00   -1.565E+00   -1.561E+00   -1.557E+00   -1.552E+00
    -1.548E+00   -1.543E+00   -1.539E+00   -1.534E+00   -1.530E+00   -1.525E+00   -1.521E+00   -1.516E+00   -1.511E+00   -1.507E+00
    -1.502E+00   -1.497E+00   -1.492E+00   -1.487E+00   -1.482E+00   -1.477E+00   -1.472E+00   -1.467E+00   -1.462E+00   -1.457E+00
    -1.452E+00   -1.447E+00   -1.442E+00   -1.436E+00   -1.431E+00   -1.426E+00   -1.421E+00   -1.415E+00   -1.410E+00   -1.405E+00
    -1.399E+00   -1.394E+00   -1.389E+00   -1.383E+00   -1.378E+00   -1.372E+00   -1.367E+00   -1.361E+00   -1.356E+00   -1.350E+00
    -1.345E+00   -1.339E+00   -1.334E+00   -1.328E+00   -1.323E+00   -1.317E+00   -1.312E+00   -1.306E+00   -1.300E+00   -1.295E+00
    -1.289E+00   -1.284E+00   -1.278E+00   -1.272E+00   -1.267E+00   -1.261E+00   -1.255E+00   -1.250E+00   -1.244E+00   -1.238E+00
    -1.232E+00   -1.227E+00   -1.221E+00   -1.215E+00   -1.210E+00   -1.204E+00   -1.198E+00   -1.192E+00   -1.186E+00   -1.181E+00
    -1.175E+00   -1.169E+00   -1.163E+00   -1.157E+00   -1.152E+00   -1.146E+00   -1.140E+00   -1.134E+00   -1.128E+00   -1.123E+00
    -1.117E+00   -1.111E+00   -1.105E+00   -1.099E+00   -1.093E+00   -1.088E+00   -1.082E+00   -1.076E+00   -1.070E+00   -1.064E+00
    -1.058E+00   -1.052E+00   -1.046E+00   -1.041E+00   -1.035E+00   -1.029E+00   -1.023E+00   -1.017E+00   -1.011E+00   -1.005E+00
    -9.995E-01   -9.936E-01   -9.877E-01   -9.819E-01   -9.760E-01   -9.701E-01   -9.642E-01   -9.584E-01   -9.525E-01   -9.466E-01
    -9.408E-01   -9.349E-01   -9.291E-01   -9.232E-01   -9.174E-01   -9.115E-01   -9.057E-01   -8.998E-01   -8.940E-01   -8.881E-01
    -8.823E-01   -8.765E-01   -8.707E-01   -8.648E-01   -8.590E-01   -8.532E-01   -8.474E-01   -8.416E-01   -8.358E-01   -8.300E-01
    -8.243E-01   -8.185E-01   -8.127E-01   -8.070E-01   -8.012E-01   -7.955E-01   -7.897E-01   -7.840E-01
 Ala      Conc. = 3.64E+03
