 LCModel (Version 6.3-1L) Copyright: S.W. Provencher.          Ref.: Magn. Reson. Med. 30:672-679 (1993).                
 Slice#2 Row#2 Col#3  K_02_press_1_raw_act
 36 lines in following concentration table = NCONC+1
    Conc.  %SD /Cr+PCr  Metabolite                                         
 8.83E+03   8%  47.844 Ala                                                 
   32.171  42%   0.174 Asp                                                 
  184.598  32%   1.000 Cr                                                  
    0.000 999%   0.000 PCr                                                 
   19.434  42%   0.105 GABA                                                
   19.814  41%   0.107 Glc                                                 
 2.74E+03  23%  14.817 Gln                                                 
    0.000 999%   0.000 Glu                                                 
  106.272 145%   0.576 GPC                                                 
    0.000 999%   0.000 PCh                                                 
  280.619  44%   1.520 GSH                                                 
 1.12E+03  26%   6.083 Ins                                                 
 4.34E+03  30%  23.513 Lac                                                 
    0.000 999%   0.000 NAA                                                 
  146.788  67%   0.795 NAAG                                                
    7.194  38% 3.9E-02 Scyllo                                              
   33.973  40%   0.184 Tau                                                 
    0.000 999%   0.000 -CrCH2                                              
  106.272  22%   0.576 GPC+PCh                                             
  146.788  67%   0.795 NAA+NAAG                                            
  184.598  32%   1.000 Cr+PCr                                              
 2.74E+03  46%  14.817 Glu+Gln                                             
 1.17E+04  11%  63.207 Lip13a                                              
    0.000 999%   0.000 Lip13b                                              
 2.27E+03  19%  12.318 Lip09                                               
    0.000 999%   0.000 MM09                                                
    0.000 999%   0.000 Lip20                                               
 1.07E+03  32%   5.794 MM20                                                
  154.814 213%   0.839 MM12                                                
 6.42E+03   7%  34.755+MM14                                                
    0.000 999%   0.000 MM17                                                
 1.17E+04  11%  63.207 Lip13a+Lip13b                                       
 1.82E+04   7%  98.801 MM14+Lip13a+Lip13b+MM12                             
 2.27E+03  19%  12.318 MM09+Lip09                                          
 1.07E+03  32%   5.794 MM20+Lip20                                          
   6 lines in following misc. output table
  FWHM = 0.153 ppm    S/N =  18                                            
  Data shift = 0.099 ppm                                                   
  Ph:  31 deg     -13.5 deg/ppm                                            
  alphaB,S = 8.5E+01,   4.1E+02                                            
    7 spline knots.   Ns = 9(2)                                            
   2 inflections.     1 extrema                                            
  498 points on ppm-axis = NY
      4.000000     3.992357     3.984714     3.977070     3.969427     3.961784     3.954141     3.946497     3.938854     3.931211
      3.923568     3.915925     3.908281     3.900638     3.892995     3.885352     3.877708     3.870065     3.862422     3.854779
      3.847136     3.839492     3.831849     3.824206     3.816563     3.808919     3.801276     3.793633     3.785990     3.778347
      3.770703     3.763060     3.755417     3.747774     3.740130     3.732487     3.724844     3.717201     3.709558     3.701914
      3.694271     3.686628     3.678985     3.671341     3.663698     3.656055     3.648412     3.640769     3.633125     3.625482
      3.617839     3.610196     3.602552     3.594909     3.587266     3.579623     3.571980     3.564336     3.556693     3.549050
      3.541407     3.533763     3.526120     3.518477     3.510834     3.503191     3.495547     3.487904     3.480261     3.472618
      3.464974     3.457331     3.449688     3.442045     3.434402     3.426758     3.419115     3.411472     3.403829     3.396185
      3.388542     3.380899     3.373256     3.365613     3.357969     3.350326     3.342683     3.335040     3.327396     3.319753
      3.312110     3.304467     3.296824     3.289180     3.281537     3.273894     3.266251     3.258607     3.250964     3.243321
      3.235678     3.228034     3.220391     3.212748     3.205105     3.197462     3.189818     3.182175     3.174532     3.166889
      3.159245     3.151602     3.143959     3.136316     3.128673     3.121029     3.113386     3.105743     3.098100     3.090456
      3.082813     3.075170     3.067527     3.059884     3.052240     3.044597     3.036954     3.029311     3.021667     3.014024
      3.006381     2.998738     2.991095     2.983451     2.975808     2.968165     2.960522     2.952878     2.945235     2.937592
      2.929949     2.922306     2.914662     2.907019     2.899376     2.891733     2.884089     2.876446     2.868803     2.861160
      2.853517     2.845873     2.838230     2.830587     2.822944     2.815300     2.807657     2.800014     2.792371     2.784728
      2.777084     2.769441     2.761798     2.754155     2.746511     2.738868     2.731225     2.723582     2.715939     2.708295
      2.700652     2.693009     2.685366     2.677722     2.670079     2.662436     2.654793     2.647150     2.639506     2.631863
      2.624220     2.616577     2.608933     2.601290     2.593647     2.586004     2.578361     2.570717     2.563074     2.555431
      2.547788     2.540144     2.532501     2.524858     2.517215     2.509572     2.501928     2.494285     2.486642     2.478999
      2.471355     2.463712     2.456069     2.448426     2.440783     2.433139     2.425496     2.417853     2.410210     2.402566
      2.394923     2.387280     2.379637     2.371994     2.364350     2.356707     2.349064     2.341421     2.333777     2.326134
      2.318491     2.310848     2.303205     2.295561     2.287918     2.280275     2.272632     2.264988     2.257345     2.249702
      2.242059     2.234416     2.226772     2.219129     2.211486     2.203843     2.196199     2.188556     2.180913     2.173270
      2.165627     2.157983     2.150340     2.142697     2.135054     2.127410     2.119767     2.112124     2.104481     2.096838
      2.089194     2.081551     2.073908     2.066265     2.058621     2.050978     2.043335     2.035692     2.028049     2.020405
      2.012762     2.005119     1.997476     1.989833     1.982190     1.974546     1.966903     1.959260     1.951617     1.943974
      1.936331     1.928688     1.921045     1.913402     1.905759     1.898115     1.890472     1.882829     1.875186     1.867543
      1.859900     1.852257     1.844614     1.836971     1.829327     1.821684     1.814041     1.806398     1.798755     1.791112
      1.783469     1.775826     1.768183     1.760540     1.752896     1.745253     1.737610     1.729967     1.722324     1.714681
      1.707038     1.699395     1.691752     1.684108     1.676465     1.668822     1.661179     1.653536     1.645893     1.638250
      1.630607     1.622964     1.615321     1.607677     1.600034     1.592391     1.584748     1.577105     1.569462     1.561819
      1.554176     1.546533     1.538890     1.531246     1.523603     1.515960     1.508317     1.500674     1.493031     1.485388
      1.477745     1.470102     1.462458     1.454815     1.447172     1.439529     1.431886     1.424243     1.416600     1.408957
      1.401314     1.393671     1.386027     1.378384     1.370741     1.363098     1.355455     1.347812     1.340169     1.332526
      1.324883     1.317240     1.309596     1.301953     1.294310     1.286667     1.279024     1.271381     1.263738     1.256095
      1.248452     1.240808     1.233165     1.225522     1.217879     1.210236     1.202593     1.194950     1.187307     1.179664
      1.172021     1.164377     1.156734     1.149091     1.141448     1.133805     1.126162     1.118519     1.110876     1.103233
      1.095590     1.087946     1.080303     1.072660     1.065017     1.057374     1.049731     1.042088     1.034445     1.026802
      1.019158     1.011515     1.003872     0.996229     0.988586     0.980943     0.973300     0.965657     0.958014     0.950371
      0.942727     0.935084     0.927441     0.919798     0.912155     0.904512     0.896869     0.889226     0.881583     0.873940
      0.866296     0.858653     0.851010     0.843367     0.835724     0.828081     0.820438     0.812795     0.805152     0.797508
      0.789865     0.782222     0.774579     0.766936     0.759293     0.751650     0.744007     0.736364     0.728721     0.721077
      0.713434     0.705791     0.698148     0.690505     0.682862     0.675219     0.667576     0.659933     0.652290     0.644646
      0.637003     0.629360     0.621717     0.614074     0.606431     0.598788     0.591145     0.583502     0.575858     0.568215
      0.560572     0.552929     0.545286     0.537643     0.530000     0.522357     0.514714     0.507071     0.499427     0.491784
      0.484141     0.476498     0.468855     0.461212     0.453569     0.445925     0.438282     0.430639     0.422996     0.415353
      0.407710     0.400067     0.392424     0.384780     0.377137     0.369494     0.361851     0.354208     0.346565     0.338922
      0.331278     0.323635     0.315992     0.308349     0.300706     0.293063     0.285420     0.277777     0.270133     0.262490
      0.254847     0.247204     0.239561     0.231918     0.224275     0.216631     0.208988     0.201345
 NY phased data points follow
  -6.89444E+00 -3.40159E+00 -7.46825E+00 -6.25998E+00 -6.58545E+00 -4.23855E+00 -7.79094E+00 -2.23791E+00 -3.66912E+00 -5.06158E+00
  -2.53497E+00 -5.58377E+00 -6.68809E+00 -4.21464E+00 -5.28138E+00 -6.06675E+00 -4.16963E+00 -6.02424E+00 -5.33921E+00 -3.15209E+00
  -2.06329E-01 -4.32251E+00 -5.18719E+00 -5.71988E+00 -7.13534E+00 -3.27925E+00 -5.71008E+00 -4.95970E-01 -7.32661E+00 -7.05620E+00
  -5.29174E+00 -4.82789E+00 -1.07235E+00 -6.70337E+00 -7.49501E+00 -3.66146E+00 -4.49854E+00 -2.94956E+00 -3.97058E+00 -3.48998E+00
  -4.43476E+00 -4.30726E+00 -3.31549E+00 -6.81014E+00 -4.95319E+00 -2.27124E+00 -4.72830E+00 -4.72311E+00 -6.21539E+00 -2.68213E+00
  -3.81878E+00 -2.61311E+00 -4.44077E+00 -4.99361E+00 -8.34388E+00 -1.03211E+00 -6.07691E+00 -3.65800E+00 -1.99614E+00 -5.23179E-01
  -4.95785E+00 -4.63312E+00 -2.49864E+00 -4.39875E+00 -6.58215E+00 -8.25693E+00 -5.92614E+00 -4.90878E+00 -4.57778E+00 -3.95040E+00
  -5.37641E+00 -3.23563E+00 -1.72177E+00 -7.36380E+00 -6.72740E+00 -6.10857E+00 -3.76203E+00 -5.81306E+00 -1.61356E+00 -4.77679E+00
  -3.58200E+00 -4.06716E+00 -4.72707E+00 -3.88420E+00 -3.65782E+00 -1.43743E+00 -5.42984E+00 -5.33058E+00 -8.36622E-01 -1.29695E+00
  -2.40328E+00 -3.39835E+00 -5.22628E+00 -1.34281E+00 -8.07794E-01 -3.97028E+00 -5.33564E+00 -2.68060E+00 -5.40824E+00 -6.02564E+00
  -3.37522E+00 -3.69648E+00 -2.59007E+00 -4.38661E+00 -3.61074E+00 -4.79956E+00 -2.62692E+00 -1.88450E+00 -4.65069E+00 -3.60426E+00
  -2.66585E+00 -7.39929E-01 -1.96314E+00 -1.03095E+00 -2.68717E+00 -1.04259E+00  4.68403E-01 -1.72921E+00 -1.84188E+00 -1.04177E+00
   1.56466E-01 -4.58956E+00 -1.38629E+00 -2.73547E+00 -5.14898E-01 -3.69655E+00 -2.32877E+00 -4.23240E-01 -3.21182E+00 -1.33462E+00
  -2.10377E+00 -4.87914E+00 -3.79973E+00 -5.81927E+00 -3.27719E+00 -2.54044E+00 -1.88210E+00 -2.29639E+00 -2.31873E+00 -2.68417E+00
  -2.51474E+00 -3.32279E+00 -2.45467E+00 -7.63170E-01 -6.18188E+00 -2.53703E+00 -4.44067E+00 -1.75318E+00 -4.37097E+00 -6.46018E+00
  -2.23843E+00 -3.69727E+00 -3.99527E+00 -4.23158E+00 -1.13230E+00 -3.49768E+00 -3.45218E+00 -2.22154E+00 -3.38764E+00 -3.99974E+00
  -6.35362E+00 -4.33258E+00 -2.45276E+00 -3.30264E+00 -2.64232E+00 -3.70813E+00 -5.19643E+00 -5.34252E+00 -3.21736E+00 -5.58921E+00
  -3.73890E+00 -7.59520E+00 -5.13853E+00 -5.48521E+00 -2.57137E+00 -8.14989E+00 -6.75049E+00 -7.85198E+00 -6.14996E+00 -7.95393E+00
  -5.57469E+00 -6.01583E+00 -9.48850E+00 -7.54837E+00 -1.57981E+00 -4.75731E+00 -5.84240E+00 -6.22563E+00 -1.73397E+00 -3.18423E+00
  -2.95613E+00 -3.27137E+00 -5.26472E+00 -2.88181E+00 -4.67723E+00 -3.38572E+00 -3.91536E+00 -4.52618E+00 -3.12736E+00 -1.16074E+00
  -2.92295E+00 -5.21327E+00 -1.74212E+00  5.92853E-01  1.52194E-01 -1.51198E+00 -4.80944E-01 -4.04376E+00 -1.83456E+00 -1.19454E+00
  -8.70692E-01  2.93213E+00  2.04101E+00 -2.00211E+00  2.26738E+00  3.97535E+00  1.37507E+00 -2.60291E-01  1.20781E+00 -3.05915E-01
   4.31712E+00  9.93415E-01  2.98573E+00  8.14636E+00  2.58770E+00  5.03574E+00  3.99439E+00  3.78100E+00  4.49291E+00  2.63949E+00
   7.31470E+00  3.57155E+00  4.91700E+00  6.03089E+00 -5.54529E-01  4.06407E+00  5.65952E+00  4.80885E+00  5.98195E+00 -2.90987E-02
   2.16491E+00  2.83787E+00  5.20156E+00  2.67368E+00  3.87063E+00  7.53390E+00  8.37141E+00  7.11198E+00  6.64372E+00  6.36985E+00
   5.09424E+00  6.04987E+00  6.76536E+00  5.78472E+00  5.85267E+00  5.83927E+00  1.17087E+01  7.91501E+00  8.07738E+00  6.69217E+00
   4.96012E+00  3.33182E+00  4.89752E+00  7.32034E+00  6.42083E+00  4.20164E+00  3.47622E+00  7.56834E+00  4.36768E+00  5.82409E+00
   5.59569E+00  4.94033E+00  2.28475E+00  5.08982E+00  6.93673E+00  3.46277E+00  6.16605E+00  6.97463E+00  4.52945E+00  7.52788E+00
   2.17104E+00  9.78624E+00  3.76932E+00  2.66874E+00  3.63840E+00  8.95387E+00  7.04723E+00  7.22788E+00  8.38755E+00  6.97059E+00
   7.28982E+00  6.48493E+00  3.75236E+00  5.96111E+00  5.39869E+00  6.36315E+00  1.00625E+01  8.88782E+00  9.43232E+00  8.36419E+00
   9.47871E+00  9.46395E+00  1.09142E+01  1.50328E+01  1.09023E+01  1.57623E+01  1.66464E+01  1.82717E+01  1.45842E+01  1.42979E+01
   2.03587E+01  2.39647E+01  2.32400E+01  2.62193E+01  3.17896E+01  3.10963E+01  3.64121E+01  4.14786E+01  4.28421E+01  4.56973E+01
   4.89472E+01  5.15419E+01  5.48712E+01  5.99710E+01  5.43645E+01  5.69935E+01  5.76965E+01  6.17637E+01  5.93143E+01  6.28373E+01
   6.66018E+01  6.62708E+01  7.39483E+01  7.43199E+01  7.93256E+01  8.57763E+01  8.55264E+01  8.87531E+01  9.35608E+01  8.94038E+01
   9.13550E+01  8.96028E+01  8.66884E+01  8.45621E+01  8.09059E+01  7.59588E+01  7.45411E+01  7.30722E+01  7.19807E+01  7.14647E+01
   6.64237E+01  6.39234E+01  6.47949E+01  6.30808E+01  5.88920E+01  5.89425E+01  5.72558E+01  5.41492E+01  5.74400E+01  5.54632E+01
   5.55763E+01  5.30991E+01  5.30886E+01  5.04240E+01  4.84786E+01  4.70802E+01  4.85909E+01  4.63145E+01  4.62919E+01  4.17274E+01
   4.46798E+01  4.37951E+01  4.17097E+01  4.03899E+01  4.21135E+01  3.87156E+01  3.68544E+01  3.72907E+01  3.30850E+01  3.56132E+01
   3.18625E+01  3.33119E+01  2.90324E+01  2.94629E+01  3.14735E+01  2.72879E+01  2.61226E+01  2.72544E+01  2.61700E+01  2.20027E+01
   2.60751E+01  2.65098E+01  2.58241E+01  2.47152E+01  2.60410E+01  2.61426E+01  2.41658E+01  2.36131E+01  2.42158E+01  2.14465E+01
   2.41129E+01  2.21147E+01  2.15512E+01  1.94491E+01  2.29506E+01  2.00953E+01  2.17019E+01  1.90451E+01  1.91940E+01  2.09755E+01
   1.89416E+01  1.97458E+01  1.97082E+01  2.12380E+01  1.89992E+01  2.21653E+01  1.45653E+01  1.58279E+01  1.46383E+01  1.82795E+01
   1.53390E+01  1.47354E+01  1.17116E+01  1.64751E+01  1.26458E+01  1.44217E+01  1.10657E+01  1.54877E+01  1.57245E+01  2.09602E+01
   1.24674E+01  1.03465E+01  1.39351E+01  1.57942E+01  1.40825E+01  1.26404E+01  1.22667E+01  1.25641E+01  1.25836E+01  1.18384E+01
   1.64736E+01  1.26741E+01  1.42939E+01  1.08444E+01  1.32938E+01  1.09962E+01  1.18248E+01  1.24144E+01  9.18565E+00  1.44096E+01
   9.30572E+00  1.31452E+01  1.06618E+01  1.44624E+01  1.07432E+01  1.11948E+01  1.03702E+01  1.31491E+01  1.20362E+01  1.43988E+01
   1.26653E+01  1.46147E+01  1.24726E+01  1.46952E+01  1.17616E+01  1.47556E+01  1.00272E+01  1.16046E+01  1.10258E+01  1.02278E+01
   1.06147E+01  9.30874E+00  9.29285E+00  1.07049E+01  1.41799E+01  6.01019E+00  1.06567E+01  1.13606E+01  1.33307E+01  7.62965E+00
   1.28108E+01  7.37788E+00  1.18875E+01  1.30560E+01  1.10720E+01  1.14671E+01  1.26692E+01  1.26804E+01  1.09329E+01  8.56769E+00
   1.21560E+01  9.54249E+00  8.54210E+00  1.00845E+01  1.16172E+01  1.31837E+01  1.06706E+01  1.26798E+01
 NY points of the fit to the data follow
  -6.94260E+00 -5.96063E+00 -6.85827E+00 -5.88117E+00 -6.46455E+00 -5.49204E+00 -5.98432E+00 -5.15030E+00 -5.80399E+00 -5.24837E+00
  -6.06655E+00 -5.57099E+00 -6.39880E+00 -5.59922E+00 -6.35639E+00 -5.12866E+00 -5.86438E+00 -4.51598E+00 -5.36564E+00 -4.12731E+00
  -5.21583E+00 -4.16164E+00 -5.39252E+00 -4.63106E+00 -5.70836E+00 -5.15175E+00 -5.90706E+00 -5.48690E+00 -5.79589E+00 -5.40750E+00
  -5.19556E+00 -4.87004E+00 -4.33119E+00 -4.15701E+00 -3.49782E+00 -3.67595E+00 -3.03901E+00 -3.67964E+00 -3.11027E+00 -4.08198E+00
  -3.53516E+00 -4.50343E+00 -3.72669E+00 -4.54413E+00 -3.47629E+00 -4.00202E+00 -2.86552E+00 -3.21471E+00 -2.61280E+00 -3.25997E+00
  -3.02860E+00 -3.83761E+00 -3.77120E+00 -4.57279E+00 -4.43601E+00 -4.81736E+00 -4.44798E+00 -4.71118E+00 -4.30262E+00 -4.51634E+00
  -4.17744E+00 -4.37275E+00 -4.19463E+00 -4.50085E+00 -4.34595E+00 -4.66103E+00 -4.49910E+00 -4.77150E+00 -4.55058E+00 -4.73470E+00
  -4.45425E+00 -4.63368E+00 -4.41114E+00 -4.63780E+00 -4.48599E+00 -4.75231E+00 -4.66350E+00 -4.96102E+00 -4.91740E+00 -5.22548E+00
  -5.21143E+00 -5.50488E+00 -5.47659E+00 -5.75010E+00 -5.68562E+00 -5.86148E+00 -5.78780E+00 -5.86690E+00 -5.79461E+00 -5.73960E+00
  -5.66403E+00 -5.43373E+00 -5.35282E+00 -4.92208E+00 -4.85431E+00 -4.25859E+00 -4.25084E+00 -3.54365E+00 -3.62326E+00 -2.88467E+00
  -3.07231E+00 -2.40325E+00 -2.68400E+00 -2.12844E+00 -2.48046E+00 -2.07415E+00 -2.46920E+00 -2.22106E+00 -2.60914E+00 -2.44046E+00
  -2.79766E+00 -2.67674E+00 -2.96936E+00 -2.84880E+00 -3.05436E+00 -2.89983E+00 -3.00819E+00 -2.82390E+00 -2.85024E+00 -2.65294E+00
  -2.63106E+00 -2.44233E+00 -2.36209E+00 -2.14724E+00 -1.99890E+00 -1.73075E+00 -1.60519E+00 -1.45293E+00 -1.38301E+00 -1.37054E+00
  -1.35409E+00 -1.47142E+00 -1.48675E+00 -1.67665E+00 -1.69370E+00 -1.91645E+00 -1.92082E+00 -2.15952E+00 -2.14840E+00 -2.39351E+00
  -2.37522E+00 -2.63414E+00 -2.62555E+00 -2.89773E+00 -2.90775E+00 -3.18533E+00 -3.20464E+00 -3.43318E+00 -3.43535E+00 -3.55057E+00
  -3.53966E+00 -3.62773E+00 -3.61874E+00 -3.67241E+00 -3.65900E+00 -3.67802E+00 -3.66909E+00 -3.69232E+00 -3.70633E+00 -3.72540E+00
  -3.75528E+00 -3.74930E+00 -3.77237E+00 -3.73981E+00 -3.74920E+00 -3.70754E+00 -3.70668E+00 -3.66320E+00 -3.65273E+00 -3.61046E+00
  -3.59095E+00 -3.55068E+00 -3.51712E+00 -3.47710E+00 -3.42385E+00 -3.39442E+00 -3.34168E+00 -3.33070E+00 -3.28666E+00 -3.31568E+00
  -3.27365E+00 -3.32843E+00 -3.28820E+00 -3.34222E+00 -3.27616E+00 -3.33072E+00 -3.27305E+00 -3.32153E+00 -3.26947E+00 -3.32034E+00
  -3.26617E+00 -3.33065E+00 -3.32595E+00 -3.33642E+00 -3.23411E+00 -3.14133E+00 -2.95529E+00 -2.80702E+00 -2.62112E+00 -2.50433E+00
  -2.43046E+00 -2.40610E+00 -2.42919E+00 -2.53598E+00 -2.60977E+00 -2.80745E+00 -2.78865E+00 -2.97723E+00 -2.68989E+00 -2.78011E+00
  -2.19412E+00 -2.12238E+00 -1.24804E+00 -1.03612E+00 -1.57957E-02  2.25448E-01  1.13962E+00  1.28482E+00  1.92973E+00  1.94159E+00
   2.40419E+00  2.39464E+00  2.79579E+00  2.89547E+00  3.32061E+00  3.44276E+00  3.77853E+00  3.89501E+00  4.14656E+00  4.13736E+00
   4.22430E+00  4.02250E+00  3.95872E+00  3.65669E+00  3.87403E+00  3.46502E+00  3.90726E+00  3.34141E+00  4.00813E+00  3.24410E+00
   4.09940E+00  3.20713E+00  4.20045E+00  3.27979E+00  4.40173E+00  3.56171E+00  4.82106E+00  4.12403E+00  5.48935E+00  4.88496E+00
   6.29891E+00  5.68440E+00  7.04005E+00  6.31753E+00  7.51863E+00  6.67099E+00  7.64145E+00  6.72677E+00  7.38681E+00  6.55225E+00
   7.10203E+00  6.48529E+00  6.96576E+00  6.57219E+00  6.95157E+00  6.54414E+00  6.79244E+00  6.38593E+00  6.50395E+00  6.10975E+00
   6.14703E+00  5.81651E+00  5.81700E+00  5.62360E+00  5.62129E+00  5.55156E+00  5.56281E+00  5.60327E+00  5.66520E+00  5.72749E+00
   5.79841E+00  5.85864E+00  5.94631E+00  6.02692E+00  6.13860E+00  6.24232E+00  6.37918E+00  6.50900E+00  6.67269E+00  6.82912E+00
   7.02010E+00  7.20571E+00  7.42657E+00  7.64634E+00  7.90277E+00  8.16289E+00  8.46200E+00  8.77216E+00  9.12630E+00  9.50234E+00
   9.93282E+00  1.04028E+01  1.09462E+01  1.15582E+01  1.22780E+01  1.31207E+01  1.41460E+01  1.54258E+01  1.71517E+01  1.94088E+01
   2.12085E+01  2.38769E+01  2.56785E+01  2.88123E+01  3.05612E+01  3.41534E+01  3.55377E+01  4.03366E+01  4.15029E+01  4.68212E+01
   4.72426E+01  5.24494E+01  5.17341E+01  5.63171E+01  5.46022E+01  5.85377E+01  5.70412E+01  6.06960E+01  6.04421E+01  6.42609E+01
   6.57577E+01  6.93211E+01  7.28988E+01  7.58749E+01  8.05958E+01  8.24296E+01  8.71520E+01  8.77040E+01  9.13624E+01  8.97868E+01
   9.14310E+01  8.78928E+01  8.77277E+01  8.29809E+01  8.16976E+01  7.67490E+01  7.56477E+01  7.18991E+01  7.14565E+01  6.92891E+01
   6.81110E+01  6.59895E+01  6.45390E+01  6.25598E+01  6.05974E+01  5.90175E+01  5.68561E+01  5.66209E+01  5.54858E+01  5.51354E+01
   5.40500E+01  5.32598E+01  5.21219E+01  5.10728E+01  4.99678E+01  4.88720E+01  4.80345E+01  4.73043E+01  4.67460E+01  4.63508E+01
   4.53423E+01  4.40847E+01  4.27299E+01  4.07606E+01  3.91189E+01  3.69199E+01  3.52728E+01  3.39444E+01  3.27956E+01  3.17758E+01
   3.08605E+01  3.00359E+01  2.92929E+01  2.86247E+01  2.80256E+01  2.74903E+01  2.70136E+01  2.65903E+01  2.62148E+01  2.58818E+01
   2.55856E+01  2.53202E+01  2.50799E+01  2.48587E+01  2.46509E+01  2.44511E+01  2.42540E+01  2.40548E+01  2.38492E+01  2.36334E+01
   2.34041E+01  2.31590E+01  2.28962E+01  2.26147E+01  2.23139E+01  2.19942E+01  2.16564E+01  2.13019E+01  2.09326E+01  2.05507E+01
   2.01586E+01  1.97592E+01  1.93551E+01  1.89491E+01  1.85440E+01  1.81424E+01  1.77465E+01  1.73585E+01  1.69804E+01  1.66138E+01
   1.62598E+01  1.59197E+01  1.55940E+01  1.52834E+01  1.49882E+01  1.47084E+01  1.44440E+01  1.41947E+01  1.39601E+01  1.37399E+01
   1.35335E+01  1.33404E+01  1.31599E+01  1.29914E+01  1.28343E+01  1.26880E+01  1.25519E+01  1.24253E+01  1.23077E+01  1.21986E+01
   1.20973E+01  1.20035E+01  1.19166E+01  1.18363E+01  1.17621E+01  1.16935E+01  1.16304E+01  1.15723E+01  1.15189E+01  1.14700E+01
   1.14252E+01  1.13844E+01  1.13472E+01  1.13135E+01  1.12831E+01  1.12557E+01  1.12313E+01  1.12096E+01  1.11906E+01  1.11740E+01
   1.11597E+01  1.11476E+01  1.11376E+01  1.11296E+01  1.11235E+01  1.11191E+01  1.11165E+01  1.11155E+01  1.11160E+01  1.11180E+01
   1.11214E+01  1.11262E+01  1.11322E+01  1.11394E+01  1.11478E+01  1.11574E+01  1.11680E+01  1.11796E+01  1.11922E+01  1.12058E+01
   1.12203E+01  1.12357E+01  1.12519E+01  1.12689E+01  1.12867E+01  1.13053E+01  1.13246E+01  1.13447E+01  1.13654E+01  1.13868E+01
   1.14089E+01  1.14317E+01  1.14551E+01  1.14792E+01  1.15040E+01  1.15294E+01  1.15555E+01  1.15825E+01
 NY background values follow
    -1.082E+01   -1.078E+01   -1.074E+01   -1.070E+01   -1.065E+01   -1.061E+01   -1.057E+01   -1.053E+01   -1.048E+01   -1.044E+01
    -1.040E+01   -1.036E+01   -1.032E+01   -1.027E+01   -1.023E+01   -1.019E+01   -1.015E+01   -1.011E+01   -1.006E+01   -1.002E+01
    -9.980E+00   -9.938E+00   -9.896E+00   -9.854E+00   -9.812E+00   -9.770E+00   -9.727E+00   -9.685E+00   -9.643E+00   -9.601E+00
    -9.559E+00   -9.517E+00   -9.475E+00   -9.433E+00   -9.391E+00   -9.349E+00   -9.307E+00   -9.265E+00   -9.223E+00   -9.181E+00
    -9.138E+00   -9.096E+00   -9.054E+00   -9.012E+00   -8.970E+00   -8.928E+00   -8.886E+00   -8.844E+00   -8.802E+00   -8.760E+00
    -8.718E+00   -8.676E+00   -8.633E+00   -8.591E+00   -8.549E+00   -8.507E+00   -8.465E+00   -8.423E+00   -8.381E+00   -8.339E+00
    -8.297E+00   -8.255E+00   -8.212E+00   -8.170E+00   -8.128E+00   -8.086E+00   -8.044E+00   -8.002E+00   -7.960E+00   -7.918E+00
    -7.876E+00   -7.833E+00   -7.791E+00   -7.749E+00   -7.707E+00   -7.665E+00   -7.623E+00   -7.581E+00   -7.539E+00   -7.496E+00
    -7.454E+00   -7.412E+00   -7.370E+00   -7.328E+00   -7.286E+00   -7.244E+00   -7.201E+00   -7.159E+00   -7.117E+00   -7.075E+00
    -7.033E+00   -6.991E+00   -6.948E+00   -6.906E+00   -6.864E+00   -6.822E+00   -6.780E+00   -6.738E+00   -6.695E+00   -6.653E+00
    -6.611E+00   -6.569E+00   -6.527E+00   -6.484E+00   -6.442E+00   -6.400E+00   -6.358E+00   -6.316E+00   -6.273E+00   -6.231E+00
    -6.189E+00   -6.147E+00   -6.104E+00   -6.062E+00   -6.020E+00   -5.978E+00   -5.935E+00   -5.893E+00   -5.851E+00   -5.809E+00
    -5.766E+00   -5.724E+00   -5.682E+00   -5.640E+00   -5.597E+00   -5.555E+00   -5.513E+00   -5.470E+00   -5.428E+00   -5.386E+00
    -5.343E+00   -5.301E+00   -5.259E+00   -5.216E+00   -5.174E+00   -5.132E+00   -5.089E+00   -5.047E+00   -5.005E+00   -4.962E+00
    -4.920E+00   -4.878E+00   -4.835E+00   -4.793E+00   -4.751E+00   -4.708E+00   -4.666E+00   -4.624E+00   -4.581E+00   -4.539E+00
    -4.496E+00   -4.454E+00   -4.412E+00   -4.369E+00   -4.327E+00   -4.284E+00   -4.242E+00   -4.199E+00   -4.157E+00   -4.115E+00
    -4.072E+00   -4.030E+00   -3.987E+00   -3.945E+00   -3.902E+00   -3.860E+00   -3.817E+00   -3.775E+00   -3.732E+00   -3.690E+00
    -3.647E+00   -3.605E+00   -3.562E+00   -3.520E+00   -3.477E+00   -3.435E+00   -3.392E+00   -3.350E+00   -3.307E+00   -3.265E+00
    -3.222E+00   -3.180E+00   -3.137E+00   -3.095E+00   -3.052E+00   -3.010E+00   -2.967E+00   -2.924E+00   -2.882E+00   -2.839E+00
    -2.797E+00   -2.754E+00   -2.711E+00   -2.669E+00   -2.626E+00   -2.584E+00   -2.541E+00   -2.498E+00   -2.456E+00   -2.413E+00
    -2.371E+00   -2.328E+00   -2.285E+00   -2.243E+00   -2.200E+00   -2.157E+00   -2.115E+00   -2.072E+00   -2.029E+00   -1.987E+00
    -1.944E+00   -1.901E+00   -1.859E+00   -1.816E+00   -1.773E+00   -1.730E+00   -1.688E+00   -1.645E+00   -1.602E+00   -1.560E+00
    -1.517E+00   -1.474E+00   -1.431E+00   -1.389E+00   -1.346E+00   -1.303E+00   -1.260E+00   -1.218E+00   -1.175E+00   -1.132E+00
    -1.089E+00   -1.046E+00   -1.004E+00   -9.609E-01   -9.181E-01   -8.753E-01   -8.324E-01   -7.896E-01   -7.468E-01   -7.040E-01
    -6.611E-01   -6.183E-01   -5.754E-01   -5.326E-01   -4.897E-01   -4.469E-01   -4.040E-01   -3.611E-01   -3.182E-01   -2.753E-01
    -2.325E-01   -1.896E-01   -1.467E-01   -1.038E-01   -6.084E-02   -1.792E-02    2.500E-02    6.793E-02    1.109E-01    1.538E-01
     1.967E-01    2.397E-01    2.826E-01    3.256E-01    3.686E-01    4.115E-01    4.545E-01    4.975E-01    5.405E-01    5.834E-01
     6.264E-01    6.694E-01    7.124E-01    7.554E-01    7.984E-01    8.415E-01    8.845E-01    9.275E-01    9.705E-01    1.014E+00
     1.057E+00    1.100E+00    1.143E+00    1.186E+00    1.229E+00    1.272E+00    1.315E+00    1.358E+00    1.401E+00    1.444E+00
     1.487E+00    1.530E+00    1.573E+00    1.616E+00    1.660E+00    1.703E+00    1.746E+00    1.789E+00    1.832E+00    1.875E+00
     1.918E+00    1.961E+00    2.004E+00    2.048E+00    2.091E+00    2.134E+00    2.177E+00    2.220E+00    2.263E+00    2.306E+00
     2.350E+00    2.393E+00    2.436E+00    2.479E+00    2.522E+00    2.565E+00    2.609E+00    2.652E+00    2.695E+00    2.738E+00
     2.781E+00    2.825E+00    2.868E+00    2.911E+00    2.954E+00    2.997E+00    3.041E+00    3.084E+00    3.127E+00    3.170E+00
     3.213E+00    3.257E+00    3.300E+00    3.343E+00    3.386E+00    3.430E+00    3.473E+00    3.516E+00    3.559E+00    3.603E+00
     3.646E+00    3.689E+00    3.732E+00    3.776E+00    3.819E+00    3.862E+00    3.905E+00    3.949E+00    3.992E+00    4.035E+00
     4.078E+00    4.122E+00    4.165E+00    4.208E+00    4.252E+00    4.295E+00    4.338E+00    4.381E+00    4.425E+00    4.468E+00
     4.511E+00    4.555E+00    4.598E+00    4.641E+00    4.684E+00    4.728E+00    4.771E+00    4.814E+00    4.858E+00    4.901E+00
     4.944E+00    4.988E+00    5.031E+00    5.074E+00    5.118E+00    5.161E+00    5.204E+00    5.248E+00    5.291E+00    5.334E+00
     5.377E+00    5.421E+00    5.464E+00    5.507E+00    5.551E+00    5.594E+00    5.637E+00    5.681E+00    5.724E+00    5.767E+00
     5.811E+00    5.854E+00    5.898E+00    5.941E+00    5.984E+00    6.028E+00    6.071E+00    6.114E+00    6.158E+00    6.201E+00
     6.244E+00    6.288E+00    6.331E+00    6.374E+00    6.418E+00    6.461E+00    6.504E+00    6.548E+00    6.591E+00    6.634E+00
     6.678E+00    6.721E+00    6.765E+00    6.808E+00    6.851E+00    6.895E+00    6.938E+00    6.981E+00    7.025E+00    7.068E+00
     7.112E+00    7.155E+00    7.198E+00    7.242E+00    7.285E+00    7.328E+00    7.372E+00    7.415E+00    7.458E+00    7.502E+00
     7.545E+00    7.589E+00    7.632E+00    7.675E+00    7.719E+00    7.762E+00    7.806E+00    7.849E+00    7.892E+00    7.936E+00
     7.979E+00    8.022E+00    8.066E+00    8.109E+00    8.153E+00    8.196E+00    8.239E+00    8.283E+00    8.326E+00    8.369E+00
     8.413E+00    8.456E+00    8.500E+00    8.543E+00    8.586E+00    8.630E+00    8.673E+00    8.717E+00    8.760E+00    8.803E+00
     8.847E+00    8.890E+00    8.933E+00    8.977E+00    9.020E+00    9.064E+00    9.107E+00    9.150E+00    9.194E+00    9.237E+00
     9.280E+00    9.324E+00    9.367E+00    9.411E+00    9.454E+00    9.497E+00    9.541E+00    9.584E+00    9.628E+00    9.671E+00
     9.714E+00    9.758E+00    9.801E+00    9.844E+00    9.888E+00    9.931E+00    9.975E+00    1.002E+01    1.006E+01    1.010E+01
     1.015E+01    1.019E+01    1.023E+01    1.028E+01    1.032E+01    1.036E+01    1.041E+01    1.045E+01
 Ala      Conc. = 8.83E+03
