 LCModel (Version 6.3-1L) Copyright: S.W. Provencher.          Ref.: Magn. Reson. Med. 30:672-679 (1993).                
 Slice#2 Row#14 Col#3  K_02_press_1_raw_act
 36 lines in following concentration table = NCONC+1
    Conc.  %SD /Cr+PCr  Metabolite                                         
 4.59E+03  20% 8.3E+03 Ala                                                 
   12.439  38%  22.529 Asp                                                 
    0.000 999%   0.000 Cr                                                  
    0.552 999%   1.000 PCr                                                 
    7.463  38%  13.518 GABA                                                
    7.463  38%  13.517 Glc                                                 
 2.10E+03  31% 3.8E+03 Gln                                                 
 1.54E+03  58% 2.8E+03 Glu                                                 
   82.743  27% 149.863 GPC                                                 
    0.000 999%   0.000 PCh                                                 
   30.075 366%  54.472 GSH                                                 
 1.97E+03  13% 3.6E+03 Ins                                                 
  631.772 162% 1.1E+03 Lac                                                 
    0.000 999%   0.000 NAA                                                 
    0.000 999%   0.000 NAAG                                                
    2.488  38%   4.506 Scyllo                                              
   12.438  38%  22.528 Tau                                                 
 5.52E-02 999%   0.100 -CrCH2                                              
   82.743  27% 149.863 GPC+PCh                                             
    0.000 999%   0.000 NAA+NAAG                                            
    0.552 999%   1.000 Cr+PCr                                              
 3.64E+03  40% 6.6E+03 Glu+Gln                                             
 6.35E+03  25% 1.1E+04 Lip13a                                              
    0.000 999%   0.000 Lip13b                                              
 2.50E+03  23% 4.5E+03 Lip09                                               
 1.69E+03  23% 3.1E+03 MM09                                                
    0.000 999%   0.000 Lip20                                               
 2.75E+03  12% 5.0E+03 MM20                                                
 1.21E+03  33% 2.2E+03 MM12                                                
 4.11E+03  22% 7.4E+03 MM14                                                
 2.33E+03  23% 4.2E+03 MM17                                                
 6.35E+03  25% 1.1E+04 Lip13a+Lip13b                                       
 1.17E+04  14% 2.1E+04 MM14+Lip13a+Lip13b+MM12                             
 4.18E+03  16% 7.6E+03 MM09+Lip09                                          
 2.75E+03  12% 5.0E+03 MM20+Lip20                                          
   6 lines in following misc. output table
  FWHM = 0.168 ppm    S/N =  10                                            
  Data shift = 0.183 ppm                                                   
  Ph: -26 deg     127.0 deg/ppm                                            
  alphaB,S = 1.5E+00,   2.4E+02                                            
    7 spline knots.   Ns = 9(2)                                            
  (15)11 infls.   ( 7) 1 extrs.                                            
  498 points on ppm-axis = NY
      4.000000     3.992357     3.984714     3.977070     3.969427     3.961784     3.954141     3.946497     3.938854     3.931211
      3.923568     3.915925     3.908281     3.900638     3.892995     3.885352     3.877708     3.870065     3.862422     3.854779
      3.847136     3.839492     3.831849     3.824206     3.816563     3.808919     3.801276     3.793633     3.785990     3.778347
      3.770703     3.763060     3.755417     3.747774     3.740130     3.732487     3.724844     3.717201     3.709558     3.701914
      3.694271     3.686628     3.678985     3.671341     3.663698     3.656055     3.648412     3.640769     3.633125     3.625482
      3.617839     3.610196     3.602552     3.594909     3.587266     3.579623     3.571980     3.564336     3.556693     3.549050
      3.541407     3.533763     3.526120     3.518477     3.510834     3.503191     3.495547     3.487904     3.480261     3.472618
      3.464974     3.457331     3.449688     3.442045     3.434402     3.426758     3.419115     3.411472     3.403829     3.396185
      3.388542     3.380899     3.373256     3.365613     3.357969     3.350326     3.342683     3.335040     3.327396     3.319753
      3.312110     3.304467     3.296824     3.289180     3.281537     3.273894     3.266251     3.258607     3.250964     3.243321
      3.235678     3.228034     3.220391     3.212748     3.205105     3.197462     3.189818     3.182175     3.174532     3.166889
      3.159245     3.151602     3.143959     3.136316     3.128673     3.121029     3.113386     3.105743     3.098100     3.090456
      3.082813     3.075170     3.067527     3.059884     3.052240     3.044597     3.036954     3.029311     3.021667     3.014024
      3.006381     2.998738     2.991095     2.983451     2.975808     2.968165     2.960522     2.952878     2.945235     2.937592
      2.929949     2.922306     2.914662     2.907019     2.899376     2.891733     2.884089     2.876446     2.868803     2.861160
      2.853517     2.845873     2.838230     2.830587     2.822944     2.815300     2.807657     2.800014     2.792371     2.784728
      2.777084     2.769441     2.761798     2.754155     2.746511     2.738868     2.731225     2.723582     2.715939     2.708295
      2.700652     2.693009     2.685366     2.677722     2.670079     2.662436     2.654793     2.647150     2.639506     2.631863
      2.624220     2.616577     2.608933     2.601290     2.593647     2.586004     2.578361     2.570717     2.563074     2.555431
      2.547788     2.540144     2.532501     2.524858     2.517215     2.509572     2.501928     2.494285     2.486642     2.478999
      2.471355     2.463712     2.456069     2.448426     2.440783     2.433139     2.425496     2.417853     2.410210     2.402566
      2.394923     2.387280     2.379637     2.371994     2.364350     2.356707     2.349064     2.341421     2.333777     2.326134
      2.318491     2.310848     2.303205     2.295561     2.287918     2.280275     2.272632     2.264988     2.257345     2.249702
      2.242059     2.234416     2.226772     2.219129     2.211486     2.203843     2.196199     2.188556     2.180913     2.173270
      2.165627     2.157983     2.150340     2.142697     2.135054     2.127410     2.119767     2.112124     2.104481     2.096838
      2.089194     2.081551     2.073908     2.066265     2.058621     2.050978     2.043335     2.035692     2.028049     2.020405
      2.012762     2.005119     1.997476     1.989833     1.982190     1.974546     1.966903     1.959260     1.951617     1.943974
      1.936331     1.928688     1.921045     1.913402     1.905759     1.898115     1.890472     1.882829     1.875186     1.867543
      1.859900     1.852257     1.844614     1.836971     1.829327     1.821684     1.814041     1.806398     1.798755     1.791112
      1.783469     1.775826     1.768183     1.760540     1.752896     1.745253     1.737610     1.729967     1.722324     1.714681
      1.707038     1.699395     1.691752     1.684108     1.676465     1.668822     1.661179     1.653536     1.645893     1.638250
      1.630607     1.622964     1.615321     1.607677     1.600034     1.592391     1.584748     1.577105     1.569462     1.561819
      1.554176     1.546533     1.538890     1.531246     1.523603     1.515960     1.508317     1.500674     1.493031     1.485388
      1.477745     1.470102     1.462458     1.454815     1.447172     1.439529     1.431886     1.424243     1.416600     1.408957
      1.401314     1.393671     1.386027     1.378384     1.370741     1.363098     1.355455     1.347812     1.340169     1.332526
      1.324883     1.317240     1.309596     1.301953     1.294310     1.286667     1.279024     1.271381     1.263738     1.256095
      1.248452     1.240808     1.233165     1.225522     1.217879     1.210236     1.202593     1.194950     1.187307     1.179664
      1.172021     1.164377     1.156734     1.149091     1.141448     1.133805     1.126162     1.118519     1.110876     1.103233
      1.095590     1.087946     1.080303     1.072660     1.065017     1.057374     1.049731     1.042088     1.034445     1.026802
      1.019158     1.011515     1.003872     0.996229     0.988586     0.980943     0.973300     0.965657     0.958014     0.950371
      0.942727     0.935084     0.927441     0.919798     0.912155     0.904512     0.896869     0.889226     0.881583     0.873940
      0.866296     0.858653     0.851010     0.843367     0.835724     0.828081     0.820438     0.812795     0.805152     0.797508
      0.789865     0.782222     0.774579     0.766936     0.759293     0.751650     0.744007     0.736364     0.728721     0.721077
      0.713434     0.705791     0.698148     0.690505     0.682862     0.675219     0.667576     0.659933     0.652290     0.644646
      0.637003     0.629360     0.621717     0.614074     0.606431     0.598788     0.591145     0.583502     0.575858     0.568215
      0.560572     0.552929     0.545286     0.537643     0.530000     0.522357     0.514714     0.507071     0.499427     0.491784
      0.484141     0.476498     0.468855     0.461212     0.453569     0.445925     0.438282     0.430639     0.422996     0.415353
      0.407710     0.400067     0.392424     0.384780     0.377137     0.369494     0.361851     0.354208     0.346565     0.338922
      0.331278     0.323635     0.315992     0.308349     0.300706     0.293063     0.285420     0.277777     0.270133     0.262490
      0.254847     0.247204     0.239561     0.231918     0.224275     0.216631     0.208988     0.201345
 NY phased data points follow
   5.17868E+01  5.04031E+01  4.83174E+01  4.86247E+01  5.12613E+01  5.02705E+01  5.01924E+01  4.98282E+01  4.85624E+01  5.19387E+01
   5.11612E+01  5.16827E+01  5.00128E+01  4.99508E+01  5.03326E+01  5.03967E+01  5.21264E+01  5.26839E+01  5.24315E+01  5.20037E+01
   5.31531E+01  5.37886E+01  5.15842E+01  5.27466E+01  5.16090E+01  5.45367E+01  5.32158E+01  5.35127E+01  5.25494E+01  5.42709E+01
   5.34998E+01  5.33310E+01  5.42505E+01  5.71151E+01  5.63591E+01  5.55856E+01  5.28583E+01  5.74950E+01  5.53270E+01  5.58152E+01
   5.50231E+01  5.44282E+01  5.53356E+01  5.38103E+01  5.44841E+01  5.40643E+01  5.40998E+01  5.35643E+01  5.19528E+01  5.25347E+01
   5.32864E+01  5.24993E+01  5.23506E+01  5.12903E+01  5.17591E+01  5.13665E+01  4.84922E+01  5.09271E+01  5.10424E+01  5.08979E+01
   5.00270E+01  4.73927E+01  4.89537E+01  4.88435E+01  4.77791E+01  4.85884E+01  4.43471E+01  4.86764E+01  4.60201E+01  4.80351E+01
   4.50451E+01  4.48216E+01  4.53989E+01  4.61007E+01  4.43717E+01  4.47178E+01  4.35016E+01  4.45217E+01  4.32422E+01  4.16824E+01
   4.18418E+01  4.31815E+01  4.16224E+01  4.42575E+01  4.37976E+01  4.11975E+01  4.40494E+01  4.35576E+01  4.06900E+01  4.27777E+01
   4.24514E+01  4.13830E+01  4.23375E+01  4.41181E+01  4.22937E+01  4.26316E+01  4.27453E+01  4.02549E+01  4.09017E+01  3.92648E+01
   3.68194E+01  3.77043E+01  4.03015E+01  3.79728E+01  3.57717E+01  3.84933E+01  3.90387E+01  3.76648E+01  3.85225E+01  3.67392E+01
   3.70322E+01  4.02175E+01  3.77517E+01  3.68841E+01  3.75836E+01  3.62759E+01  3.72598E+01  3.54440E+01  3.45081E+01  3.58212E+01
   3.41062E+01  3.30972E+01  3.43346E+01  3.18472E+01  3.12432E+01  3.32271E+01  3.00112E+01  3.27065E+01  3.05650E+01  2.95343E+01
   2.98275E+01  2.89825E+01  2.72606E+01  2.97796E+01  2.84641E+01  2.90340E+01  2.68856E+01  2.35859E+01  2.63071E+01  2.63606E+01
   2.66318E+01  2.77100E+01  2.77007E+01  2.61867E+01  2.45621E+01  2.13064E+01  2.54895E+01  2.43500E+01  2.18142E+01  2.38452E+01
   2.19108E+01  2.31723E+01  2.08291E+01  1.95853E+01  2.08251E+01  1.85256E+01  1.84635E+01  1.79009E+01  1.75361E+01  1.87401E+01
   1.73484E+01  1.62513E+01  1.65157E+01  1.55490E+01  1.52333E+01  1.41462E+01  1.43723E+01  1.52691E+01  1.28428E+01  1.20824E+01
   1.16996E+01  1.23545E+01  1.13750E+01  1.31789E+01  1.13623E+01  1.11174E+01  1.05985E+01  8.36119E+00  1.11715E+01  8.86492E+00
   9.10312E+00  7.25060E+00  8.70495E+00  6.23489E+00  6.96187E+00  7.52659E+00  4.04799E+00  6.08198E+00  4.82591E+00  5.15691E+00
   4.25555E+00  2.80554E+00  4.02953E+00  3.76525E+00  1.79731E+00  1.82975E+00  1.53186E+00  4.24861E-02  4.35057E-01  3.95711E-01
   1.14341E+00  1.53803E+00  2.63449E-01 -6.51403E-01 -1.65999E+00 -1.51883E+00 -2.84958E+00 -1.53345E+00 -2.27302E+00 -1.72715E+00
  -2.14392E+00 -4.81187E+00 -3.42109E+00 -2.69931E+00 -3.83269E+00 -3.51430E+00 -5.38307E+00 -6.73786E+00 -5.79571E+00 -5.57171E+00
  -6.11524E+00 -5.50455E+00 -5.73671E+00 -7.79508E+00 -6.80850E+00 -6.79580E+00 -6.67070E+00 -7.17084E+00 -8.28345E+00 -9.12931E+00
  -9.84090E+00 -8.57630E+00 -7.26116E+00 -8.31652E+00 -7.36610E+00 -6.21588E+00 -8.06506E+00 -4.33333E+00 -7.59733E+00 -7.14074E+00
  -6.69765E+00 -8.82089E+00 -8.89729E+00 -9.18923E+00 -9.87887E+00 -1.08503E+01 -1.13479E+01 -1.30670E+01 -1.25766E+01 -1.30406E+01
  -1.50304E+01 -1.36619E+01 -1.41875E+01 -1.45902E+01 -1.64798E+01 -1.53479E+01 -1.73698E+01 -1.81543E+01 -1.72731E+01 -1.79513E+01
  -2.07978E+01 -1.90658E+01 -1.90497E+01 -2.18904E+01 -2.05524E+01 -2.32372E+01 -2.05183E+01 -2.35961E+01 -2.41779E+01 -2.61666E+01
  -2.32954E+01 -2.47938E+01 -2.73030E+01 -2.57022E+01 -2.78364E+01 -2.73509E+01 -3.03108E+01 -3.10991E+01 -3.06153E+01 -3.03515E+01
  -3.23264E+01 -3.36299E+01 -3.26497E+01 -3.16295E+01 -3.34899E+01 -3.33220E+01 -3.39264E+01 -3.16374E+01 -3.08891E+01 -3.01973E+01
  -3.04809E+01 -2.78282E+01 -2.94090E+01 -2.86951E+01 -2.75062E+01 -2.62283E+01 -2.52383E+01 -2.63615E+01 -2.32677E+01 -2.23454E+01
  -2.41527E+01 -2.29811E+01 -2.28025E+01 -2.19173E+01 -2.37457E+01 -2.04568E+01 -2.03420E+01 -2.13727E+01 -2.01707E+01 -2.11846E+01
  -1.80220E+01 -1.90626E+01 -1.87766E+01 -1.66546E+01 -1.75435E+01 -1.76016E+01 -1.71159E+01 -1.68011E+01 -1.56104E+01 -1.64835E+01
  -1.70487E+01 -1.67237E+01 -1.57407E+01 -1.67451E+01 -1.78231E+01 -1.60973E+01 -1.65294E+01 -1.52667E+01 -1.73761E+01 -1.53486E+01
  -1.53943E+01 -1.51220E+01 -1.43912E+01 -1.51198E+01 -1.56859E+01 -1.28908E+01 -1.38468E+01 -1.57628E+01 -1.33158E+01 -1.37197E+01
  -1.48238E+01 -1.46567E+01 -1.27555E+01 -1.33426E+01 -1.20409E+01 -1.32841E+01 -1.16445E+01 -1.04035E+01 -1.07738E+01 -1.23026E+01
  -1.29430E+01 -1.02352E+01 -1.01885E+01 -1.02772E+01 -1.26049E+01 -7.78831E+00 -9.89031E+00 -9.16636E+00 -1.00675E+01 -8.99540E+00
  -8.56352E+00 -9.69700E+00 -8.99167E+00 -8.65691E+00 -8.17247E+00 -6.60266E+00 -6.56878E+00 -8.53757E+00 -6.97057E+00 -7.40917E+00
  -7.49619E+00 -7.21539E+00 -7.00020E+00 -6.47412E+00 -6.08796E+00 -5.49562E+00 -4.20519E+00 -7.52138E+00 -6.72001E+00 -7.03924E+00
  -5.35896E+00 -5.78894E+00 -4.98700E+00 -6.76846E+00 -5.98628E+00 -6.57280E+00 -5.14875E+00 -6.53593E+00 -6.94371E+00 -7.66291E+00
  -6.23936E+00 -4.98771E+00 -5.32831E+00 -6.46810E+00 -4.94173E+00 -4.69001E+00 -5.41096E+00 -7.07709E+00 -5.62354E+00 -5.30100E+00
  -4.57548E+00 -5.26769E+00 -6.28812E+00 -4.60839E+00 -4.51339E+00 -3.75619E+00 -2.47812E+00 -5.78698E+00 -2.71430E+00 -6.52363E-01
  -4.71711E+00 -2.93026E+00 -3.62367E+00 -5.39884E+00 -2.88944E+00 -7.45298E-01 -5.00145E+00 -2.54210E+00 -1.77167E+00 -1.49305E+00
  -6.52793E-01 -4.09659E+00 -2.09560E+00 -1.83090E+00 -6.10437E-01 -2.35570E+00 -1.26963E-01 -1.14737E+00 -2.42589E+00 -5.62391E-01
  -2.56322E+00 -4.13996E+00 -2.40725E+00 -2.11927E+00 -2.15436E+00 -2.39938E+00 -5.55522E-01 -7.03631E-01 -3.36923E-01 -1.20379E+00
   1.25763E-01  3.41118E-02 -1.11167E+00  6.87417E-02  6.66478E-01 -7.82984E-01  8.36959E-03 -2.45507E-01  2.60714E+00  1.00478E+00
   5.11875E-01  1.05834E+00  9.67571E-01  8.66571E-01  4.83026E-01  6.68620E-02  1.02093E+00  7.17293E-02  1.13334E+00 -1.31429E+00
   1.64212E+00  2.21580E+00  2.17706E+00  1.36995E+00  2.02638E+00  3.59386E+00  1.23341E+00  3.85428E+00  2.37159E+00  4.94496E-01
   2.99647E+00  2.53035E+00  7.59348E-01  2.23046E+00  7.44981E-01  1.24476E+00  1.66005E+00  1.35571E+00  2.06002E+00  1.69347E+00
   1.56207E+00  4.79783E-01  1.57133E+00  2.21534E+00  1.18731E+00  5.53353E-01  1.52214E-01 -6.35469E-01  3.77040E-01  8.60788E-02
   7.70178E-01  1.55092E+00  2.37869E+00  2.73860E+00  1.31340E+00  1.58798E+00  1.34779E+00  2.08218E-01
 NY points of the fit to the data follow
   5.00152E+01  4.98298E+01  4.97291E+01  4.97030E+01  4.97297E+01  4.98964E+01  5.00580E+01  5.02995E+01  5.03960E+01  5.05938E+01
   5.05250E+01  5.07885E+01  5.05364E+01  5.09577E+01  5.07946E+01  5.15604E+01  5.12376E+01  5.22548E+01  5.16365E+01  5.28630E+01
   5.18877E+01  5.32585E+01  5.20981E+01  5.37284E+01  5.24227E+01  5.41855E+01  5.27162E+01  5.45469E+01  5.31296E+01  5.50017E+01
   5.36340E+01  5.53624E+01  5.40638E+01  5.55976E+01  5.43045E+01  5.55426E+01  5.44599E+01  5.55446E+01  5.46738E+01  5.54519E+01
   5.47601E+01  5.52435E+01  5.45262E+01  5.46478E+01  5.39935E+01  5.39818E+01  5.35430E+01  5.34281E+01  5.29647E+01  5.27790E+01
   5.22424E+01  5.20109E+01  5.14132E+01  5.11940E+01  5.06953E+01  5.08013E+01  5.02378E+01  5.03399E+01  4.97208E+01  4.98626E+01
   4.91774E+01  4.93534E+01  4.86974E+01  4.89293E+01  4.82619E+01  4.84309E+01  4.77436E+01  4.78829E+01  4.72576E+01  4.73991E+01
   4.67127E+01  4.67057E+01  4.59729E+01  4.58840E+01  4.51851E+01  4.50887E+01  4.44216E+01  4.43111E+01  4.36758E+01  4.35150E+01
   4.29755E+01  4.28230E+01  4.24060E+01  4.22849E+01  4.20318E+01  4.19102E+01  4.17621E+01  4.16323E+01  4.15775E+01  4.14375E+01
   4.14284E+01  4.12890E+01  4.13201E+01  4.12078E+01  4.12265E+01  4.10991E+01  4.10533E+01  4.09112E+01  4.07874E+01  4.06375E+01
   4.04325E+01  4.02633E+01  3.99645E+01  3.97614E+01  3.93511E+01  3.91466E+01  3.86968E+01  3.85028E+01  3.80013E+01  3.77985E+01
   3.72630E+01  3.70590E+01  3.65075E+01  3.62926E+01  3.57621E+01  3.55573E+01  3.50918E+01  3.48966E+01  3.45122E+01  3.42724E+01
   3.38784E+01  3.35947E+01  3.32078E+01  3.29118E+01  3.26179E+01  3.23001E+01  3.19732E+01  3.16243E+01  3.12673E+01  3.08886E+01
   3.05067E+01  3.01023E+01  2.97000E+01  2.92742E+01  2.88551E+01  2.84115E+01  2.79796E+01  2.75231E+01  2.70834E+01  2.66185E+01
   2.61739E+01  2.57045E+01  2.52574E+01  2.47881E+01  2.43414E+01  2.38761E+01  2.34328E+01  2.29746E+01  2.25358E+01  2.20855E+01
   2.16498E+01  2.12051E+01  2.07721E+01  2.03341E+01  1.99043E+01  1.94750E+01  1.90485E+01  1.86233E+01  1.81980E+01  1.77751E+01
   1.73503E+01  1.69301E+01  1.65061E+01  1.60879E+01  1.56646E+01  1.52467E+01  1.48234E+01  1.44052E+01  1.39823E+01  1.35622E+01
   1.31406E+01  1.27202E+01  1.22993E+01  1.18792E+01  1.14593E+01  1.10384E+01  1.06134E+01  1.01677E+01  9.72833E+00  9.23665E+00
   8.75639E+00  8.23606E+00  7.71498E+00  7.19889E+00  6.68183E+00  6.24924E+00  5.76826E+00  5.42321E+00  4.99958E+00  4.73260E+00
   4.32559E+00  4.06841E+00  3.58514E+00  3.20020E+00  2.63139E+00  2.24433E+00  1.64857E+00  1.35078E+00  8.28896E-01  5.99149E-01
   1.21136E-01 -1.60487E-01 -6.14875E-01 -9.56652E-01 -1.44144E+00 -1.80130E+00 -2.20023E+00 -2.54973E+00 -2.86600E+00 -3.23468E+00
  -3.48134E+00 -3.88144E+00 -4.10072E+00 -4.46659E+00 -4.65893E+00 -5.01801E+00 -5.17193E+00 -5.50042E+00 -5.65113E+00 -5.96532E+00
  -6.11658E+00 -6.35536E+00 -6.50417E+00 -6.68515E+00 -6.78276E+00 -6.87401E+00 -7.10222E+00 -7.18755E+00 -7.52256E+00 -7.45801E+00
  -7.88193E+00 -7.69592E+00 -8.23748E+00 -8.15123E+00 -8.84508E+00 -8.61539E+00 -9.38840E+00 -9.05967E+00 -9.79694E+00 -9.41772E+00
  -1.01632E+01 -9.77125E+00 -1.05557E+01 -1.02048E+01 -1.11358E+01 -1.08447E+01 -1.17570E+01 -1.14811E+01 -1.24156E+01 -1.21821E+01
  -1.31606E+01 -1.30290E+01 -1.40569E+01 -1.40684E+01 -1.51269E+01 -1.52203E+01 -1.62447E+01 -1.63739E+01 -1.73568E+01 -1.76159E+01
  -1.86120E+01 -1.89025E+01 -1.98759E+01 -2.02109E+01 -2.10927E+01 -2.14661E+01 -2.23650E+01 -2.27855E+01 -2.36381E+01 -2.41154E+01
  -2.49133E+01 -2.54341E+01 -2.62149E+01 -2.67976E+01 -2.75253E+01 -2.80864E+01 -2.87328E+01 -2.92554E+01 -2.98005E+01 -3.02760E+01
  -3.07461E+01 -3.11436E+01 -3.15006E+01 -3.17659E+01 -3.19602E+01 -3.20493E+01 -3.20309E+01 -3.19180E+01 -3.16710E+01 -3.13152E+01
  -3.08240E+01 -3.02315E+01 -2.95224E+01 -2.87384E+01 -2.78792E+01 -2.69792E+01 -2.60569E+01 -2.51504E+01 -2.42838E+01 -2.34902E+01
  -2.27915E+01 -2.22092E+01 -2.17574E+01 -2.14366E+01 -2.12404E+01 -2.11451E+01 -2.11093E+01 -2.10483E+01 -2.07544E+01 -2.00437E+01
  -1.97525E+01 -1.86735E+01 -1.85969E+01 -1.73339E+01 -1.77360E+01 -1.67187E+01 -1.78157E+01 -1.64154E+01 -1.77341E+01 -1.60681E+01
  -1.75266E+01 -1.58662E+01 -1.72549E+01 -1.58964E+01 -1.72372E+01 -1.60438E+01 -1.69591E+01 -1.58668E+01 -1.62684E+01 -1.56259E+01
  -1.54973E+01 -1.51891E+01 -1.47176E+01 -1.48064E+01 -1.41495E+01 -1.45660E+01 -1.36682E+01 -1.45349E+01 -1.36990E+01 -1.46626E+01
  -1.37420E+01 -1.43829E+01 -1.33215E+01 -1.34168E+01 -1.24802E+01 -1.25897E+01 -1.20322E+01 -1.20717E+01 -1.17228E+01 -1.10178E+01
  -1.11728E+01 -1.03340E+01 -1.05281E+01 -9.65594E+00 -1.00455E+01 -9.41932E+00 -1.03930E+01 -9.61819E+00 -1.01252E+01 -9.25275E+00
  -9.47305E+00 -8.60435E+00 -8.62976E+00 -7.80600E+00 -7.75422E+00 -7.15033E+00 -7.09129E+00 -6.73975E+00 -6.66627E+00 -6.41915E+00
  -6.42428E+00 -6.31459E+00 -6.36210E+00 -6.38741E+00 -6.47841E+00 -6.65506E+00 -6.80262E+00 -6.92139E+00 -7.01234E+00 -7.07326E+00
  -7.10159E+00 -7.09546E+00 -7.05433E+00 -6.97907E+00 -6.87204E+00 -6.73695E+00 -6.57871E+00 -6.40307E+00 -6.21630E+00 -6.02480E+00
  -5.83470E+00 -5.65154E+00 -5.47999E+00 -5.32364E+00 -5.18482E+00 -5.06456E+00 -4.96259E+00 -4.87747E+00 -4.80673E+00 -4.74714E+00
  -4.69487E+00 -4.64581E+00 -4.59578E+00 -4.54081E+00 -4.47733E+00 -4.40233E+00 -4.31349E+00 -4.20921E+00 -4.08871E+00 -3.95199E+00
  -3.79976E+00 -3.63341E+00 -3.45484E+00 -3.26640E+00 -3.07075E+00 -2.87073E+00 -2.66926E+00 -2.46919E+00 -2.27325E+00 -2.08390E+00
  -1.90333E+00 -1.73340E+00 -1.57557E+00 -1.43090E+00 -1.30010E+00 -1.18345E+00 -1.08093E+00 -9.92197E-01 -9.16627E-01 -8.53369E-01
  -8.01400E-01 -7.59555E-01 -7.26613E-01 -7.01274E-01 -6.82252E-01 -6.68261E-01 -6.58094E-01 -6.50585E-01 -6.44693E-01 -6.39438E-01
  -6.33971E-01 -6.27512E-01 -6.19436E-01 -6.09173E-01 -5.96297E-01 -5.80423E-01 -5.61293E-01 -5.38669E-01 -5.12451E-01 -4.82526E-01
  -4.48892E-01 -4.11532E-01 -3.70522E-01 -3.25911E-01 -2.77830E-01 -2.26380E-01 -1.71723E-01 -1.13978E-01 -5.33311E-02  1.00791E-02
   7.60606E-02  1.44461E-01  2.15094E-01  2.87811E-01  3.62428E-01  4.38793E-01  5.16730E-01  5.96096E-01  6.76725E-01  7.58478E-01
   8.41205E-01  9.24769E-01  1.00902E+00  1.09384E+00  1.17910E+00  1.26467E+00  1.35042E+00  1.43625E+00  1.52203E+00  1.60764E+00
   1.69299E+00  1.77794E+00  1.86241E+00  1.94626E+00  2.02939E+00  2.11169E+00  2.19303E+00  2.27328E+00  2.35232E+00  2.43000E+00
   2.50616E+00  2.58063E+00  2.65321E+00  2.72368E+00  2.79175E+00  2.85712E+00  2.91938E+00  2.97804E+00
 NY background values follow
     4.203E+01    4.218E+01    4.233E+01    4.247E+01    4.260E+01    4.273E+01    4.286E+01    4.298E+01    4.309E+01    4.321E+01
     4.331E+01    4.341E+01    4.351E+01    4.360E+01    4.369E+01    4.377E+01    4.385E+01    4.392E+01    4.399E+01    4.405E+01
     4.411E+01    4.416E+01    4.421E+01    4.426E+01    4.430E+01    4.433E+01    4.436E+01    4.439E+01    4.441E+01    4.443E+01
     4.444E+01    4.445E+01    4.445E+01    4.445E+01    4.444E+01    4.443E+01    4.442E+01    4.440E+01    4.438E+01    4.435E+01
     4.432E+01    4.428E+01    4.424E+01    4.420E+01    4.415E+01    4.410E+01    4.404E+01    4.398E+01    4.391E+01    4.384E+01
     4.377E+01    4.369E+01    4.360E+01    4.352E+01    4.343E+01    4.333E+01    4.323E+01    4.313E+01    4.302E+01    4.291E+01
     4.280E+01    4.268E+01    4.256E+01    4.243E+01    4.230E+01    4.216E+01    4.202E+01    4.188E+01    4.174E+01    4.159E+01
     4.143E+01    4.127E+01    4.111E+01    4.095E+01    4.078E+01    4.061E+01    4.043E+01    4.025E+01    4.007E+01    3.988E+01
     3.969E+01    3.950E+01    3.930E+01    3.910E+01    3.890E+01    3.869E+01    3.848E+01    3.826E+01    3.804E+01    3.782E+01
     3.760E+01    3.737E+01    3.714E+01    3.690E+01    3.667E+01    3.642E+01    3.618E+01    3.593E+01    3.568E+01    3.543E+01
     3.517E+01    3.491E+01    3.465E+01    3.438E+01    3.411E+01    3.384E+01    3.357E+01    3.329E+01    3.301E+01    3.272E+01
     3.243E+01    3.215E+01    3.185E+01    3.156E+01    3.126E+01    3.096E+01    3.065E+01    3.035E+01    3.004E+01    2.973E+01
     2.941E+01    2.910E+01    2.878E+01    2.845E+01    2.813E+01    2.780E+01    2.747E+01    2.714E+01    2.681E+01    2.647E+01
     2.613E+01    2.579E+01    2.544E+01    2.510E+01    2.475E+01    2.440E+01    2.405E+01    2.369E+01    2.333E+01    2.298E+01
     2.262E+01    2.225E+01    2.189E+01    2.152E+01    2.115E+01    2.078E+01    2.041E+01    2.003E+01    1.966E+01    1.928E+01
     1.890E+01    1.852E+01    1.814E+01    1.776E+01    1.737E+01    1.698E+01    1.659E+01    1.620E+01    1.581E+01    1.542E+01
     1.503E+01    1.463E+01    1.424E+01    1.384E+01    1.344E+01    1.304E+01    1.264E+01    1.224E+01    1.183E+01    1.143E+01
     1.103E+01    1.062E+01    1.021E+01    9.805E+00    9.397E+00    8.988E+00    8.578E+00    8.168E+00    7.757E+00    7.345E+00
     6.933E+00    6.520E+00    6.107E+00    5.693E+00    5.279E+00    4.864E+00    4.449E+00    4.034E+00    3.618E+00    3.203E+00
     2.787E+00    2.371E+00    1.954E+00    1.538E+00    1.121E+00    7.050E-01    2.886E-01   -1.278E-01   -5.442E-01   -9.604E-01
    -1.376E+00   -1.792E+00   -2.208E+00   -2.623E+00   -3.038E+00   -3.453E+00   -3.867E+00   -4.281E+00   -4.695E+00   -5.108E+00
    -5.520E+00   -5.932E+00   -6.343E+00   -6.754E+00   -7.164E+00   -7.573E+00   -7.982E+00   -8.390E+00   -8.797E+00   -9.203E+00
    -9.608E+00   -1.001E+01   -1.042E+01   -1.082E+01   -1.122E+01   -1.162E+01   -1.202E+01   -1.242E+01   -1.282E+01   -1.321E+01
    -1.361E+01   -1.400E+01   -1.439E+01   -1.478E+01   -1.517E+01   -1.556E+01   -1.595E+01   -1.633E+01   -1.672E+01   -1.710E+01
    -1.748E+01   -1.786E+01   -1.824E+01   -1.861E+01   -1.899E+01   -1.936E+01   -1.973E+01   -2.010E+01   -2.047E+01   -2.083E+01
    -2.119E+01   -2.156E+01   -2.191E+01   -2.227E+01   -2.263E+01   -2.298E+01   -2.333E+01   -2.368E+01   -2.403E+01   -2.437E+01
    -2.471E+01   -2.505E+01   -2.539E+01   -2.572E+01   -2.605E+01   -2.638E+01   -2.670E+01   -2.703E+01   -2.734E+01   -2.766E+01
    -2.797E+01   -2.828E+01   -2.859E+01   -2.889E+01   -2.919E+01   -2.949E+01   -2.978E+01   -3.007E+01   -3.036E+01   -3.064E+01
    -3.092E+01   -3.120E+01   -3.147E+01   -3.174E+01   -3.200E+01   -3.226E+01   -3.252E+01   -3.277E+01   -3.302E+01   -3.327E+01
    -3.351E+01   -3.374E+01   -3.397E+01   -3.420E+01   -3.443E+01   -3.465E+01   -3.486E+01   -3.507E+01   -3.528E+01   -3.548E+01
    -3.568E+01   -3.587E+01   -3.606E+01   -3.624E+01   -3.642E+01   -3.659E+01   -3.676E+01   -3.693E+01   -3.709E+01   -3.724E+01
    -3.739E+01   -3.754E+01   -3.768E+01   -3.782E+01   -3.795E+01   -3.807E+01   -3.819E+01   -3.831E+01   -3.842E+01   -3.852E+01
    -3.862E+01   -3.872E+01   -3.881E+01   -3.890E+01   -3.897E+01   -3.905E+01   -3.912E+01   -3.918E+01   -3.924E+01   -3.930E+01
    -3.934E+01   -3.939E+01   -3.943E+01   -3.946E+01   -3.949E+01   -3.951E+01   -3.952E+01   -3.954E+01   -3.954E+01   -3.954E+01
    -3.954E+01   -3.953E+01   -3.951E+01   -3.949E+01   -3.946E+01   -3.943E+01   -3.940E+01   -3.935E+01   -3.931E+01   -3.925E+01
    -3.920E+01   -3.913E+01   -3.906E+01   -3.899E+01   -3.891E+01   -3.883E+01   -3.874E+01   -3.864E+01   -3.854E+01   -3.844E+01
    -3.833E+01   -3.821E+01   -3.809E+01   -3.796E+01   -3.783E+01   -3.770E+01   -3.756E+01   -3.741E+01   -3.726E+01   -3.710E+01
    -3.694E+01   -3.678E+01   -3.660E+01   -3.643E+01   -3.625E+01   -3.606E+01   -3.587E+01   -3.568E+01   -3.548E+01   -3.528E+01
    -3.507E+01   -3.486E+01   -3.464E+01   -3.443E+01   -3.420E+01   -3.398E+01   -3.375E+01   -3.352E+01   -3.328E+01   -3.304E+01
    -3.280E+01   -3.255E+01   -3.230E+01   -3.205E+01   -3.180E+01   -3.154E+01   -3.129E+01   -3.103E+01   -3.076E+01   -3.050E+01
    -3.023E+01   -2.996E+01   -2.969E+01   -2.942E+01   -2.914E+01   -2.887E+01   -2.859E+01   -2.831E+01   -2.803E+01   -2.775E+01
    -2.746E+01   -2.718E+01   -2.690E+01   -2.661E+01   -2.632E+01   -2.604E+01   -2.575E+01   -2.546E+01   -2.517E+01   -2.488E+01
    -2.459E+01   -2.430E+01   -2.401E+01   -2.372E+01   -2.343E+01   -2.314E+01   -2.285E+01   -2.256E+01   -2.228E+01   -2.199E+01
    -2.170E+01   -2.141E+01   -2.112E+01   -2.084E+01   -2.055E+01   -2.027E+01   -1.998E+01   -1.970E+01   -1.941E+01   -1.913E+01
    -1.885E+01   -1.857E+01   -1.829E+01   -1.802E+01   -1.774E+01   -1.747E+01   -1.719E+01   -1.692E+01   -1.665E+01   -1.638E+01
    -1.611E+01   -1.585E+01   -1.558E+01   -1.532E+01   -1.506E+01   -1.480E+01   -1.454E+01   -1.428E+01   -1.403E+01   -1.378E+01
    -1.353E+01   -1.328E+01   -1.303E+01   -1.279E+01   -1.254E+01   -1.230E+01   -1.206E+01   -1.183E+01   -1.159E+01   -1.136E+01
    -1.113E+01   -1.090E+01   -1.067E+01   -1.045E+01   -1.023E+01   -1.001E+01   -9.789E+00   -9.573E+00   -9.359E+00   -9.147E+00
    -8.937E+00   -8.729E+00   -8.524E+00   -8.320E+00   -8.119E+00   -7.920E+00   -7.723E+00   -7.527E+00   -7.334E+00   -7.143E+00
    -6.954E+00   -6.767E+00   -6.582E+00   -6.399E+00   -6.218E+00   -6.039E+00   -5.861E+00   -5.686E+00
 Ala      Conc. = 4.59E+03
