 LCModel (Version 6.3-1L) Copyright: S.W. Provencher.          Ref.: Magn. Reson. Med. 30:672-679 (1993).                
 Slice#3 Row#14 Col#4  K_02_press_1_raw_act
 36 lines in following concentration table = NCONC+1
    Conc.  %SD /Cr+PCr  Metabolite                                         
  669.775  39%   1.941 Ala                                                 
    0.000 999%   0.000 Asp                                                 
    0.000 999%   0.000 Cr                                                  
  345.105  11%   1.000 PCr                                                 
   10.609 265% 3.1E-02 GABA                                                
    3.222 876% 9.3E-03 Glc                                                 
    0.000 999%   0.000 Gln                                                 
    0.000 999%   0.000 Glu                                                 
   89.089  22%   0.258 GPC                                                 
    0.000 999%   0.000 PCh                                                 
    0.000 999%   0.000 GSH                                                 
  809.461  24%   2.346 Ins                                                 
    0.000 999%   0.000 Lac                                                 
    0.000 999%   0.000 NAA                                                 
    0.000 999%   0.000 NAAG                                                
    2.628 345% 7.6E-03 Scyllo                                              
    0.000 999%   0.000 Tau                                                 
    0.000 999%   0.000 -CrCH2                                              
   89.089  22%   0.258 GPC+PCh                                             
    0.000 999%   0.000 NAA+NAAG                                            
  345.105  11%   1.000 Cr+PCr                                              
    0.000 999%   0.000 Glu+Gln                                             
    0.000 999%   0.000 Lip13a                                              
    0.000 999%   0.000 Lip13b                                              
    0.000 999%   0.000 Lip09                                               
  757.826  11%   2.196 MM09                                                
    0.000 999%   0.000 Lip20                                               
 1.14E+03  11%   3.294 MM20                                                
  227.328  11%   0.659 MM12                                                
  568.718  11%   1.648 MM14                                                
  284.386  11%   0.824 MM17                                                
    0.000 999%   0.000 Lip13a+Lip13b                                       
  796.046  11%   2.307 MM14+Lip13a+Lip13b+MM12                             
  757.826  11%   2.196 MM09+Lip09                                          
 1.14E+03  11%   3.294 MM20+Lip20                                          
   6 lines in following misc. output table
  FWHM = 0.168 ppm    S/N =   2                                            
  Data shift = 0.122 ppm                                                   
  Ph: 147 deg      39.4 deg/ppm                                            
  alphaB,S = 1.3E+00,   1.8E+02                                            
    9 spline knots.   Ns = 9(2)                                            
  (13) 2 infls.   (12) 1 extrs.                                            
  498 points on ppm-axis = NY
      4.000000     3.992357     3.984714     3.977070     3.969427     3.961784     3.954141     3.946497     3.938854     3.931211
      3.923568     3.915925     3.908281     3.900638     3.892995     3.885352     3.877708     3.870065     3.862422     3.854779
      3.847136     3.839492     3.831849     3.824206     3.816563     3.808919     3.801276     3.793633     3.785990     3.778347
      3.770703     3.763060     3.755417     3.747774     3.740130     3.732487     3.724844     3.717201     3.709558     3.701914
      3.694271     3.686628     3.678985     3.671341     3.663698     3.656055     3.648412     3.640769     3.633125     3.625482
      3.617839     3.610196     3.602552     3.594909     3.587266     3.579623     3.571980     3.564336     3.556693     3.549050
      3.541407     3.533763     3.526120     3.518477     3.510834     3.503191     3.495547     3.487904     3.480261     3.472618
      3.464974     3.457331     3.449688     3.442045     3.434402     3.426758     3.419115     3.411472     3.403829     3.396185
      3.388542     3.380899     3.373256     3.365613     3.357969     3.350326     3.342683     3.335040     3.327396     3.319753
      3.312110     3.304467     3.296824     3.289180     3.281537     3.273894     3.266251     3.258607     3.250964     3.243321
      3.235678     3.228034     3.220391     3.212748     3.205105     3.197462     3.189818     3.182175     3.174532     3.166889
      3.159245     3.151602     3.143959     3.136316     3.128673     3.121029     3.113386     3.105743     3.098100     3.090456
      3.082813     3.075170     3.067527     3.059884     3.052240     3.044597     3.036954     3.029311     3.021667     3.014024
      3.006381     2.998738     2.991095     2.983451     2.975808     2.968165     2.960522     2.952878     2.945235     2.937592
      2.929949     2.922306     2.914662     2.907019     2.899376     2.891733     2.884089     2.876446     2.868803     2.861160
      2.853517     2.845873     2.838230     2.830587     2.822944     2.815300     2.807657     2.800014     2.792371     2.784728
      2.777084     2.769441     2.761798     2.754155     2.746511     2.738868     2.731225     2.723582     2.715939     2.708295
      2.700652     2.693009     2.685366     2.677722     2.670079     2.662436     2.654793     2.647150     2.639506     2.631863
      2.624220     2.616577     2.608933     2.601290     2.593647     2.586004     2.578361     2.570717     2.563074     2.555431
      2.547788     2.540144     2.532501     2.524858     2.517215     2.509572     2.501928     2.494285     2.486642     2.478999
      2.471355     2.463712     2.456069     2.448426     2.440783     2.433139     2.425496     2.417853     2.410210     2.402566
      2.394923     2.387280     2.379637     2.371994     2.364350     2.356707     2.349064     2.341421     2.333777     2.326134
      2.318491     2.310848     2.303205     2.295561     2.287918     2.280275     2.272632     2.264988     2.257345     2.249702
      2.242059     2.234416     2.226772     2.219129     2.211486     2.203843     2.196199     2.188556     2.180913     2.173270
      2.165627     2.157983     2.150340     2.142697     2.135054     2.127410     2.119767     2.112124     2.104481     2.096838
      2.089194     2.081551     2.073908     2.066265     2.058621     2.050978     2.043335     2.035692     2.028049     2.020405
      2.012762     2.005119     1.997476     1.989833     1.982190     1.974546     1.966903     1.959260     1.951617     1.943974
      1.936331     1.928688     1.921045     1.913402     1.905759     1.898115     1.890472     1.882829     1.875186     1.867543
      1.859900     1.852257     1.844614     1.836971     1.829327     1.821684     1.814041     1.806398     1.798755     1.791112
      1.783469     1.775826     1.768183     1.760540     1.752896     1.745253     1.737610     1.729967     1.722324     1.714681
      1.707038     1.699395     1.691752     1.684108     1.676465     1.668822     1.661179     1.653536     1.645893     1.638250
      1.630607     1.622964     1.615321     1.607677     1.600034     1.592391     1.584748     1.577105     1.569462     1.561819
      1.554176     1.546533     1.538890     1.531246     1.523603     1.515960     1.508317     1.500674     1.493031     1.485388
      1.477745     1.470102     1.462458     1.454815     1.447172     1.439529     1.431886     1.424243     1.416600     1.408957
      1.401314     1.393671     1.386027     1.378384     1.370741     1.363098     1.355455     1.347812     1.340169     1.332526
      1.324883     1.317240     1.309596     1.301953     1.294310     1.286667     1.279024     1.271381     1.263738     1.256095
      1.248452     1.240808     1.233165     1.225522     1.217879     1.210236     1.202593     1.194950     1.187307     1.179664
      1.172021     1.164377     1.156734     1.149091     1.141448     1.133805     1.126162     1.118519     1.110876     1.103233
      1.095590     1.087946     1.080303     1.072660     1.065017     1.057374     1.049731     1.042088     1.034445     1.026802
      1.019158     1.011515     1.003872     0.996229     0.988586     0.980943     0.973300     0.965657     0.958014     0.950371
      0.942727     0.935084     0.927441     0.919798     0.912155     0.904512     0.896869     0.889226     0.881583     0.873940
      0.866296     0.858653     0.851010     0.843367     0.835724     0.828081     0.820438     0.812795     0.805152     0.797508
      0.789865     0.782222     0.774579     0.766936     0.759293     0.751650     0.744007     0.736364     0.728721     0.721077
      0.713434     0.705791     0.698148     0.690505     0.682862     0.675219     0.667576     0.659933     0.652290     0.644646
      0.637003     0.629360     0.621717     0.614074     0.606431     0.598788     0.591145     0.583502     0.575858     0.568215
      0.560572     0.552929     0.545286     0.537643     0.530000     0.522357     0.514714     0.507071     0.499427     0.491784
      0.484141     0.476498     0.468855     0.461212     0.453569     0.445925     0.438282     0.430639     0.422996     0.415353
      0.407710     0.400067     0.392424     0.384780     0.377137     0.369494     0.361851     0.354208     0.346565     0.338922
      0.331278     0.323635     0.315992     0.308349     0.300706     0.293063     0.285420     0.277777     0.270133     0.262490
      0.254847     0.247204     0.239561     0.231918     0.224275     0.216631     0.208988     0.201345
 NY phased data points follow
   1.00071E+02  9.89176E+01  9.64274E+01  9.74531E+01  9.40556E+01  9.37495E+01  9.21874E+01  8.98884E+01  8.94001E+01  8.65913E+01
   8.62435E+01  8.60932E+01  8.60572E+01  8.22231E+01  8.31186E+01  8.40010E+01  8.26330E+01  8.12123E+01  7.77689E+01  7.84294E+01
   7.64034E+01  7.39540E+01  7.52299E+01  7.46906E+01  7.25674E+01  7.33419E+01  7.19998E+01  7.07446E+01  7.14411E+01  7.10552E+01
   6.93759E+01  6.90107E+01  6.77994E+01  6.76871E+01  6.69544E+01  6.63638E+01  6.73014E+01  6.53979E+01  6.54667E+01  6.36571E+01
   6.39730E+01  6.48947E+01  6.19140E+01  6.15618E+01  6.10113E+01  6.28464E+01  5.99816E+01  6.13657E+01  6.09354E+01  5.89942E+01
   5.98919E+01  5.87889E+01  5.86938E+01  5.72594E+01  5.66593E+01  5.68886E+01  5.24207E+01  5.55613E+01  5.48325E+01  5.11578E+01
   5.00511E+01  5.03199E+01  5.01098E+01  4.97217E+01  4.82789E+01  4.79044E+01  4.86238E+01  4.74550E+01  4.72063E+01  4.73171E+01
   4.42966E+01  4.44340E+01  4.27824E+01  4.39987E+01  4.37216E+01  4.46135E+01  4.33439E+01  4.30457E+01  4.24662E+01  4.17724E+01
   4.17525E+01  4.04885E+01  4.01484E+01  3.73207E+01  3.95252E+01  3.78607E+01  3.73740E+01  3.61379E+01  3.71750E+01  3.73413E+01
   3.77637E+01  3.65153E+01  3.86448E+01  3.53641E+01  3.65386E+01  3.52250E+01  3.58094E+01  3.70560E+01  3.61108E+01  3.62259E+01
   3.67734E+01  3.59381E+01  3.53487E+01  3.40381E+01  3.62494E+01  3.36617E+01  3.44164E+01  3.30858E+01  3.28533E+01  3.45614E+01
   3.09572E+01  3.21002E+01  3.37128E+01  3.15016E+01  3.07787E+01  3.20593E+01  3.05284E+01  3.19824E+01  3.19702E+01  3.36137E+01
   3.32379E+01  3.10801E+01  2.98496E+01  3.19255E+01  3.03162E+01  2.99044E+01  2.94895E+01  2.82989E+01  2.95368E+01  3.01057E+01
   2.81582E+01  2.76413E+01  2.93764E+01  2.62842E+01  2.84328E+01  2.73823E+01  2.71995E+01  2.62553E+01  2.57588E+01  2.60573E+01
   2.51687E+01  2.33759E+01  2.60562E+01  2.62492E+01  2.37672E+01  2.21376E+01  2.15431E+01  2.34115E+01  2.21895E+01  2.43697E+01
   2.26935E+01  2.36310E+01  2.22570E+01  2.21889E+01  2.35341E+01  2.05058E+01  2.01799E+01  2.03387E+01  2.14679E+01  1.97155E+01
   2.00701E+01  1.74393E+01  2.02366E+01  1.92931E+01  1.88442E+01  1.97609E+01  2.03681E+01  1.89417E+01  1.74311E+01  1.89756E+01
   1.83055E+01  1.92874E+01  1.64995E+01  1.81647E+01  1.63289E+01  1.58961E+01  1.47387E+01  1.39647E+01  1.49365E+01  1.44005E+01
   1.44813E+01  1.62719E+01  1.44983E+01  1.39484E+01  1.41215E+01  1.23677E+01  1.31306E+01  1.52965E+01  1.20271E+01  1.52205E+01
   1.37120E+01  1.19594E+01  1.28149E+01  1.34239E+01  1.26406E+01  1.22620E+01  1.08659E+01  9.65758E+00  1.11804E+01  1.00541E+01
   1.12786E+01  8.26925E+00  9.70330E+00  9.31123E+00  1.12545E+01  9.79390E+00  9.19638E+00  9.42156E+00  8.10031E+00  9.53910E+00
   8.35282E+00  7.42374E+00  8.18573E+00  8.42843E+00  8.24190E+00  6.64929E+00  6.99759E+00  7.36402E+00  5.37454E+00  7.43266E+00
   6.17403E+00  7.19738E+00  5.58943E+00  6.54594E+00  5.60312E+00  4.99973E+00  5.37686E+00  4.78112E+00  3.95749E+00  4.66693E+00
   3.97828E+00  3.14292E+00  1.17269E+00  2.13659E+00  3.51614E+00  3.50110E+00  3.33905E+00  2.47446E+00  1.08005E+00  2.73774E+00
   2.31439E+00  2.21739E+00  1.15299E+00  3.04549E+00  2.66371E+00  1.28969E+00  3.61208E+00  1.15616E+00  2.85843E+00  2.40594E+00
   6.53592E-01  3.41089E+00  3.54737E+00  3.23793E-01  1.88260E+00 -1.13009E-01 -6.54113E-01  3.41283E+00  1.85658E+00 -3.23234E-01
   1.41017E+00 -1.06131E+00 -7.88648E-01  9.16910E-02 -9.66188E-01 -6.50790E-01 -1.78480E+00 -3.36159E+00 -2.85793E+00 -1.08156E+00
  -1.18318E+00 -2.86758E+00 -2.14256E+00 -3.96820E+00 -2.86024E+00 -3.69687E+00 -3.72575E+00 -3.36985E+00 -4.47217E+00 -3.42848E+00
  -4.70063E+00 -4.59031E+00 -4.40281E+00 -6.36146E+00 -3.83725E+00 -5.35173E+00 -6.60623E+00 -4.18500E+00 -5.08002E+00 -4.99334E+00
  -4.55700E+00 -6.06975E+00 -7.42412E+00 -4.17001E+00 -6.24489E+00 -5.72327E+00 -4.51610E+00 -6.62300E+00 -4.86492E+00 -7.51206E+00
  -6.47068E+00 -7.24330E+00 -8.90528E+00 -7.77475E+00 -6.00482E+00 -7.12500E+00 -7.29562E+00 -4.45053E+00 -5.43812E+00 -5.96781E+00
  -8.17967E+00 -6.04254E+00 -6.25369E+00 -4.66206E+00 -4.63550E+00 -5.36033E+00 -5.55662E+00 -5.96267E+00 -6.68445E+00 -7.07656E+00
  -5.11981E+00 -7.01123E+00 -6.93291E+00 -7.21662E+00 -7.77320E+00 -7.39411E+00 -5.84132E+00 -6.72608E+00 -7.87470E+00 -7.04660E+00
  -6.89657E+00 -9.12164E+00 -1.08990E+01 -7.41104E+00 -9.19941E+00 -8.02535E+00 -9.71246E+00 -1.00998E+01 -1.19702E+01 -1.08499E+01
  -1.01341E+01 -1.12246E+01 -1.31068E+01 -1.15893E+01 -1.08770E+01 -1.25459E+01 -1.13988E+01 -1.24537E+01 -1.35483E+01 -1.53930E+01
  -1.38061E+01 -1.29911E+01 -1.36039E+01 -1.52766E+01 -1.42962E+01 -1.41031E+01 -1.53875E+01 -1.47683E+01 -1.68260E+01 -1.52731E+01
  -1.56121E+01 -1.58022E+01 -1.52334E+01 -1.54540E+01 -1.42701E+01 -1.45352E+01 -1.38922E+01 -1.57542E+01 -1.30606E+01 -1.44074E+01
  -1.29459E+01 -1.55953E+01 -1.39482E+01 -1.29466E+01 -1.32474E+01 -1.45626E+01 -1.35598E+01 -1.44683E+01 -1.55117E+01 -1.26676E+01
  -1.24262E+01 -1.29990E+01 -1.26619E+01 -1.36539E+01 -1.34889E+01 -1.32011E+01 -1.40795E+01 -1.40077E+01 -1.30886E+01 -1.27939E+01
  -1.25526E+01 -1.17300E+01 -1.26585E+01 -1.16593E+01 -1.20324E+01 -1.20785E+01 -1.15815E+01 -1.30630E+01 -1.08996E+01 -1.16016E+01
  -1.10103E+01 -1.24729E+01 -1.01060E+01 -1.04665E+01 -1.12948E+01 -1.17013E+01 -1.16720E+01 -1.27740E+01 -1.04518E+01 -1.08584E+01
  -1.26034E+01 -1.03991E+01 -1.11659E+01 -1.20890E+01 -1.15705E+01 -1.06427E+01 -1.02962E+01 -1.06536E+01 -1.28450E+01 -1.03135E+01
  -1.02958E+01 -1.11291E+01 -1.14124E+01 -1.19334E+01 -1.10661E+01 -1.22126E+01 -9.37558E+00 -1.19549E+01 -9.53377E+00 -9.28918E+00
  -8.49462E+00 -9.78039E+00 -1.10035E+01 -8.81749E+00 -1.10479E+01 -9.43832E+00 -9.94084E+00 -8.74192E+00 -9.14456E+00 -1.03801E+01
  -9.99902E+00 -8.91524E+00 -7.90559E+00 -8.31017E+00 -1.01930E+01 -1.05975E+01 -1.00214E+01 -1.08901E+01 -9.65736E+00 -1.15033E+01
  -1.12644E+01 -1.04084E+01 -1.08507E+01 -8.61418E+00 -1.14792E+01 -1.15815E+01 -1.13475E+01 -1.07345E+01 -1.16706E+01 -1.13241E+01
  -1.07537E+01 -1.07206E+01 -1.05927E+01 -9.23278E+00 -9.40001E+00 -1.04664E+01 -9.83016E+00 -9.76925E+00 -8.46899E+00 -1.07839E+01
  -1.03949E+01 -9.34238E+00 -9.89749E+00 -8.21042E+00 -9.18970E+00 -8.50851E+00 -8.01973E+00 -8.91234E+00 -1.09144E+01 -7.94078E+00
  -9.55149E+00 -1.04773E+01 -9.84187E+00 -8.05858E+00 -8.36798E+00 -6.69654E+00 -7.58042E+00 -7.77785E+00 -9.19433E+00 -7.98890E+00
  -6.56931E+00 -7.00420E+00 -8.21879E+00 -7.74339E+00 -5.96026E+00 -7.92289E+00 -9.98260E+00 -8.17940E+00
 NY points of the fit to the data follow
   9.59427E+01  9.54293E+01  9.43778E+01  9.38036E+01  9.25844E+01  9.19780E+01  9.06896E+01  9.01091E+01  8.87928E+01  8.82490E+01
   8.69427E+01  8.64282E+01  8.51037E+01  8.45879E+01  8.32193E+01  8.26869E+01  8.12693E+01  8.06971E+01  7.92451E+01  7.86474E+01
   7.72884E+01  7.67191E+01  7.55276E+01  7.50135E+01  7.39720E+01  7.34951E+01  7.25463E+01  7.20588E+01  7.11918E+01  7.07007E+01
   6.99197E+01  6.94321E+01  6.87191E+01  6.82318E+01  6.76141E+01  6.71357E+01  6.66233E+01  6.61390E+01  6.56882E+01  6.51696E+01
   6.47084E+01  6.41127E+01  6.35938E+01  6.29011E+01  6.23326E+01  6.15890E+01  6.10058E+01  6.02559E+01  5.96904E+01  5.89564E+01
   5.84377E+01  5.77130E+01  5.72170E+01  5.64816E+01  5.59854E+01  5.52188E+01  5.46951E+01  5.38915E+01  5.33549E+01  5.25568E+01
   5.20538E+01  5.13093E+01  5.08725E+01  5.01907E+01  4.97915E+01  4.91406E+01  4.87344E+01  4.80998E+01  4.76835E+01  4.70471E+01
   4.65892E+01  4.59330E+01  4.54328E+01  4.47663E+01  4.42513E+01  4.35892E+01  4.30785E+01  4.24295E+01  4.19210E+01  4.13022E+01
   4.07957E+01  4.02264E+01  3.97296E+01  3.92259E+01  3.87610E+01  3.84114E+01  3.80295E+01  3.78034E+01  3.75217E+01  3.73926E+01
   3.72252E+01  3.71150E+01  3.70617E+01  3.69043E+01  3.69427E+01  3.66742E+01  3.67577E+01  3.63294E+01  3.64065E+01  3.58383E+01
   3.58769E+01  3.52323E+01  3.52264E+01  3.45399E+01  3.44948E+01  3.38065E+01  3.37487E+01  3.30971E+01  3.31666E+01  3.26013E+01
   3.27881E+01  3.23059E+01  3.25880E+01  3.21747E+01  3.24669E+01  3.21687E+01  3.24210E+01  3.22533E+01  3.23986E+01  3.22765E+01
   3.22226E+01  3.20610E+01  3.18072E+01  3.16259E+01  3.12704E+01  3.10599E+01  3.06433E+01  3.04013E+01  2.99589E+01  2.96929E+01
   2.92161E+01  2.89211E+01  2.84026E+01  2.80679E+01  2.74780E+01  2.70901E+01  2.64157E+01  2.59967E+01  2.53507E+01  2.49565E+01
   2.44384E+01  2.40972E+01  2.36938E+01  2.33940E+01  2.30529E+01  2.27874E+01  2.25261E+01  2.22910E+01  2.20638E+01  2.18403E+01
   2.16178E+01  2.13974E+01  2.11778E+01  2.09597E+01  2.07425E+01  2.05266E+01  2.03115E+01  2.00973E+01  1.98840E+01  1.96712E+01
   1.94590E+01  1.92472E+01  1.90355E+01  1.88237E+01  1.86118E+01  1.83995E+01  1.81866E+01  1.79730E+01  1.77587E+01  1.75436E+01
   1.73277E+01  1.71110E+01  1.68935E+01  1.66751E+01  1.64559E+01  1.62358E+01  1.60149E+01  1.57932E+01  1.55707E+01  1.53475E+01
   1.51234E+01  1.48987E+01  1.46733E+01  1.44473E+01  1.42207E+01  1.39936E+01  1.37660E+01  1.35379E+01  1.33096E+01  1.30810E+01
   1.28522E+01  1.26232E+01  1.23943E+01  1.21654E+01  1.19367E+01  1.17083E+01  1.14803E+01  1.12527E+01  1.10256E+01  1.07992E+01
   1.05735E+01  1.03487E+01  1.01246E+01  9.90209E+00  9.68041E+00  9.46131E+00  9.24314E+00  9.02849E+00  8.81445E+00  8.60491E+00
   8.39542E+00  8.19100E+00  7.98555E+00  7.78559E+00  7.58405E+00  7.38825E+00  7.19029E+00  6.99821E+00  6.80387E+00  6.61571E+00
   6.42557E+00  6.24210E+00  6.05722E+00  5.87940E+00  5.70080E+00  5.52955E+00  5.35803E+00  5.19392E+00  5.03010E+00  4.87378E+00
   4.71885E+00  4.57160E+00  4.42703E+00  4.29053E+00  4.15822E+00  4.03444E+00  3.91608E+00  3.80617E+00  3.70201E+00  3.60517E+00
   3.51289E+00  3.42546E+00  3.33978E+00  3.25562E+00  3.16968E+00  3.08122E+00  2.98705E+00  2.88597E+00  2.77509E+00  2.65306E+00
   2.51749E+00  2.36711E+00  2.20079E+00  2.01764E+00  1.81761E+00  1.60052E+00  1.36729E+00  1.11868E+00  8.56370E-01  5.81887E-01
   2.97077E-01  4.20785E-03 -2.95125E-01 -5.98401E-01 -9.04466E-01 -1.21101E+00 -1.51718E+00 -1.82125E+00 -2.12244E+00 -2.41967E+00
  -2.71217E+00 -2.99924E+00 -3.28003E+00 -3.55401E+00 -3.82019E+00 -4.07789E+00 -4.32623E+00 -4.56413E+00 -4.79092E+00 -5.00528E+00
  -5.20675E+00 -5.39398E+00 -5.56666E+00 -5.72362E+00 -5.86497E+00 -5.98978E+00 -6.09910E+00 -6.19227E+00 -6.27149E+00 -6.33699E+00
  -6.39198E+00 -6.43749E+00 -6.47774E+00 -6.51422E+00 -6.55148E+00 -6.59100E+00 -6.63668E+00 -6.68923E+00 -6.75111E+00 -6.82135E+00
  -6.90028E+00 -6.98480E+00 -7.07262E+00 -7.15834E+00 -7.23679E+00 -7.29986E+00 -7.33820E+00 -7.33646E+00 -7.26488E+00 -7.11403E+00
  -7.01430E+00 -6.74189E+00 -6.68395E+00 -6.32066E+00 -6.42674E+00 -6.07387E+00 -6.44446E+00 -6.06320E+00 -6.67308E+00 -6.28886E+00
  -7.09326E+00 -6.69222E+00 -7.54769E+00 -7.10831E+00 -7.89328E+00 -7.40103E+00 -8.08646E+00 -7.60198E+00 -8.20507E+00 -7.83337E+00
  -8.43499E+00 -8.25661E+00 -8.89214E+00 -8.88096E+00 -9.52339E+00 -9.64863E+00 -1.02295E+01 -1.04165E+01 -1.08051E+01 -1.09595E+01
  -1.11384E+01 -1.12275E+01 -1.12820E+01 -1.13790E+01 -1.14076E+01 -1.16074E+01 -1.16694E+01 -1.19208E+01 -1.20489E+01 -1.22853E+01
  -1.24299E+01 -1.26214E+01 -1.27462E+01 -1.29084E+01 -1.30201E+01 -1.31213E+01 -1.31957E+01 -1.32522E+01 -1.32974E+01 -1.33348E+01
  -1.33668E+01 -1.33950E+01 -1.34207E+01 -1.34448E+01 -1.34680E+01 -1.34909E+01 -1.35139E+01 -1.35371E+01 -1.35605E+01 -1.35841E+01
  -1.36077E+01 -1.36309E+01 -1.36532E+01 -1.36742E+01 -1.36932E+01 -1.37096E+01 -1.37227E+01 -1.37318E+01 -1.37362E+01 -1.37350E+01
  -1.37277E+01 -1.37136E+01 -1.36919E+01 -1.36620E+01 -1.36233E+01 -1.35753E+01 -1.35175E+01 -1.34494E+01 -1.33707E+01 -1.32812E+01
  -1.31807E+01 -1.30692E+01 -1.29468E+01 -1.28140E+01 -1.26711E+01 -1.25191E+01 -1.23588E+01 -1.21917E+01 -1.20191E+01 -1.18430E+01
  -1.16653E+01 -1.14882E+01 -1.13141E+01 -1.11454E+01 -1.09848E+01 -1.08346E+01 -1.06971E+01 -1.05744E+01 -1.04683E+01 -1.03803E+01
  -1.03114E+01 -1.02622E+01 -1.02326E+01 -1.02224E+01 -1.02306E+01 -1.02559E+01 -1.02967E+01 -1.03510E+01 -1.04166E+01 -1.04913E+01
  -1.05727E+01 -1.06584E+01 -1.07461E+01 -1.08338E+01 -1.09194E+01 -1.10012E+01 -1.10779E+01 -1.11482E+01 -1.12113E+01 -1.12663E+01
  -1.13129E+01 -1.13509E+01 -1.13801E+01 -1.14007E+01 -1.14129E+01 -1.14169E+01 -1.14132E+01 -1.14021E+01 -1.13842E+01 -1.13599E+01
  -1.13296E+01 -1.12939E+01 -1.12532E+01 -1.12078E+01 -1.11583E+01 -1.11050E+01 -1.10482E+01 -1.09883E+01 -1.09256E+01 -1.08604E+01
  -1.07929E+01 -1.07235E+01 -1.06522E+01 -1.05794E+01 -1.05051E+01 -1.04297E+01 -1.03533E+01 -1.02760E+01 -1.01979E+01 -1.01193E+01
  -1.00402E+01 -9.96077E+00 -9.88114E+00 -9.80140E+00 -9.72167E+00 -9.64204E+00 -9.56262E+00 -9.48350E+00 -9.40477E+00 -9.32652E+00
  -9.24883E+00 -9.17178E+00 -9.09547E+00 -9.01996E+00 -8.94533E+00 -8.87166E+00 -8.79902E+00 -8.72748E+00 -8.65711E+00 -8.58799E+00
  -8.52018E+00 -8.45375E+00 -8.38876E+00 -8.32528E+00 -8.26338E+00 -8.20312E+00 -8.14456E+00 -8.08776E+00 -8.03279E+00 -7.97971E+00
  -7.92858E+00 -7.87945E+00 -7.83240E+00 -7.78746E+00 -7.74471E+00 -7.70419E+00 -7.66595E+00 -7.63005E+00
 NY background values follow
     9.121E+01    9.042E+01    8.963E+01    8.884E+01    8.805E+01    8.727E+01    8.649E+01    8.571E+01    8.493E+01    8.416E+01
     8.339E+01    8.262E+01    8.186E+01    8.110E+01    8.034E+01    7.959E+01    7.884E+01    7.809E+01    7.735E+01    7.660E+01
     7.587E+01    7.513E+01    7.440E+01    7.368E+01    7.295E+01    7.223E+01    7.152E+01    7.081E+01    7.010E+01    6.939E+01
     6.869E+01    6.800E+01    6.731E+01    6.662E+01    6.593E+01    6.525E+01    6.458E+01    6.391E+01    6.324E+01    6.258E+01
     6.192E+01    6.127E+01    6.062E+01    5.998E+01    5.934E+01    5.870E+01    5.807E+01    5.745E+01    5.683E+01    5.622E+01
     5.561E+01    5.500E+01    5.440E+01    5.381E+01    5.322E+01    5.263E+01    5.206E+01    5.148E+01    5.091E+01    5.035E+01
     4.980E+01    4.924E+01    4.870E+01    4.816E+01    4.763E+01    4.710E+01    4.657E+01    4.606E+01    4.555E+01    4.504E+01
     4.455E+01    4.405E+01    4.357E+01    4.309E+01    4.261E+01    4.215E+01    4.168E+01    4.123E+01    4.078E+01    4.034E+01
     3.991E+01    3.948E+01    3.906E+01    3.864E+01    3.823E+01    3.783E+01    3.744E+01    3.705E+01    3.667E+01    3.629E+01
     3.592E+01    3.556E+01    3.520E+01    3.485E+01    3.450E+01    3.416E+01    3.382E+01    3.350E+01    3.317E+01    3.285E+01
     3.254E+01    3.223E+01    3.192E+01    3.163E+01    3.133E+01    3.104E+01    3.076E+01    3.047E+01    3.020E+01    2.993E+01
     2.966E+01    2.939E+01    2.913E+01    2.887E+01    2.862E+01    2.837E+01    2.813E+01    2.788E+01    2.764E+01    2.741E+01
     2.717E+01    2.694E+01    2.672E+01    2.649E+01    2.627E+01    2.605E+01    2.583E+01    2.562E+01    2.540E+01    2.519E+01
     2.498E+01    2.478E+01    2.457E+01    2.437E+01    2.417E+01    2.397E+01    2.377E+01    2.357E+01    2.338E+01    2.318E+01
     2.299E+01    2.279E+01    2.260E+01    2.241E+01    2.222E+01    2.203E+01    2.184E+01    2.165E+01    2.146E+01    2.127E+01
     2.108E+01    2.089E+01    2.070E+01    2.051E+01    2.032E+01    2.012E+01    1.993E+01    1.974E+01    1.954E+01    1.935E+01
     1.915E+01    1.896E+01    1.876E+01    1.856E+01    1.836E+01    1.815E+01    1.795E+01    1.774E+01    1.753E+01    1.732E+01
     1.711E+01    1.690E+01    1.668E+01    1.647E+01    1.625E+01    1.603E+01    1.581E+01    1.559E+01    1.537E+01    1.514E+01
     1.492E+01    1.469E+01    1.446E+01    1.423E+01    1.400E+01    1.377E+01    1.354E+01    1.331E+01    1.307E+01    1.284E+01
     1.260E+01    1.237E+01    1.213E+01    1.189E+01    1.166E+01    1.142E+01    1.118E+01    1.094E+01    1.070E+01    1.046E+01
     1.022E+01    9.974E+00    9.732E+00    9.490E+00    9.248E+00    9.005E+00    8.763E+00    8.520E+00    8.277E+00    8.035E+00
     7.792E+00    7.549E+00    7.307E+00    7.064E+00    6.822E+00    6.580E+00    6.339E+00    6.097E+00    5.856E+00    5.616E+00
     5.376E+00    5.136E+00    4.897E+00    4.658E+00    4.420E+00    4.183E+00    3.946E+00    3.710E+00    3.475E+00    3.241E+00
     3.007E+00    2.775E+00    2.543E+00    2.312E+00    2.083E+00    1.854E+00    1.627E+00    1.400E+00    1.175E+00    9.513E-01
     7.286E-01    5.073E-01    2.873E-01    6.874E-02   -1.484E-01   -3.641E-01   -5.783E-01   -7.909E-01   -1.002E+00   -1.211E+00
    -1.419E+00   -1.625E+00   -1.829E+00   -2.032E+00   -2.233E+00   -2.433E+00   -2.630E+00   -2.827E+00   -3.021E+00   -3.214E+00
    -3.405E+00   -3.595E+00   -3.783E+00   -3.969E+00   -4.154E+00   -4.337E+00   -4.519E+00   -4.699E+00   -4.877E+00   -5.054E+00
    -5.229E+00   -5.402E+00   -5.574E+00   -5.745E+00   -5.914E+00   -6.081E+00   -6.246E+00   -6.410E+00   -6.573E+00   -6.734E+00
    -6.893E+00   -7.051E+00   -7.207E+00   -7.362E+00   -7.515E+00   -7.666E+00   -7.816E+00   -7.965E+00   -8.112E+00   -8.257E+00
    -8.401E+00   -8.543E+00   -8.684E+00   -8.823E+00   -8.961E+00   -9.097E+00   -9.232E+00   -9.365E+00   -9.496E+00   -9.627E+00
    -9.755E+00   -9.882E+00   -1.001E+01   -1.013E+01   -1.025E+01   -1.038E+01   -1.050E+01   -1.061E+01   -1.073E+01   -1.085E+01
    -1.096E+01   -1.107E+01   -1.118E+01   -1.129E+01   -1.140E+01   -1.151E+01   -1.161E+01   -1.171E+01   -1.182E+01   -1.192E+01
    -1.202E+01   -1.211E+01   -1.221E+01   -1.231E+01   -1.240E+01   -1.249E+01   -1.258E+01   -1.267E+01   -1.276E+01   -1.285E+01
    -1.293E+01   -1.301E+01   -1.310E+01   -1.318E+01   -1.326E+01   -1.333E+01   -1.341E+01   -1.349E+01   -1.356E+01   -1.363E+01
    -1.370E+01   -1.377E+01   -1.384E+01   -1.390E+01   -1.397E+01   -1.403E+01   -1.409E+01   -1.415E+01   -1.421E+01   -1.427E+01
    -1.433E+01   -1.438E+01   -1.443E+01   -1.448E+01   -1.453E+01   -1.458E+01   -1.463E+01   -1.467E+01   -1.472E+01   -1.476E+01
    -1.480E+01   -1.484E+01   -1.487E+01   -1.491E+01   -1.494E+01   -1.497E+01   -1.500E+01   -1.503E+01   -1.506E+01   -1.508E+01
    -1.511E+01   -1.513E+01   -1.515E+01   -1.517E+01   -1.518E+01   -1.520E+01   -1.521E+01   -1.522E+01   -1.523E+01   -1.524E+01
    -1.525E+01   -1.525E+01   -1.525E+01   -1.526E+01   -1.525E+01   -1.525E+01   -1.525E+01   -1.524E+01   -1.523E+01   -1.522E+01
    -1.521E+01   -1.520E+01   -1.518E+01   -1.517E+01   -1.515E+01   -1.513E+01   -1.510E+01   -1.508E+01   -1.505E+01   -1.502E+01
    -1.499E+01   -1.496E+01   -1.493E+01   -1.489E+01   -1.485E+01   -1.481E+01   -1.477E+01   -1.473E+01   -1.468E+01   -1.463E+01
    -1.458E+01   -1.453E+01   -1.448E+01   -1.442E+01   -1.437E+01   -1.431E+01   -1.424E+01   -1.418E+01   -1.412E+01   -1.405E+01
    -1.398E+01   -1.391E+01   -1.384E+01   -1.376E+01   -1.369E+01   -1.361E+01   -1.353E+01   -1.345E+01   -1.337E+01   -1.329E+01
    -1.321E+01   -1.312E+01   -1.304E+01   -1.295E+01   -1.286E+01   -1.277E+01   -1.268E+01   -1.259E+01   -1.250E+01   -1.241E+01
    -1.232E+01   -1.223E+01   -1.213E+01   -1.204E+01   -1.195E+01   -1.185E+01   -1.176E+01   -1.166E+01   -1.156E+01   -1.147E+01
    -1.137E+01   -1.128E+01   -1.118E+01   -1.109E+01   -1.099E+01   -1.090E+01   -1.080E+01   -1.071E+01   -1.061E+01   -1.052E+01
    -1.042E+01   -1.033E+01   -1.024E+01   -1.014E+01   -1.005E+01   -9.963E+00   -9.873E+00   -9.784E+00   -9.696E+00   -9.609E+00
    -9.522E+00   -9.437E+00   -9.353E+00   -9.270E+00   -9.189E+00   -9.108E+00   -9.029E+00   -8.951E+00   -8.875E+00   -8.800E+00
    -8.727E+00   -8.656E+00   -8.586E+00   -8.517E+00   -8.451E+00   -8.386E+00   -8.324E+00   -8.263E+00   -8.204E+00   -8.147E+00
    -8.092E+00   -8.040E+00   -7.989E+00   -7.941E+00   -7.895E+00   -7.852E+00   -7.811E+00   -7.772E+00
 Ala      Conc. = 6.70E+02
