 LCModel (Version 6.3-1L) Copyright: S.W. Provencher.          Ref.: Magn. Reson. Med. 30:672-679 (1993).                
 Slice#2 Row#12 Col#5  K_02_press_1_raw_act
 36 lines in following concentration table = NCONC+1
    Conc.  %SD /Cr+PCr  Metabolite                                         
    0.000 999%   0.000 Ala                                                 
    0.000 999%   0.000 Asp                                                 
 1.07E+03  29%   0.705 Cr                                                  
  447.577  71%   0.295 PCr                                                 
  149.949 146% 9.9E-02 GABA                                                
    0.000 999%   0.000 Glc                                                 
 1.24E+03  34%   0.820 Gln                                                 
 1.94E+03  25%   1.277 Glu                                                 
  707.359   4%   0.466 GPC                                                 
    0.000 999%   0.000 PCh                                                 
  876.679  11%   0.577 GSH                                                 
 3.80E+03  12%   2.506 Ins                                                 
  133.513 147% 8.8E-02 Lac                                                 
 2.59E+03   6%   1.703 NAA                                                 
  198.677  80%   0.131 NAAG                                                
  277.924  14%   0.183 Scyllo                                              
    0.000 999%   0.000 Tau                                                 
    0.000 999%   0.000 -CrCH2                                              
  707.359   4%   0.466 GPC+PCh                                             
 2.79E+03   3%   1.834 NAA+NAAG                                            
 1.52E+03   4%   1.000 Cr+PCr                                              
 3.18E+03  25%   2.097 Glu+Gln                                             
 2.28E+03  27%   1.500 Lip13a                                              
    0.000 999%   0.000 Lip13b                                              
  405.898  78%   0.267 Lip09                                               
 1.10E+03  25%   0.727 MM09                                                
  538.573  40%   0.355 Lip20                                               
 1.59E+03  31%   1.045 MM20                                                
  448.209  43%   0.295 MM12                                                
 1.31E+03  23%   0.863 MM14                                                
  634.609  35%   0.418 MM17                                                
 2.28E+03  27%   1.500 Lip13a+Lip13b                                       
 4.04E+03  17%   2.659 MM14+Lip13a+Lip13b+MM12                             
 1.51E+03  15%   0.994 MM09+Lip09                                          
 2.13E+03  22%   1.400 MM20+Lip20                                          
   6 lines in following misc. output table
  FWHM = 0.076 ppm    S/N =  12                                            
  Data shift = 0.015 ppm                                                   
  Ph: -57 deg     -15.1 deg/ppm                                            
  alphaB,S = 5.9E-01,   2.0E+02                                            
   14 spline knots.   Ns =10(1)                                            
  (17) 6 infls.   (13) 1 extrs.                                            
  498 points on ppm-axis = NY
      4.000000     3.992357     3.984714     3.977070     3.969427     3.961784     3.954141     3.946497     3.938854     3.931211
      3.923568     3.915925     3.908281     3.900638     3.892995     3.885352     3.877708     3.870065     3.862422     3.854779
      3.847136     3.839492     3.831849     3.824206     3.816563     3.808919     3.801276     3.793633     3.785990     3.778347
      3.770703     3.763060     3.755417     3.747774     3.740130     3.732487     3.724844     3.717201     3.709558     3.701914
      3.694271     3.686628     3.678985     3.671341     3.663698     3.656055     3.648412     3.640769     3.633125     3.625482
      3.617839     3.610196     3.602552     3.594909     3.587266     3.579623     3.571980     3.564336     3.556693     3.549050
      3.541407     3.533763     3.526120     3.518477     3.510834     3.503191     3.495547     3.487904     3.480261     3.472618
      3.464974     3.457331     3.449688     3.442045     3.434402     3.426758     3.419115     3.411472     3.403829     3.396185
      3.388542     3.380899     3.373256     3.365613     3.357969     3.350326     3.342683     3.335040     3.327396     3.319753
      3.312110     3.304467     3.296824     3.289180     3.281537     3.273894     3.266251     3.258607     3.250964     3.243321
      3.235678     3.228034     3.220391     3.212748     3.205105     3.197462     3.189818     3.182175     3.174532     3.166889
      3.159245     3.151602     3.143959     3.136316     3.128673     3.121029     3.113386     3.105743     3.098100     3.090456
      3.082813     3.075170     3.067527     3.059884     3.052240     3.044597     3.036954     3.029311     3.021667     3.014024
      3.006381     2.998738     2.991095     2.983451     2.975808     2.968165     2.960522     2.952878     2.945235     2.937592
      2.929949     2.922306     2.914662     2.907019     2.899376     2.891733     2.884089     2.876446     2.868803     2.861160
      2.853517     2.845873     2.838230     2.830587     2.822944     2.815300     2.807657     2.800014     2.792371     2.784728
      2.777084     2.769441     2.761798     2.754155     2.746511     2.738868     2.731225     2.723582     2.715939     2.708295
      2.700652     2.693009     2.685366     2.677722     2.670079     2.662436     2.654793     2.647150     2.639506     2.631863
      2.624220     2.616577     2.608933     2.601290     2.593647     2.586004     2.578361     2.570717     2.563074     2.555431
      2.547788     2.540144     2.532501     2.524858     2.517215     2.509572     2.501928     2.494285     2.486642     2.478999
      2.471355     2.463712     2.456069     2.448426     2.440783     2.433139     2.425496     2.417853     2.410210     2.402566
      2.394923     2.387280     2.379637     2.371994     2.364350     2.356707     2.349064     2.341421     2.333777     2.326134
      2.318491     2.310848     2.303205     2.295561     2.287918     2.280275     2.272632     2.264988     2.257345     2.249702
      2.242059     2.234416     2.226772     2.219129     2.211486     2.203843     2.196199     2.188556     2.180913     2.173270
      2.165627     2.157983     2.150340     2.142697     2.135054     2.127410     2.119767     2.112124     2.104481     2.096838
      2.089194     2.081551     2.073908     2.066265     2.058621     2.050978     2.043335     2.035692     2.028049     2.020405
      2.012762     2.005119     1.997476     1.989833     1.982190     1.974546     1.966903     1.959260     1.951617     1.943974
      1.936331     1.928688     1.921045     1.913402     1.905759     1.898115     1.890472     1.882829     1.875186     1.867543
      1.859900     1.852257     1.844614     1.836971     1.829327     1.821684     1.814041     1.806398     1.798755     1.791112
      1.783469     1.775826     1.768183     1.760540     1.752896     1.745253     1.737610     1.729967     1.722324     1.714681
      1.707038     1.699395     1.691752     1.684108     1.676465     1.668822     1.661179     1.653536     1.645893     1.638250
      1.630607     1.622964     1.615321     1.607677     1.600034     1.592391     1.584748     1.577105     1.569462     1.561819
      1.554176     1.546533     1.538890     1.531246     1.523603     1.515960     1.508317     1.500674     1.493031     1.485388
      1.477745     1.470102     1.462458     1.454815     1.447172     1.439529     1.431886     1.424243     1.416600     1.408957
      1.401314     1.393671     1.386027     1.378384     1.370741     1.363098     1.355455     1.347812     1.340169     1.332526
      1.324883     1.317240     1.309596     1.301953     1.294310     1.286667     1.279024     1.271381     1.263738     1.256095
      1.248452     1.240808     1.233165     1.225522     1.217879     1.210236     1.202593     1.194950     1.187307     1.179664
      1.172021     1.164377     1.156734     1.149091     1.141448     1.133805     1.126162     1.118519     1.110876     1.103233
      1.095590     1.087946     1.080303     1.072660     1.065017     1.057374     1.049731     1.042088     1.034445     1.026802
      1.019158     1.011515     1.003872     0.996229     0.988586     0.980943     0.973300     0.965657     0.958014     0.950371
      0.942727     0.935084     0.927441     0.919798     0.912155     0.904512     0.896869     0.889226     0.881583     0.873940
      0.866296     0.858653     0.851010     0.843367     0.835724     0.828081     0.820438     0.812795     0.805152     0.797508
      0.789865     0.782222     0.774579     0.766936     0.759293     0.751650     0.744007     0.736364     0.728721     0.721077
      0.713434     0.705791     0.698148     0.690505     0.682862     0.675219     0.667576     0.659933     0.652290     0.644646
      0.637003     0.629360     0.621717     0.614074     0.606431     0.598788     0.591145     0.583502     0.575858     0.568215
      0.560572     0.552929     0.545286     0.537643     0.530000     0.522357     0.514714     0.507071     0.499427     0.491784
      0.484141     0.476498     0.468855     0.461212     0.453569     0.445925     0.438282     0.430639     0.422996     0.415353
      0.407710     0.400067     0.392424     0.384780     0.377137     0.369494     0.361851     0.354208     0.346565     0.338922
      0.331278     0.323635     0.315992     0.308349     0.300706     0.293063     0.285420     0.277777     0.270133     0.262490
      0.254847     0.247204     0.239561     0.231918     0.224275     0.216631     0.208988     0.201345
 NY phased data points follow
  -2.80543E+02 -2.75766E+02 -2.72174E+02 -2.63339E+02 -2.60828E+02 -2.50847E+02 -2.47028E+02 -2.41526E+02 -2.35632E+02 -2.31059E+02
  -2.25574E+02 -2.24157E+02 -2.19883E+02 -2.24258E+02 -2.21180E+02 -2.25383E+02 -2.27147E+02 -2.28555E+02 -2.29967E+02 -2.25325E+02
  -2.25684E+02 -2.21139E+02 -2.19917E+02 -2.20775E+02 -2.15592E+02 -2.12940E+02 -2.07456E+02 -2.04949E+02 -2.01622E+02 -1.95650E+02
  -1.92859E+02 -1.91544E+02 -1.87539E+02 -1.87827E+02 -1.86323E+02 -1.84876E+02 -1.80911E+02 -1.82036E+02 -1.80099E+02 -1.74939E+02
  -1.70958E+02 -1.69602E+02 -1.69141E+02 -1.64646E+02 -1.64659E+02 -1.61639E+02 -1.55956E+02 -1.56986E+02 -1.59510E+02 -1.53392E+02
  -1.51453E+02 -1.53586E+02 -1.55035E+02 -1.50537E+02 -1.55106E+02 -1.52358E+02 -1.50074E+02 -1.49426E+02 -1.50584E+02 -1.48533E+02
  -1.47315E+02 -1.50376E+02 -1.48319E+02 -1.42996E+02 -1.46886E+02 -1.42819E+02 -1.44390E+02 -1.45189E+02 -1.40166E+02 -1.39816E+02
  -1.41090E+02 -1.39771E+02 -1.35528E+02 -1.37219E+02 -1.34278E+02 -1.32478E+02 -1.32465E+02 -1.26804E+02 -1.25303E+02 -1.26271E+02
  -1.26140E+02 -1.24459E+02 -1.22274E+02 -1.21848E+02 -1.20019E+02 -1.20451E+02 -1.19326E+02 -1.16044E+02 -1.14105E+02 -1.17260E+02
  -1.07955E+02 -1.08576E+02 -1.03333E+02 -1.07653E+02 -9.99376E+01 -1.01042E+02 -9.61843E+01 -9.06191E+01 -8.88204E+01 -8.36158E+01
  -7.87185E+01 -7.05168E+01 -6.63852E+01 -6.24548E+01 -6.70424E+01 -7.05315E+01 -7.25040E+01 -7.27261E+01 -7.78993E+01 -8.13967E+01
  -8.26552E+01 -8.63348E+01 -8.75502E+01 -8.91964E+01 -8.81532E+01 -8.86945E+01 -8.89475E+01 -8.93777E+01 -8.63896E+01 -8.43476E+01
  -8.04470E+01 -7.70586E+01 -7.62990E+01 -7.23557E+01 -6.28533E+01 -5.87656E+01 -5.30119E+01 -4.75333E+01 -5.05874E+01 -5.22689E+01
  -5.43127E+01 -5.81850E+01 -6.10290E+01 -6.60202E+01 -7.15515E+01 -6.86410E+01 -7.20491E+01 -7.58877E+01 -7.81567E+01 -7.74242E+01
  -7.71650E+01 -7.82775E+01 -7.67850E+01 -7.78586E+01 -7.37682E+01 -7.24588E+01 -7.42880E+01 -7.34106E+01 -7.32807E+01 -7.55049E+01
  -7.03457E+01 -7.30660E+01 -7.21455E+01 -7.20276E+01 -6.84898E+01 -6.78445E+01 -6.71743E+01 -6.80933E+01 -6.68857E+01 -6.78053E+01
  -6.76440E+01 -6.53444E+01 -6.23475E+01 -6.79346E+01 -7.06596E+01 -6.73025E+01 -6.66701E+01 -6.89962E+01 -6.81754E+01 -6.64904E+01
  -6.96998E+01 -6.93944E+01 -7.07549E+01 -7.38114E+01 -7.15076E+01 -7.49602E+01 -7.33827E+01 -7.26921E+01 -7.06296E+01 -6.85770E+01
  -7.06658E+01 -6.67942E+01 -7.11789E+01 -6.88874E+01 -6.39805E+01 -6.70552E+01 -6.57364E+01 -6.35516E+01 -6.18360E+01 -5.85913E+01
  -5.75830E+01 -5.65491E+01 -5.08246E+01 -5.36085E+01 -5.27149E+01 -5.32308E+01 -4.97195E+01 -5.11686E+01 -5.08597E+01 -5.11176E+01
  -5.02651E+01 -4.87186E+01 -4.97014E+01 -4.49371E+01 -4.99526E+01 -4.80166E+01 -4.77415E+01 -4.82495E+01 -4.95750E+01 -4.39719E+01
  -4.33859E+01 -4.67967E+01 -4.16044E+01 -4.38071E+01 -4.34882E+01 -4.03173E+01 -3.76944E+01 -3.79658E+01 -3.63537E+01 -3.84620E+01
  -3.83507E+01 -4.06552E+01 -4.16880E+01 -4.17973E+01 -3.89783E+01 -3.63452E+01 -3.39243E+01 -3.52630E+01 -3.58070E+01 -3.62076E+01
  -2.93315E+01 -3.33198E+01 -3.21845E+01 -2.95752E+01 -3.01309E+01 -3.11253E+01 -3.20177E+01 -2.98179E+01 -2.76201E+01 -3.08004E+01
  -3.19303E+01 -3.20133E+01 -3.43270E+01 -3.17900E+01 -2.87856E+01 -2.64547E+01 -2.70371E+01 -2.32494E+01 -2.15356E+01 -1.79779E+01
  -1.48281E+01 -1.37054E+01 -1.22175E+01 -4.43222E+00  3.61979E+00  1.50450E+01  1.76692E+01  2.25799E+01  3.05179E+01  3.93522E+01
   4.09177E+01  3.48056E+01  3.63231E+01  2.51510E+01  1.74211E+01  1.43303E+01  3.35729E+00  1.70047E-01 -4.57647E+00 -1.23430E+01
  -1.53238E+01 -1.91229E+01 -1.95220E+01 -2.05730E+01 -2.36618E+01 -2.40794E+01 -2.13399E+01 -1.85943E+01 -1.97984E+01 -2.03680E+01
  -2.37420E+01 -2.01622E+01 -1.82294E+01 -2.35769E+01 -2.53139E+01 -2.34521E+01 -2.51573E+01 -2.43191E+01 -2.43690E+01 -2.41047E+01
  -2.19120E+01 -1.82819E+01 -2.24997E+01 -1.99255E+01 -2.00897E+01 -2.21663E+01 -2.01813E+01 -2.18480E+01 -2.14120E+01 -2.00808E+01
  -1.95150E+01 -1.59871E+01 -1.80940E+01 -2.14371E+01 -2.06506E+01 -1.82476E+01 -1.51324E+01 -1.54928E+01 -1.17426E+01 -1.21489E+01
  -1.16853E+01 -1.15853E+01 -1.01405E+01 -8.72786E+00 -1.29480E+01 -1.12915E+01 -1.53364E+01 -1.57155E+01 -1.14419E+01 -1.26780E+01
  -1.43702E+01 -1.26255E+01 -1.28031E+01 -1.00127E+01 -9.84196E+00 -1.11257E+01 -9.77665E+00 -8.82311E+00 -9.59393E+00 -7.06041E+00
  -8.93878E+00 -4.32436E+00 -6.14760E+00 -2.64402E+00 -5.25032E+00 -2.47563E+00 -6.38660E+00 -2.83189E+00 -1.81579E+00 -4.47094E+00
  -3.69755E+00 -4.22813E+00 -4.96654E+00 -4.64695E+00 -2.73380E+00 -5.17630E+00 -6.92788E+00 -4.52218E+00 -5.68304E+00 -4.61194E+00
  -5.33821E+00 -1.82071E+00 -2.83782E+00 -1.70362E+00 -1.23592E+00 -1.73608E+00 -2.91246E+00 -1.92124E+00 -1.84650E+00 -1.91913E+00
  -7.98312E-01  1.05766E-01  1.19521E+00 -3.18497E+00 -3.47773E+00 -2.23911E+00 -1.48023E+00 -7.99526E-01 -3.28955E+00 -1.97940E+00
  -6.38163E+00 -3.01066E+00 -2.32124E+00  5.88308E-01 -2.59704E+00  1.38658E+00 -2.41738E+00 -2.56282E+00 -4.81737E+00 -2.98391E+00
  -3.14346E+00 -4.66058E+00 -6.05215E+00 -7.48268E+00 -8.09033E+00 -6.87945E+00 -5.77789E-01 -7.38519E+00 -5.91295E+00 -4.69636E+00
  -5.13065E+00 -4.90229E+00 -1.94634E+00 -3.30958E+00 -2.94614E+00 -4.41473E+00 -2.05933E+00  1.05695E+00  2.88018E+00  2.35290E+00
   5.66051E+00  4.77047E+00  4.92353E+00  4.90995E+00  4.98268E+00  5.43342E+00  2.25361E+00  5.35811E+00  4.84691E+00  2.42780E+00
  -1.51479E+00  9.11484E-01  1.13882E+00  1.12567E+00 -3.73365E-01  3.83498E-01 -1.15834E-01 -3.15249E+00 -3.35325E+00 -1.58324E+00
  -3.92033E+00 -1.53747E+00 -4.42944E+00 -3.85694E+00 -5.95121E+00 -5.11268E+00 -4.60529E+00 -3.02629E+00 -4.20430E+00 -7.72907E+00
  -4.39434E+00 -6.97559E+00 -4.35501E+00 -1.01396E+00 -7.04953E+00 -6.68043E+00 -8.42538E+00 -5.52307E+00 -3.40641E+00 -3.94251E+00
  -5.64103E+00 -6.80147E+00 -3.07931E+00 -7.55348E+00 -5.01724E+00 -5.58546E+00 -6.38972E+00 -2.38927E+00 -4.12241E+00 -7.66713E+00
  -8.64124E+00 -6.10179E+00 -4.76140E+00 -5.49821E+00 -3.22909E+00 -5.72959E+00 -5.44593E+00 -3.70629E+00 -5.16812E+00 -1.38434E+00
  -1.86092E+00  4.32523E-01 -5.59900E-01 -3.48098E+00 -4.74300E+00 -2.51823E+00 -3.36065E+00 -5.43862E+00 -4.29783E+00 -2.19721E+00
  -2.37940E+00 -7.17980E+00 -4.69535E+00 -3.08601E+00 -4.94670E+00 -3.09490E+00 -4.58732E+00 -5.14773E+00 -5.36479E+00 -1.95093E+00
  -3.09812E+00 -3.95348E+00 -5.16303E+00 -2.98267E+00 -3.19635E+00 -3.14971E-01 -1.94169E+00 -2.89789E+00 -5.62790E+00 -2.96673E+00
  -5.37945E+00 -2.05628E+00 -3.77505E+00 -1.05869E+00 -1.62864E+00 -2.38770E+00 -1.76592E+00  1.35690E+00
 NY points of the fit to the data follow
  -2.71383E+02 -2.68849E+02 -2.65764E+02 -2.62115E+02 -2.57901E+02 -2.53414E+02 -2.48681E+02 -2.43605E+02 -2.38295E+02 -2.33203E+02
  -2.29035E+02 -2.26273E+02 -2.24827E+02 -2.24208E+02 -2.23980E+02 -2.23995E+02 -2.24190E+02 -2.24335E+02 -2.24323E+02 -2.24221E+02
  -2.23914E+02 -2.22931E+02 -2.21308E+02 -2.18900E+02 -2.15836E+02 -2.12401E+02 -2.08821E+02 -2.05040E+02 -2.00832E+02 -1.96278E+02
  -1.91985E+02 -1.88626E+02 -1.86430E+02 -1.85169E+02 -1.84562E+02 -1.84237E+02 -1.83659E+02 -1.82603E+02 -1.81020E+02 -1.78829E+02
  -1.76278E+02 -1.73810E+02 -1.71251E+02 -1.67949E+02 -1.64191E+02 -1.60839E+02 -1.58680E+02 -1.57827E+02 -1.57728E+02 -1.57860E+02
  -1.57963E+02 -1.57974E+02 -1.57799E+02 -1.57246E+02 -1.56290E+02 -1.55129E+02 -1.54003E+02 -1.52854E+02 -1.51365E+02 -1.49734E+02
  -1.48338E+02 -1.47244E+02 -1.46283E+02 -1.45286E+02 -1.44139E+02 -1.42808E+02 -1.41318E+02 -1.39705E+02 -1.38101E+02 -1.36593E+02
  -1.35173E+02 -1.33893E+02 -1.32721E+02 -1.31628E+02 -1.30616E+02 -1.29774E+02 -1.29146E+02 -1.28455E+02 -1.27459E+02 -1.26435E+02
  -1.25384E+02 -1.24262E+02 -1.23069E+02 -1.21830E+02 -1.20441E+02 -1.18697E+02 -1.16769E+02 -1.15054E+02 -1.13829E+02 -1.13056E+02
  -1.12503E+02 -1.11900E+02 -1.10620E+02 -1.07950E+02 -1.04679E+02 -1.01032E+02 -9.68045E+01 -9.23220E+01 -8.78805E+01 -8.28751E+01
  -7.67627E+01 -7.04822E+01 -6.57059E+01 -6.37106E+01 -6.44665E+01 -6.69948E+01 -7.03224E+01 -7.39769E+01 -7.78480E+01 -8.15042E+01
  -8.45031E+01 -8.69716E+01 -8.94162E+01 -9.20677E+01 -9.41497E+01 -9.46114E+01 -9.37631E+01 -9.13726E+01 -8.81881E+01 -8.46964E+01
  -8.07368E+01 -7.64382E+01 -7.20903E+01 -6.74908E+01 -6.22336E+01 -5.67447E+01 -5.23769E+01 -5.02801E+01 -5.05580E+01 -5.24776E+01
  -5.51582E+01 -5.81480E+01 -6.13362E+01 -6.44625E+01 -6.72292E+01 -6.96731E+01 -7.20740E+01 -7.45323E+01 -7.64604E+01 -7.68784E+01
  -7.63358E+01 -7.55364E+01 -7.47346E+01 -7.40712E+01 -7.36017E+01 -7.32790E+01 -7.29699E+01 -7.26146E+01 -7.22847E+01 -7.20077E+01
  -7.18107E+01 -7.17562E+01 -7.17755E+01 -7.17920E+01 -7.17299E+01 -7.15193E+01 -7.12382E+01 -7.09610E+01 -7.07319E+01 -7.05751E+01
  -7.04536E+01 -7.02704E+01 -6.99748E+01 -6.96355E+01 -6.93596E+01 -6.92150E+01 -6.92130E+01 -6.92841E+01 -6.93349E+01 -6.93581E+01
  -6.93466E+01 -6.92910E+01 -6.91922E+01 -6.91294E+01 -6.91083E+01 -6.90356E+01 -6.88378E+01 -6.85109E+01 -6.81353E+01 -6.77646E+01
  -6.73502E+01 -6.67606E+01 -6.59516E+01 -6.50250E+01 -6.40772E+01 -6.30619E+01 -6.18889E+01 -6.05468E+01 -5.92547E+01 -5.81044E+01
  -5.69800E+01 -5.59268E+01 -5.50667E+01 -5.44369E+01 -5.38829E+01 -5.33161E+01 -5.26911E+01 -5.19096E+01 -5.09620E+01 -4.99549E+01
  -4.90308E+01 -4.82079E+01 -4.76213E+01 -4.73625E+01 -4.73349E+01 -4.75043E+01 -4.78181E+01 -4.80668E+01 -4.80954E+01 -4.76521E+01
  -4.68051E+01 -4.57570E+01 -4.45960E+01 -4.33572E+01 -4.20571E+01 -4.08743E+01 -4.01364E+01 -3.99559E+01 -4.00985E+01 -4.03619E+01
  -4.07176E+01 -4.11091E+01 -4.13119E+01 -4.09040E+01 -3.99065E+01 -3.87873E+01 -3.77789E+01 -3.67909E+01 -3.56874E+01 -3.45078E+01
  -3.35072E+01 -3.26230E+01 -3.17711E+01 -3.09423E+01 -3.02158E+01 -2.96592E+01 -2.91531E+01 -2.86666E+01 -2.84172E+01 -2.85378E+01
  -2.89245E+01 -2.93693E+01 -2.96527E+01 -2.96059E+01 -2.91730E+01 -2.83227E+01 -2.70441E+01 -2.56106E+01 -2.41948E+01 -2.24515E+01
  -1.89600E+01 -1.36407E+01 -7.85289E+00 -1.49171E+00  5.38032E+00  1.20059E+01  1.81070E+01  2.43944E+01  3.10751E+01  3.66986E+01
   3.91719E+01  3.76513E+01  3.30542E+01  2.69060E+01  2.01705E+01  1.30798E+01  5.96821E+00 -3.26897E-01 -5.36034E+00 -9.71625E+00
  -1.41830E+01 -1.86139E+01 -2.13733E+01 -2.21848E+01 -2.24468E+01 -2.25777E+01 -2.26472E+01 -2.26828E+01 -2.27344E+01 -2.27906E+01
  -2.28324E+01 -2.28525E+01 -2.28447E+01 -2.28059E+01 -2.27494E+01 -2.26807E+01 -2.25852E+01 -2.24560E+01 -2.22968E+01 -2.21110E+01
  -2.18987E+01 -2.16593E+01 -2.13942E+01 -2.11102E+01 -2.08058E+01 -2.04773E+01 -2.01252E+01 -1.97496E+01 -1.93481E+01 -1.89214E+01
  -1.84738E+01 -1.80106E+01 -1.75381E+01 -1.70636E+01 -1.65927E+01 -1.61316E+01 -1.56877E+01 -1.52660E+01 -1.48700E+01 -1.45020E+01
  -1.41632E+01 -1.38538E+01 -1.35710E+01 -1.33101E+01 -1.30657E+01 -1.28311E+01 -1.25990E+01 -1.23620E+01 -1.21134E+01 -1.18472E+01
  -1.15586E+01 -1.12444E+01 -1.09028E+01 -1.05339E+01 -1.01394E+01 -9.72254E+00 -9.28813E+00 -8.84187E+00 -8.39007E+00 -7.93917E+00
  -7.49538E+00 -7.06430E+00 -6.65044E+00 -6.25678E+00 -5.88405E+00 -5.52949E+00 -5.18280E+00 -4.82689E+00 -4.49629E+00 -4.21768E+00
  -3.97517E+00 -3.77020E+00 -3.61262E+00 -3.49623E+00 -3.40573E+00 -3.31601E+00 -3.26402E+00 -3.27895E+00 -3.31603E+00 -3.31468E+00
  -3.25157E+00 -3.12206E+00 -2.91034E+00 -2.60170E+00 -2.22367E+00 -1.85425E+00 -1.56480E+00 -1.37134E+00 -1.23953E+00 -1.13131E+00
  -1.08129E+00 -1.11776E+00 -1.21370E+00 -1.34901E+00 -1.52697E+00 -1.76412E+00 -2.05725E+00 -2.35289E+00 -2.63605E+00 -2.91808E+00
  -3.20049E+00 -3.48079E+00 -3.75515E+00 -4.01925E+00 -4.26863E+00 -4.49892E+00 -4.70593E+00 -4.88573E+00 -5.03462E+00 -5.14911E+00
  -5.22589E+00 -5.26185E+00 -5.25402E+00 -5.19960E+00 -5.09596E+00 -4.94065E+00 -4.73161E+00 -4.46725E+00 -4.14672E+00 -3.77006E+00
  -3.33850E+00 -2.85472E+00 -2.32310E+00 -1.74994E+00 -1.14360E+00 -5.14462E-01  1.25139E-01  7.61175E-01  1.37831E+00  1.96042E+00
   2.49129E+00  2.95534E+00  3.33842E+00  3.62851E+00  3.81639E+00  3.89616E+00  3.86560E+00  3.72632E+00  3.48357E+00  3.14593E+00
   2.72486E+00  2.23404E+00  1.68867E+00  1.10466E+00  4.97878E-01 -1.16579E-01 -7.24945E-01 -1.31522E+00 -1.87745E+00 -2.40386E+00
  -2.88886E+00 -3.32896E+00 -3.72251E+00 -4.06945E+00 -4.37102E+00 -4.62942E+00 -4.84756E+00 -5.02881E+00 -5.17675E+00 -5.29497E+00
  -5.38696E+00 -5.45601E+00 -5.50516E+00 -5.53719E+00 -5.55453E+00 -5.55934E+00 -5.55346E+00 -5.53851E+00 -5.51587E+00 -5.48674E+00
  -5.45213E+00 -5.41288E+00 -5.36972E+00 -5.32327E+00 -5.27410E+00 -5.22266E+00 -5.16937E+00 -5.11455E+00 -5.05850E+00 -5.00151E+00
  -4.94384E+00 -4.88568E+00 -4.82723E+00 -4.76863E+00 -4.70995E+00 -4.65125E+00 -4.59258E+00 -4.53397E+00 -4.47543E+00 -4.41697E+00
  -4.35860E+00 -4.30034E+00 -4.24219E+00 -4.18413E+00 -4.12613E+00 -4.06820E+00 -4.01031E+00 -3.95246E+00 -3.89461E+00 -3.83674E+00
  -3.77880E+00 -3.72078E+00 -3.66264E+00 -3.60436E+00 -3.54590E+00 -3.48720E+00 -3.42823E+00 -3.36896E+00 -3.30936E+00 -3.24938E+00
  -3.18896E+00 -3.12807E+00 -3.06664E+00 -3.00466E+00 -2.94206E+00 -2.87880E+00 -2.81481E+00 -2.75004E+00 -2.68443E+00 -2.61794E+00
  -2.55050E+00 -2.48205E+00 -2.41250E+00 -2.34178E+00 -2.26983E+00 -2.19656E+00 -2.12188E+00 -2.04568E+00
 NY background values follow
    -2.804E+02   -2.781E+02   -2.758E+02   -2.735E+02   -2.712E+02   -2.689E+02   -2.666E+02   -2.643E+02   -2.620E+02   -2.597E+02
    -2.574E+02   -2.551E+02   -2.529E+02   -2.506E+02   -2.483E+02   -2.461E+02   -2.438E+02   -2.416E+02   -2.394E+02   -2.371E+02
    -2.349E+02   -2.327E+02   -2.305E+02   -2.284E+02   -2.262E+02   -2.240E+02   -2.219E+02   -2.198E+02   -2.176E+02   -2.155E+02
    -2.135E+02   -2.114E+02   -2.093E+02   -2.073E+02   -2.052E+02   -2.032E+02   -2.012E+02   -1.993E+02   -1.973E+02   -1.954E+02
    -1.934E+02   -1.915E+02   -1.897E+02   -1.878E+02   -1.860E+02   -1.841E+02   -1.823E+02   -1.806E+02   -1.788E+02   -1.771E+02
    -1.754E+02   -1.737E+02   -1.720E+02   -1.703E+02   -1.687E+02   -1.671E+02   -1.655E+02   -1.639E+02   -1.624E+02   -1.608E+02
    -1.593E+02   -1.578E+02   -1.563E+02   -1.549E+02   -1.534E+02   -1.520E+02   -1.506E+02   -1.492E+02   -1.478E+02   -1.464E+02
    -1.451E+02   -1.437E+02   -1.424E+02   -1.411E+02   -1.398E+02   -1.386E+02   -1.373E+02   -1.361E+02   -1.348E+02   -1.336E+02
    -1.324E+02   -1.312E+02   -1.300E+02   -1.289E+02   -1.277E+02   -1.266E+02   -1.255E+02   -1.243E+02   -1.232E+02   -1.221E+02
    -1.211E+02   -1.200E+02   -1.189E+02   -1.179E+02   -1.168E+02   -1.158E+02   -1.148E+02   -1.138E+02   -1.128E+02   -1.118E+02
    -1.108E+02   -1.098E+02   -1.089E+02   -1.079E+02   -1.070E+02   -1.061E+02   -1.052E+02   -1.043E+02   -1.034E+02   -1.025E+02
    -1.016E+02   -1.007E+02   -9.990E+01   -9.906E+01   -9.823E+01   -9.741E+01   -9.661E+01   -9.581E+01   -9.503E+01   -9.425E+01
    -9.349E+01   -9.274E+01   -9.200E+01   -9.126E+01   -9.054E+01   -8.984E+01   -8.914E+01   -8.845E+01   -8.778E+01   -8.711E+01
    -8.646E+01   -8.581E+01   -8.518E+01   -8.456E+01   -8.395E+01   -8.335E+01   -8.276E+01   -8.218E+01   -8.162E+01   -8.106E+01
    -8.051E+01   -7.997E+01   -7.945E+01   -7.893E+01   -7.841E+01   -7.791E+01   -7.741E+01   -7.693E+01   -7.644E+01   -7.597E+01
    -7.550E+01   -7.504E+01   -7.458E+01   -7.412E+01   -7.368E+01   -7.323E+01   -7.279E+01   -7.236E+01   -7.192E+01   -7.149E+01
    -7.106E+01   -7.064E+01   -7.022E+01   -6.979E+01   -6.937E+01   -6.895E+01   -6.853E+01   -6.811E+01   -6.769E+01   -6.727E+01
    -6.685E+01   -6.642E+01   -6.600E+01   -6.557E+01   -6.514E+01   -6.471E+01   -6.427E+01   -6.383E+01   -6.339E+01   -6.294E+01
    -6.249E+01   -6.203E+01   -6.156E+01   -6.110E+01   -6.062E+01   -6.015E+01   -5.966E+01   -5.918E+01   -5.869E+01   -5.820E+01
    -5.770E+01   -5.721E+01   -5.671E+01   -5.621E+01   -5.570E+01   -5.520E+01   -5.469E+01   -5.418E+01   -5.368E+01   -5.317E+01
    -5.266E+01   -5.215E+01   -5.165E+01   -5.114E+01   -5.064E+01   -5.013E+01   -4.963E+01   -4.913E+01   -4.864E+01   -4.814E+01
    -4.765E+01   -4.716E+01   -4.668E+01   -4.620E+01   -4.572E+01   -4.525E+01   -4.478E+01   -4.432E+01   -4.386E+01   -4.341E+01
    -4.297E+01   -4.253E+01   -4.210E+01   -4.167E+01   -4.125E+01   -4.084E+01   -4.044E+01   -4.004E+01   -3.965E+01   -3.927E+01
    -3.890E+01   -3.854E+01   -3.818E+01   -3.783E+01   -3.748E+01   -3.715E+01   -3.681E+01   -3.649E+01   -3.617E+01   -3.586E+01
    -3.555E+01   -3.525E+01   -3.496E+01   -3.467E+01   -3.439E+01   -3.411E+01   -3.384E+01   -3.357E+01   -3.331E+01   -3.305E+01
    -3.280E+01   -3.255E+01   -3.230E+01   -3.206E+01   -3.182E+01   -3.159E+01   -3.136E+01   -3.113E+01   -3.091E+01   -3.069E+01
    -3.047E+01   -3.026E+01   -3.005E+01   -2.984E+01   -2.963E+01   -2.943E+01   -2.923E+01   -2.903E+01   -2.883E+01   -2.864E+01
    -2.844E+01   -2.825E+01   -2.806E+01   -2.787E+01   -2.768E+01   -2.749E+01   -2.730E+01   -2.712E+01   -2.693E+01   -2.675E+01
    -2.656E+01   -2.638E+01   -2.620E+01   -2.602E+01   -2.584E+01   -2.566E+01   -2.548E+01   -2.530E+01   -2.513E+01   -2.495E+01
    -2.477E+01   -2.460E+01   -2.442E+01   -2.425E+01   -2.407E+01   -2.390E+01   -2.373E+01   -2.355E+01   -2.338E+01   -2.321E+01
    -2.303E+01   -2.286E+01   -2.269E+01   -2.252E+01   -2.234E+01   -2.217E+01   -2.200E+01   -2.182E+01   -2.165E+01   -2.148E+01
    -2.130E+01   -2.113E+01   -2.096E+01   -2.078E+01   -2.061E+01   -2.043E+01   -2.025E+01   -2.008E+01   -1.990E+01   -1.972E+01
    -1.955E+01   -1.937E+01   -1.919E+01   -1.901E+01   -1.883E+01   -1.865E+01   -1.848E+01   -1.830E+01   -1.812E+01   -1.794E+01
    -1.776E+01   -1.759E+01   -1.741E+01   -1.724E+01   -1.706E+01   -1.689E+01   -1.671E+01   -1.654E+01   -1.637E+01   -1.620E+01
    -1.603E+01   -1.586E+01   -1.569E+01   -1.553E+01   -1.537E+01   -1.520E+01   -1.504E+01   -1.488E+01   -1.473E+01   -1.457E+01
    -1.442E+01   -1.426E+01   -1.411E+01   -1.397E+01   -1.382E+01   -1.368E+01   -1.354E+01   -1.340E+01   -1.326E+01   -1.313E+01
    -1.300E+01   -1.287E+01   -1.274E+01   -1.262E+01   -1.250E+01   -1.238E+01   -1.227E+01   -1.215E+01   -1.204E+01   -1.193E+01
    -1.183E+01   -1.172E+01   -1.162E+01   -1.152E+01   -1.142E+01   -1.133E+01   -1.123E+01   -1.114E+01   -1.105E+01   -1.096E+01
    -1.087E+01   -1.078E+01   -1.070E+01   -1.061E+01   -1.053E+01   -1.044E+01   -1.036E+01   -1.028E+01   -1.020E+01   -1.012E+01
    -1.004E+01   -9.961E+00   -9.882E+00   -9.804E+00   -9.726E+00   -9.647E+00   -9.569E+00   -9.491E+00   -9.413E+00   -9.335E+00
    -9.257E+00   -9.178E+00   -9.098E+00   -9.019E+00   -8.938E+00   -8.857E+00   -8.775E+00   -8.693E+00   -8.609E+00   -8.525E+00
    -8.440E+00   -8.354E+00   -8.268E+00   -8.181E+00   -8.093E+00   -8.005E+00   -7.916E+00   -7.827E+00   -7.737E+00   -7.647E+00
    -7.557E+00   -7.466E+00   -7.375E+00   -7.284E+00   -7.193E+00   -7.102E+00   -7.011E+00   -6.919E+00   -6.828E+00   -6.737E+00
    -6.646E+00   -6.555E+00   -6.464E+00   -6.374E+00   -6.284E+00   -6.194E+00   -6.104E+00   -6.015E+00   -5.927E+00   -5.839E+00
    -5.752E+00   -5.665E+00   -5.579E+00   -5.493E+00   -5.409E+00   -5.325E+00   -5.242E+00   -5.160E+00   -5.078E+00   -4.998E+00
    -4.919E+00   -4.841E+00   -4.764E+00   -4.688E+00   -4.613E+00   -4.539E+00   -4.466E+00   -4.394E+00   -4.323E+00   -4.253E+00
    -4.184E+00   -4.115E+00   -4.047E+00   -3.980E+00   -3.913E+00   -3.847E+00   -3.782E+00   -3.717E+00   -3.652E+00   -3.588E+00
    -3.523E+00   -3.460E+00   -3.396E+00   -3.333E+00   -3.269E+00   -3.206E+00   -3.143E+00   -3.080E+00   -3.017E+00   -2.953E+00
    -2.890E+00   -2.826E+00   -2.762E+00   -2.697E+00   -2.633E+00   -2.568E+00   -2.502E+00   -2.436E+00   -2.369E+00   -2.302E+00
    -2.234E+00   -2.166E+00   -2.097E+00   -2.026E+00   -1.956E+00   -1.884E+00   -1.811E+00   -1.737E+00
 Cr       Conc. = 1.07E+03
