 LCModel (Version 6.3-1L) Copyright: S.W. Provencher.          Ref.: Magn. Reson. Med. 30:672-679 (1993).                
 Slice#2 Row#3 Col#1  K_02_press_1_raw_act
 36 lines in following concentration table = NCONC+1
    Conc.  %SD /Cr+PCr  Metabolite                                         
    0.000 999%   0.000 Ala                                                 
   13.190 141%   0.631 Asp                                                 
    0.000 999%   0.000 Cr                                                  
   20.899 212%   1.000 PCr                                                 
    9.846 114%   0.471 GABA                                                
   10.520 107%   0.503 Glc                                                 
 2.55E+03  16% 122.150 Gln                                                 
 1.29E+03  35%  61.661 Glu                                                 
   47.582  36%   2.277 GPC                                                 
    0.000 999%   0.000 PCh                                                 
    0.000 999%   0.000 GSH                                                 
  484.633  50%  23.190 Ins                                                 
  305.340  70%  14.611 Lac                                                 
  148.507  43%   7.106 NAA                                                 
    0.000 999%   0.000 NAAG                                                
    4.614  81%   0.221 Scyllo                                              
   20.105  92%   0.962 Tau                                                 
    0.000 999%   0.000 -CrCH2                                              
   47.582  36%   2.277 GPC+PCh                                             
  148.507  43%   7.106 NAA+NAAG                                            
   20.899 212%   1.000 Cr+PCr                                              
 3.84E+03  20% 183.811 Glu+Gln                                             
    0.000 999%   0.000 Lip13a                                              
  165.030  72%   7.897 Lip13b                                              
    0.000 999%   0.000 Lip09                                               
  697.584  23%  33.379 MM09                                                
   36.450 100%   1.744 Lip20                                               
 3.08E+03  10% 147.178+MM20                                                
  201.555  55%   9.644 MM12                                                
 1.88E+03  17%  89.761 MM14                                                
 1.51E+03  16%  72.214+MM17                                                
  165.030  72%   7.897 Lip13a+Lip13b                                       
 2.24E+03  16% 107.302 MM14+Lip13a+Lip13b+MM12                             
  697.584  23%  33.379 MM09+Lip09                                          
 3.11E+03  10% 148.922 MM20+Lip20                                          
   6 lines in following misc. output table
  FWHM = 0.115 ppm    S/N =   3                                            
  Data shift = 0.031 ppm                                                   
  Ph: 128 deg     -24.3 deg/ppm                                            
  alphaB,S = 3.8E-01,   1.3E+01                                            
   14 spline knots.   Ns = 8(1)                                            
  (14) 9 infls.   (13) 7 extrs.                                            
  498 points on ppm-axis = NY
      4.000000     3.992357     3.984714     3.977070     3.969427     3.961784     3.954141     3.946497     3.938854     3.931211
      3.923568     3.915925     3.908281     3.900638     3.892995     3.885352     3.877708     3.870065     3.862422     3.854779
      3.847136     3.839492     3.831849     3.824206     3.816563     3.808919     3.801276     3.793633     3.785990     3.778347
      3.770703     3.763060     3.755417     3.747774     3.740130     3.732487     3.724844     3.717201     3.709558     3.701914
      3.694271     3.686628     3.678985     3.671341     3.663698     3.656055     3.648412     3.640769     3.633125     3.625482
      3.617839     3.610196     3.602552     3.594909     3.587266     3.579623     3.571980     3.564336     3.556693     3.549050
      3.541407     3.533763     3.526120     3.518477     3.510834     3.503191     3.495547     3.487904     3.480261     3.472618
      3.464974     3.457331     3.449688     3.442045     3.434402     3.426758     3.419115     3.411472     3.403829     3.396185
      3.388542     3.380899     3.373256     3.365613     3.357969     3.350326     3.342683     3.335040     3.327396     3.319753
      3.312110     3.304467     3.296824     3.289180     3.281537     3.273894     3.266251     3.258607     3.250964     3.243321
      3.235678     3.228034     3.220391     3.212748     3.205105     3.197462     3.189818     3.182175     3.174532     3.166889
      3.159245     3.151602     3.143959     3.136316     3.128673     3.121029     3.113386     3.105743     3.098100     3.090456
      3.082813     3.075170     3.067527     3.059884     3.052240     3.044597     3.036954     3.029311     3.021667     3.014024
      3.006381     2.998738     2.991095     2.983451     2.975808     2.968165     2.960522     2.952878     2.945235     2.937592
      2.929949     2.922306     2.914662     2.907019     2.899376     2.891733     2.884089     2.876446     2.868803     2.861160
      2.853517     2.845873     2.838230     2.830587     2.822944     2.815300     2.807657     2.800014     2.792371     2.784728
      2.777084     2.769441     2.761798     2.754155     2.746511     2.738868     2.731225     2.723582     2.715939     2.708295
      2.700652     2.693009     2.685366     2.677722     2.670079     2.662436     2.654793     2.647150     2.639506     2.631863
      2.624220     2.616577     2.608933     2.601290     2.593647     2.586004     2.578361     2.570717     2.563074     2.555431
      2.547788     2.540144     2.532501     2.524858     2.517215     2.509572     2.501928     2.494285     2.486642     2.478999
      2.471355     2.463712     2.456069     2.448426     2.440783     2.433139     2.425496     2.417853     2.410210     2.402566
      2.394923     2.387280     2.379637     2.371994     2.364350     2.356707     2.349064     2.341421     2.333777     2.326134
      2.318491     2.310848     2.303205     2.295561     2.287918     2.280275     2.272632     2.264988     2.257345     2.249702
      2.242059     2.234416     2.226772     2.219129     2.211486     2.203843     2.196199     2.188556     2.180913     2.173270
      2.165627     2.157983     2.150340     2.142697     2.135054     2.127410     2.119767     2.112124     2.104481     2.096838
      2.089194     2.081551     2.073908     2.066265     2.058621     2.050978     2.043335     2.035692     2.028049     2.020405
      2.012762     2.005119     1.997476     1.989833     1.982190     1.974546     1.966903     1.959260     1.951617     1.943974
      1.936331     1.928688     1.921045     1.913402     1.905759     1.898115     1.890472     1.882829     1.875186     1.867543
      1.859900     1.852257     1.844614     1.836971     1.829327     1.821684     1.814041     1.806398     1.798755     1.791112
      1.783469     1.775826     1.768183     1.760540     1.752896     1.745253     1.737610     1.729967     1.722324     1.714681
      1.707038     1.699395     1.691752     1.684108     1.676465     1.668822     1.661179     1.653536     1.645893     1.638250
      1.630607     1.622964     1.615321     1.607677     1.600034     1.592391     1.584748     1.577105     1.569462     1.561819
      1.554176     1.546533     1.538890     1.531246     1.523603     1.515960     1.508317     1.500674     1.493031     1.485388
      1.477745     1.470102     1.462458     1.454815     1.447172     1.439529     1.431886     1.424243     1.416600     1.408957
      1.401314     1.393671     1.386027     1.378384     1.370741     1.363098     1.355455     1.347812     1.340169     1.332526
      1.324883     1.317240     1.309596     1.301953     1.294310     1.286667     1.279024     1.271381     1.263738     1.256095
      1.248452     1.240808     1.233165     1.225522     1.217879     1.210236     1.202593     1.194950     1.187307     1.179664
      1.172021     1.164377     1.156734     1.149091     1.141448     1.133805     1.126162     1.118519     1.110876     1.103233
      1.095590     1.087946     1.080303     1.072660     1.065017     1.057374     1.049731     1.042088     1.034445     1.026802
      1.019158     1.011515     1.003872     0.996229     0.988586     0.980943     0.973300     0.965657     0.958014     0.950371
      0.942727     0.935084     0.927441     0.919798     0.912155     0.904512     0.896869     0.889226     0.881583     0.873940
      0.866296     0.858653     0.851010     0.843367     0.835724     0.828081     0.820438     0.812795     0.805152     0.797508
      0.789865     0.782222     0.774579     0.766936     0.759293     0.751650     0.744007     0.736364     0.728721     0.721077
      0.713434     0.705791     0.698148     0.690505     0.682862     0.675219     0.667576     0.659933     0.652290     0.644646
      0.637003     0.629360     0.621717     0.614074     0.606431     0.598788     0.591145     0.583502     0.575858     0.568215
      0.560572     0.552929     0.545286     0.537643     0.530000     0.522357     0.514714     0.507071     0.499427     0.491784
      0.484141     0.476498     0.468855     0.461212     0.453569     0.445925     0.438282     0.430639     0.422996     0.415353
      0.407710     0.400067     0.392424     0.384780     0.377137     0.369494     0.361851     0.354208     0.346565     0.338922
      0.331278     0.323635     0.315992     0.308349     0.300706     0.293063     0.285420     0.277777     0.270133     0.262490
      0.254847     0.247204     0.239561     0.231918     0.224275     0.216631     0.208988     0.201345
 NY phased data points follow
   4.81034E+00  6.58156E+00  7.08764E+00  5.97947E+00  9.57121E+00  9.27670E+00  7.52334E+00  1.19023E+01  1.01761E+01  1.01413E+01
   8.30343E+00  5.94935E+00  6.96640E+00  3.74617E+00  3.84072E+00  4.57014E+00  6.27997E+00  4.78164E+00  4.60500E+00  7.24377E+00
   4.91732E+00  4.19780E+00  6.58255E+00  6.25978E+00  4.89613E+00  5.14340E+00  6.09167E+00  3.55060E+00  7.77297E+00  4.97485E+00
   6.38942E+00  6.89653E+00  4.74867E+00  3.00059E+00  7.10974E+00  3.17424E+00  4.80305E+00  6.04147E+00  4.62246E+00  4.33501E+00
   3.28803E+00  3.99602E+00  3.17329E+00  6.15255E+00  5.07306E+00  5.08383E+00  4.90900E+00  5.40361E+00  4.98117E+00  4.45877E+00
   3.61954E+00  1.06525E+00  1.58900E+00  5.14587E+00  6.61743E+00  5.15471E+00  2.33873E+00  1.67339E+00  3.60933E+00  6.63816E+00
   4.49429E+00  4.18546E+00  3.15637E+00  9.52917E-01  5.80605E+00  2.84991E+00  2.93201E+00  1.36785E-01  2.15743E+00 -4.60509E-01
   5.99388E+00  3.86109E+00 -4.62307E-02  4.69675E+00  2.59700E+00  1.54346E+00  7.73759E-01  2.48937E+00  2.88547E+00  1.54790E+00
   2.68555E+00  1.63406E+00  2.13371E+00 -5.20257E-01  2.03372E+00  7.26158E-01  2.19526E+00  2.02743E+00  4.84866E+00 -8.87158E-01
   9.90590E-01 -1.60062E+00 -3.09300E-01  3.65210E+00 -1.39653E+00 -3.20987E+00 -2.83313E-01  1.55579E+00  2.13731E+00 -5.29944E-02
   3.14057E+00  2.66828E+00  1.37937E+00  3.49342E+00 -2.50503E+00  6.06035E-01 -4.73133E-01 -1.51949E+00 -2.26215E+00  2.41679E-03
  -6.79675E-01  2.44078E+00 -2.69758E+00 -2.57423E+00  9.02654E-01 -5.78410E-01 -4.37410E+00 -1.09868E+00 -1.18269E+00 -1.92847E+00
  -1.86218E+00 -2.34613E+00 -6.39077E-01 -2.89570E+00 -1.44087E+00  3.78507E-01 -6.78625E-01  1.44669E+00 -5.86770E-01 -1.98819E+00
  -2.76433E+00 -3.48890E+00 -3.77434E+00 -2.09559E+00 -4.09121E+00  2.07778E+00 -1.58582E+00 -1.59106E-01 -6.01881E-01 -2.58328E+00
  -3.71082E+00 -4.71428E+00 -2.38021E+00  2.32920E-01 -1.77120E+00 -4.37531E+00  1.36444E+00 -2.19103E+00 -1.84508E+00 -4.40806E-01
  -3.07158E+00 -3.33905E+00 -1.91088E+00 -1.47166E+00 -3.97122E+00 -2.90102E+00 -1.13535E+00 -2.30641E+00 -3.61245E+00 -4.39514E+00
  -5.43404E+00 -4.77377E+00 -5.13052E+00 -4.89877E+00 -2.24855E+00 -3.38590E+00 -6.09311E+00 -5.45900E+00 -4.20183E+00 -6.13243E+00
  -3.77723E+00 -5.48195E+00 -7.08828E+00 -7.48115E+00 -4.54988E+00 -6.60403E+00 -5.34601E+00 -9.99668E+00 -7.15517E+00 -9.44611E+00
  -9.67983E+00 -1.10390E+01 -7.95913E+00 -7.76484E+00 -1.03553E+01 -6.91035E+00 -8.77109E+00 -8.17244E+00 -9.50786E+00 -7.18565E+00
  -8.24882E+00 -1.09576E+01 -1.10044E+01 -5.98615E+00 -7.26864E+00 -1.11950E+01 -1.01053E+01 -8.54774E+00 -9.03448E+00 -1.20037E+01
  -9.04220E+00 -5.10086E+00 -5.98159E+00 -1.16609E+01 -6.85496E+00 -7.68746E+00 -6.49336E+00 -4.85583E+00 -6.01816E+00 -3.80512E+00
  -2.71378E+00 -4.52820E+00 -2.11925E+00  8.42267E-01 -4.12021E+00 -5.40032E+00 -5.08188E+00 -7.54248E-01  3.15929E-01 -1.82236E+00
  -3.52433E+00  3.42533E-01  3.10373E-01 -4.52283E-02  2.28824E+00  5.36046E+00  3.15364E+00  6.10863E+00  4.33004E+00  5.98473E+00
   6.39273E+00  4.38540E+00  2.59039E+00  5.65356E+00  3.19873E+00  5.65984E+00  5.26419E+00  8.66646E+00  7.09218E+00  7.90604E+00
   9.00841E+00  7.98990E+00  5.96620E+00  7.91905E+00  1.08927E+01  8.69153E+00  9.76197E+00  5.30912E+00  6.45498E+00  8.39563E+00
   8.80416E+00  6.11385E+00  8.76597E+00  9.18117E+00  6.50357E+00  9.15241E+00  7.91474E+00  1.10125E+01  1.49317E+01  1.58685E+01
   1.25549E+01  1.30127E+01  8.10047E+00  9.53598E+00  7.07868E+00  1.03215E+01  3.75732E+00  1.23471E+01  6.36911E+00  1.10606E+01
   7.95991E+00  5.71548E+00  9.11644E+00  7.06309E+00  8.61900E+00  8.17082E+00  7.76534E+00  8.28004E+00  9.18320E+00  1.12053E+01
   7.81559E+00  7.74850E+00  6.15834E+00  9.38778E+00  6.69395E+00  3.91915E+00  7.43848E+00  1.02416E+01  1.94368E+00  5.66392E+00
   7.44837E+00  7.84071E+00  1.03194E+01  5.71149E+00  7.12999E+00  6.37307E+00  7.19551E+00  4.68840E+00  7.44062E+00  4.96600E+00
   3.96326E+00  4.52243E+00  5.98900E+00  4.11722E+00  8.15814E-01  7.52504E+00  5.68873E+00  5.56794E+00  3.63727E+00  5.92717E+00
   7.31144E+00  8.45662E+00  3.58552E+00  1.92913E+00  8.10155E+00  6.03970E+00  5.68329E+00  3.16814E+00  6.07743E+00  4.47851E+00
   4.99887E+00  6.96475E+00  6.09083E+00  3.54310E+00  7.53490E+00  5.43488E+00  4.85952E+00  5.89325E+00  9.59153E+00  5.46378E+00
   7.52376E+00  9.16089E+00  8.17523E+00  9.44444E+00  8.03203E+00  1.01764E+01  8.81195E+00  1.13471E+01  1.05489E+01  8.46204E+00
   1.05844E+01  2.58137E+00  6.10237E+00  2.58947E+00  4.94240E+00  6.64770E+00  4.23253E+00  8.32793E+00  6.49186E+00  5.21182E+00
   6.18631E+00  4.64759E+00  2.48867E+00  4.66301E+00  3.60570E+00  5.65043E+00  3.14909E+00  1.44920E+00  3.27201E+00  3.69270E+00
   2.26806E+00  5.35637E+00  4.52770E+00  5.99278E+00  4.23662E+00  4.35952E+00  1.33742E+00  3.83713E+00  1.69547E+00  1.87350E+00
   7.73079E-01  3.39122E-01  9.45762E-01  2.53610E+00 -5.26427E-01 -3.49310E-02  7.16858E-01  6.81294E-01 -2.29798E+00  6.77083E-01
   3.50873E+00  2.51604E+00  1.99474E-01  3.76537E+00  1.42941E+00  1.77962E+00 -1.35740E+00 -1.44099E-01 -7.56444E-01  1.36853E+00
  -7.53575E-01  2.59906E+00  6.36176E-01  1.97957E+00  3.82063E+00  2.04008E+00  2.89053E+00  1.91413E+00  3.47188E+00  4.59526E+00
   5.15654E+00 -8.09262E-01  4.03010E+00  4.57456E+00  9.89759E-01  2.13621E+00  1.76986E+00  3.09348E+00 -1.67848E+00 -7.95221E-01
   2.45921E-01  1.39802E-01 -2.52327E-01  2.82352E+00  1.80399E+00  2.68165E+00  1.82998E+00  5.03230E-01 -2.19371E+00  3.15361E+00
   3.23802E+00  7.30209E-02  4.51769E-01  1.93130E+00 -7.92888E-01 -2.45631E+00 -1.64102E+00 -1.05146E+00  4.06036E-01  4.16038E+00
   1.49686E+00 -1.97055E+00  9.24196E-01  9.80269E-01  1.01310E+00 -1.17984E+00  6.41165E-01  1.16486E+00 -1.82918E+00  8.22437E-01
   3.15114E+00  1.73704E-03  1.61333E-01  4.95267E+00 -4.86254E-01  3.55856E+00  1.40770E+00  2.22156E+00  2.45330E+00  7.05505E-01
   2.57787E+00  3.87572E-01  5.96940E-01 -9.20706E-01 -6.84112E-01  3.27368E+00  3.90106E+00  3.83598E+00  1.43845E+00  5.92446E-01
   1.00766E+00 -3.07930E+00  1.90835E+00  8.71335E-01  4.22370E+00  6.59337E-01  1.16464E+00  3.42594E-03  3.53618E+00 -1.89323E+00
   1.57009E+00  7.37037E-01  3.54685E-01  9.09671E-01 -2.58973E-01  1.48656E+00  2.06762E+00  2.97876E+00  3.43438E-01  1.32145E-01
   2.13252E+00 -1.17003E-01  1.80782E+00  7.82511E-01  3.67493E+00  9.90440E-01  1.85751E-01 -1.64520E+00  8.50313E-01  4.03165E+00
  -6.53099E-01 -2.64303E+00  1.84470E+00 -3.79388E+00  2.75041E-01  6.83826E-01  1.09532E+00  1.57316E+00
 NY points of the fit to the data follow
   7.12433E+00  6.94408E+00  6.55918E+00  6.22346E+00  6.19261E+00  6.06295E+00  5.91639E+00  5.92479E+00  5.92007E+00  5.91726E+00
   5.90013E+00  5.89895E+00  5.93452E+00  5.97314E+00  6.00645E+00  6.06325E+00  6.22088E+00  6.52627E+00  6.93032E+00  6.93029E+00
   6.22625E+00  5.55532E+00  5.25981E+00  5.56846E+00  5.46815E+00  5.33741E+00  6.04062E+00  6.27840E+00  6.16941E+00  6.35154E+00
   7.02337E+00  7.00964E+00  6.26875E+00  6.13646E+00  6.42016E+00  5.39243E+00  5.06669E+00  6.74532E+00  7.04434E+00  6.00355E+00
   5.66084E+00  6.30977E+00  5.82770E+00  4.17801E+00  4.45193E+00  5.25975E+00  5.38576E+00  5.36794E+00  5.93666E+00  5.90402E+00
   5.36289E+00  5.07744E+00  4.78998E+00  4.28104E+00  3.74301E+00  3.41345E+00  3.30011E+00  2.97549E+00  2.53225E+00  2.33056E+00
   2.30930E+00  2.22625E+00  2.16873E+00  2.14150E+00  2.17598E+00  2.15631E+00  2.00459E+00  1.89120E+00  1.81500E+00  1.70926E+00
   1.64865E+00  1.52300E+00  1.43949E+00  1.38547E+00  1.31541E+00  1.29289E+00  1.26316E+00  1.15697E+00  1.01491E+00  8.14524E-01
   6.50601E-01  3.76256E-01  1.08019E-01 -4.49505E-02 -2.24419E-01 -4.67602E-01 -6.74877E-01 -8.14952E-01 -8.79106E-01 -8.86718E-01
  -9.63082E-01 -1.09906E+00 -1.22697E+00 -1.18409E+00 -8.49988E-01 -3.41042E-01 -1.13843E-01  1.53591E-02  5.50167E-02  4.86659E-01
   1.15175E+00  1.26217E+00  1.03412E+00  8.51862E-01  6.65249E-01  7.84881E-01  9.71429E-01  7.78213E-01  2.03666E-01 -2.88176E-01
  -2.12239E-01 -1.12287E-01 -8.72368E-01 -1.23252E+00 -1.24134E+00 -1.22083E+00 -1.18150E+00 -1.13641E+00 -1.05383E+00 -9.13969E-01
  -8.06572E-01 -7.30365E-01 -6.83054E-01 -5.89196E-01 -4.48607E-01 -3.77422E-01 -3.79659E-01 -3.92779E-01 -4.22633E-01 -4.27691E-01
  -4.24697E-01 -5.00208E-01 -6.54626E-01 -8.23034E-01 -9.28703E-01 -1.02535E+00 -1.26064E+00 -1.46496E+00 -1.61454E+00 -1.76310E+00
  -1.91936E+00 -2.07617E+00 -2.23188E+00 -2.38257E+00 -2.53361E+00 -2.69437E+00 -2.84974E+00 -2.99532E+00 -3.13775E+00 -3.27612E+00
  -3.41308E+00 -3.54183E+00 -3.66635E+00 -3.79783E+00 -3.92219E+00 -4.03537E+00 -4.12962E+00 -4.20882E+00 -4.30672E+00 -4.40382E+00
  -4.48498E+00 -4.54693E+00 -4.58861E+00 -4.64876E+00 -4.73353E+00 -4.80540E+00 -4.85319E+00 -4.88179E+00 -4.92362E+00 -4.99692E+00
  -5.04180E+00 -5.06776E+00 -5.09361E+00 -5.14111E+00 -5.20979E+00 -5.23521E+00 -5.23206E+00 -5.23141E+00 -5.23970E+00 -5.26755E+00
  -5.26135E+00 -5.19390E+00 -5.11946E+00 -5.08777E+00 -5.10611E+00 -5.06299E+00 -4.96266E+00 -5.06800E+00 -5.29318E+00 -5.58867E+00
  -6.02869E+00 -6.34818E+00 -6.77848E+00 -7.07055E+00 -7.15594E+00 -6.90167E+00 -6.15677E+00 -5.43889E+00 -4.90773E+00 -4.06039E+00
  -2.86171E+00 -2.22123E+00 -2.56279E+00 -3.85403E+00 -4.96388E+00 -4.90558E+00 -4.34648E+00 -3.85712E+00 -5.23764E+00 -6.68454E+00
  -5.67643E+00 -4.41694E+00 -4.10783E+00 -4.47878E+00 -5.88631E+00 -6.64808E+00 -4.94256E+00 -2.41048E+00 -1.19466E+00 -1.79642E+00
  -8.73219E-01  1.85968E+00  2.32142E+00  2.29674E+00  2.20365E+00  8.90265E-01  7.92887E-01  1.88443E+00  2.90299E+00  2.60480E+00
   1.90135E+00  2.61380E+00  4.09604E+00  4.72037E+00  4.20771E+00  4.24182E+00  4.60642E+00  5.04346E+00  5.54313E+00  6.31147E+00
   6.24039E+00  5.40523E+00  5.40416E+00  6.11443E+00  6.25089E+00  6.16130E+00  7.10623E+00  7.68611E+00  6.97520E+00  7.12964E+00
   7.80868E+00  7.95781E+00  7.64124E+00  8.83251E+00  9.53491E+00  1.00241E+01  1.11071E+01  1.21821E+01  1.25441E+01  1.24123E+01
   1.23977E+01  1.18351E+01  1.07616E+01  1.02974E+01  1.00672E+01  9.25859E+00  8.19410E+00  7.83198E+00  7.70484E+00  7.33604E+00
   6.45108E+00  6.15983E+00  6.00200E+00  5.70912E+00  5.69006E+00  5.75553E+00  5.80618E+00  5.92040E+00  6.03914E+00  6.12439E+00
   6.24849E+00  6.46083E+00  6.63609E+00  6.72672E+00  6.82317E+00  6.94784E+00  7.07487E+00  7.16556E+00  7.20808E+00  7.24659E+00
   7.25609E+00  7.20256E+00  7.10241E+00  6.96450E+00  6.78884E+00  6.57385E+00  6.32519E+00  6.06002E+00  5.77912E+00  5.48631E+00
   5.19210E+00  4.90501E+00  4.63069E+00  4.37294E+00  4.13965E+00  3.93709E+00  3.76797E+00  3.63439E+00  3.53773E+00  3.48003E+00
   3.46449E+00  3.49130E+00  3.55640E+00  3.65994E+00  3.80185E+00  3.98070E+00  4.19165E+00  4.43118E+00  4.69633E+00  4.98265E+00
   5.28499E+00  5.59770E+00  5.91488E+00  6.23047E+00  6.53829E+00  6.83208E+00  7.10563E+00  7.35310E+00  7.56944E+00  7.75053E+00
   7.89327E+00  7.99568E+00  8.05721E+00  8.07924E+00  8.06578E+00  8.02450E+00  7.96919E+00  7.92743E+00  7.97159E+00  8.19280E+00
   8.10112E+00  7.65014E+00  7.11201E+00  6.80502E+00  6.75180E+00  6.11524E+00  5.01637E+00  4.56874E+00  4.41225E+00  4.39294E+00
   4.25852E+00  3.79866E+00  3.60704E+00  3.68087E+00  3.95696E+00  4.30336E+00  3.65098E+00  3.19796E+00  3.83036E+00  4.39169E+00
   4.38500E+00  3.85302E+00  3.50950E+00  3.80338E+00  3.42646E+00  2.70016E+00  2.26724E+00  1.98269E+00  1.77501E+00  1.61689E+00
   1.49412E+00  1.39802E+00  1.32280E+00  1.26461E+00  1.22110E+00  1.19102E+00  1.17392E+00  1.16972E+00  1.17849E+00  1.20042E+00
   1.23586E+00  1.28523E+00  1.34889E+00  1.42697E+00  1.51930E+00  1.62545E+00  1.74482E+00  1.87655E+00  2.01941E+00  2.17170E+00
   2.33128E+00  2.49566E+00  2.66211E+00  2.82763E+00  2.98895E+00  3.14259E+00  3.28500E+00  3.41278E+00  3.52283E+00  3.61238E+00
   3.67905E+00  3.72097E+00  3.73690E+00  3.72637E+00  3.68965E+00  3.62766E+00  3.54194E+00  3.43455E+00  3.30804E+00  3.16537E+00
   3.00974E+00  2.84444E+00  2.67267E+00  2.49750E+00  2.32181E+00  2.14825E+00  1.97911E+00  1.81626E+00  1.66117E+00  1.51492E+00
   1.37829E+00  1.25177E+00  1.13557E+00  1.02961E+00  9.33588E-01  8.47093E-01  7.69671E-01  7.00796E-01  6.39866E-01  5.86227E-01
   5.39229E-01  4.98280E-01  4.62858E-01  4.32467E-01  4.06590E-01  3.84741E-01  3.66509E-01  3.51548E-01  3.39553E-01  3.30240E-01
   3.23323E-01  3.18534E-01  3.15660E-01  3.14531E-01  3.15010E-01  3.16947E-01  3.20171E-01  3.24538E-01  3.29951E-01  3.36341E-01
   3.43635E-01  3.51733E-01  3.60529E-01  3.69948E-01  3.79957E-01  3.90546E-01  4.01669E-01  4.13252E-01  4.25243E-01  4.37630E-01
   4.50408E-01  4.63553E-01  4.77033E-01  4.90810E-01  5.04851E-01  5.19149E-01  5.33709E-01  5.48521E-01  5.63556E-01  5.78775E-01
   5.94179E-01  6.09774E-01  6.25545E-01  6.41492E-01  6.57590E-01  6.73811E-01  6.90157E-01  7.06640E-01  7.23263E-01  7.40010E-01
   7.56854E-01  7.73792E-01  7.90833E-01  8.07983E-01  8.25237E-01  8.42580E-01  8.60000E-01  8.77498E-01  8.95082E-01  9.12759E-01
   9.30524E-01  9.48364E-01  9.66275E-01  9.84262E-01  1.00234E+00  1.02050E+00  1.03875E+00  1.05709E+00
 NY background values follow
     5.113E+00    5.041E+00    4.969E+00    4.897E+00    4.826E+00    4.754E+00    4.682E+00    4.611E+00    4.539E+00    4.467E+00
     4.396E+00    4.324E+00    4.253E+00    4.182E+00    4.110E+00    4.039E+00    3.968E+00    3.897E+00    3.825E+00    3.754E+00
     3.683E+00    3.612E+00    3.542E+00    3.471E+00    3.400E+00    3.329E+00    3.259E+00    3.188E+00    3.118E+00    3.048E+00
     2.977E+00    2.907E+00    2.837E+00    2.767E+00    2.697E+00    2.627E+00    2.558E+00    2.488E+00    2.419E+00    2.349E+00
     2.280E+00    2.211E+00    2.142E+00    2.073E+00    2.004E+00    1.935E+00    1.866E+00    1.798E+00    1.729E+00    1.661E+00
     1.593E+00    1.525E+00    1.457E+00    1.389E+00    1.322E+00    1.254E+00    1.187E+00    1.119E+00    1.052E+00    9.850E-01
     9.181E-01    8.512E-01    7.845E-01    7.179E-01    6.515E-01    5.851E-01    5.189E-01    4.528E-01    3.868E-01    3.210E-01
     2.552E-01    1.896E-01    1.241E-01    5.879E-02   -6.449E-03   -7.156E-02   -1.366E-01   -2.014E-01   -2.662E-01   -3.308E-01
    -3.953E-01   -4.596E-01   -5.239E-01   -5.880E-01   -6.520E-01   -7.158E-01   -7.795E-01   -8.432E-01   -9.066E-01   -9.700E-01
    -1.033E+00   -1.096E+00   -1.159E+00   -1.222E+00   -1.285E+00   -1.347E+00   -1.410E+00   -1.472E+00   -1.534E+00   -1.595E+00
    -1.657E+00   -1.718E+00   -1.779E+00   -1.840E+00   -1.900E+00   -1.960E+00   -2.020E+00   -2.080E+00   -2.139E+00   -2.198E+00
    -2.256E+00   -2.315E+00   -2.373E+00   -2.430E+00   -2.487E+00   -2.544E+00   -2.600E+00   -2.656E+00   -2.712E+00   -2.767E+00
    -2.821E+00   -2.875E+00   -2.929E+00   -2.982E+00   -3.035E+00   -3.087E+00   -3.138E+00   -3.189E+00   -3.240E+00   -3.290E+00
    -3.339E+00   -3.388E+00   -3.436E+00   -3.484E+00   -3.531E+00   -3.577E+00   -3.623E+00   -3.668E+00   -3.712E+00   -3.756E+00
    -3.799E+00   -3.842E+00   -3.883E+00   -3.924E+00   -3.965E+00   -4.004E+00   -4.043E+00   -4.081E+00   -4.118E+00   -4.154E+00
    -4.190E+00   -4.225E+00   -4.259E+00   -4.292E+00   -4.324E+00   -4.356E+00   -4.387E+00   -4.416E+00   -4.445E+00   -4.473E+00
    -4.500E+00   -4.526E+00   -4.551E+00   -4.576E+00   -4.599E+00   -4.621E+00   -4.643E+00   -4.663E+00   -4.682E+00   -4.701E+00
    -4.718E+00   -4.734E+00   -4.750E+00   -4.764E+00   -4.777E+00   -4.789E+00   -4.800E+00   -4.810E+00   -4.819E+00   -4.826E+00
    -4.833E+00   -4.838E+00   -4.842E+00   -4.845E+00   -4.847E+00   -4.848E+00   -4.848E+00   -4.846E+00   -4.844E+00   -4.841E+00
    -4.836E+00   -4.831E+00   -4.825E+00   -4.817E+00   -4.809E+00   -4.800E+00   -4.790E+00   -4.779E+00   -4.767E+00   -4.755E+00
    -4.741E+00   -4.727E+00   -4.712E+00   -4.696E+00   -4.680E+00   -4.662E+00   -4.644E+00   -4.626E+00   -4.606E+00   -4.586E+00
    -4.566E+00   -4.545E+00   -4.523E+00   -4.500E+00   -4.477E+00   -4.454E+00   -4.430E+00   -4.405E+00   -4.380E+00   -4.355E+00
    -4.329E+00   -4.302E+00   -4.275E+00   -4.248E+00   -4.220E+00   -4.192E+00   -4.164E+00   -4.136E+00   -4.107E+00   -4.077E+00
    -4.048E+00   -4.018E+00   -3.988E+00   -3.958E+00   -3.927E+00   -3.896E+00   -3.865E+00   -3.834E+00   -3.803E+00   -3.772E+00
    -3.740E+00   -3.708E+00   -3.677E+00   -3.645E+00   -3.613E+00   -3.581E+00   -3.549E+00   -3.517E+00   -3.484E+00   -3.452E+00
    -3.420E+00   -3.388E+00   -3.356E+00   -3.324E+00   -3.292E+00   -3.260E+00   -3.229E+00   -3.197E+00   -3.165E+00   -3.134E+00
    -3.103E+00   -3.072E+00   -3.041E+00   -3.010E+00   -2.980E+00   -2.949E+00   -2.919E+00   -2.890E+00   -2.860E+00   -2.831E+00
    -2.802E+00   -2.774E+00   -2.745E+00   -2.717E+00   -2.690E+00   -2.663E+00   -2.636E+00   -2.609E+00   -2.583E+00   -2.557E+00
    -2.531E+00   -2.506E+00   -2.481E+00   -2.456E+00   -2.432E+00   -2.408E+00   -2.385E+00   -2.361E+00   -2.338E+00   -2.316E+00
    -2.294E+00   -2.272E+00   -2.250E+00   -2.229E+00   -2.208E+00   -2.187E+00   -2.167E+00   -2.147E+00   -2.127E+00   -2.108E+00
    -2.089E+00   -2.070E+00   -2.052E+00   -2.034E+00   -2.016E+00   -1.999E+00   -1.982E+00   -1.965E+00   -1.949E+00   -1.933E+00
    -1.917E+00   -1.902E+00   -1.887E+00   -1.872E+00   -1.858E+00   -1.844E+00   -1.830E+00   -1.817E+00   -1.804E+00   -1.791E+00
    -1.779E+00   -1.767E+00   -1.755E+00   -1.744E+00   -1.733E+00   -1.722E+00   -1.711E+00   -1.701E+00   -1.690E+00   -1.680E+00
    -1.671E+00   -1.661E+00   -1.652E+00   -1.643E+00   -1.634E+00   -1.625E+00   -1.617E+00   -1.609E+00   -1.601E+00   -1.593E+00
    -1.585E+00   -1.577E+00   -1.570E+00   -1.562E+00   -1.555E+00   -1.548E+00   -1.541E+00   -1.534E+00   -1.527E+00   -1.520E+00
    -1.513E+00   -1.506E+00   -1.500E+00   -1.493E+00   -1.487E+00   -1.480E+00   -1.474E+00   -1.467E+00   -1.461E+00   -1.454E+00
    -1.448E+00   -1.441E+00   -1.435E+00   -1.428E+00   -1.422E+00   -1.415E+00   -1.408E+00   -1.402E+00   -1.395E+00   -1.388E+00
    -1.381E+00   -1.374E+00   -1.367E+00   -1.359E+00   -1.352E+00   -1.345E+00   -1.337E+00   -1.329E+00   -1.321E+00   -1.313E+00
    -1.305E+00   -1.297E+00   -1.288E+00   -1.280E+00   -1.271E+00   -1.262E+00   -1.252E+00   -1.243E+00   -1.233E+00   -1.223E+00
    -1.213E+00   -1.203E+00   -1.192E+00   -1.181E+00   -1.170E+00   -1.159E+00   -1.147E+00   -1.135E+00   -1.123E+00   -1.111E+00
    -1.098E+00   -1.085E+00   -1.071E+00   -1.057E+00   -1.043E+00   -1.029E+00   -1.014E+00   -9.990E-01   -9.836E-01   -9.678E-01
    -9.516E-01   -9.351E-01   -9.184E-01   -9.013E-01   -8.839E-01   -8.662E-01   -8.483E-01   -8.300E-01   -8.115E-01   -7.928E-01
    -7.738E-01   -7.546E-01   -7.351E-01   -7.155E-01   -6.956E-01   -6.755E-01   -6.552E-01   -6.348E-01   -6.141E-01   -5.934E-01
    -5.724E-01   -5.513E-01   -5.301E-01   -5.087E-01   -4.873E-01   -4.657E-01   -4.440E-01   -4.222E-01   -4.003E-01   -3.784E-01
    -3.564E-01   -3.343E-01   -3.122E-01   -2.901E-01   -2.679E-01   -2.457E-01   -2.235E-01   -2.013E-01   -1.791E-01   -1.569E-01
    -1.347E-01   -1.126E-01   -9.049E-02   -6.844E-02   -4.644E-02   -2.449E-02   -2.582E-03    1.928E-02    4.109E-02    6.287E-02
     8.459E-02    1.063E-01    1.279E-01    1.495E-01    1.711E-01    1.926E-01    2.141E-01    2.356E-01    2.570E-01    2.784E-01
     2.997E-01    3.210E-01    3.423E-01    3.635E-01    3.847E-01    4.059E-01    4.271E-01    4.482E-01    4.693E-01    4.904E-01
     5.114E-01    5.324E-01    5.534E-01    5.744E-01    5.953E-01    6.162E-01    6.371E-01    6.580E-01    6.789E-01    6.997E-01
     7.205E-01    7.413E-01    7.621E-01    7.829E-01    8.037E-01    8.244E-01    8.451E-01    8.658E-01
 Asp      Conc. = 1.32E+01
