 LCModel (Version 6.3-1L) Copyright: S.W. Provencher.          Ref.: Magn. Reson. Med. 30:672-679 (1993).                
 Slice#3 Row#6 Col#10  K_02_press_1_raw_act
 36 lines in following concentration table = NCONC+1
    Conc.  %SD /Cr+PCr  Metabolite                                         
   66.438 165% 3.1E-02 Ala                                                 
    0.000 999%   0.000 Asp                                                 
  799.743  27%   0.372 Cr                                                  
 1.35E+03  17%   0.628 PCr                                                 
    0.000 999%   0.000 GABA                                                
    0.000 999%   0.000 Glc                                                 
  756.705  30%   0.352 Gln                                                 
 2.08E+03  12%   0.967 Glu                                                 
  706.839   4%   0.329 GPC                                                 
    0.000 999%   0.000 PCh                                                 
  659.778  12%   0.307 GSH                                                 
 1.03E+03  25%   0.477 Ins                                                 
    0.000 999%   0.000 Lac                                                 
 2.95E+03   4%   1.373 NAA                                                 
  224.919  58%   0.105 NAAG                                                
   11.285 260% 5.2E-03 Scyllo                                              
    0.000 999%   0.000 Tau                                                 
    0.000 999%   0.000 -CrCH2                                              
  706.839   4%   0.329 GPC+PCh                                             
 3.18E+03   3%   1.478 NAA+NAAG                                            
 2.15E+03   3%   1.000 Cr+PCr                                              
 2.84E+03  12%   1.319 Glu+Gln                                             
 2.47E+03  26%   1.147 Lip13a                                              
    0.000 999%   0.000 Lip13b                                              
    0.000 999%   0.000 Lip09                                               
 1.83E+03  15%   0.852 MM09                                                
  390.787  69%   0.182 Lip20                                               
 4.12E+03  13%   1.916 MM20                                                
  530.785  46%   0.247 MM12                                                
 4.61E+03  14%   2.144 MM14                                                
 2.59E+03  18%   1.202 MM17                                                
 2.47E+03  26%   1.147 Lip13a+Lip13b                                       
 7.61E+03  10%   3.538 MM14+Lip13a+Lip13b+MM12                             
 1.83E+03  15%   0.852 MM09+Lip09                                          
 4.51E+03  12%   2.097 MM20+Lip20                                          
   6 lines in following misc. output table
  FWHM = 0.038 ppm    S/N =  15                                            
  Data shift = 0.008 ppm                                                   
  Ph: -11 deg      -5.8 deg/ppm                                            
  alphaB,S = 8.0E-01,   8.4E+01                                            
   14 spline knots.   Ns = 6(1)                                            
  (12) 2 infls.   (11) 1 extrs.                                            
  498 points on ppm-axis = NY
      4.000000     3.992357     3.984714     3.977070     3.969427     3.961784     3.954141     3.946497     3.938854     3.931211
      3.923568     3.915925     3.908281     3.900638     3.892995     3.885352     3.877708     3.870065     3.862422     3.854779
      3.847136     3.839492     3.831849     3.824206     3.816563     3.808919     3.801276     3.793633     3.785990     3.778347
      3.770703     3.763060     3.755417     3.747774     3.740130     3.732487     3.724844     3.717201     3.709558     3.701914
      3.694271     3.686628     3.678985     3.671341     3.663698     3.656055     3.648412     3.640769     3.633125     3.625482
      3.617839     3.610196     3.602552     3.594909     3.587266     3.579623     3.571980     3.564336     3.556693     3.549050
      3.541407     3.533763     3.526120     3.518477     3.510834     3.503191     3.495547     3.487904     3.480261     3.472618
      3.464974     3.457331     3.449688     3.442045     3.434402     3.426758     3.419115     3.411472     3.403829     3.396185
      3.388542     3.380899     3.373256     3.365613     3.357969     3.350326     3.342683     3.335040     3.327396     3.319753
      3.312110     3.304467     3.296824     3.289180     3.281537     3.273894     3.266251     3.258607     3.250964     3.243321
      3.235678     3.228034     3.220391     3.212748     3.205105     3.197462     3.189818     3.182175     3.174532     3.166889
      3.159245     3.151602     3.143959     3.136316     3.128673     3.121029     3.113386     3.105743     3.098100     3.090456
      3.082813     3.075170     3.067527     3.059884     3.052240     3.044597     3.036954     3.029311     3.021667     3.014024
      3.006381     2.998738     2.991095     2.983451     2.975808     2.968165     2.960522     2.952878     2.945235     2.937592
      2.929949     2.922306     2.914662     2.907019     2.899376     2.891733     2.884089     2.876446     2.868803     2.861160
      2.853517     2.845873     2.838230     2.830587     2.822944     2.815300     2.807657     2.800014     2.792371     2.784728
      2.777084     2.769441     2.761798     2.754155     2.746511     2.738868     2.731225     2.723582     2.715939     2.708295
      2.700652     2.693009     2.685366     2.677722     2.670079     2.662436     2.654793     2.647150     2.639506     2.631863
      2.624220     2.616577     2.608933     2.601290     2.593647     2.586004     2.578361     2.570717     2.563074     2.555431
      2.547788     2.540144     2.532501     2.524858     2.517215     2.509572     2.501928     2.494285     2.486642     2.478999
      2.471355     2.463712     2.456069     2.448426     2.440783     2.433139     2.425496     2.417853     2.410210     2.402566
      2.394923     2.387280     2.379637     2.371994     2.364350     2.356707     2.349064     2.341421     2.333777     2.326134
      2.318491     2.310848     2.303205     2.295561     2.287918     2.280275     2.272632     2.264988     2.257345     2.249702
      2.242059     2.234416     2.226772     2.219129     2.211486     2.203843     2.196199     2.188556     2.180913     2.173270
      2.165627     2.157983     2.150340     2.142697     2.135054     2.127410     2.119767     2.112124     2.104481     2.096838
      2.089194     2.081551     2.073908     2.066265     2.058621     2.050978     2.043335     2.035692     2.028049     2.020405
      2.012762     2.005119     1.997476     1.989833     1.982190     1.974546     1.966903     1.959260     1.951617     1.943974
      1.936331     1.928688     1.921045     1.913402     1.905759     1.898115     1.890472     1.882829     1.875186     1.867543
      1.859900     1.852257     1.844614     1.836971     1.829327     1.821684     1.814041     1.806398     1.798755     1.791112
      1.783469     1.775826     1.768183     1.760540     1.752896     1.745253     1.737610     1.729967     1.722324     1.714681
      1.707038     1.699395     1.691752     1.684108     1.676465     1.668822     1.661179     1.653536     1.645893     1.638250
      1.630607     1.622964     1.615321     1.607677     1.600034     1.592391     1.584748     1.577105     1.569462     1.561819
      1.554176     1.546533     1.538890     1.531246     1.523603     1.515960     1.508317     1.500674     1.493031     1.485388
      1.477745     1.470102     1.462458     1.454815     1.447172     1.439529     1.431886     1.424243     1.416600     1.408957
      1.401314     1.393671     1.386027     1.378384     1.370741     1.363098     1.355455     1.347812     1.340169     1.332526
      1.324883     1.317240     1.309596     1.301953     1.294310     1.286667     1.279024     1.271381     1.263738     1.256095
      1.248452     1.240808     1.233165     1.225522     1.217879     1.210236     1.202593     1.194950     1.187307     1.179664
      1.172021     1.164377     1.156734     1.149091     1.141448     1.133805     1.126162     1.118519     1.110876     1.103233
      1.095590     1.087946     1.080303     1.072660     1.065017     1.057374     1.049731     1.042088     1.034445     1.026802
      1.019158     1.011515     1.003872     0.996229     0.988586     0.980943     0.973300     0.965657     0.958014     0.950371
      0.942727     0.935084     0.927441     0.919798     0.912155     0.904512     0.896869     0.889226     0.881583     0.873940
      0.866296     0.858653     0.851010     0.843367     0.835724     0.828081     0.820438     0.812795     0.805152     0.797508
      0.789865     0.782222     0.774579     0.766936     0.759293     0.751650     0.744007     0.736364     0.728721     0.721077
      0.713434     0.705791     0.698148     0.690505     0.682862     0.675219     0.667576     0.659933     0.652290     0.644646
      0.637003     0.629360     0.621717     0.614074     0.606431     0.598788     0.591145     0.583502     0.575858     0.568215
      0.560572     0.552929     0.545286     0.537643     0.530000     0.522357     0.514714     0.507071     0.499427     0.491784
      0.484141     0.476498     0.468855     0.461212     0.453569     0.445925     0.438282     0.430639     0.422996     0.415353
      0.407710     0.400067     0.392424     0.384780     0.377137     0.369494     0.361851     0.354208     0.346565     0.338922
      0.331278     0.323635     0.315992     0.308349     0.300706     0.293063     0.285420     0.277777     0.270133     0.262490
      0.254847     0.247204     0.239561     0.231918     0.224275     0.216631     0.208988     0.201345
 NY phased data points follow
   3.64433E+01  4.07997E+01  3.72376E+01  3.92279E+01  4.16811E+01  4.52390E+01  5.63421E+01  5.91688E+01  7.02078E+01  7.70486E+01
   8.80094E+01  8.08953E+01  8.44191E+01  7.33020E+01  6.22566E+01  4.94477E+01  4.28086E+01  3.93552E+01  3.86957E+01  3.45985E+01
   3.48256E+01  3.63562E+01  3.57422E+01  2.99070E+01  3.45676E+01  3.03949E+01  3.95650E+01  3.67342E+01  4.09748E+01  4.00441E+01
   4.41962E+01  4.85526E+01  4.59580E+01  4.15423E+01  3.72881E+01  3.47493E+01  3.29920E+01  3.20282E+01  3.54959E+01  3.39864E+01
   3.38946E+01  3.14558E+01  3.47397E+01  2.67769E+01  3.65114E+01  3.29200E+01  4.00457E+01  4.55930E+01  4.18228E+01  4.22231E+01
   3.66188E+01  2.84598E+01  3.02103E+01  3.02840E+01  2.82683E+01  2.86580E+01  3.28398E+01  2.27120E+01  2.99663E+01  2.38276E+01
   1.93606E+01  2.08304E+01  2.35282E+01  1.84397E+01  1.27423E+01  1.06975E+01  9.43446E+00  9.15141E+00  6.88041E+00  7.20959E+00
   1.01610E+01  1.35766E+01  1.30856E+01  1.06494E+01  1.38111E+01  1.24706E+01  1.47721E+01  1.72658E+01  1.28171E+01  1.11340E+01
   1.00279E+01  1.33764E+01  1.45621E+01  1.46834E+01  1.23355E+01  1.01962E+01  1.34201E+01  1.84902E+01  1.45894E+01  1.12242E+01
   1.29204E+01  1.36738E+01  1.68591E+01  1.80317E+01  1.63161E+01  1.96809E+01  2.28996E+01  2.11897E+01  2.27011E+01  3.73021E+01
   4.57094E+01  6.54078E+01  7.33571E+01  8.54921E+01  8.20168E+01  7.33385E+01  6.38492E+01  4.42754E+01  3.50728E+01  2.61338E+01
   2.32340E+01  1.87185E+01  2.09059E+01  1.58873E+01  1.36583E+01  1.84065E+01  1.74321E+01  1.31955E+01  1.19749E+01  1.55319E+01
   2.18704E+01  1.52868E+01  1.92051E+01  2.76232E+01  4.61410E+01  6.15746E+01  8.34986E+01  8.83721E+01  9.22682E+01  8.06651E+01
   6.78052E+01  5.03439E+01  4.17690E+01  3.38674E+01  2.55793E+01  1.88694E+01  1.44234E+01  1.48072E+01  1.39581E+01  1.87093E+01
   1.64118E+01  9.19964E+00  2.00578E+01  1.15230E+01  9.95112E+00  1.33213E+01  1.07477E+01  1.73675E+01  1.13137E+01  1.08086E+01
   1.21875E+01  9.46081E+00  1.20185E+01  5.70806E+00  8.03353E+00  9.40849E+00  1.10355E+01  7.22428E+00  1.17231E+01  9.30661E+00
   9.95466E+00  8.74112E+00  3.55175E+00  4.36043E+00  5.33366E+00  4.99882E+00  1.02510E+01  6.30880E+00  1.45221E+00 -5.64398E-01
   4.70333E+00 -1.80884E+00  1.28155E+00 -2.40842E+00 -5.65213E+00 -1.08960E+01 -4.63431E+00 -8.40062E+00 -4.14031E+00 -8.85877E-01
  -3.26627E+00 -5.81035E+00 -3.59703E+00 -5.16650E+00 -4.06691E+00 -2.51598E+00 -5.35000E+00 -5.62420E+00 -1.98208E+00  7.96962E+00
   9.29454E+00  1.25511E+01  1.45458E+01  1.18185E+01  2.01379E+01  1.75037E+01  1.16792E+01  1.37296E+01  5.59910E+00  3.46746E+00
   5.52919E+00  1.24537E+01  1.34532E+01  1.21273E+01  1.63130E+01  1.58282E+01  1.04766E+01  5.61251E+00  3.61335E+00  2.03589E+00
   2.71827E+00  7.57899E+00  8.70924E+00  1.55399E+01  1.78774E+01  2.47668E+01  2.76218E+01  2.94253E+01  2.36162E+01  1.34731E+01
   9.86347E+00  4.61594E+00  3.18143E+00  4.20293E+00  7.89159E+00  1.66225E+01  1.90098E+01  2.04782E+01  1.75927E+01  1.96365E+01
   2.21315E+01  2.17614E+01  2.08554E+01  2.28587E+01  1.83710E+01  1.46769E+01  1.74449E+01  1.72250E+01  2.41438E+01  1.67691E+01
   1.23305E+01  1.17260E+01  1.37366E+01  1.44850E+01  1.62931E+01  2.42378E+01  1.83088E+01  2.63566E+01  2.50087E+01  2.93107E+01
   2.60223E+01  3.22845E+01  3.24069E+01  3.71261E+01  4.12482E+01  4.77493E+01  5.85773E+01  7.21043E+01  9.48364E+01  1.20961E+02
   1.41539E+02  1.41443E+02  1.22397E+02  9.80244E+01  6.95956E+01  5.12256E+01  3.70142E+01  3.48114E+01  2.21973E+01  2.16034E+01
   2.54327E+01  2.28387E+01  1.88144E+01  2.11367E+01  2.34357E+01  2.09267E+01  2.10104E+01  2.05543E+01  1.91123E+01  2.02040E+01
   1.87400E+01  2.08902E+01  1.51286E+01  1.98151E+01  2.01293E+01  1.95296E+01  1.81430E+01  1.81721E+01  2.48517E+01  2.23145E+01
   1.79702E+01  1.78744E+01  2.24295E+01  2.13668E+01  2.27531E+01  2.32073E+01  2.32909E+01  2.24989E+01  2.22216E+01  2.53014E+01
   2.01235E+01  2.44944E+01  2.32966E+01  2.55331E+01  2.51250E+01  3.19161E+01  3.20588E+01  2.93792E+01  3.30324E+01  2.87772E+01
   2.85712E+01  3.20768E+01  2.93157E+01  2.73251E+01  2.69451E+01  2.67026E+01  2.67900E+01  3.13695E+01  3.20293E+01  3.35158E+01
   2.92959E+01  2.81082E+01  3.22880E+01  3.70281E+01  3.96495E+01  3.58604E+01  3.52222E+01  3.54980E+01  3.83201E+01  3.52851E+01
   3.33292E+01  3.59834E+01  3.55524E+01  3.62641E+01  3.82651E+01  3.71942E+01  3.71674E+01  3.31590E+01  3.57854E+01  2.98168E+01
   3.31057E+01  2.85647E+01  3.22285E+01  3.10841E+01  3.53126E+01  4.04248E+01  3.50731E+01  3.51572E+01  2.79175E+01  3.26602E+01
   3.05655E+01  3.27090E+01  3.16141E+01  3.22907E+01  3.40467E+01  2.80115E+01  2.90119E+01  2.39403E+01  2.21003E+01  2.42768E+01
   2.06860E+01  2.86099E+01  2.03958E+01  2.27192E+01  2.34009E+01  2.89149E+01  2.52483E+01  2.33560E+01  2.49719E+01  2.04121E+01
   1.69526E+01  1.65517E+01  1.86031E+01  2.12136E+01  1.38220E+01  1.50908E+01  1.17138E+01  1.21509E+01  1.28467E+01  1.15292E+01
   1.15358E+01  1.62892E+01  1.55702E+01  1.53129E+01  1.74080E+01  1.85852E+01  2.01917E+01  1.53790E+01  2.00735E+01  1.37021E+01
   1.43696E+01  1.94650E+01  1.37888E+01  1.97043E+01  1.69035E+01  1.50110E+01  1.36974E+01  1.82322E+01  1.51375E+01  2.06171E+01
   1.68385E+01  2.13263E+01  1.78075E+01  2.23727E+01  1.81197E+01  2.23130E+01  2.18433E+01  1.89737E+01  2.13787E+01  2.04985E+01
   2.34132E+01  1.81867E+01  1.95353E+01  2.06255E+01  1.41453E+01  1.87926E+01  1.52660E+01  1.91082E+01  1.32209E+01  1.58724E+01
   1.87964E+01  1.41458E+01  1.67426E+01  1.07775E+01  1.24916E+01  1.48737E+01  1.22052E+01  1.00244E+01  4.80149E+00  7.26370E+00
   1.33877E+01  1.30678E+01  1.12326E+01  1.12776E+01  1.17695E+01  5.84321E+00  7.40042E+00  1.00929E+01  6.91049E+00  7.81705E+00
   6.41906E+00  1.05579E+01  7.80824E+00  1.02223E+01  1.10277E+01  1.45793E+01  8.93836E+00  8.22892E+00  8.13249E+00  5.81001E+00
   7.67093E+00  1.25372E+01  7.82839E+00  1.16663E+01  9.49178E+00  6.80010E+00  5.99923E+00  3.44666E+00  8.21104E+00  5.79525E+00
   7.13503E+00  6.35145E+00  9.56709E+00  6.77431E+00  7.54723E+00  5.96336E+00  6.52779E+00  4.92499E+00  9.17660E+00  8.01642E+00
   5.31486E+00  5.31733E+00  6.30383E+00  4.48997E+00  7.07712E+00  6.40920E+00  7.58105E+00  7.50050E+00  4.63836E+00  6.54824E+00
   5.62290E+00  8.74254E+00  6.42485E+00  3.30288E+00  7.34824E+00  1.00797E+01  8.57263E+00  6.74073E+00  8.54333E+00  3.46305E+00
   8.38916E+00  8.81078E+00  9.67715E+00  6.50893E+00  6.95585E+00  5.52911E+00  5.66684E+00  8.86064E+00
 NY points of the fit to the data follow
   3.52726E+01  3.48926E+01  3.50637E+01  3.62352E+01  3.89924E+01  4.34946E+01  5.04388E+01  5.96428E+01  7.00602E+01  7.93440E+01
   8.46650E+01  8.42591E+01  7.84828E+01  6.95151E+01  6.01924E+01  5.22619E+01  4.59738E+01  4.14145E+01  3.85123E+01  3.64869E+01
   3.53534E+01  3.45582E+01  3.36731E+01  3.27506E+01  3.22105E+01  3.21005E+01  3.27812E+01  3.48422E+01  3.84494E+01  4.28818E+01
   4.66595E+01  4.84576E+01  4.76927E+01  4.47207E+01  4.05872E+01  3.63493E+01  3.24085E+01  2.92692E+01  2.77628E+01  2.75455E+01
   2.80155E+01  2.88217E+01  2.97954E+01  3.08705E+01  3.20153E+01  3.33371E+01  3.46681E+01  3.54787E+01  3.53292E+01  3.39858E+01
   3.17081E+01  2.92149E+01  2.70638E+01  2.53954E+01  2.42167E+01  2.35445E+01  2.33779E+01  2.35389E+01  2.38727E+01  2.41979E+01
   2.42799E+01  2.39236E+01  2.30836E+01  2.19348E+01  2.07993E+01  1.99422E+01  1.94708E+01  1.93505E+01  1.94955E+01  1.97587E+01
   2.00457E+01  2.02368E+01  2.02410E+01  2.00178E+01  1.95908E+01  1.90604E+01  1.85459E+01  1.81159E+01  1.77673E+01  1.74471E+01
   1.71855E+01  1.69369E+01  1.66497E+01  1.62876E+01  1.58094E+01  1.51572E+01  1.43257E+01  1.34356E+01  1.27160E+01  1.23698E+01
   1.24790E+01  1.29587E+01  1.35976E+01  1.42363E+01  1.48346E+01  1.54164E+01  1.64409E+01  1.94929E+01  2.51034E+01  3.37057E+01
   4.64603E+01  6.24819E+01  7.77899E+01  8.67743E+01  8.56472E+01  7.51805E+01  5.99136E+01  4.51502E+01  3.39987E+01  2.60244E+01
   1.96141E+01  1.57965E+01  1.45060E+01  1.39940E+01  1.37317E+01  1.35855E+01  1.35069E+01  1.34781E+01  1.35260E+01  1.37598E+01
   1.45813E+01  1.75702E+01  2.36227E+01  3.25847E+01  4.57094E+01  6.26345E+01  7.97989E+01  9.13865E+01  9.26945E+01  8.34638E+01
   6.81073E+01  5.23782E+01  3.99922E+01  3.07765E+01  2.25471E+01  1.61075E+01  1.29067E+01  1.14338E+01  1.12557E+01  1.20306E+01
   1.31635E+01  1.41528E+01  1.47231E+01  1.46944E+01  1.41824E+01  1.34653E+01  1.27228E+01  1.20610E+01  1.14819E+01  1.09371E+01
   1.04708E+01  1.00366E+01  9.64037E+00  9.33381E+00  9.14416E+00  8.99024E+00  8.83574E+00  8.59209E+00  8.11444E+00  7.42744E+00
   6.67518E+00  6.20139E+00  6.28668E+00  6.80798E+00  7.32444E+00  7.36295E+00  6.75109E+00  5.77550E+00  4.86225E+00  4.12527E+00
   3.52516E+00  2.95077E+00  2.34152E+00  1.71156E+00  1.06552E+00  5.18777E-01  3.90703E-01  7.62404E-01  1.31285E+00  1.61539E+00
   1.52639E+00  1.19466E+00  1.00547E+00  1.13025E+00  1.34910E+00  1.62076E+00  2.38639E+00  3.97544E+00  6.38024E+00  9.02057E+00
   1.11328E+01  1.22365E+01  1.21235E+01  1.11297E+01  9.75158E+00  8.31642E+00  7.19367E+00  6.79076E+00  7.33379E+00  8.77971E+00
   1.08863E+01  1.31941E+01  1.51630E+01  1.63321E+01  1.62530E+01  1.49303E+01  1.23003E+01  8.78425E+00  5.35581E+00  3.01268E+00
   2.47278E+00  3.80304E+00  6.82176E+00  1.11544E+01  1.59670E+01  1.99276E+01  2.16330E+01  2.03262E+01  1.62403E+01  1.08052E+01
   5.47133E+00  1.41945E+00 -3.57028E-01  6.07755E-01  4.22696E+00  9.21522E+00  1.38055E+01  1.70375E+01  1.87026E+01  1.91329E+01
   1.87076E+01  1.79129E+01  1.74404E+01  1.77756E+01  1.88401E+01  2.03495E+01  2.18170E+01  2.26892E+01  2.26967E+01  2.17240E+01
   1.99987E+01  1.82295E+01  1.72714E+01  1.75342E+01  1.88938E+01  2.09903E+01  2.32060E+01  2.49173E+01  2.58907E+01  2.64234E+01
   2.70578E+01  2.80073E+01  2.96107E+01  3.24239E+01  3.84023E+01  4.81239E+01  6.03833E+01  7.72946E+01  9.92930E+01  1.22099E+02
   1.37428E+02  1.38123E+02  1.23255E+02  9.90975E+01  7.45944E+01  5.58105E+01  4.27587E+01  3.20001E+01  2.43982E+01  2.17057E+01
   2.04725E+01  1.96886E+01  1.92678E+01  1.91223E+01  1.90376E+01  1.89159E+01  1.86949E+01  1.83776E+01  1.80232E+01  1.77003E+01
   1.74344E+01  1.72514E+01  1.71864E+01  1.72379E+01  1.73694E+01  1.75449E+01  1.77574E+01  1.80203E+01  1.83449E+01  1.87291E+01
   1.91820E+01  1.97086E+01  2.02984E+01  2.09288E+01  2.15819E+01  2.22431E+01  2.29018E+01  2.35510E+01  2.41849E+01  2.47968E+01
   2.53820E+01  2.59310E+01  2.64327E+01  2.68766E+01  2.72559E+01  2.75694E+01  2.78205E+01  2.80145E+01  2.81633E+01  2.82804E+01
   2.83789E+01  2.84729E+01  2.85771E+01  2.87059E+01  2.88729E+01  2.90895E+01  2.93646E+01  2.97040E+01  3.01114E+01  3.05890E+01
   3.11403E+01  3.17709E+01  3.24525E+01  3.31578E+01  3.38631E+01  3.45043E+01  3.49942E+01  3.52707E+01  3.53411E+01  3.53066E+01
   3.52816E+01  3.53192E+01  3.54427E+01  3.56394E+01  3.58777E+01  3.61152E+01  3.62344E+01  3.61309E+01  3.58085E+01  3.53358E+01
   3.48030E+01  3.42628E+01  3.37134E+01  3.31780E+01  3.26967E+01  3.22600E+01  3.18604E+01  3.14934E+01  3.11539E+01  3.08349E+01
   3.05275E+01  3.02221E+01  2.99089E+01  2.95784E+01  2.92218E+01  2.88308E+01  2.83992E+01  2.79229E+01  2.74002E+01  2.68318E+01
   2.62202E+01  2.55696E+01  2.48857E+01  2.41760E+01  2.34490E+01  2.27135E+01  2.19779E+01  2.12505E+01  2.05391E+01  1.98511E+01
   1.91930E+01  1.85702E+01  1.79868E+01  1.74461E+01  1.69508E+01  1.65030E+01  1.61042E+01  1.57552E+01  1.54562E+01  1.52073E+01
   1.50088E+01  1.48611E+01  1.47644E+01  1.47185E+01  1.47234E+01  1.47793E+01  1.48863E+01  1.50445E+01  1.52532E+01  1.55111E+01
   1.58162E+01  1.61660E+01  1.65569E+01  1.69841E+01  1.74409E+01  1.79196E+01  1.84109E+01  1.89049E+01  1.93904E+01  1.98552E+01
   2.02867E+01  2.06724E+01  2.10005E+01  2.12605E+01  2.14433E+01  2.15417E+01  2.15505E+01  2.14673E+01  2.12927E+01  2.10300E+01
   2.06845E+01  2.02639E+01  1.97774E+01  1.92360E+01  1.86516E+01  1.80363E+01  1.74018E+01  1.67593E+01  1.61189E+01  1.54898E+01
   1.48801E+01  1.42957E+01  1.37414E+01  1.32201E+01  1.27338E+01  1.22836E+01  1.18693E+01  1.14900E+01  1.11438E+01  1.08289E+01
   1.05429E+01  1.02838E+01  1.00492E+01  9.83654E+00  9.64346E+00  9.46781E+00  9.30781E+00  9.16185E+00  9.02830E+00  8.90556E+00
   8.79228E+00  8.68743E+00  8.59024E+00  8.49993E+00  8.41566E+00  8.33659E+00  8.26214E+00  8.19196E+00  8.12578E+00  8.06320E+00
   8.00373E+00  7.94695E+00  7.89267E+00  7.84083E+00  7.79132E+00  7.74388E+00  7.69817E+00  7.65400E+00  7.61134E+00  7.57025E+00
   7.53063E+00  7.49224E+00  7.45486E+00  7.41845E+00  7.38308E+00  7.34881E+00  7.31552E+00  7.28296E+00  7.25103E+00  7.21977E+00
   7.18932E+00  7.15966E+00  7.13064E+00  7.10208E+00  7.07395E+00  7.04639E+00  7.01947E+00  6.99314E+00  6.96721E+00  6.94156E+00
   6.91626E+00  6.89146E+00  6.86718E+00  6.84332E+00  6.81970E+00  6.79630E+00  6.77323E+00  6.75064E+00  6.72847E+00  6.70658E+00
   6.68486E+00  6.66334E+00  6.64220E+00  6.62151E+00  6.60118E+00  6.58104E+00  6.56107E+00  6.54140E+00
 NY background values follow
     3.209E+01    3.186E+01    3.163E+01    3.141E+01    3.118E+01    3.095E+01    3.072E+01    3.049E+01    3.026E+01    3.004E+01
     2.981E+01    2.958E+01    2.935E+01    2.912E+01    2.889E+01    2.867E+01    2.844E+01    2.821E+01    2.798E+01    2.776E+01
     2.753E+01    2.730E+01    2.708E+01    2.685E+01    2.662E+01    2.640E+01    2.617E+01    2.595E+01    2.573E+01    2.550E+01
     2.528E+01    2.506E+01    2.483E+01    2.461E+01    2.439E+01    2.417E+01    2.395E+01    2.373E+01    2.351E+01    2.329E+01
     2.307E+01    2.286E+01    2.264E+01    2.243E+01    2.221E+01    2.200E+01    2.178E+01    2.157E+01    2.136E+01    2.115E+01
     2.094E+01    2.073E+01    2.052E+01    2.032E+01    2.011E+01    1.991E+01    1.970E+01    1.950E+01    1.930E+01    1.910E+01
     1.890E+01    1.870E+01    1.850E+01    1.831E+01    1.811E+01    1.792E+01    1.773E+01    1.754E+01    1.735E+01    1.716E+01
     1.697E+01    1.679E+01    1.660E+01    1.642E+01    1.624E+01    1.606E+01    1.588E+01    1.570E+01    1.553E+01    1.536E+01
     1.518E+01    1.501E+01    1.484E+01    1.468E+01    1.451E+01    1.435E+01    1.419E+01    1.403E+01    1.387E+01    1.371E+01
     1.355E+01    1.340E+01    1.325E+01    1.310E+01    1.295E+01    1.281E+01    1.266E+01    1.252E+01    1.238E+01    1.224E+01
     1.210E+01    1.197E+01    1.183E+01    1.170E+01    1.157E+01    1.144E+01    1.132E+01    1.119E+01    1.107E+01    1.094E+01
     1.082E+01    1.071E+01    1.059E+01    1.047E+01    1.036E+01    1.025E+01    1.013E+01    1.003E+01    9.918E+00    9.812E+00
     9.707E+00    9.604E+00    9.502E+00    9.402E+00    9.303E+00    9.205E+00    9.110E+00    9.015E+00    8.922E+00    8.831E+00
     8.740E+00    8.652E+00    8.564E+00    8.478E+00    8.394E+00    8.310E+00    8.228E+00    8.148E+00    8.068E+00    7.991E+00
     7.914E+00    7.839E+00    7.765E+00    7.693E+00    7.622E+00    7.552E+00    7.484E+00    7.418E+00    7.352E+00    7.289E+00
     7.226E+00    7.166E+00    7.106E+00    7.049E+00    6.992E+00    6.938E+00    6.885E+00    6.833E+00    6.783E+00    6.734E+00
     6.688E+00    6.642E+00    6.599E+00    6.556E+00    6.516E+00    6.477E+00    6.440E+00    6.404E+00    6.371E+00    6.338E+00
     6.308E+00    6.279E+00    6.252E+00    6.227E+00    6.203E+00    6.181E+00    6.161E+00    6.143E+00    6.126E+00    6.111E+00
     6.098E+00    6.087E+00    6.078E+00    6.070E+00    6.064E+00    6.060E+00    6.057E+00    6.056E+00    6.057E+00    6.059E+00
     6.062E+00    6.068E+00    6.074E+00    6.082E+00    6.091E+00    6.102E+00    6.114E+00    6.127E+00    6.141E+00    6.157E+00
     6.173E+00    6.191E+00    6.210E+00    6.229E+00    6.250E+00    6.272E+00    6.294E+00    6.318E+00    6.342E+00    6.367E+00
     6.393E+00    6.419E+00    6.447E+00    6.474E+00    6.503E+00    6.532E+00    6.561E+00    6.592E+00    6.622E+00    6.653E+00
     6.684E+00    6.716E+00    6.748E+00    6.780E+00    6.812E+00    6.845E+00    6.878E+00    6.911E+00    6.944E+00    6.977E+00
     7.010E+00    7.043E+00    7.077E+00    7.110E+00    7.143E+00    7.177E+00    7.210E+00    7.244E+00    7.277E+00    7.311E+00
     7.344E+00    7.377E+00    7.411E+00    7.444E+00    7.477E+00    7.510E+00    7.543E+00    7.576E+00    7.609E+00    7.642E+00
     7.674E+00    7.707E+00    7.739E+00    7.771E+00    7.803E+00    7.835E+00    7.866E+00    7.897E+00    7.928E+00    7.959E+00
     7.990E+00    8.020E+00    8.050E+00    8.080E+00    8.109E+00    8.138E+00    8.167E+00    8.196E+00    8.224E+00    8.252E+00
     8.279E+00    8.306E+00    8.333E+00    8.359E+00    8.385E+00    8.410E+00    8.435E+00    8.460E+00    8.484E+00    8.508E+00
     8.531E+00    8.554E+00    8.577E+00    8.599E+00    8.620E+00    8.641E+00    8.662E+00    8.682E+00    8.702E+00    8.721E+00
     8.740E+00    8.758E+00    8.776E+00    8.793E+00    8.810E+00    8.826E+00    8.842E+00    8.857E+00    8.871E+00    8.886E+00
     8.899E+00    8.912E+00    8.924E+00    8.936E+00    8.948E+00    8.958E+00    8.968E+00    8.978E+00    8.987E+00    8.995E+00
     9.003E+00    9.010E+00    9.017E+00    9.022E+00    9.028E+00    9.032E+00    9.036E+00    9.040E+00    9.042E+00    9.045E+00
     9.046E+00    9.047E+00    9.047E+00    9.047E+00    9.046E+00    9.044E+00    9.042E+00    9.040E+00    9.036E+00    9.033E+00
     9.028E+00    9.024E+00    9.018E+00    9.013E+00    9.006E+00    8.999E+00    8.992E+00    8.984E+00    8.976E+00    8.968E+00
     8.959E+00    8.949E+00    8.939E+00    8.929E+00    8.918E+00    8.907E+00    8.895E+00    8.883E+00    8.871E+00    8.858E+00
     8.845E+00    8.832E+00    8.818E+00    8.804E+00    8.790E+00    8.775E+00    8.760E+00    8.745E+00    8.730E+00    8.714E+00
     8.698E+00    8.681E+00    8.665E+00    8.648E+00    8.631E+00    8.614E+00    8.596E+00    8.579E+00    8.561E+00    8.543E+00
     8.524E+00    8.506E+00    8.487E+00    8.469E+00    8.450E+00    8.431E+00    8.411E+00    8.392E+00    8.373E+00    8.353E+00
     8.333E+00    8.314E+00    8.294E+00    8.274E+00    8.254E+00    8.234E+00    8.213E+00    8.193E+00    8.173E+00    8.152E+00
     8.132E+00    8.112E+00    8.091E+00    8.071E+00    8.050E+00    8.030E+00    8.009E+00    7.989E+00    7.969E+00    7.948E+00
     7.928E+00    7.908E+00    7.888E+00    7.867E+00    7.847E+00    7.827E+00    7.807E+00    7.788E+00    7.768E+00    7.748E+00
     7.729E+00    7.709E+00    7.690E+00    7.671E+00    7.651E+00    7.632E+00    7.613E+00    7.594E+00    7.576E+00    7.557E+00
     7.538E+00    7.520E+00    7.501E+00    7.483E+00    7.464E+00    7.446E+00    7.428E+00    7.410E+00    7.392E+00    7.374E+00
     7.356E+00    7.338E+00    7.321E+00    7.303E+00    7.286E+00    7.268E+00    7.251E+00    7.233E+00    7.216E+00    7.199E+00
     7.182E+00    7.165E+00    7.148E+00    7.131E+00    7.114E+00    7.097E+00    7.080E+00    7.063E+00    7.047E+00    7.030E+00
     7.014E+00    6.997E+00    6.981E+00    6.964E+00    6.948E+00    6.932E+00    6.916E+00    6.900E+00    6.883E+00    6.867E+00
     6.851E+00    6.835E+00    6.820E+00    6.804E+00    6.788E+00    6.772E+00    6.756E+00    6.741E+00    6.725E+00    6.710E+00
     6.694E+00    6.679E+00    6.663E+00    6.648E+00    6.632E+00    6.617E+00    6.602E+00    6.587E+00    6.571E+00    6.556E+00
     6.541E+00    6.526E+00    6.511E+00    6.496E+00    6.481E+00    6.466E+00    6.451E+00    6.436E+00    6.421E+00    6.407E+00
     6.392E+00    6.377E+00    6.362E+00    6.348E+00    6.333E+00    6.319E+00    6.304E+00    6.289E+00
 Ala      Conc. = 6.64E+01
