 LCModel (Version 6.3-1L) Copyright: S.W. Provencher.          Ref.: Magn. Reson. Med. 30:672-679 (1993).                
 Slice#2 Row#1 Col#2  K_02_press_1_raw_act
 36 lines in following concentration table = NCONC+1
    Conc.  %SD /Cr+PCr  Metabolite                                         
    0.000 999%   0.000 Ala                                                 
    4.780 138%   0.163 Asp                                                 
   17.725  81%   0.606 Cr                                                  
   11.526 114%   0.394 PCr                                                 
    2.684 146% 9.2E-02 GABA                                                
    2.294 174% 7.8E-02 Glc                                                 
   28.014  85%   0.958 Gln                                                 
   35.861  81%   1.226 Glu                                                 
    6.772 177%   0.232 GPC                                                 
    1.339 917% 4.6E-02 PCh                                                 
    3.924 214%   0.134 GSH                                                 
    0.000 999%   0.000 Ins                                                 
   24.549  67%   0.839 Lac                                                 
   33.053  53%   1.130 NAA                                                 
    0.000 999%   0.000 NAAG                                                
    0.751 170% 2.6E-02 Scyllo                                              
    5.796 111%   0.198 Tau                                                 
    2.561 408% 8.8E-02 -CrCH2                                              
    8.111  59%   0.277 GPC+PCh                                             
   33.053  53%   1.130 NAA+NAAG                                            
   29.251  55%   1.000 Cr+PCr                                              
   63.875  65%   2.184 Glu+Gln                                             
    0.000 999%   0.000 Lip13a                                              
    0.000 999%   0.000 Lip13b                                              
    0.000 999%   0.000 Lip09                                               
   23.428 166%   0.801 MM09                                                
    0.000 999%   0.000 Lip20                                               
    0.000 999%   0.000 MM20                                                
    2.038 999% 7.0E-02 MM12                                                
  381.631  15%  13.047+MM14                                                
    0.000 999%   0.000 MM17                                                
    0.000 999%   0.000 Lip13a+Lip13b                                       
  383.669  17%  13.117 MM14+Lip13a+Lip13b+MM12                             
   23.428 166%   0.801 MM09+Lip09                                          
    0.000 999%   0.000 MM20+Lip20                                          
   6 lines in following misc. output table
  FWHM = 0.023 ppm    S/N =   1                                            
  Data shift = 0.023 ppm                                                   
  Ph: 143 deg      36.4 deg/ppm                                            
  alphaB,S = 8.5E+01,   1.6E+00                                            
   14 spline knots.   Ns = 5(1)                                            
   2 inflections.     2 extrema                                            
  498 points on ppm-axis = NY
      4.000000     3.992357     3.984714     3.977070     3.969427     3.961784     3.954141     3.946497     3.938854     3.931211
      3.923568     3.915925     3.908281     3.900638     3.892995     3.885352     3.877708     3.870065     3.862422     3.854779
      3.847136     3.839492     3.831849     3.824206     3.816563     3.808919     3.801276     3.793633     3.785990     3.778347
      3.770703     3.763060     3.755417     3.747774     3.740130     3.732487     3.724844     3.717201     3.709558     3.701914
      3.694271     3.686628     3.678985     3.671341     3.663698     3.656055     3.648412     3.640769     3.633125     3.625482
      3.617839     3.610196     3.602552     3.594909     3.587266     3.579623     3.571980     3.564336     3.556693     3.549050
      3.541407     3.533763     3.526120     3.518477     3.510834     3.503191     3.495547     3.487904     3.480261     3.472618
      3.464974     3.457331     3.449688     3.442045     3.434402     3.426758     3.419115     3.411472     3.403829     3.396185
      3.388542     3.380899     3.373256     3.365613     3.357969     3.350326     3.342683     3.335040     3.327396     3.319753
      3.312110     3.304467     3.296824     3.289180     3.281537     3.273894     3.266251     3.258607     3.250964     3.243321
      3.235678     3.228034     3.220391     3.212748     3.205105     3.197462     3.189818     3.182175     3.174532     3.166889
      3.159245     3.151602     3.143959     3.136316     3.128673     3.121029     3.113386     3.105743     3.098100     3.090456
      3.082813     3.075170     3.067527     3.059884     3.052240     3.044597     3.036954     3.029311     3.021667     3.014024
      3.006381     2.998738     2.991095     2.983451     2.975808     2.968165     2.960522     2.952878     2.945235     2.937592
      2.929949     2.922306     2.914662     2.907019     2.899376     2.891733     2.884089     2.876446     2.868803     2.861160
      2.853517     2.845873     2.838230     2.830587     2.822944     2.815300     2.807657     2.800014     2.792371     2.784728
      2.777084     2.769441     2.761798     2.754155     2.746511     2.738868     2.731225     2.723582     2.715939     2.708295
      2.700652     2.693009     2.685366     2.677722     2.670079     2.662436     2.654793     2.647150     2.639506     2.631863
      2.624220     2.616577     2.608933     2.601290     2.593647     2.586004     2.578361     2.570717     2.563074     2.555431
      2.547788     2.540144     2.532501     2.524858     2.517215     2.509572     2.501928     2.494285     2.486642     2.478999
      2.471355     2.463712     2.456069     2.448426     2.440783     2.433139     2.425496     2.417853     2.410210     2.402566
      2.394923     2.387280     2.379637     2.371994     2.364350     2.356707     2.349064     2.341421     2.333777     2.326134
      2.318491     2.310848     2.303205     2.295561     2.287918     2.280275     2.272632     2.264988     2.257345     2.249702
      2.242059     2.234416     2.226772     2.219129     2.211486     2.203843     2.196199     2.188556     2.180913     2.173270
      2.165627     2.157983     2.150340     2.142697     2.135054     2.127410     2.119767     2.112124     2.104481     2.096838
      2.089194     2.081551     2.073908     2.066265     2.058621     2.050978     2.043335     2.035692     2.028049     2.020405
      2.012762     2.005119     1.997476     1.989833     1.982190     1.974546     1.966903     1.959260     1.951617     1.943974
      1.936331     1.928688     1.921045     1.913402     1.905759     1.898115     1.890472     1.882829     1.875186     1.867543
      1.859900     1.852257     1.844614     1.836971     1.829327     1.821684     1.814041     1.806398     1.798755     1.791112
      1.783469     1.775826     1.768183     1.760540     1.752896     1.745253     1.737610     1.729967     1.722324     1.714681
      1.707038     1.699395     1.691752     1.684108     1.676465     1.668822     1.661179     1.653536     1.645893     1.638250
      1.630607     1.622964     1.615321     1.607677     1.600034     1.592391     1.584748     1.577105     1.569462     1.561819
      1.554176     1.546533     1.538890     1.531246     1.523603     1.515960     1.508317     1.500674     1.493031     1.485388
      1.477745     1.470102     1.462458     1.454815     1.447172     1.439529     1.431886     1.424243     1.416600     1.408957
      1.401314     1.393671     1.386027     1.378384     1.370741     1.363098     1.355455     1.347812     1.340169     1.332526
      1.324883     1.317240     1.309596     1.301953     1.294310     1.286667     1.279024     1.271381     1.263738     1.256095
      1.248452     1.240808     1.233165     1.225522     1.217879     1.210236     1.202593     1.194950     1.187307     1.179664
      1.172021     1.164377     1.156734     1.149091     1.141448     1.133805     1.126162     1.118519     1.110876     1.103233
      1.095590     1.087946     1.080303     1.072660     1.065017     1.057374     1.049731     1.042088     1.034445     1.026802
      1.019158     1.011515     1.003872     0.996229     0.988586     0.980943     0.973300     0.965657     0.958014     0.950371
      0.942727     0.935084     0.927441     0.919798     0.912155     0.904512     0.896869     0.889226     0.881583     0.873940
      0.866296     0.858653     0.851010     0.843367     0.835724     0.828081     0.820438     0.812795     0.805152     0.797508
      0.789865     0.782222     0.774579     0.766936     0.759293     0.751650     0.744007     0.736364     0.728721     0.721077
      0.713434     0.705791     0.698148     0.690505     0.682862     0.675219     0.667576     0.659933     0.652290     0.644646
      0.637003     0.629360     0.621717     0.614074     0.606431     0.598788     0.591145     0.583502     0.575858     0.568215
      0.560572     0.552929     0.545286     0.537643     0.530000     0.522357     0.514714     0.507071     0.499427     0.491784
      0.484141     0.476498     0.468855     0.461212     0.453569     0.445925     0.438282     0.430639     0.422996     0.415353
      0.407710     0.400067     0.392424     0.384780     0.377137     0.369494     0.361851     0.354208     0.346565     0.338922
      0.331278     0.323635     0.315992     0.308349     0.300706     0.293063     0.285420     0.277777     0.270133     0.262490
      0.254847     0.247204     0.239561     0.231918     0.224275     0.216631     0.208988     0.201345
 NY phased data points follow
  -3.78299E+00  5.31705E-01 -2.00588E+00 -2.20503E+00  5.03126E-01  3.60768E-02 -3.26603E+00  1.55175E+00  1.73171E+00 -3.84209E+00
   7.58978E-02 -1.09038E-01 -2.09634E+00 -1.83621E+00 -2.10208E+00 -7.20281E-01 -2.60816E+00  3.62605E-01 -4.25218E+00 -3.17858E+00
   3.24043E+00 -1.38161E+00 -9.84143E-01 -2.30401E+00 -8.10713E-01 -2.47026E+00 -1.33406E+00 -5.40520E-01 -1.23823E+00  2.05761E+00
   2.79577E+00 -9.52943E-01 -8.38429E-01 -1.68007E+00  3.49217E-01 -3.89634E+00 -6.45548E-01  2.80285E+00 -7.10330E-01  7.10129E-01
  -1.65579E+00 -2.40043E+00  6.74143E-01 -1.47845E+00 -7.76803E-01 -2.68290E+00 -3.50187E+00  7.84851E-01 -5.02894E-01 -4.02486E+00
  -2.65907E+00 -6.32343E-01  6.89603E-01 -2.24817E+00 -1.29882E+00 -8.17809E-01 -7.08134E-01 -1.17953E+00 -6.06654E-01 -2.29280E+00
  -2.41787E+00 -2.81587E-01  2.77378E+00 -3.31086E+00  1.42853E+00 -1.61095E+00 -5.95896E+00  8.49712E-01  1.48505E-01 -3.73526E+00
  -2.35602E+00  2.18639E-01 -3.38058E+00 -1.74726E+00  6.66857E-03 -1.82408E+00 -6.59335E-01 -3.33856E+00 -3.26468E+00  1.12723E+00
   2.75543E+00  8.79448E-02 -4.15034E+00  2.05378E+00 -4.90252E+00 -1.28900E+00  1.17770E+00 -1.44525E+00 -1.72333E+00 -4.07842E+00
  -1.23010E+00 -2.01506E-01  4.27511E-01 -2.13629E+00 -4.09234E+00  6.34676E-01 -3.02604E+00  1.53385E+00 -1.91298E-01  3.70163E+00
  -8.30404E-01  3.54667E+00  3.25071E+00 -3.03990E+00 -1.84719E+00 -2.02279E-01 -2.13841E+00 -2.32413E+00 -2.84967E+00 -3.71251E+00
  -3.67374E+00 -4.09748E+00  1.48155E+00  6.89480E-01 -1.66862E+00 -2.58431E+00  1.83837E+00 -2.13601E+00  2.00354E-01 -2.34166E+00
   2.16241E+00 -1.22258E+00  2.51955E+00 -6.17017E-01  1.35595E+00  4.50269E+00  1.71935E-01  2.84065E+00 -3.77614E+00 -5.51077E+00
  -2.39816E+00 -1.20692E+00 -1.85807E+00 -1.76061E+00 -1.10706E-01  1.40586E+00  1.41967E+00 -2.04617E-01  1.02417E+00  2.51484E+00
  -5.32819E+00 -1.65899E+00 -8.80217E-01 -5.17787E-01 -3.18000E+00  5.55969E-01 -1.03441E+00 -2.28394E-01  7.92989E-01 -4.14425E-01
  -1.78368E+00 -8.08752E-01  1.90339E+00 -2.13509E+00  4.50927E-01 -2.76834E+00 -4.54061E-01 -3.39807E+00 -1.89696E+00 -1.32651E+00
  -1.43258E+00 -3.24451E+00  3.66253E-01  8.32840E-01 -3.03546E+00 -1.22567E+00 -1.36704E-01 -8.53788E-01  6.77956E-01 -1.87978E+00
  -4.39786E+00 -2.84751E-01 -2.04535E+00  4.11502E-01 -8.85506E-01  5.47414E-02  2.60007E-01 -5.18082E-01 -4.33578E-01 -6.78401E-01
  -4.70109E+00  4.40154E-01 -9.20685E-01  6.06488E-01 -7.55178E-01 -3.73512E+00 -3.09599E+00  2.06698E-01  1.64000E+00 -4.71518E-01
  -1.36298E+00 -1.82581E+00 -4.42204E+00 -3.09992E+00 -1.09179E+00 -1.71506E+00 -2.26129E+00 -3.65786E+00 -1.77897E+00  2.30135E+00
  -8.51833E-01 -1.03389E+00  3.02238E+00 -1.45611E+00 -5.06720E-01 -2.64638E+00 -4.42440E+00 -1.70086E+00 -3.05644E+00  1.22724E-01
  -1.60291E+00  5.88453E-01 -2.06186E+00 -8.67088E-01 -1.57100E+00 -6.06490E-02 -2.41867E+00 -3.25920E+00 -3.73550E+00 -1.72128E+00
  -2.67442E+00 -1.73275E+00 -6.64102E-01 -1.78065E+00  4.65810E-01 -2.62530E+00 -3.12967E+00  1.04040E+00 -2.82038E+00  2.02836E-01
  -1.85948E+00  1.17361E+00 -2.54951E+00 -2.16135E+00  1.08369E+00 -3.49449E+00 -6.81289E-01 -2.22881E+00 -1.88040E+00 -5.76132E-01
  -2.14588E+00 -2.82127E-02 -8.21886E-01 -1.63947E+00 -2.35253E+00 -5.33042E+00 -3.49617E+00  1.99272E-01 -2.17760E+00 -3.03070E+00
  -2.70448E+00 -1.81001E+00 -1.99920E+00  2.52674E-01 -1.32415E+00 -4.24930E+00  1.11158E+00  2.48938E+00  1.76606E+00  1.37025E+00
  -4.32141E+00 -6.60335E+00 -6.71077E+00 -3.88636E+00 -4.11329E+00  8.91536E-01 -1.31847E+00  1.53934E+00 -1.79101E+00 -1.06574E+00
   1.36891E+00 -9.30636E-02  1.30552E+00 -1.91186E+00 -1.20903E-01 -1.72001E+00  4.20308E-01 -3.26341E+00  8.43734E-01 -3.90493E+00
  -1.08629E+00 -2.80995E+00 -8.09529E-01 -1.40163E+00 -1.28091E+00 -6.95221E-01 -1.40571E+00 -3.65201E+00  1.81298E-01 -8.51357E-01
   5.83702E-01 -2.13984E+00 -2.46058E-01 -1.01475E+00  1.82415E+00 -1.78269E+00 -1.85001E+00  1.23208E-02 -1.96620E+00 -4.69535E+00
   3.13001E-01 -2.04752E+00 -4.90922E+00 -1.50618E+00  2.58976E-01  1.18383E+00  9.62348E-01 -3.97470E+00 -3.05446E+00 -4.23214E-01
  -4.04443E+00 -1.20306E+00 -2.06205E+00  9.39637E-02 -3.33106E-01  1.14456E+00  3.19449E-02  8.00836E-01 -4.30570E-01 -4.07229E-01
   2.71663E+00  1.00342E+00  3.03985E+00  2.36329E+00  2.14317E+00  2.69206E+00  3.89664E+00  5.60856E+00  4.40958E+00  6.71767E+00
   3.21512E+00  6.22695E+00  5.91345E+00  2.97684E+00  3.18497E+00  1.45092E+00  4.30744E+00  2.89262E+00  2.85357E+00  1.74778E+00
   7.71203E-01  4.06337E+00  1.64026E-01  2.61104E+00 -3.56049E+00  1.53810E-01 -3.55663E+00 -4.46030E+00 -4.21957E+00 -1.88262E+00
  -2.98269E+00 -1.41730E+00 -4.39627E+00 -1.10467E+00  1.04918E+00 -2.55468E+00 -8.93586E-01 -2.83224E+00 -2.19168E+00 -2.84419E+00
  -2.21543E+00 -2.38339E+00  3.71445E+00  5.95712E-01  9.24721E-02  1.59039E+00 -1.39478E+00  8.23135E-01 -1.00798E-01  3.76293E-01
   4.25035E-01 -2.58111E+00  1.89404E+00 -2.79022E+00 -3.15386E+00  7.00299E-01 -1.56610E+00 -1.49710E+00  1.50547E+00 -3.07556E+00
   7.08037E-01  5.46001E-01  4.86429E-01  3.71141E-01  1.04166E-01 -5.60423E-01  3.23888E-01 -2.37172E+00  4.23163E-02 -2.50121E+00
  -2.68431E+00  1.83680E+00  9.07441E-01 -2.00466E+00 -1.36996E+00 -1.24330E+00 -1.93270E+00 -3.32139E+00  2.99993E-02 -2.81130E+00
  -3.63920E+00  1.89940E+00 -1.25569E+00  1.01312E+00 -1.25699E+00 -1.17275E-01 -3.57737E+00 -3.00478E+00  2.11406E-01  1.48131E-01
  -2.40486E+00 -5.24474E-01  2.66418E-01  1.58103E+00  1.55112E+00 -2.64737E+00 -7.85960E-01 -1.02125E+00  1.92765E+00  2.62923E+00
   6.12489E-01  1.42235E+00  7.01015E-01 -1.07659E+00 -1.98712E+00 -7.34426E-02 -1.52218E+00 -1.99272E+00  9.87270E-01 -4.94655E+00
   2.02364E+00  1.72876E+00  6.13763E-01  1.03381E+00  5.95191E-01  3.06834E+00 -1.98747E+00  1.48510E+00  1.46948E+00 -9.31601E-01
  -2.03619E+00 -2.29895E+00  1.68248E+00 -3.57802E-01 -3.54211E-02 -5.60306E-01  2.02535E+00  1.53690E+00  1.51050E+00  6.32699E-01
  -1.56002E+00  1.76760E+00  1.64801E+00 -4.65821E-01 -5.96801E-01  7.52046E-01 -7.44969E-01  1.45516E+00  2.94808E+00  1.77295E+00
   1.20326E+00 -3.52502E-01  1.13655E+00 -1.38744E+00 -2.09171E+00 -1.77142E+00  2.49592E+00  3.43709E+00  5.24818E-01  6.29952E-02
   9.41466E-01 -2.04969E-01  1.32668E+00  9.63598E-01 -9.72865E-01 -4.43027E-01  1.34831E+00 -1.19694E+00 -4.61012E-01 -1.77058E+00
   1.48050E+00 -7.53922E-01  2.78872E+00 -8.18839E-01 -1.84667E+00 -6.04589E-01  4.10750E-01 -9.25021E-01  1.34358E+00 -1.39025E+00
   1.46489E-01 -2.85302E-01 -6.98795E-01  9.23469E-01 -7.49590E-01 -1.54579E+00 -2.55124E+00 -3.50376E+00
 NY points of the fit to the data follow
  -1.21347E+00 -1.22321E+00 -1.20009E+00 -1.12025E+00 -9.03883E-01 -6.27989E-01 -3.09580E-01  1.81512E-01  3.82508E-01  1.07822E-01
  -3.47198E-01 -1.13934E+00 -2.09143E+00 -2.44267E+00 -2.06817E+00 -1.54785E+00 -1.29237E+00 -1.27603E+00 -1.27679E+00 -1.19570E+00
  -1.09087E+00 -1.05719E+00 -1.16159E+00 -1.37141E+00 -1.59768E+00 -1.72548E+00 -1.60657E+00 -1.08847E+00 -3.85313E-01 -1.51065E-02
  -1.67500E-01 -7.12335E-01 -1.46865E+00 -2.14161E+00 -2.36707E+00 -2.06736E+00 -1.51989E+00 -9.67895E-01 -6.03973E-01 -6.35333E-01
  -9.54192E-01 -1.21528E+00 -1.31085E+00 -1.33102E+00 -1.30805E+00 -1.26290E+00 -1.24381E+00 -1.22417E+00 -1.16866E+00 -1.13678E+00
  -1.17214E+00 -1.23056E+00 -1.25950E+00 -1.25586E+00 -1.24792E+00 -1.25261E+00 -1.25748E+00 -1.24805E+00 -1.22880E+00 -1.21327E+00
  -1.20730E+00 -1.20113E+00 -1.18764E+00 -1.17849E+00 -1.17398E+00 -1.18665E+00 -1.22234E+00 -1.24625E+00 -1.24574E+00 -1.23347E+00
  -1.18627E+00 -1.10778E+00 -1.05693E+00 -1.04498E+00 -1.08104E+00 -1.19733E+00 -1.32825E+00 -1.36035E+00 -1.28766E+00 -1.17947E+00
  -1.08637E+00 -1.02073E+00 -9.92145E-01 -9.95134E-01 -1.00207E+00 -1.05261E+00 -1.17565E+00 -1.27304E+00 -1.26800E+00 -1.21235E+00
  -1.18316E+00 -1.20736E+00 -1.24645E+00 -1.21858E+00 -1.09955E+00 -9.63422E-01 -8.42192E-01 -5.92591E-01  1.44781E-01  1.07804E+00
   1.76057E+00  1.91095E+00  6.75526E-01 -1.71504E+00 -3.31776E+00 -3.12616E+00 -2.05363E+00 -1.25212E+00 -1.03364E+00 -1.09235E+00
  -1.13365E+00 -1.12936E+00 -1.11938E+00 -1.11174E+00 -1.10608E+00 -1.10514E+00 -1.10600E+00 -1.10430E+00 -1.09881E+00 -1.07083E+00
  -9.92819E-01 -7.54893E-01  2.25245E-02  1.28764E+00  2.32777E+00  2.72611E+00  1.77905E+00 -8.06683E-01 -3.24169E+00 -3.69528E+00
  -2.62687E+00 -1.51116E+00 -1.06262E+00 -1.11864E+00 -1.23331E+00 -1.21348E+00 -1.11610E+00 -1.00769E+00 -9.40324E-01 -9.41938E-01
  -9.92622E-01 -1.04710E+00 -1.07162E+00 -1.06564E+00 -1.05357E+00 -1.06178E+00 -1.08612E+00 -1.09706E+00 -1.08557E+00 -1.06981E+00
  -1.06199E+00 -1.05829E+00 -1.05335E+00 -1.04628E+00 -1.03927E+00 -1.04601E+00 -1.08853E+00 -1.14652E+00 -1.18820E+00 -1.18434E+00
  -1.08566E+00 -9.44322E-01 -8.68365E-01 -8.99575E-01 -1.01747E+00 -1.13071E+00 -1.15270E+00 -1.10787E+00 -1.06757E+00 -1.05776E+00
  -1.07077E+00 -1.10366E+00 -1.13827E+00 -1.14026E+00 -1.11034E+00 -1.03911E+00 -9.55151E-01 -9.46117E-01 -1.03437E+00 -1.12492E+00
  -1.10834E+00 -1.00941E+00 -9.58604E-01 -9.91049E-01 -1.03658E+00 -1.01735E+00 -8.88649E-01 -7.34841E-01 -7.07006E-01 -8.26171E-01
  -9.84587E-01 -1.10716E+00 -1.17304E+00 -1.17926E+00 -1.13988E+00 -1.08426E+00 -9.96784E-01 -8.21963E-01 -5.80334E-01 -3.69129E-01
  -2.67827E-01 -3.35070E-01 -5.94068E-01 -9.29461E-01 -1.28239E+00 -1.72551E+00 -2.06461E+00 -2.07883E+00 -1.81947E+00 -1.18520E+00
  -2.56135E-01  4.40932E-01  5.31308E-01  2.27237E-01 -2.38451E-01 -9.31695E-01 -1.67926E+00 -2.10384E+00 -2.10229E+00 -1.84359E+00
  -1.46736E+00 -9.23283E-01 -2.35852E-01  1.75255E-01  1.23317E-02 -4.45870E-01 -8.21197E-01 -1.01556E+00 -1.08934E+00 -1.09984E+00
  -1.04392E+00 -9.59039E-01 -8.99327E-01 -8.92773E-01 -9.09449E-01 -7.90308E-01 -5.06387E-01 -3.58879E-01 -5.72911E-01 -9.02157E-01
  -1.15226E+00 -1.34161E+00 -1.32270E+00 -1.05609E+00 -8.28720E-01 -7.95888E-01 -8.25684E-01 -8.32299E-01 -8.07126E-01 -7.13723E-01
  -5.66593E-01 -4.75955E-01 -5.23107E-01 -6.54621E-01 -6.26318E-01  2.04445E-01  1.73222E+00  3.03559E+00  3.71681E+00  2.71114E+00
  -4.93657E-01 -3.45407E+00 -3.87384E+00 -2.53228E+00 -1.24889E+00 -7.38708E-01 -7.45295E-01 -8.33741E-01 -8.56532E-01 -8.29745E-01
  -7.67635E-01 -6.93958E-01 -6.43604E-01 -6.48225E-01 -6.95677E-01 -7.46420E-01 -7.81688E-01 -8.00672E-01 -8.05813E-01 -7.98976E-01
  -7.80099E-01 -7.56800E-01 -7.40610E-01 -7.32673E-01 -7.28267E-01 -7.27726E-01 -7.32029E-01 -7.35878E-01 -7.35046E-01 -7.33585E-01
  -7.34053E-01 -7.33744E-01 -7.31761E-01 -7.28887E-01 -7.25196E-01 -7.21125E-01 -7.17188E-01 -7.13293E-01 -7.08923E-01 -7.03649E-01
  -6.97170E-01 -6.89019E-01 -6.79020E-01 -6.66938E-01 -6.51730E-01 -6.32262E-01 -6.07673E-01 -5.76933E-01 -5.38845E-01 -4.92278E-01
  -4.36111E-01 -3.69132E-01 -2.90009E-01 -1.97538E-01 -9.09368E-02  3.00447E-02  1.65234E-01  3.14119E-01  4.75759E-01  6.48499E-01
   8.29839E-01  1.01651E+00  1.20475E+00  1.39052E+00  1.56950E+00  1.73711E+00  1.88858E+00  2.01942E+00  2.12576E+00  2.20462E+00
   2.25392E+00  2.27239E+00  2.25970E+00  2.21673E+00  2.14580E+00  2.05065E+00  1.93616E+00  1.80839E+00  1.67525E+00  1.54856E+00
   1.45037E+00  1.43646E+00  1.57476E+00  1.56799E+00  1.17497E+00  4.28597E-01 -7.69987E-01 -1.95110E+00 -2.20910E+00 -1.56127E+00
  -6.06985E-01  1.57397E-01  7.13330E-01  1.27691E+00  1.35482E+00  5.06642E-01 -5.83830E-01 -1.08656E+00 -9.97271E-01 -7.38263E-01
  -5.93128E-01 -5.68256E-01 -5.69741E-01 -5.67577E-01 -5.64878E-01 -5.62342E-01 -5.59825E-01 -5.57271E-01 -5.54757E-01 -5.52366E-01
  -5.50051E-01 -5.47681E-01 -5.45148E-01 -5.42458E-01 -5.39674E-01 -5.36831E-01 -5.33863E-01 -5.30661E-01 -5.27143E-01 -5.23305E-01
  -5.19170E-01 -5.14722E-01 -5.09872E-01 -5.04516E-01 -4.98586E-01 -4.92079E-01 -4.85003E-01 -4.77339E-01 -4.69024E-01 -4.60017E-01
  -4.50333E-01 -4.40057E-01 -4.29290E-01 -4.18127E-01 -4.06655E-01 -3.95007E-01 -3.83375E-01 -3.72007E-01 -3.61142E-01 -3.50993E-01
  -3.41745E-01 -3.33593E-01 -3.26738E-01 -3.21368E-01 -3.17595E-01 -3.15455E-01 -3.14919E-01 -3.15941E-01 -3.18447E-01 -3.22329E-01
  -3.27403E-01 -3.33441E-01 -3.40195E-01 -3.47451E-01 -3.55014E-01 -3.62700E-01 -3.70303E-01 -3.77636E-01 -3.84550E-01 -3.90964E-01
  -3.96829E-01 -4.02113E-01 -4.06767E-01 -4.10769E-01 -4.14134E-01 -4.16919E-01 -4.19183E-01 -4.20969E-01 -4.22292E-01 -4.23184E-01
  -4.23694E-01 -4.23900E-01 -4.23854E-01 -4.23579E-01 -4.23078E-01 -4.22372E-01 -4.21500E-01 -4.20514E-01 -4.19431E-01 -4.18250E-01
  -4.16955E-01 -4.15562E-01 -4.14105E-01 -4.12616E-01 -4.11091E-01 -4.09511E-01 -4.07862E-01 -4.06168E-01 -4.04454E-01 -4.02737E-01
  -4.00998E-01 -3.99218E-01 -3.97390E-01 -3.95541E-01 -3.93694E-01 -3.91854E-01 -3.89995E-01 -3.88102E-01 -3.86177E-01 -3.84250E-01
  -3.82334E-01 -3.80421E-01 -3.78483E-01 -3.76512E-01 -3.74525E-01 -3.72553E-01 -3.70596E-01 -3.68637E-01 -3.66647E-01 -3.64632E-01
  -3.62611E-01 -3.60612E-01 -3.58624E-01 -3.56623E-01 -3.54591E-01 -3.52544E-01 -3.50507E-01 -3.48493E-01 -3.46482E-01 -3.44450E-01
  -3.42389E-01 -3.40324E-01 -3.38277E-01 -3.36250E-01 -3.34215E-01 -3.32154E-01 -3.30071E-01 -3.27996E-01 -3.25943E-01 -3.23903E-01
  -3.21844E-01 -3.19757E-01 -3.17657E-01 -3.15574E-01 -3.13513E-01 -3.11454E-01 -3.09365E-01 -3.07250E-01
 NY background values follow
    -1.366E+00   -1.363E+00   -1.361E+00   -1.359E+00   -1.357E+00   -1.355E+00   -1.353E+00   -1.351E+00   -1.349E+00   -1.346E+00
    -1.344E+00   -1.342E+00   -1.340E+00   -1.338E+00   -1.336E+00   -1.334E+00   -1.332E+00   -1.329E+00   -1.327E+00   -1.325E+00
    -1.323E+00   -1.321E+00   -1.319E+00   -1.317E+00   -1.315E+00   -1.313E+00   -1.310E+00   -1.308E+00   -1.306E+00   -1.304E+00
    -1.302E+00   -1.300E+00   -1.298E+00   -1.296E+00   -1.293E+00   -1.291E+00   -1.289E+00   -1.287E+00   -1.285E+00   -1.283E+00
    -1.281E+00   -1.279E+00   -1.276E+00   -1.274E+00   -1.272E+00   -1.270E+00   -1.268E+00   -1.266E+00   -1.264E+00   -1.262E+00
    -1.259E+00   -1.257E+00   -1.255E+00   -1.253E+00   -1.251E+00   -1.249E+00   -1.247E+00   -1.245E+00   -1.243E+00   -1.240E+00
    -1.238E+00   -1.236E+00   -1.234E+00   -1.232E+00   -1.230E+00   -1.228E+00   -1.226E+00   -1.223E+00   -1.221E+00   -1.219E+00
    -1.217E+00   -1.215E+00   -1.213E+00   -1.211E+00   -1.209E+00   -1.206E+00   -1.204E+00   -1.202E+00   -1.200E+00   -1.198E+00
    -1.196E+00   -1.194E+00   -1.192E+00   -1.189E+00   -1.187E+00   -1.185E+00   -1.183E+00   -1.181E+00   -1.179E+00   -1.177E+00
    -1.175E+00   -1.172E+00   -1.170E+00   -1.168E+00   -1.166E+00   -1.164E+00   -1.162E+00   -1.160E+00   -1.158E+00   -1.156E+00
    -1.153E+00   -1.151E+00   -1.149E+00   -1.147E+00   -1.145E+00   -1.143E+00   -1.141E+00   -1.139E+00   -1.136E+00   -1.134E+00
    -1.132E+00   -1.130E+00   -1.128E+00   -1.126E+00   -1.124E+00   -1.122E+00   -1.119E+00   -1.117E+00   -1.115E+00   -1.113E+00
    -1.111E+00   -1.109E+00   -1.107E+00   -1.105E+00   -1.102E+00   -1.100E+00   -1.098E+00   -1.096E+00   -1.094E+00   -1.092E+00
    -1.090E+00   -1.088E+00   -1.085E+00   -1.083E+00   -1.081E+00   -1.079E+00   -1.077E+00   -1.075E+00   -1.073E+00   -1.071E+00
    -1.069E+00   -1.066E+00   -1.064E+00   -1.062E+00   -1.060E+00   -1.058E+00   -1.056E+00   -1.054E+00   -1.052E+00   -1.049E+00
    -1.047E+00   -1.045E+00   -1.043E+00   -1.041E+00   -1.039E+00   -1.037E+00   -1.035E+00   -1.032E+00   -1.030E+00   -1.028E+00
    -1.026E+00   -1.024E+00   -1.022E+00   -1.020E+00   -1.018E+00   -1.015E+00   -1.013E+00   -1.011E+00   -1.009E+00   -1.007E+00
    -1.005E+00   -1.003E+00   -1.001E+00   -9.985E-01   -9.964E-01   -9.942E-01   -9.921E-01   -9.900E-01   -9.879E-01   -9.858E-01
    -9.836E-01   -9.815E-01   -9.794E-01   -9.773E-01   -9.751E-01   -9.730E-01   -9.709E-01   -9.688E-01   -9.667E-01   -9.645E-01
    -9.624E-01   -9.603E-01   -9.582E-01   -9.561E-01   -9.539E-01   -9.518E-01   -9.497E-01   -9.476E-01   -9.454E-01   -9.433E-01
    -9.412E-01   -9.391E-01   -9.370E-01   -9.348E-01   -9.327E-01   -9.306E-01   -9.285E-01   -9.263E-01   -9.242E-01   -9.221E-01
    -9.200E-01   -9.179E-01   -9.157E-01   -9.136E-01   -9.115E-01   -9.094E-01   -9.072E-01   -9.051E-01   -9.030E-01   -9.009E-01
    -8.988E-01   -8.966E-01   -8.945E-01   -8.924E-01   -8.903E-01   -8.881E-01   -8.860E-01   -8.839E-01   -8.818E-01   -8.797E-01
    -8.775E-01   -8.754E-01   -8.733E-01   -8.712E-01   -8.690E-01   -8.669E-01   -8.648E-01   -8.627E-01   -8.605E-01   -8.584E-01
    -8.563E-01   -8.542E-01   -8.521E-01   -8.499E-01   -8.478E-01   -8.457E-01   -8.436E-01   -8.414E-01   -8.393E-01   -8.372E-01
    -8.351E-01   -8.330E-01   -8.308E-01   -8.287E-01   -8.266E-01   -8.245E-01   -8.223E-01   -8.202E-01   -8.181E-01   -8.160E-01
    -8.139E-01   -8.117E-01   -8.096E-01   -8.075E-01   -8.054E-01   -8.032E-01   -8.011E-01   -7.990E-01   -7.969E-01   -7.948E-01
    -7.926E-01   -7.905E-01   -7.884E-01   -7.863E-01   -7.841E-01   -7.820E-01   -7.799E-01   -7.778E-01   -7.756E-01   -7.735E-01
    -7.714E-01   -7.693E-01   -7.672E-01   -7.650E-01   -7.629E-01   -7.608E-01   -7.587E-01   -7.565E-01   -7.544E-01   -7.523E-01
    -7.502E-01   -7.481E-01   -7.459E-01   -7.438E-01   -7.417E-01   -7.396E-01   -7.374E-01   -7.353E-01   -7.332E-01   -7.311E-01
    -7.289E-01   -7.268E-01   -7.247E-01   -7.226E-01   -7.205E-01   -7.183E-01   -7.162E-01   -7.141E-01   -7.120E-01   -7.098E-01
    -7.077E-01   -7.056E-01   -7.035E-01   -7.014E-01   -6.992E-01   -6.971E-01   -6.950E-01   -6.929E-01   -6.907E-01   -6.886E-01
    -6.865E-01   -6.844E-01   -6.822E-01   -6.801E-01   -6.780E-01   -6.759E-01   -6.738E-01   -6.716E-01   -6.695E-01   -6.674E-01
    -6.653E-01   -6.631E-01   -6.610E-01   -6.589E-01   -6.568E-01   -6.546E-01   -6.525E-01   -6.504E-01   -6.483E-01   -6.462E-01
    -6.440E-01   -6.419E-01   -6.398E-01   -6.377E-01   -6.355E-01   -6.334E-01   -6.313E-01   -6.292E-01   -6.270E-01   -6.249E-01
    -6.228E-01   -6.207E-01   -6.186E-01   -6.164E-01   -6.143E-01   -6.122E-01   -6.101E-01   -6.079E-01   -6.058E-01   -6.037E-01
    -6.016E-01   -5.994E-01   -5.973E-01   -5.952E-01   -5.931E-01   -5.910E-01   -5.888E-01   -5.867E-01   -5.846E-01   -5.825E-01
    -5.803E-01   -5.782E-01   -5.761E-01   -5.740E-01   -5.718E-01   -5.697E-01   -5.676E-01   -5.655E-01   -5.634E-01   -5.612E-01
    -5.591E-01   -5.570E-01   -5.549E-01   -5.527E-01   -5.506E-01   -5.485E-01   -5.464E-01   -5.442E-01   -5.421E-01   -5.400E-01
    -5.379E-01   -5.358E-01   -5.336E-01   -5.315E-01   -5.294E-01   -5.273E-01   -5.251E-01   -5.230E-01   -5.209E-01   -5.188E-01
    -5.166E-01   -5.145E-01   -5.124E-01   -5.103E-01   -5.082E-01   -5.060E-01   -5.039E-01   -5.018E-01   -4.997E-01   -4.975E-01
    -4.954E-01   -4.933E-01   -4.912E-01   -4.890E-01   -4.869E-01   -4.848E-01   -4.827E-01   -4.806E-01   -4.784E-01   -4.763E-01
    -4.742E-01   -4.721E-01   -4.699E-01   -4.678E-01   -4.657E-01   -4.636E-01   -4.614E-01   -4.593E-01   -4.572E-01   -4.551E-01
    -4.529E-01   -4.508E-01   -4.487E-01   -4.466E-01   -4.445E-01   -4.423E-01   -4.402E-01   -4.381E-01   -4.360E-01   -4.338E-01
    -4.317E-01   -4.296E-01   -4.275E-01   -4.253E-01   -4.232E-01   -4.211E-01   -4.190E-01   -4.169E-01   -4.147E-01   -4.126E-01
    -4.105E-01   -4.084E-01   -4.062E-01   -4.041E-01   -4.020E-01   -3.999E-01   -3.977E-01   -3.956E-01   -3.935E-01   -3.914E-01
    -3.893E-01   -3.871E-01   -3.850E-01   -3.829E-01   -3.808E-01   -3.786E-01   -3.765E-01   -3.744E-01   -3.723E-01   -3.701E-01
    -3.680E-01   -3.659E-01   -3.638E-01   -3.616E-01   -3.595E-01   -3.574E-01   -3.553E-01   -3.532E-01   -3.510E-01   -3.489E-01
    -3.468E-01   -3.447E-01   -3.425E-01   -3.404E-01   -3.383E-01   -3.362E-01   -3.340E-01   -3.319E-01   -3.298E-01   -3.277E-01
    -3.256E-01   -3.234E-01   -3.213E-01   -3.192E-01   -3.171E-01   -3.149E-01   -3.128E-01   -3.107E-01
 Asp      Conc. = 4.78E+00
