 LCModel (Version 6.3-1L) Copyright: S.W. Provencher.          Ref.: Magn. Reson. Med. 30:672-679 (1993).                
 Slice#1 Row#13 Col#5  K_02_press_1_raw_act
 36 lines in following concentration table = NCONC+1
    Conc.  %SD /Cr+PCr  Metabolite                                         
   77.291 132%   0.190 Ala                                                 
    0.000 999%   0.000 Asp                                                 
  329.271  50%   0.810 Cr                                                  
   77.377 217%   0.190 PCr                                                 
   36.936 170% 9.1E-02 GABA                                                
   47.210 129%   0.116 Glc                                                 
  351.289  73%   0.864 Gln                                                 
  637.780  45%   1.568 Glu                                                 
  157.137   9%   0.386 GPC                                                 
    0.000 999%   0.000 PCh                                                 
  308.922  19%   0.760 GSH                                                 
 1.65E+03  13%   4.056 Ins                                                 
  370.937  33%   0.912 Lac                                                 
  875.966   5%   2.154 NAA                                                 
    0.000 999%   0.000 NAAG                                                
   69.664  23%   0.171 Scyllo                                              
  101.569  96%   0.250 Tau                                                 
  277.827  28%   0.683 -CrCH2                                              
  157.137   9%   0.386 GPC+PCh                                             
  875.966   5%   2.154 NAA+NAAG                                            
  406.648   9%   1.000 Cr+PCr                                              
  989.070  49%   2.432 Glu+Gln                                             
 1.44E+03  21%   3.542 Lip13a                                              
    0.000 999%   0.000 Lip13b                                              
  478.333  24%   1.176 Lip09                                               
   30.902 509% 7.6E-02 MM09                                                
  264.991  40%   0.652 Lip20                                               
    0.000 999%   0.000 MM20                                                
    7.579 999% 1.9E-02 MM12                                                
    7.877 999% 1.9E-02 MM14                                                
  112.416 121%   0.276 MM17                                                
 1.44E+03  21%   3.542 Lip13a+Lip13b                                       
 1.46E+03  23%   3.580 MM14+Lip13a+Lip13b+MM12                             
  509.235  22%   1.252 MM09+Lip09                                          
  264.991  40%   0.652 MM20+Lip20                                          
   6 lines in following misc. output table
  FWHM = 0.084 ppm    S/N =   5                                            
  Data shift =-0.008 ppm                                                   
  Ph: -53 deg     -24.0 deg/ppm                                            
  alphaB,S = 7.0E-01,   1.8E+02                                            
   14 spline knots.   Ns = 9(1)                                            
  (13) 2 infls.   (13) 1 extrs.                                            
  498 points on ppm-axis = NY
      4.000000     3.992357     3.984714     3.977070     3.969427     3.961784     3.954141     3.946497     3.938854     3.931211
      3.923568     3.915925     3.908281     3.900638     3.892995     3.885352     3.877708     3.870065     3.862422     3.854779
      3.847136     3.839492     3.831849     3.824206     3.816563     3.808919     3.801276     3.793633     3.785990     3.778347
      3.770703     3.763060     3.755417     3.747774     3.740130     3.732487     3.724844     3.717201     3.709558     3.701914
      3.694271     3.686628     3.678985     3.671341     3.663698     3.656055     3.648412     3.640769     3.633125     3.625482
      3.617839     3.610196     3.602552     3.594909     3.587266     3.579623     3.571980     3.564336     3.556693     3.549050
      3.541407     3.533763     3.526120     3.518477     3.510834     3.503191     3.495547     3.487904     3.480261     3.472618
      3.464974     3.457331     3.449688     3.442045     3.434402     3.426758     3.419115     3.411472     3.403829     3.396185
      3.388542     3.380899     3.373256     3.365613     3.357969     3.350326     3.342683     3.335040     3.327396     3.319753
      3.312110     3.304467     3.296824     3.289180     3.281537     3.273894     3.266251     3.258607     3.250964     3.243321
      3.235678     3.228034     3.220391     3.212748     3.205105     3.197462     3.189818     3.182175     3.174532     3.166889
      3.159245     3.151602     3.143959     3.136316     3.128673     3.121029     3.113386     3.105743     3.098100     3.090456
      3.082813     3.075170     3.067527     3.059884     3.052240     3.044597     3.036954     3.029311     3.021667     3.014024
      3.006381     2.998738     2.991095     2.983451     2.975808     2.968165     2.960522     2.952878     2.945235     2.937592
      2.929949     2.922306     2.914662     2.907019     2.899376     2.891733     2.884089     2.876446     2.868803     2.861160
      2.853517     2.845873     2.838230     2.830587     2.822944     2.815300     2.807657     2.800014     2.792371     2.784728
      2.777084     2.769441     2.761798     2.754155     2.746511     2.738868     2.731225     2.723582     2.715939     2.708295
      2.700652     2.693009     2.685366     2.677722     2.670079     2.662436     2.654793     2.647150     2.639506     2.631863
      2.624220     2.616577     2.608933     2.601290     2.593647     2.586004     2.578361     2.570717     2.563074     2.555431
      2.547788     2.540144     2.532501     2.524858     2.517215     2.509572     2.501928     2.494285     2.486642     2.478999
      2.471355     2.463712     2.456069     2.448426     2.440783     2.433139     2.425496     2.417853     2.410210     2.402566
      2.394923     2.387280     2.379637     2.371994     2.364350     2.356707     2.349064     2.341421     2.333777     2.326134
      2.318491     2.310848     2.303205     2.295561     2.287918     2.280275     2.272632     2.264988     2.257345     2.249702
      2.242059     2.234416     2.226772     2.219129     2.211486     2.203843     2.196199     2.188556     2.180913     2.173270
      2.165627     2.157983     2.150340     2.142697     2.135054     2.127410     2.119767     2.112124     2.104481     2.096838
      2.089194     2.081551     2.073908     2.066265     2.058621     2.050978     2.043335     2.035692     2.028049     2.020405
      2.012762     2.005119     1.997476     1.989833     1.982190     1.974546     1.966903     1.959260     1.951617     1.943974
      1.936331     1.928688     1.921045     1.913402     1.905759     1.898115     1.890472     1.882829     1.875186     1.867543
      1.859900     1.852257     1.844614     1.836971     1.829327     1.821684     1.814041     1.806398     1.798755     1.791112
      1.783469     1.775826     1.768183     1.760540     1.752896     1.745253     1.737610     1.729967     1.722324     1.714681
      1.707038     1.699395     1.691752     1.684108     1.676465     1.668822     1.661179     1.653536     1.645893     1.638250
      1.630607     1.622964     1.615321     1.607677     1.600034     1.592391     1.584748     1.577105     1.569462     1.561819
      1.554176     1.546533     1.538890     1.531246     1.523603     1.515960     1.508317     1.500674     1.493031     1.485388
      1.477745     1.470102     1.462458     1.454815     1.447172     1.439529     1.431886     1.424243     1.416600     1.408957
      1.401314     1.393671     1.386027     1.378384     1.370741     1.363098     1.355455     1.347812     1.340169     1.332526
      1.324883     1.317240     1.309596     1.301953     1.294310     1.286667     1.279024     1.271381     1.263738     1.256095
      1.248452     1.240808     1.233165     1.225522     1.217879     1.210236     1.202593     1.194950     1.187307     1.179664
      1.172021     1.164377     1.156734     1.149091     1.141448     1.133805     1.126162     1.118519     1.110876     1.103233
      1.095590     1.087946     1.080303     1.072660     1.065017     1.057374     1.049731     1.042088     1.034445     1.026802
      1.019158     1.011515     1.003872     0.996229     0.988586     0.980943     0.973300     0.965657     0.958014     0.950371
      0.942727     0.935084     0.927441     0.919798     0.912155     0.904512     0.896869     0.889226     0.881583     0.873940
      0.866296     0.858653     0.851010     0.843367     0.835724     0.828081     0.820438     0.812795     0.805152     0.797508
      0.789865     0.782222     0.774579     0.766936     0.759293     0.751650     0.744007     0.736364     0.728721     0.721077
      0.713434     0.705791     0.698148     0.690505     0.682862     0.675219     0.667576     0.659933     0.652290     0.644646
      0.637003     0.629360     0.621717     0.614074     0.606431     0.598788     0.591145     0.583502     0.575858     0.568215
      0.560572     0.552929     0.545286     0.537643     0.530000     0.522357     0.514714     0.507071     0.499427     0.491784
      0.484141     0.476498     0.468855     0.461212     0.453569     0.445925     0.438282     0.430639     0.422996     0.415353
      0.407710     0.400067     0.392424     0.384780     0.377137     0.369494     0.361851     0.354208     0.346565     0.338922
      0.331278     0.323635     0.315992     0.308349     0.300706     0.293063     0.285420     0.277777     0.270133     0.262490
      0.254847     0.247204     0.239561     0.231918     0.224275     0.216631     0.208988     0.201345
 NY phased data points follow
  -9.18622E+01 -8.96593E+01 -9.16413E+01 -9.07992E+01 -8.78045E+01 -8.85630E+01 -8.63075E+01 -8.13641E+01 -8.07374E+01 -8.10541E+01
  -7.81359E+01 -7.94689E+01 -7.58839E+01 -7.65944E+01 -7.58748E+01 -7.85955E+01 -7.52466E+01 -7.43499E+01 -7.64150E+01 -7.60519E+01
  -7.31116E+01 -7.22753E+01 -7.29217E+01 -7.30919E+01 -7.06096E+01 -7.12189E+01 -6.61283E+01 -6.62712E+01 -6.33620E+01 -6.25934E+01
  -6.42526E+01 -5.95499E+01 -6.33678E+01 -5.96905E+01 -5.69076E+01 -5.44690E+01 -5.64889E+01 -5.57393E+01 -5.54635E+01 -5.37140E+01
  -5.62650E+01 -5.43828E+01 -5.53990E+01 -5.14343E+01 -5.23735E+01 -4.98550E+01 -4.85203E+01 -4.91853E+01 -4.58418E+01 -4.88491E+01
  -4.70158E+01 -4.92908E+01 -4.65608E+01 -4.16931E+01 -4.79882E+01 -4.39852E+01 -4.46730E+01 -4.33056E+01 -4.45520E+01 -4.61792E+01
  -4.35575E+01 -4.35708E+01 -4.35558E+01 -4.21258E+01 -4.60506E+01 -4.58806E+01 -4.19840E+01 -4.21804E+01 -4.03619E+01 -4.24293E+01
  -4.19923E+01 -3.88538E+01 -3.68353E+01 -3.81339E+01 -3.68556E+01 -3.74448E+01 -3.60500E+01 -3.65094E+01 -3.72241E+01 -3.61399E+01
  -3.56270E+01 -3.11577E+01 -3.34576E+01 -3.48808E+01 -3.47847E+01 -3.19037E+01 -3.56385E+01 -3.24972E+01 -3.13880E+01 -3.08840E+01
  -3.27215E+01 -2.92012E+01 -2.96334E+01 -2.63602E+01 -2.59255E+01 -2.89763E+01 -2.68309E+01 -2.84498E+01 -2.49288E+01 -2.42038E+01
  -2.06736E+01 -2.28240E+01 -1.96541E+01 -2.04182E+01 -1.77279E+01 -1.75222E+01 -1.87607E+01 -1.83504E+01 -2.17579E+01 -2.39196E+01
  -2.19312E+01 -2.34759E+01 -2.60457E+01 -2.58477E+01 -2.62570E+01 -2.48267E+01 -2.32147E+01 -2.15392E+01 -2.12451E+01 -2.11297E+01
  -2.06794E+01 -1.87568E+01 -2.00332E+01 -1.61608E+01 -1.53137E+01 -9.21810E+00 -1.15373E+01 -1.09964E+01 -1.21609E+01 -9.59103E+00
  -8.90258E+00 -1.29069E+01 -1.16328E+01 -1.38596E+01 -1.35244E+01 -1.68385E+01 -1.95750E+01 -1.84405E+01 -1.64051E+01 -1.89629E+01
  -1.42250E+01 -1.43291E+01 -1.83273E+01 -1.91946E+01 -1.46818E+01 -1.55673E+01 -1.78652E+01 -1.65807E+01 -1.34088E+01 -1.70883E+01
  -1.38905E+01 -1.19334E+01 -1.63342E+01 -1.43618E+01 -1.43188E+01 -1.08250E+01 -1.34928E+01 -1.21461E+01 -1.01626E+01 -1.31994E+01
  -9.81351E+00 -9.01515E+00 -7.88490E+00 -1.27611E+01 -1.14640E+01 -8.16325E+00 -8.71808E+00 -1.33122E+01 -1.28478E+01 -1.43620E+01
  -1.20438E+01 -1.12503E+01 -1.27436E+01 -1.39548E+01 -1.57786E+01 -1.57504E+01 -1.52040E+01 -1.52796E+01 -1.40699E+01 -1.12326E+01
  -1.29594E+01 -1.10679E+01 -1.03649E+01 -1.02659E+01 -9.02153E+00 -1.15271E+01 -1.13861E+01 -1.03405E+01 -9.82336E+00 -9.45427E+00
  -9.95026E+00 -9.26661E+00 -9.43969E+00 -5.04238E+00 -6.27948E+00 -7.39674E+00 -9.18952E+00 -7.60679E+00 -7.30503E+00 -5.66864E+00
  -4.89208E+00 -7.85993E+00 -4.25859E+00 -9.23468E+00 -5.13564E+00 -8.97409E+00 -4.63720E+00 -6.08192E+00 -5.73823E+00 -6.01548E+00
  -1.49931E+00 -3.38461E+00  9.06983E-01 -2.11859E+00 -2.15974E+00 -2.35985E+00 -2.39216E+00 -4.54379E+00 -3.17731E+00 -2.57396E-01
  -4.07671E+00 -2.29108E+00 -3.25090E+00 -2.60485E+00 -2.82518E+00 -3.22658E+00 -3.51185E+00 -1.09439E-01 -1.13574E+00 -3.83958E+00
   1.87971E+00 -1.45146E+00  1.89447E-01  1.44892E+00 -2.47703E-01 -1.89646E+00 -5.22355E-01 -1.81517E+00  1.49412E-01  8.17126E-01
  -2.39897E+00  1.68693E+00 -3.29504E+00 -5.81220E-01 -2.17430E-01  1.96221E-01  1.01149E-01 -2.14322E+00  2.71611E-01 -3.16015E-01
   2.02395E+00  1.53574E+00  3.53133E+00  6.61976E+00  6.54799E+00  1.04049E+01  1.25714E+01  1.75109E+01  2.25293E+01  2.41146E+01
   2.36023E+01  1.87653E+01  2.12347E+01  1.87768E+01  1.47535E+01  1.58387E+01  8.92511E+00  6.44289E+00  5.46586E+00  3.56853E+00
   1.56005E+00  1.86217E+00 -1.57442E+00  4.00486E+00  1.73466E+00  8.81292E-01  1.92407E+00  6.10080E-01  1.51158E+00  7.92365E-01
   1.06566E+00  2.26156E+00  5.26687E+00  3.34875E+00  3.45387E+00  2.55096E+00  3.14799E+00  4.95190E+00  3.41173E+00  4.58260E+00
   2.04278E+00  4.48359E+00  1.94361E+00  1.93364E+00  5.91577E+00  4.99969E+00  5.28212E+00  2.52356E+00  6.41064E+00  4.49626E+00
   5.35682E+00  7.03344E+00  5.02653E+00  5.09742E+00  7.12563E+00  8.17299E+00  3.20748E+00  3.76268E+00  3.84743E+00  6.85982E+00
   5.84666E+00  5.52982E+00  8.59421E+00  7.65561E+00  8.80403E+00  1.08265E+01  7.61860E+00  6.33887E+00  6.61752E+00  6.32746E+00
   5.20757E+00  5.73784E+00  7.78026E+00  7.59232E+00  6.47067E+00  5.11307E+00  9.25493E+00  1.06031E+01  8.90469E+00  1.01386E+01
   7.98129E+00  7.42810E+00  9.38362E+00  1.05588E+01  8.81665E+00  6.91589E+00  1.28637E+01  1.08165E+01  1.41373E+01  1.30982E+01
   1.18724E+01  1.53402E+01  1.46469E+01  1.45607E+01  1.66236E+01  1.44632E+01  1.40497E+01  1.21215E+01  1.26709E+01  1.18937E+01
   1.13477E+01  1.21351E+01  1.05324E+01  1.34417E+01  1.29427E+01  1.38756E+01  1.33231E+01  1.35176E+01  1.39462E+01  1.32527E+01
   1.17578E+01  1.45179E+01  1.64941E+01  1.57116E+01  1.37196E+01  1.24229E+01  1.43913E+01  1.27789E+01  1.30424E+01  1.45108E+01
   1.48324E+01  1.50360E+01  1.48367E+01  1.33096E+01  1.12773E+01  1.39380E+01  1.47070E+01  1.30458E+01  1.28589E+01  1.68057E+01
   1.13743E+01  1.37563E+01  1.39695E+01  1.41805E+01  1.42858E+01  1.43890E+01  1.33657E+01  9.76968E+00  1.07732E+01  9.92265E+00
   1.29426E+01  1.18756E+01  9.28939E+00  1.22289E+01  1.27265E+01  1.56667E+01  1.66931E+01  1.29176E+01  1.58342E+01  1.36064E+01
   1.53686E+01  1.70124E+01  1.59894E+01  1.93753E+01  1.85127E+01  1.90980E+01  1.85641E+01  1.95189E+01  1.79292E+01  1.69049E+01
   1.80555E+01  1.62398E+01  1.46726E+01  1.53323E+01  1.62306E+01  1.47469E+01  1.32246E+01  1.41082E+01  1.38861E+01  1.59887E+01
   1.24080E+01  1.30001E+01  1.49376E+01  1.33459E+01  1.20078E+01  1.30274E+01  1.04055E+01  1.21501E+01  9.54640E+00  1.02053E+01
   1.19581E+01  1.23193E+01  1.23186E+01  1.24953E+01  9.71317E+00  1.43226E+01  1.43914E+01  1.21718E+01  1.17157E+01  1.24498E+01
   1.44140E+01  1.29661E+01  1.16192E+01  1.20990E+01  1.06048E+01  1.04548E+01  1.14074E+01  1.39852E+01  1.37663E+01  1.05580E+01
   1.16943E+01  1.26302E+01  1.22280E+01  1.33825E+01  9.80479E+00  1.22135E+01  1.10579E+01  1.17912E+01  1.16654E+01  1.17437E+01
   1.08774E+01  9.47932E+00  9.70488E+00  1.20968E+01  1.16480E+01  1.56228E+01  1.05565E+01  1.01114E+01  1.29047E+01  1.14469E+01
   1.21085E+01  1.12867E+01  1.10032E+01  1.28922E+01  9.49285E+00  9.00069E+00  1.04026E+01  1.02456E+01  9.75743E+00  1.18128E+01
   1.09248E+01  9.10908E+00  1.17138E+01  1.14357E+01  1.15565E+01  9.15524E+00  1.26808E+01  1.24271E+01  9.40082E+00  1.19365E+01
   1.10870E+01  1.25694E+01  1.05482E+01  8.76762E+00  9.66099E+00  1.30447E+01  9.51875E+00  1.17248E+01
 NY points of the fit to the data follow
  -8.71645E+01 -8.74581E+01 -8.75031E+01 -8.72510E+01 -8.68090E+01 -8.61566E+01 -8.51748E+01 -8.38545E+01 -8.23469E+01 -8.08803E+01
  -7.96123E+01 -7.85422E+01 -7.75873E+01 -7.66997E+01 -7.58849E+01 -7.51547E+01 -7.45160E+01 -7.39957E+01 -7.36233E+01 -7.34063E+01
  -7.32308E+01 -7.29109E+01 -7.22821E+01 -7.13888E+01 -7.03445E+01 -6.91076E+01 -6.76109E+01 -6.58675E+01 -6.40139E+01 -6.22839E+01
  -6.08752E+01 -5.98210E+01 -5.90627E+01 -5.85307E+01 -5.81986E+01 -5.80578E+01 -5.80715E+01 -5.81114E+01 -5.80037E+01 -5.76748E+01
  -5.70757E+01 -5.60777E+01 -5.45938E+01 -5.27966E+01 -5.10248E+01 -4.95928E+01 -4.86642E+01 -4.81857E+01 -4.80112E+01 -4.80186E+01
  -4.81238E+01 -4.82762E+01 -4.84296E+01 -4.85437E+01 -4.85670E+01 -4.84222E+01 -4.80249E+01 -4.73373E+01 -4.64579E+01 -4.55996E+01
  -4.48867E+01 -4.43167E+01 -4.38099E+01 -4.33125E+01 -4.28203E+01 -4.23324E+01 -4.18301E+01 -4.12905E+01 -4.07034E+01 -4.00533E+01
  -3.93452E+01 -3.86236E+01 -3.79336E+01 -3.73247E+01 -3.68340E+01 -3.64642E+01 -3.61826E+01 -3.59320E+01 -3.56533E+01 -3.53833E+01
  -3.51230E+01 -3.48490E+01 -3.45443E+01 -3.42386E+01 -3.39722E+01 -3.37525E+01 -3.35364E+01 -3.32624E+01 -3.29307E+01 -3.25692E+01
  -3.22062E+01 -3.18565E+01 -3.15146E+01 -3.10746E+01 -3.03282E+01 -2.93340E+01 -2.81276E+01 -2.66516E+01 -2.49073E+01 -2.30635E+01
  -2.13759E+01 -2.01092E+01 -1.93688E+01 -1.90516E+01 -1.89900E+01 -1.91201E+01 -1.94662E+01 -2.00263E+01 -2.07852E+01 -2.16930E+01
  -2.26611E+01 -2.35619E+01 -2.42201E+01 -2.44849E+01 -2.43712E+01 -2.41088E+01 -2.37948E+01 -2.33800E+01 -2.26703E+01 -2.16721E+01
  -2.04829E+01 -1.90767E+01 -1.74144E+01 -1.55742E+01 -1.37853E+01 -1.23250E+01 -1.13538E+01 -1.08553E+01 -1.06978E+01 -1.07920E+01
  -1.11533E+01 -1.17931E+01 -1.26883E+01 -1.37955E+01 -1.50021E+01 -1.61440E+01 -1.70159E+01 -1.74485E+01 -1.74208E+01 -1.71562E+01
  -1.68401E+01 -1.65220E+01 -1.62100E+01 -1.58936E+01 -1.55590E+01 -1.52109E+01 -1.48872E+01 -1.46358E+01 -1.44701E+01 -1.43731E+01
  -1.43157E+01 -1.42640E+01 -1.42020E+01 -1.41168E+01 -1.40018E+01 -1.38730E+01 -1.37378E+01 -1.36112E+01 -1.34905E+01 -1.33527E+01
  -1.31843E+01 -1.29987E+01 -1.28276E+01 -1.26933E+01 -1.25941E+01 -1.25147E+01 -1.24439E+01 -1.23869E+01 -1.23432E+01 -1.22982E+01
  -1.22596E+01 -1.22424E+01 -1.22520E+01 -1.22495E+01 -1.21922E+01 -1.20744E+01 -1.19238E+01 -1.17883E+01 -1.16824E+01 -1.15682E+01
  -1.14196E+01 -1.12431E+01 -1.10394E+01 -1.07894E+01 -1.04666E+01 -1.00642E+01 -9.59708E+00 -9.09242E+00 -8.57286E+00 -8.08681E+00
  -7.69470E+00 -7.40715E+00 -7.20574E+00 -7.06152E+00 -6.94665E+00 -6.82839E+00 -6.67047E+00 -6.44766E+00 -6.16214E+00 -5.83042E+00
  -5.50446E+00 -5.24948E+00 -5.06686E+00 -4.96311E+00 -4.97243E+00 -5.07869E+00 -5.21569E+00 -5.29180E+00 -5.28491E+00 -5.19514E+00
  -5.00016E+00 -4.68543E+00 -4.29670E+00 -3.93657E+00 -3.68462E+00 -3.54213E+00 -3.48758E+00 -3.51928E+00 -3.62358E+00 -3.76005E+00
  -3.86827E+00 -3.89752E+00 -3.82654E+00 -3.68817E+00 -3.50142E+00 -3.22490E+00 -2.85163E+00 -2.43596E+00 -2.03730E+00 -1.66072E+00
  -1.30323E+00 -1.00332E+00 -7.85060E-01 -6.41755E-01 -5.40638E-01 -4.42853E-01 -3.78184E-01 -3.92071E-01 -4.72075E-01 -5.75371E-01
  -6.67494E-01 -7.30857E-01 -7.56615E-01 -7.39373E-01 -6.78911E-01 -5.76885E-01 -4.32199E-01 -2.22788E-01  9.99028E-02  5.57450E-01
   1.20347E+00  2.36329E+00  4.12600E+00  6.19277E+00  8.56078E+00  1.13739E+01  1.45608E+01  1.77084E+01  2.02003E+01  2.15770E+01
   2.18267E+01  2.12756E+01  2.02032E+01  1.86517E+01  1.66319E+01  1.42395E+01  1.15774E+01  8.78673E+00  6.09178E+00  3.81234E+00
   2.29297E+00  1.68308E+00  1.63674E+00  1.71724E+00  1.82784E+00  1.94841E+00  2.06608E+00  2.17861E+00  2.28812E+00  2.39218E+00
   2.48900E+00  2.57906E+00  2.66507E+00  2.75250E+00  2.84838E+00  2.95585E+00  3.07411E+00  3.20192E+00  3.33711E+00  3.47673E+00
   3.61828E+00  3.76015E+00  3.90177E+00  4.04365E+00  4.18593E+00  4.32880E+00  4.47240E+00  4.61656E+00  4.76039E+00  4.90306E+00
   5.04395E+00  5.18240E+00  5.31747E+00  5.44861E+00  5.57554E+00  5.69818E+00  5.81672E+00  5.93166E+00  6.04353E+00  6.15314E+00
   6.26140E+00  6.36954E+00  6.47885E+00  6.59093E+00  6.70751E+00  6.83078E+00  6.96377E+00  7.11225E+00  7.28454E+00  7.46905E+00
   7.65049E+00  7.82864E+00  7.99987E+00  8.14944E+00  8.25661E+00  8.30904E+00  8.32925E+00  8.35806E+00  8.41548E+00  8.51165E+00
   8.65713E+00  8.86669E+00  9.14667E+00  9.48552E+00  9.86425E+00  1.02749E+01  1.07286E+01  1.12487E+01  1.18622E+01  1.25095E+01
   1.30837E+01  1.35745E+01  1.39731E+01  1.42181E+01  1.42129E+01  1.38989E+01  1.33907E+01  1.28588E+01  1.23909E+01  1.20481E+01
   1.18771E+01  1.19241E+01  1.21954E+01  1.26148E+01  1.30804E+01  1.35462E+01  1.40391E+01  1.45862E+01  1.51298E+01  1.55382E+01
   1.57277E+01  1.57134E+01  1.55169E+01  1.51675E+01  1.47234E+01  1.42779E+01  1.39290E+01  1.36818E+01  1.34839E+01  1.33129E+01
   1.31602E+01  1.30220E+01  1.28964E+01  1.27826E+01  1.26803E+01  1.25894E+01  1.25100E+01  1.24421E+01  1.23860E+01  1.23419E+01
   1.23104E+01  1.22918E+01  1.22870E+01  1.22970E+01  1.23230E+01  1.23666E+01  1.24297E+01  1.25144E+01  1.26231E+01  1.27582E+01
   1.29222E+01  1.31172E+01  1.33448E+01  1.36058E+01  1.38997E+01  1.42245E+01  1.45768E+01  1.49507E+01  1.53389E+01  1.57316E+01
   1.61178E+01  1.64851E+01  1.68204E+01  1.71109E+01  1.73444E+01  1.75107E+01  1.76019E+01  1.76132E+01  1.75431E+01  1.73939E+01
   1.71710E+01  1.68832E+01  1.65417E+01  1.61593E+01  1.57497E+01  1.53269E+01  1.49037E+01  1.44919E+01  1.41011E+01  1.37389E+01
   1.34106E+01  1.31193E+01  1.28658E+01  1.26497E+01  1.24687E+01  1.23201E+01  1.22001E+01  1.21049E+01  1.20308E+01  1.19739E+01
   1.19310E+01  1.18990E+01  1.18756E+01  1.18584E+01  1.18459E+01  1.18367E+01  1.18296E+01  1.18241E+01  1.18193E+01  1.18149E+01
   1.18105E+01  1.18060E+01  1.18011E+01  1.17957E+01  1.17899E+01  1.17834E+01  1.17762E+01  1.17685E+01  1.17600E+01  1.17509E+01
   1.17411E+01  1.17307E+01  1.17195E+01  1.17077E+01  1.16952E+01  1.16821E+01  1.16683E+01  1.16540E+01  1.16391E+01  1.16236E+01
   1.16076E+01  1.15911E+01  1.15740E+01  1.15565E+01  1.15386E+01  1.15202E+01  1.15014E+01  1.14822E+01  1.14626E+01  1.14427E+01
   1.14225E+01  1.14019E+01  1.13811E+01  1.13600E+01  1.13387E+01  1.13172E+01  1.12955E+01  1.12736E+01  1.12516E+01  1.12295E+01
   1.12072E+01  1.11850E+01  1.11626E+01  1.11403E+01  1.11179E+01  1.10956E+01  1.10733E+01  1.10512E+01  1.10291E+01  1.10072E+01
   1.09854E+01  1.09639E+01  1.09426E+01  1.09216E+01  1.09009E+01  1.08805E+01  1.08606E+01  1.08410E+01
 NY background values follow
    -9.133E+01   -9.058E+01   -8.983E+01   -8.909E+01   -8.834E+01   -8.759E+01   -8.685E+01   -8.610E+01   -8.535E+01   -8.461E+01
    -8.386E+01   -8.312E+01   -8.237E+01   -8.163E+01   -8.089E+01   -8.014E+01   -7.940E+01   -7.866E+01   -7.793E+01   -7.719E+01
    -7.645E+01   -7.572E+01   -7.499E+01   -7.426E+01   -7.353E+01   -7.281E+01   -7.208E+01   -7.136E+01   -7.064E+01   -6.993E+01
    -6.921E+01   -6.850E+01   -6.779E+01   -6.709E+01   -6.639E+01   -6.569E+01   -6.500E+01   -6.430E+01   -6.362E+01   -6.293E+01
    -6.225E+01   -6.158E+01   -6.090E+01   -6.024E+01   -5.957E+01   -5.891E+01   -5.826E+01   -5.761E+01   -5.696E+01   -5.632E+01
    -5.568E+01   -5.505E+01   -5.442E+01   -5.380E+01   -5.318E+01   -5.257E+01   -5.196E+01   -5.135E+01   -5.075E+01   -5.016E+01
    -4.957E+01   -4.898E+01   -4.840E+01   -4.782E+01   -4.725E+01   -4.668E+01   -4.612E+01   -4.556E+01   -4.501E+01   -4.446E+01
    -4.392E+01   -4.338E+01   -4.285E+01   -4.232E+01   -4.179E+01   -4.127E+01   -4.076E+01   -4.025E+01   -3.974E+01   -3.924E+01
    -3.875E+01   -3.826E+01   -3.777E+01   -3.729E+01   -3.682E+01   -3.635E+01   -3.588E+01   -3.542E+01   -3.497E+01   -3.451E+01
    -3.407E+01   -3.363E+01   -3.319E+01   -3.276E+01   -3.234E+01   -3.192E+01   -3.150E+01   -3.109E+01   -3.068E+01   -3.028E+01
    -2.988E+01   -2.949E+01   -2.910E+01   -2.872E+01   -2.834E+01   -2.797E+01   -2.760E+01   -2.723E+01   -2.687E+01   -2.652E+01
    -2.616E+01   -2.582E+01   -2.547E+01   -2.513E+01   -2.480E+01   -2.447E+01   -2.414E+01   -2.382E+01   -2.350E+01   -2.318E+01
    -2.287E+01   -2.257E+01   -2.226E+01   -2.197E+01   -2.167E+01   -2.138E+01   -2.109E+01   -2.081E+01   -2.053E+01   -2.025E+01
    -1.998E+01   -1.971E+01   -1.944E+01   -1.918E+01   -1.892E+01   -1.867E+01   -1.842E+01   -1.817E+01   -1.792E+01   -1.768E+01
    -1.744E+01   -1.721E+01   -1.697E+01   -1.674E+01   -1.652E+01   -1.629E+01   -1.607E+01   -1.586E+01   -1.564E+01   -1.543E+01
    -1.522E+01   -1.501E+01   -1.480E+01   -1.460E+01   -1.440E+01   -1.420E+01   -1.401E+01   -1.381E+01   -1.362E+01   -1.343E+01
    -1.324E+01   -1.306E+01   -1.287E+01   -1.269E+01   -1.251E+01   -1.233E+01   -1.216E+01   -1.198E+01   -1.181E+01   -1.164E+01
    -1.147E+01   -1.130E+01   -1.113E+01   -1.096E+01   -1.080E+01   -1.063E+01   -1.047E+01   -1.030E+01   -1.014E+01   -9.983E+00
    -9.823E+00   -9.664E+00   -9.505E+00   -9.348E+00   -9.191E+00   -9.035E+00   -8.879E+00   -8.725E+00   -8.571E+00   -8.418E+00
    -8.266E+00   -8.114E+00   -7.964E+00   -7.814E+00   -7.665E+00   -7.517E+00   -7.370E+00   -7.224E+00   -7.079E+00   -6.935E+00
    -6.791E+00   -6.649E+00   -6.507E+00   -6.367E+00   -6.227E+00   -6.089E+00   -5.951E+00   -5.814E+00   -5.679E+00   -5.544E+00
    -5.411E+00   -5.278E+00   -5.147E+00   -5.017E+00   -4.887E+00   -4.759E+00   -4.632E+00   -4.506E+00   -4.381E+00   -4.258E+00
    -4.135E+00   -4.014E+00   -3.894E+00   -3.775E+00   -3.657E+00   -3.540E+00   -3.425E+00   -3.311E+00   -3.198E+00   -3.086E+00
    -2.975E+00   -2.865E+00   -2.757E+00   -2.649E+00   -2.542E+00   -2.437E+00   -2.332E+00   -2.228E+00   -2.125E+00   -2.023E+00
    -1.922E+00   -1.821E+00   -1.721E+00   -1.622E+00   -1.523E+00   -1.425E+00   -1.328E+00   -1.231E+00   -1.134E+00   -1.038E+00
    -9.427E-01   -8.476E-01   -7.529E-01   -6.585E-01   -5.644E-01   -4.706E-01   -3.770E-01   -2.836E-01   -1.904E-01   -9.732E-02
    -4.337E-03    8.859E-02    1.815E-01    2.744E-01    3.673E-01    4.603E-01    5.534E-01    6.466E-01    7.401E-01    8.337E-01
     9.275E-01    1.022E+00    1.116E+00    1.211E+00    1.306E+00    1.401E+00    1.497E+00    1.593E+00    1.689E+00    1.785E+00
     1.881E+00    1.978E+00    2.075E+00    2.172E+00    2.269E+00    2.367E+00    2.465E+00    2.562E+00    2.660E+00    2.758E+00
     2.856E+00    2.954E+00    3.053E+00    3.151E+00    3.249E+00    3.348E+00    3.446E+00    3.545E+00    3.644E+00    3.742E+00
     3.841E+00    3.939E+00    4.038E+00    4.136E+00    4.235E+00    4.333E+00    4.431E+00    4.529E+00    4.627E+00    4.725E+00
     4.823E+00    4.921E+00    5.019E+00    5.116E+00    5.213E+00    5.310E+00    5.407E+00    5.504E+00    5.601E+00    5.697E+00
     5.793E+00    5.889E+00    5.984E+00    6.079E+00    6.174E+00    6.269E+00    6.363E+00    6.457E+00    6.551E+00    6.644E+00
     6.737E+00    6.829E+00    6.921E+00    7.013E+00    7.104E+00    7.195E+00    7.285E+00    7.375E+00    7.464E+00    7.553E+00
     7.641E+00    7.729E+00    7.816E+00    7.903E+00    7.989E+00    8.075E+00    8.159E+00    8.244E+00    8.327E+00    8.410E+00
     8.492E+00    8.574E+00    8.655E+00    8.735E+00    8.815E+00    8.893E+00    8.971E+00    9.049E+00    9.125E+00    9.201E+00
     9.276E+00    9.350E+00    9.423E+00    9.495E+00    9.567E+00    9.638E+00    9.707E+00    9.776E+00    9.844E+00    9.912E+00
     9.978E+00    1.004E+01    1.011E+01    1.017E+01    1.023E+01    1.030E+01    1.036E+01    1.042E+01    1.048E+01    1.053E+01
     1.059E+01    1.065E+01    1.070E+01    1.076E+01    1.081E+01    1.086E+01    1.091E+01    1.096E+01    1.101E+01    1.106E+01
     1.111E+01    1.115E+01    1.120E+01    1.124E+01    1.129E+01    1.133E+01    1.137E+01    1.141E+01    1.145E+01    1.149E+01
     1.152E+01    1.156E+01    1.159E+01    1.163E+01    1.166E+01    1.169E+01    1.172E+01    1.175E+01    1.178E+01    1.181E+01
     1.183E+01    1.186E+01    1.188E+01    1.190E+01    1.192E+01    1.194E+01    1.196E+01    1.198E+01    1.200E+01    1.201E+01
     1.203E+01    1.204E+01    1.206E+01    1.207E+01    1.208E+01    1.209E+01    1.210E+01    1.211E+01    1.212E+01    1.212E+01
     1.213E+01    1.213E+01    1.214E+01    1.214E+01    1.214E+01    1.214E+01    1.214E+01    1.214E+01    1.214E+01    1.214E+01
     1.213E+01    1.213E+01    1.213E+01    1.212E+01    1.211E+01    1.211E+01    1.210E+01    1.209E+01    1.208E+01    1.207E+01
     1.206E+01    1.205E+01    1.204E+01    1.202E+01    1.201E+01    1.200E+01    1.198E+01    1.197E+01    1.195E+01    1.193E+01
     1.192E+01    1.190E+01    1.188E+01    1.186E+01    1.184E+01    1.182E+01    1.180E+01    1.178E+01    1.176E+01    1.174E+01
     1.172E+01    1.169E+01    1.167E+01    1.165E+01    1.163E+01    1.160E+01    1.158E+01    1.156E+01    1.153E+01    1.151E+01
     1.149E+01    1.146E+01    1.144E+01    1.141E+01    1.139E+01    1.137E+01    1.134E+01    1.132E+01    1.129E+01    1.127E+01
     1.124E+01    1.122E+01    1.120E+01    1.117E+01    1.115E+01    1.113E+01    1.110E+01    1.108E+01
 Ala      Conc. = 7.73E+01
