 LCModel (Version 6.3-1L) Copyright: S.W. Provencher.          Ref.: Magn. Reson. Med. 30:672-679 (1993).                
 Slice#1 Row#10 Col#1  K_02_press_1_raw_act
 36 lines in following concentration table = NCONC+1
    Conc.  %SD /Cr+PCr  Metabolite                                         
    0.000 999%   0.000 Ala                                                 
    9.235 122%   0.101 Asp                                                 
    0.000 999%   0.000 Cr                                                  
   91.617  21%   1.000 PCr                                                 
    5.080 133% 5.5E-02 GABA                                                
    4.770 142% 5.2E-02 Glc                                                 
    0.000 999%   0.000 Gln                                                 
   87.137 111%   0.951 Glu                                                 
   20.369  36%   0.222 GPC                                                 
    0.000 999%   0.000 PCh                                                 
   10.095 280%   0.110 GSH                                                 
    0.000 999%   0.000 Ins                                                 
    0.000 999%   0.000 Lac                                                 
    3.295 801% 3.6E-02 NAA                                                 
   38.188  68%   0.417 NAAG                                                
    0.952 233% 1.0E-02 Scyllo                                              
    3.157 354% 3.4E-02 Tau                                                 
    0.000 999%   0.000 -CrCH2                                              
   20.369  36%   0.222 GPC+PCh                                             
   41.483  59%   0.453 NAA+NAAG                                            
   91.617  21%   1.000 Cr+PCr                                              
   87.137 111%   0.951 Glu+Gln                                             
    0.000 999%   0.000 Lip13a                                              
   60.193  94%   0.657 Lip13b                                              
   16.999 160%   0.186 Lip09                                               
    0.899 999% 9.8E-03 MM09                                                
   11.491 161%   0.125 Lip20                                               
    0.000 999%   0.000 MM20                                                
    0.254 999% 2.8E-03 MM12                                                
    0.000 999%   0.000 MM14                                                
    2.236 868% 2.4E-02 MM17                                                
   60.193  94%   0.657 Lip13a+Lip13b                                       
   60.447  94%   0.660 MM14+Lip13a+Lip13b+MM12                             
   17.898 168%   0.195 MM09+Lip09                                          
   11.491 161%   0.125 MM20+Lip20                                          
   6 lines in following misc. output table
  FWHM = 0.061 ppm    S/N =   1                                            
  Data shift = 0.008 ppm                                                   
  Ph:  84 deg      14.6 deg/ppm                                            
  alphaB,S = 9.0E-01,   2.4E+01                                            
   14 spline knots.   Ns = 5(1)                                            
  ( 8) 4 infls.   ( 8) 2 extrs.                                            
  498 points on ppm-axis = NY
      4.000000     3.992357     3.984714     3.977070     3.969427     3.961784     3.954141     3.946497     3.938854     3.931211
      3.923568     3.915925     3.908281     3.900638     3.892995     3.885352     3.877708     3.870065     3.862422     3.854779
      3.847136     3.839492     3.831849     3.824206     3.816563     3.808919     3.801276     3.793633     3.785990     3.778347
      3.770703     3.763060     3.755417     3.747774     3.740130     3.732487     3.724844     3.717201     3.709558     3.701914
      3.694271     3.686628     3.678985     3.671341     3.663698     3.656055     3.648412     3.640769     3.633125     3.625482
      3.617839     3.610196     3.602552     3.594909     3.587266     3.579623     3.571980     3.564336     3.556693     3.549050
      3.541407     3.533763     3.526120     3.518477     3.510834     3.503191     3.495547     3.487904     3.480261     3.472618
      3.464974     3.457331     3.449688     3.442045     3.434402     3.426758     3.419115     3.411472     3.403829     3.396185
      3.388542     3.380899     3.373256     3.365613     3.357969     3.350326     3.342683     3.335040     3.327396     3.319753
      3.312110     3.304467     3.296824     3.289180     3.281537     3.273894     3.266251     3.258607     3.250964     3.243321
      3.235678     3.228034     3.220391     3.212748     3.205105     3.197462     3.189818     3.182175     3.174532     3.166889
      3.159245     3.151602     3.143959     3.136316     3.128673     3.121029     3.113386     3.105743     3.098100     3.090456
      3.082813     3.075170     3.067527     3.059884     3.052240     3.044597     3.036954     3.029311     3.021667     3.014024
      3.006381     2.998738     2.991095     2.983451     2.975808     2.968165     2.960522     2.952878     2.945235     2.937592
      2.929949     2.922306     2.914662     2.907019     2.899376     2.891733     2.884089     2.876446     2.868803     2.861160
      2.853517     2.845873     2.838230     2.830587     2.822944     2.815300     2.807657     2.800014     2.792371     2.784728
      2.777084     2.769441     2.761798     2.754155     2.746511     2.738868     2.731225     2.723582     2.715939     2.708295
      2.700652     2.693009     2.685366     2.677722     2.670079     2.662436     2.654793     2.647150     2.639506     2.631863
      2.624220     2.616577     2.608933     2.601290     2.593647     2.586004     2.578361     2.570717     2.563074     2.555431
      2.547788     2.540144     2.532501     2.524858     2.517215     2.509572     2.501928     2.494285     2.486642     2.478999
      2.471355     2.463712     2.456069     2.448426     2.440783     2.433139     2.425496     2.417853     2.410210     2.402566
      2.394923     2.387280     2.379637     2.371994     2.364350     2.356707     2.349064     2.341421     2.333777     2.326134
      2.318491     2.310848     2.303205     2.295561     2.287918     2.280275     2.272632     2.264988     2.257345     2.249702
      2.242059     2.234416     2.226772     2.219129     2.211486     2.203843     2.196199     2.188556     2.180913     2.173270
      2.165627     2.157983     2.150340     2.142697     2.135054     2.127410     2.119767     2.112124     2.104481     2.096838
      2.089194     2.081551     2.073908     2.066265     2.058621     2.050978     2.043335     2.035692     2.028049     2.020405
      2.012762     2.005119     1.997476     1.989833     1.982190     1.974546     1.966903     1.959260     1.951617     1.943974
      1.936331     1.928688     1.921045     1.913402     1.905759     1.898115     1.890472     1.882829     1.875186     1.867543
      1.859900     1.852257     1.844614     1.836971     1.829327     1.821684     1.814041     1.806398     1.798755     1.791112
      1.783469     1.775826     1.768183     1.760540     1.752896     1.745253     1.737610     1.729967     1.722324     1.714681
      1.707038     1.699395     1.691752     1.684108     1.676465     1.668822     1.661179     1.653536     1.645893     1.638250
      1.630607     1.622964     1.615321     1.607677     1.600034     1.592391     1.584748     1.577105     1.569462     1.561819
      1.554176     1.546533     1.538890     1.531246     1.523603     1.515960     1.508317     1.500674     1.493031     1.485388
      1.477745     1.470102     1.462458     1.454815     1.447172     1.439529     1.431886     1.424243     1.416600     1.408957
      1.401314     1.393671     1.386027     1.378384     1.370741     1.363098     1.355455     1.347812     1.340169     1.332526
      1.324883     1.317240     1.309596     1.301953     1.294310     1.286667     1.279024     1.271381     1.263738     1.256095
      1.248452     1.240808     1.233165     1.225522     1.217879     1.210236     1.202593     1.194950     1.187307     1.179664
      1.172021     1.164377     1.156734     1.149091     1.141448     1.133805     1.126162     1.118519     1.110876     1.103233
      1.095590     1.087946     1.080303     1.072660     1.065017     1.057374     1.049731     1.042088     1.034445     1.026802
      1.019158     1.011515     1.003872     0.996229     0.988586     0.980943     0.973300     0.965657     0.958014     0.950371
      0.942727     0.935084     0.927441     0.919798     0.912155     0.904512     0.896869     0.889226     0.881583     0.873940
      0.866296     0.858653     0.851010     0.843367     0.835724     0.828081     0.820438     0.812795     0.805152     0.797508
      0.789865     0.782222     0.774579     0.766936     0.759293     0.751650     0.744007     0.736364     0.728721     0.721077
      0.713434     0.705791     0.698148     0.690505     0.682862     0.675219     0.667576     0.659933     0.652290     0.644646
      0.637003     0.629360     0.621717     0.614074     0.606431     0.598788     0.591145     0.583502     0.575858     0.568215
      0.560572     0.552929     0.545286     0.537643     0.530000     0.522357     0.514714     0.507071     0.499427     0.491784
      0.484141     0.476498     0.468855     0.461212     0.453569     0.445925     0.438282     0.430639     0.422996     0.415353
      0.407710     0.400067     0.392424     0.384780     0.377137     0.369494     0.361851     0.354208     0.346565     0.338922
      0.331278     0.323635     0.315992     0.308349     0.300706     0.293063     0.285420     0.277777     0.270133     0.262490
      0.254847     0.247204     0.239561     0.231918     0.224275     0.216631     0.208988     0.201345
 NY phased data points follow
   5.14074E+01  5.26836E+01  5.18871E+01  4.80323E+01  5.05873E+01  4.86318E+01  5.00428E+01  4.79324E+01  4.57664E+01  4.57026E+01
   4.78824E+01  4.73167E+01  4.48874E+01  4.39290E+01  4.38996E+01  4.44007E+01  4.63255E+01  4.56683E+01  4.53919E+01  4.24031E+01
   4.15425E+01  4.10060E+01  4.05882E+01  4.07438E+01  4.18198E+01  4.11295E+01  4.14644E+01  4.24183E+01  4.04914E+01  3.96832E+01
   3.90599E+01  3.84345E+01  3.79610E+01  3.96014E+01  3.88472E+01  4.02255E+01  3.81503E+01  3.90414E+01  3.61940E+01  3.85857E+01
   3.92429E+01  3.79457E+01  3.64212E+01  3.76476E+01  3.48249E+01  3.66403E+01  3.62889E+01  3.61331E+01  3.69444E+01  3.25462E+01
   3.44559E+01  3.51544E+01  3.62128E+01  3.43190E+01  3.45599E+01  3.09235E+01  3.36703E+01  3.26980E+01  3.25110E+01  3.03056E+01
   3.14922E+01  3.13380E+01  3.15038E+01  2.86541E+01  3.05131E+01  3.01918E+01  2.87946E+01  2.98979E+01  2.94633E+01  2.80268E+01
   2.89147E+01  2.85765E+01  3.02359E+01  2.76472E+01  2.71024E+01  2.83952E+01  2.86510E+01  2.82590E+01  2.70585E+01  2.96803E+01
   2.54980E+01  2.51273E+01  2.67607E+01  2.76394E+01  2.55649E+01  2.60718E+01  2.57083E+01  2.61125E+01  2.64037E+01  2.55863E+01
   2.63218E+01  2.46850E+01  2.34745E+01  2.57512E+01  2.51218E+01  2.28840E+01  2.72075E+01  2.40605E+01  2.63951E+01  2.43395E+01
   2.35137E+01  2.73183E+01  2.64245E+01  2.85899E+01  2.59387E+01  2.57432E+01  2.43048E+01  2.63321E+01  2.13645E+01  2.33875E+01
   2.19382E+01  2.56178E+01  2.33055E+01  2.22039E+01  2.20037E+01  2.30469E+01  2.03697E+01  2.24022E+01  2.24051E+01  2.09933E+01
   2.27704E+01  2.39897E+01  2.49633E+01  2.09433E+01  2.35606E+01  2.46658E+01  2.26839E+01  2.43864E+01  2.31992E+01  2.53564E+01
   2.33886E+01  2.08252E+01  2.14485E+01  2.13621E+01  2.17988E+01  2.04951E+01  2.10344E+01  2.30078E+01  2.08028E+01  1.86677E+01
   1.97139E+01  2.11553E+01  1.93254E+01  2.01458E+01  1.89699E+01  1.86235E+01  1.88260E+01  1.83548E+01  2.22929E+01  1.91843E+01
   1.99874E+01  1.84621E+01  1.78873E+01  1.98974E+01  1.80302E+01  1.99535E+01  2.06037E+01  2.05237E+01  1.91022E+01  1.94759E+01
   2.17562E+01  1.94861E+01  1.80450E+01  1.96821E+01  2.02952E+01  1.74839E+01  1.93387E+01  1.54593E+01  1.77538E+01  1.81682E+01
   1.78240E+01  1.89992E+01  1.75886E+01  1.78803E+01  1.78393E+01  1.72762E+01  1.75714E+01  1.90912E+01  1.64642E+01  1.83804E+01
   1.74474E+01  1.53965E+01  1.77001E+01  1.57153E+01  1.74341E+01  2.05132E+01  1.68964E+01  1.74849E+01  1.76313E+01  1.82779E+01
   1.68989E+01  1.68196E+01  1.67433E+01  1.73231E+01  1.61467E+01  1.67513E+01  1.54292E+01  1.66557E+01  1.60224E+01  1.56124E+01
   1.41819E+01  1.73278E+01  1.58245E+01  1.60546E+01  1.73794E+01  1.36164E+01  1.52930E+01  1.87159E+01  1.86049E+01  1.55955E+01
   1.59216E+01  1.60164E+01  1.88539E+01  1.74757E+01  1.76088E+01  1.56982E+01  1.47898E+01  1.56362E+01  1.79147E+01  1.51826E+01
   1.52874E+01  1.34296E+01  1.52092E+01  1.40668E+01  1.65992E+01  1.49036E+01  1.69104E+01  1.52434E+01  1.40684E+01  1.67061E+01
   1.65196E+01  1.46621E+01  1.32576E+01  1.69640E+01  1.82735E+01  1.33527E+01  1.50662E+01  1.46974E+01  1.45419E+01  1.49586E+01
   1.24807E+01  1.29518E+01  1.51207E+01  1.29814E+01  1.41055E+01  1.47455E+01  1.29758E+01  1.34994E+01  1.30695E+01  1.31318E+01
   1.35850E+01  1.09372E+01  1.31855E+01  1.39655E+01  1.30634E+01  1.41455E+01  1.62485E+01  1.41851E+01  1.18244E+01  1.68939E+01
   1.51708E+01  1.46573E+01  1.35793E+01  1.35364E+01  1.16546E+01  1.26303E+01  1.17265E+01  1.28878E+01  1.06108E+01  1.42304E+01
   1.25101E+01  1.34376E+01  1.34568E+01  1.33076E+01  1.30966E+01  1.23553E+01  1.11992E+01  7.84615E+00  1.14122E+01  1.37267E+01
   1.32265E+01  1.47325E+01  1.04357E+01  1.13729E+01  1.01871E+01  1.13926E+01  1.02910E+01  1.11296E+01  1.20429E+01  1.15406E+01
   1.27013E+01  1.07124E+01  1.23073E+01  1.39395E+01  1.16361E+01  1.28320E+01  1.03790E+01  1.50743E+01  8.49239E+00  1.11147E+01
   1.10449E+01  1.14911E+01  1.33205E+01  1.39866E+01  1.29305E+01  1.22445E+01  1.10758E+01  7.23222E+00  1.10497E+01  1.00568E+01
   9.67634E+00  9.82511E+00  1.21212E+01  1.19176E+01  8.29827E+00  1.05873E+01  1.05763E+01  8.71232E+00  9.41001E+00  9.72751E+00
   1.04834E+01  5.90805E+00  1.26203E+01  1.04512E+01  9.44840E+00  6.16914E+00  8.39029E+00  9.70398E+00  9.05722E+00  8.58877E+00
   6.08839E+00  1.04344E+01  8.88220E+00  8.95102E+00  9.90960E+00  9.29564E+00  9.23640E+00  7.74749E+00  6.85244E+00  9.36146E+00
   7.58267E+00  8.41577E+00  6.46835E+00  1.08110E+01  8.03668E+00  9.61047E+00  8.25840E+00  8.07889E+00  8.04348E+00  8.76197E+00
   9.54893E+00  9.08954E+00  7.92142E+00  8.83984E+00  6.70899E+00  1.03861E+01  8.21344E+00  5.31621E+00  6.66553E+00  8.66549E+00
   7.52386E+00  1.06348E+01  8.34513E+00  1.00460E+01  9.65324E+00  1.08917E+01  1.08997E+01  6.63681E+00  8.43226E+00  7.75918E+00
   6.49657E+00  7.43331E+00  7.75198E+00  4.82687E+00  8.73816E+00  7.08417E+00  5.76459E+00  7.26794E+00  8.01739E+00  7.17695E+00
   6.07796E+00  5.43308E+00  1.07084E+01  6.96484E+00  1.00180E+01  6.58987E+00  7.37531E+00  9.40861E+00  6.41230E+00  5.53738E+00
   4.34936E+00  6.36430E+00  9.19350E+00  6.38234E+00  5.12100E+00  9.20123E+00  6.68521E+00  6.92219E+00  6.81523E+00  8.20858E+00
   3.11905E+00  7.88211E+00  6.34296E+00  8.00885E+00  6.53763E+00  5.83287E+00  7.78687E+00  5.14669E+00  7.28208E+00  7.56250E+00
   4.29684E+00  8.99465E+00  6.81247E+00  6.71237E+00  4.53352E+00  3.85231E+00  7.31716E+00  6.28134E+00  7.76168E+00  6.17528E+00
   4.21084E+00  6.89324E+00  4.16485E+00  7.06975E+00  7.53387E+00  6.59543E+00  3.73240E+00  3.24322E+00  5.50982E+00  3.17779E+00
   7.68033E+00  7.21404E+00  6.21363E+00  7.11984E+00  5.66651E+00  7.82978E+00  5.94336E+00  4.81513E+00  5.08003E+00  6.20863E+00
   1.95762E+00  4.92808E+00  6.56731E+00  5.27774E+00  7.16730E+00  5.42897E+00  3.54400E+00  6.57372E+00  4.69655E+00  4.79554E+00
   6.65438E+00  5.73379E+00  4.32718E+00  5.91561E+00  6.14263E+00  5.60170E+00  4.06462E+00  4.48927E+00  6.92771E+00  2.52287E+00
   5.08110E+00  6.41148E+00  6.51761E+00  5.35777E+00  2.35818E+00  5.12878E+00  4.70040E+00  5.13124E+00  5.93980E+00  4.75168E+00
   5.78043E+00  3.99744E+00  3.98004E+00  4.45498E+00  3.18243E+00  4.19526E+00  3.62481E+00  1.74919E+00  5.10308E+00  5.07528E+00
   4.77684E+00  4.34632E+00  3.60866E+00  5.58297E+00  6.88413E+00  4.46783E+00  6.88497E+00  2.48601E+00  3.82714E+00  3.34258E+00
   1.37108E+00  5.85003E+00  3.90969E+00  3.53168E+00  5.45705E+00  3.50049E+00  4.19406E+00  2.32679E+00
 NY points of the fit to the data follow
   4.71380E+01  4.69033E+01  4.67330E+01  4.68169E+01  4.71122E+01  4.73571E+01  4.74598E+01  4.74036E+01  4.71926E+01  4.68685E+01
   4.64568E+01  4.59252E+01  4.52617E+01  4.45760E+01  4.40252E+01  4.36318E+01  4.33136E+01  4.30211E+01  4.27430E+01  4.24701E+01
   4.21995E+01  4.19395E+01  4.16854E+01  4.14104E+01  4.11245E+01  4.08654E+01  4.06301E+01  4.04117E+01  4.02176E+01  4.00383E+01
   3.98479E+01  3.96325E+01  3.93939E+01  3.91162E+01  3.87947E+01  3.84704E+01  3.81594E+01  3.78626E+01  3.75898E+01  3.73418E+01
   3.71139E+01  3.69066E+01  3.67041E+01  3.64816E+01  3.62350E+01  3.59836E+01  3.57362E+01  3.54918E+01  3.52513E+01  3.50146E+01
   3.47784E+01  3.45422E+01  3.43087E+01  3.40740E+01  3.38321E+01  3.35854E+01  3.33414E+01  3.31030E+01  3.28685E+01  3.26366E+01
   3.24074E+01  3.21825E+01  3.19621E+01  3.17438E+01  3.15268E+01  3.13105E+01  3.10948E+01  3.08807E+01  3.06684E+01  3.04580E+01
   3.02516E+01  3.00514E+01  2.98546E+01  2.96587E+01  2.94624E+01  2.92647E+01  2.90658E+01  2.88671E+01  2.86693E+01  2.84716E+01
   2.82753E+01  2.80887E+01  2.79135E+01  2.77412E+01  2.75675E+01  2.73906E+01  2.72100E+01  2.70275E+01  2.68436E+01  2.66559E+01
   2.64631E+01  2.62687E+01  2.60787E+01  2.58963E+01  2.57209E+01  2.55488E+01  2.53853E+01  2.53061E+01  2.55271E+01  2.59194E+01
   2.62548E+01  2.64618E+01  2.65118E+01  2.64174E+01  2.62251E+01  2.59435E+01  2.55225E+01  2.49610E+01  2.43981E+01  2.39863E+01
   2.37234E+01  2.35276E+01  2.33544E+01  2.31919E+01  2.30355E+01  2.28807E+01  2.27260E+01  2.25718E+01  2.24171E+01  2.22696E+01
   2.22157E+01  2.25748E+01  2.32542E+01  2.38936E+01  2.43596E+01  2.46043E+01  2.46303E+01  2.45014E+01  2.42437E+01  2.37894E+01
   2.31036E+01  2.23598E+01  2.18022E+01  2.14674E+01  2.12466E+01  2.10716E+01  2.09226E+01  2.07927E+01  2.06756E+01  2.05712E+01
   2.04789E+01  2.03951E+01  2.03138E+01  2.02281E+01  2.01358E+01  2.00384E+01  1.99395E+01  1.98425E+01  1.97483E+01  1.96525E+01
   1.95513E+01  1.94505E+01  1.93555E+01  1.92683E+01  1.91903E+01  1.91147E+01  1.90363E+01  1.89567E+01  1.88784E+01  1.88011E+01
   1.87222E+01  1.86394E+01  1.85553E+01  1.84735E+01  1.83956E+01  1.83187E+01  1.82424E+01  1.81726E+01  1.81102E+01  1.80534E+01
   1.79967E+01  1.79319E+01  1.78624E+01  1.77948E+01  1.77306E+01  1.76665E+01  1.75970E+01  1.75203E+01  1.74383E+01  1.73643E+01
   1.73046E+01  1.72521E+01  1.72011E+01  1.71505E+01  1.71018E+01  1.70590E+01  1.70258E+01  1.70011E+01  1.69740E+01  1.69329E+01
   1.68803E+01  1.68197E+01  1.67498E+01  1.66679E+01  1.65825E+01  1.65057E+01  1.64390E+01  1.63836E+01  1.63405E+01  1.63066E+01
   1.62792E+01  1.62597E+01  1.62356E+01  1.61951E+01  1.61323E+01  1.60386E+01  1.59279E+01  1.58130E+01  1.57024E+01  1.56139E+01
   1.55676E+01  1.56078E+01  1.56989E+01  1.57823E+01  1.58349E+01  1.58386E+01  1.57730E+01  1.56118E+01  1.53599E+01  1.50743E+01
   1.48178E+01  1.46286E+01  1.45382E+01  1.45308E+01  1.45708E+01  1.46449E+01  1.47326E+01  1.47985E+01  1.48121E+01  1.47674E+01
   1.46970E+01  1.46329E+01  1.45835E+01  1.45440E+01  1.45106E+01  1.44733E+01  1.44203E+01  1.43420E+01  1.42264E+01  1.40973E+01
   1.39816E+01  1.38915E+01  1.38259E+01  1.37876E+01  1.37686E+01  1.37487E+01  1.37117E+01  1.36524E+01  1.35736E+01  1.34759E+01
   1.33950E+01  1.34789E+01  1.37301E+01  1.39899E+01  1.41970E+01  1.43427E+01  1.44255E+01  1.44464E+01  1.44066E+01  1.42819E+01
   1.40442E+01  1.37497E+01  1.35146E+01  1.33656E+01  1.32478E+01  1.31267E+01  1.30055E+01  1.28919E+01  1.27892E+01  1.27030E+01
   1.26350E+01  1.25795E+01  1.25278E+01  1.24770E+01  1.24268E+01  1.23750E+01  1.23182E+01  1.22550E+01  1.21862E+01  1.21158E+01
   1.20473E+01  1.19841E+01  1.19261E+01  1.18703E+01  1.18151E+01  1.17601E+01  1.17032E+01  1.16448E+01  1.15866E+01  1.15295E+01
   1.14738E+01  1.14192E+01  1.13657E+01  1.13131E+01  1.12601E+01  1.12060E+01  1.11505E+01  1.10934E+01  1.10360E+01  1.09794E+01
   1.09237E+01  1.08689E+01  1.08150E+01  1.07622E+01  1.07103E+01  1.06582E+01  1.06057E+01  1.05528E+01  1.04997E+01  1.04465E+01
   1.03933E+01  1.03401E+01  1.02870E+01  1.02339E+01  1.01808E+01  1.01279E+01  1.00750E+01  1.00222E+01  9.96960E+00  9.91712E+00
   9.86479E+00  9.81263E+00  9.76062E+00  9.70876E+00  9.65706E+00  9.60551E+00  9.55411E+00  9.50285E+00  9.45173E+00  9.40073E+00
   9.34985E+00  9.29907E+00  9.24840E+00  9.19782E+00  9.14733E+00  9.09694E+00  9.04667E+00  8.99657E+00  8.94674E+00  8.89735E+00
   8.84866E+00  8.80109E+00  8.75527E+00  8.71204E+00  8.67251E+00  8.63805E+00  8.61019E+00  8.59052E+00  8.58037E+00  8.58064E+00
   8.59138E+00  8.61157E+00  8.63898E+00  8.67015E+00  8.70070E+00  8.72577E+00  8.74067E+00  8.74148E+00  8.72561E+00  8.69214E+00
   8.64185E+00  8.57703E+00  8.50100E+00  8.41757E+00  8.33055E+00  8.24324E+00  8.15822E+00  8.07725E+00  8.00127E+00  7.93056E+00
   7.86495E+00  7.80397E+00  7.74701E+00  7.69344E+00  7.64268E+00  7.59424E+00  7.54769E+00  7.50272E+00  7.45908E+00  7.41659E+00
   7.37511E+00  7.33454E+00  7.29481E+00  7.25587E+00  7.21769E+00  7.18026E+00  7.14358E+00  7.10763E+00  7.07243E+00  7.03800E+00
   7.00434E+00  6.97148E+00  6.93940E+00  6.90811E+00  6.87761E+00  6.84786E+00  6.81882E+00  6.79045E+00  6.76267E+00  6.73538E+00
   6.70848E+00  6.68187E+00  6.65540E+00  6.62894E+00  6.60235E+00  6.57551E+00  6.54829E+00  6.52059E+00  6.49230E+00  6.46336E+00
   6.43373E+00  6.40338E+00  6.37232E+00  6.34059E+00  6.30823E+00  6.27529E+00  6.24188E+00  6.20806E+00  6.17394E+00  6.13962E+00
   6.10517E+00  6.07069E+00  6.03625E+00  6.00192E+00  5.96776E+00  5.93381E+00  5.90010E+00  5.86666E+00  5.83350E+00  5.80064E+00
   5.76808E+00  5.73581E+00  5.70382E+00  5.67212E+00  5.64067E+00  5.60949E+00  5.57853E+00  5.54781E+00  5.51729E+00  5.48697E+00
   5.45684E+00  5.42688E+00  5.39708E+00  5.36744E+00  5.33793E+00  5.30857E+00  5.27933E+00  5.25021E+00  5.22120E+00  5.19229E+00
   5.16348E+00  5.13477E+00  5.10614E+00  5.07760E+00  5.04913E+00  5.02074E+00  4.99243E+00  4.96419E+00  4.93603E+00  4.90792E+00
   4.87989E+00  4.85191E+00  4.82401E+00  4.79616E+00  4.76837E+00  4.74064E+00  4.71297E+00  4.68535E+00  4.65779E+00  4.63028E+00
   4.60282E+00  4.57541E+00  4.54805E+00  4.52074E+00  4.49348E+00  4.46627E+00  4.43910E+00  4.41198E+00  4.38490E+00  4.35786E+00
   4.33087E+00  4.30392E+00  4.27700E+00  4.25012E+00  4.22328E+00  4.19649E+00  4.16972E+00  4.14299E+00  4.11628E+00  4.08961E+00
   4.06298E+00  4.03637E+00  4.00978E+00  3.98321E+00  3.95667E+00  3.93014E+00  3.90364E+00  3.87714E+00
 NY background values follow
     4.717E+01    4.691E+01    4.666E+01    4.640E+01    4.614E+01    4.588E+01    4.562E+01    4.536E+01    4.510E+01    4.484E+01
     4.458E+01    4.432E+01    4.406E+01    4.380E+01    4.354E+01    4.329E+01    4.303E+01    4.277E+01    4.251E+01    4.226E+01
     4.200E+01    4.174E+01    4.149E+01    4.123E+01    4.098E+01    4.073E+01    4.047E+01    4.022E+01    3.997E+01    3.972E+01
     3.946E+01    3.921E+01    3.896E+01    3.872E+01    3.847E+01    3.822E+01    3.797E+01    3.773E+01    3.748E+01    3.724E+01
     3.700E+01    3.676E+01    3.652E+01    3.628E+01    3.604E+01    3.580E+01    3.556E+01    3.533E+01    3.509E+01    3.486E+01
     3.463E+01    3.440E+01    3.417E+01    3.394E+01    3.371E+01    3.349E+01    3.326E+01    3.304E+01    3.282E+01    3.260E+01
     3.238E+01    3.216E+01    3.195E+01    3.173E+01    3.152E+01    3.131E+01    3.110E+01    3.089E+01    3.068E+01    3.047E+01
     3.027E+01    3.007E+01    2.987E+01    2.967E+01    2.947E+01    2.927E+01    2.908E+01    2.889E+01    2.870E+01    2.851E+01
     2.832E+01    2.813E+01    2.795E+01    2.777E+01    2.759E+01    2.741E+01    2.723E+01    2.706E+01    2.688E+01    2.671E+01
     2.654E+01    2.638E+01    2.621E+01    2.605E+01    2.589E+01    2.573E+01    2.557E+01    2.541E+01    2.526E+01    2.511E+01
     2.496E+01    2.481E+01    2.466E+01    2.452E+01    2.437E+01    2.423E+01    2.409E+01    2.395E+01    2.382E+01    2.368E+01
     2.355E+01    2.342E+01    2.329E+01    2.316E+01    2.303E+01    2.291E+01    2.279E+01    2.266E+01    2.254E+01    2.243E+01
     2.231E+01    2.219E+01    2.208E+01    2.196E+01    2.185E+01    2.174E+01    2.163E+01    2.153E+01    2.142E+01    2.132E+01
     2.121E+01    2.111E+01    2.101E+01    2.091E+01    2.081E+01    2.071E+01    2.062E+01    2.052E+01    2.043E+01    2.034E+01
     2.025E+01    2.016E+01    2.007E+01    1.998E+01    1.990E+01    1.981E+01    1.973E+01    1.964E+01    1.956E+01    1.948E+01
     1.940E+01    1.932E+01    1.924E+01    1.916E+01    1.909E+01    1.901E+01    1.894E+01    1.886E+01    1.879E+01    1.872E+01
     1.864E+01    1.857E+01    1.850E+01    1.843E+01    1.837E+01    1.830E+01    1.823E+01    1.816E+01    1.810E+01    1.803E+01
     1.797E+01    1.790E+01    1.784E+01    1.777E+01    1.771E+01    1.765E+01    1.759E+01    1.753E+01    1.747E+01    1.741E+01
     1.735E+01    1.729E+01    1.723E+01    1.717E+01    1.711E+01    1.705E+01    1.699E+01    1.693E+01    1.688E+01    1.682E+01
     1.676E+01    1.671E+01    1.665E+01    1.659E+01    1.654E+01    1.648E+01    1.643E+01    1.637E+01    1.632E+01    1.626E+01
     1.621E+01    1.615E+01    1.610E+01    1.605E+01    1.599E+01    1.594E+01    1.589E+01    1.583E+01    1.578E+01    1.573E+01
     1.567E+01    1.562E+01    1.557E+01    1.551E+01    1.546E+01    1.541E+01    1.535E+01    1.530E+01    1.525E+01    1.520E+01
     1.514E+01    1.509E+01    1.504E+01    1.498E+01    1.493E+01    1.488E+01    1.482E+01    1.477E+01    1.472E+01    1.466E+01
     1.461E+01    1.456E+01    1.450E+01    1.445E+01    1.440E+01    1.434E+01    1.429E+01    1.423E+01    1.418E+01    1.413E+01
     1.407E+01    1.402E+01    1.396E+01    1.391E+01    1.386E+01    1.380E+01    1.375E+01    1.369E+01    1.364E+01    1.358E+01
     1.353E+01    1.347E+01    1.342E+01    1.337E+01    1.331E+01    1.326E+01    1.320E+01    1.315E+01    1.309E+01    1.304E+01
     1.298E+01    1.293E+01    1.287E+01    1.282E+01    1.277E+01    1.271E+01    1.266E+01    1.260E+01    1.255E+01    1.249E+01
     1.244E+01    1.238E+01    1.233E+01    1.227E+01    1.222E+01    1.217E+01    1.211E+01    1.206E+01    1.200E+01    1.195E+01
     1.190E+01    1.184E+01    1.179E+01    1.173E+01    1.168E+01    1.163E+01    1.157E+01    1.152E+01    1.146E+01    1.141E+01
     1.136E+01    1.130E+01    1.125E+01    1.120E+01    1.114E+01    1.109E+01    1.104E+01    1.099E+01    1.093E+01    1.088E+01
     1.083E+01    1.078E+01    1.072E+01    1.067E+01    1.062E+01    1.057E+01    1.052E+01    1.046E+01    1.041E+01    1.036E+01
     1.031E+01    1.026E+01    1.021E+01    1.016E+01    1.011E+01    1.006E+01    1.001E+01    9.956E+00    9.906E+00    9.856E+00
     9.807E+00    9.757E+00    9.708E+00    9.659E+00    9.610E+00    9.561E+00    9.513E+00    9.465E+00    9.416E+00    9.368E+00
     9.321E+00    9.273E+00    9.226E+00    9.179E+00    9.132E+00    9.085E+00    9.038E+00    8.992E+00    8.946E+00    8.900E+00
     8.854E+00    8.809E+00    8.764E+00    8.718E+00    8.674E+00    8.629E+00    8.585E+00    8.541E+00    8.497E+00    8.453E+00
     8.410E+00    8.366E+00    8.324E+00    8.281E+00    8.238E+00    8.196E+00    8.154E+00    8.113E+00    8.071E+00    8.030E+00
     7.989E+00    7.948E+00    7.908E+00    7.868E+00    7.828E+00    7.788E+00    7.749E+00    7.710E+00    7.671E+00    7.632E+00
     7.594E+00    7.556E+00    7.518E+00    7.480E+00    7.443E+00    7.405E+00    7.368E+00    7.332E+00    7.295E+00    7.259E+00
     7.223E+00    7.187E+00    7.151E+00    7.115E+00    7.080E+00    7.045E+00    7.010E+00    6.975E+00    6.941E+00    6.906E+00
     6.872E+00    6.838E+00    6.804E+00    6.771E+00    6.737E+00    6.704E+00    6.671E+00    6.638E+00    6.605E+00    6.572E+00
     6.540E+00    6.508E+00    6.475E+00    6.443E+00    6.412E+00    6.380E+00    6.348E+00    6.317E+00    6.285E+00    6.254E+00
     6.223E+00    6.192E+00    6.161E+00    6.131E+00    6.100E+00    6.070E+00    6.039E+00    6.009E+00    5.979E+00    5.949E+00
     5.919E+00    5.889E+00    5.860E+00    5.830E+00    5.801E+00    5.771E+00    5.742E+00    5.713E+00    5.684E+00    5.655E+00
     5.626E+00    5.597E+00    5.568E+00    5.540E+00    5.511E+00    5.482E+00    5.454E+00    5.426E+00    5.397E+00    5.369E+00
     5.341E+00    5.313E+00    5.285E+00    5.257E+00    5.229E+00    5.201E+00    5.173E+00    5.146E+00    5.118E+00    5.090E+00
     5.063E+00    5.035E+00    5.008E+00    4.980E+00    4.953E+00    4.926E+00    4.898E+00    4.871E+00    4.844E+00    4.817E+00
     4.790E+00    4.763E+00    4.735E+00    4.708E+00    4.681E+00    4.655E+00    4.628E+00    4.601E+00    4.574E+00    4.547E+00
     4.521E+00    4.494E+00    4.467E+00    4.441E+00    4.414E+00    4.387E+00    4.361E+00    4.335E+00    4.308E+00    4.282E+00
     4.255E+00    4.229E+00    4.203E+00    4.177E+00    4.150E+00    4.124E+00    4.098E+00    4.072E+00    4.046E+00    4.020E+00
     3.994E+00    3.968E+00    3.942E+00    3.916E+00    3.891E+00    3.865E+00    3.839E+00    3.813E+00
 Asp      Conc. = 9.23E+00
