 LCModel (Version 6.3-1L) Copyright: S.W. Provencher.          Ref.: Magn. Reson. Med. 30:672-679 (1993).                
 Slice#3 Row#11 Col#8  K_02_press_1_raw_act
 36 lines in following concentration table = NCONC+1
    Conc.  %SD /Cr+PCr  Metabolite                                         
    0.000 999%   0.000 Ala                                                 
    0.000 999%   0.000 Asp                                                 
  345.555  76%   0.177 Cr                                                  
 1.60E+03  17%   0.823 PCr                                                 
    0.000 999%   0.000 GABA                                                
    0.000 999%   0.000 Glc                                                 
  938.646  29%   0.482 Gln                                                 
 1.65E+03  18%   0.846 Glu                                                 
  409.226   5%   0.210 GPC                                                 
    0.000 999%   0.000 PCh                                                 
  567.795  13%   0.291 GSH                                                 
  681.518  35%   0.350 Ins                                                 
  143.275 100% 7.4E-02 Lac                                                 
 2.11E+03   7%   1.083 NAA                                                 
  125.390 133% 6.4E-02 NAAG                                                
    0.000 999%   0.000 Scyllo                                              
    0.000 999%   0.000 Tau                                                 
    0.000 999%   0.000 -CrCH2                                              
  409.226   5%   0.210 GPC+PCh                                             
 2.24E+03   4%   1.148 NAA+NAAG                                            
 1.95E+03   3%   1.000 Cr+PCr                                              
 2.59E+03  18%   1.327 Glu+Gln                                             
  248.954 275%   0.128 Lip13a                                              
  153.022 192% 7.9E-02 Lip13b                                              
    7.172 999% 3.7E-03 Lip09                                               
 1.61E+03  17%   0.825 MM09                                                
   89.761 142% 4.6E-02 Lip20                                               
 3.15E+03  13%   1.615 MM20                                                
  654.909  31%   0.336 MM12                                                
 1.51E+03  25%   0.778 MM14                                                
  816.454  34%   0.419 MM17                                                
  401.975 117%   0.206 Lip13a+Lip13b                                       
 2.57E+03  17%   1.320 MM14+Lip13a+Lip13b+MM12                             
 1.61E+03  13%   0.829 MM09+Lip09                                          
 3.24E+03  12%   1.661 MM20+Lip20                                          
   6 lines in following misc. output table
  FWHM = 0.061 ppm    S/N =  11                                            
  Data shift = 0.038 ppm                                                   
  Ph:   1 deg       0.2 deg/ppm                                            
  alphaB,S = 1.1E+00,   5.1E+01                                            
   14 spline knots.   Ns = 8(1)                                            
  (14) 5 infls.   ( 9) 1 extrs.                                            
  498 points on ppm-axis = NY
      4.000000     3.992357     3.984714     3.977070     3.969427     3.961784     3.954141     3.946497     3.938854     3.931211
      3.923568     3.915925     3.908281     3.900638     3.892995     3.885352     3.877708     3.870065     3.862422     3.854779
      3.847136     3.839492     3.831849     3.824206     3.816563     3.808919     3.801276     3.793633     3.785990     3.778347
      3.770703     3.763060     3.755417     3.747774     3.740130     3.732487     3.724844     3.717201     3.709558     3.701914
      3.694271     3.686628     3.678985     3.671341     3.663698     3.656055     3.648412     3.640769     3.633125     3.625482
      3.617839     3.610196     3.602552     3.594909     3.587266     3.579623     3.571980     3.564336     3.556693     3.549050
      3.541407     3.533763     3.526120     3.518477     3.510834     3.503191     3.495547     3.487904     3.480261     3.472618
      3.464974     3.457331     3.449688     3.442045     3.434402     3.426758     3.419115     3.411472     3.403829     3.396185
      3.388542     3.380899     3.373256     3.365613     3.357969     3.350326     3.342683     3.335040     3.327396     3.319753
      3.312110     3.304467     3.296824     3.289180     3.281537     3.273894     3.266251     3.258607     3.250964     3.243321
      3.235678     3.228034     3.220391     3.212748     3.205105     3.197462     3.189818     3.182175     3.174532     3.166889
      3.159245     3.151602     3.143959     3.136316     3.128673     3.121029     3.113386     3.105743     3.098100     3.090456
      3.082813     3.075170     3.067527     3.059884     3.052240     3.044597     3.036954     3.029311     3.021667     3.014024
      3.006381     2.998738     2.991095     2.983451     2.975808     2.968165     2.960522     2.952878     2.945235     2.937592
      2.929949     2.922306     2.914662     2.907019     2.899376     2.891733     2.884089     2.876446     2.868803     2.861160
      2.853517     2.845873     2.838230     2.830587     2.822944     2.815300     2.807657     2.800014     2.792371     2.784728
      2.777084     2.769441     2.761798     2.754155     2.746511     2.738868     2.731225     2.723582     2.715939     2.708295
      2.700652     2.693009     2.685366     2.677722     2.670079     2.662436     2.654793     2.647150     2.639506     2.631863
      2.624220     2.616577     2.608933     2.601290     2.593647     2.586004     2.578361     2.570717     2.563074     2.555431
      2.547788     2.540144     2.532501     2.524858     2.517215     2.509572     2.501928     2.494285     2.486642     2.478999
      2.471355     2.463712     2.456069     2.448426     2.440783     2.433139     2.425496     2.417853     2.410210     2.402566
      2.394923     2.387280     2.379637     2.371994     2.364350     2.356707     2.349064     2.341421     2.333777     2.326134
      2.318491     2.310848     2.303205     2.295561     2.287918     2.280275     2.272632     2.264988     2.257345     2.249702
      2.242059     2.234416     2.226772     2.219129     2.211486     2.203843     2.196199     2.188556     2.180913     2.173270
      2.165627     2.157983     2.150340     2.142697     2.135054     2.127410     2.119767     2.112124     2.104481     2.096838
      2.089194     2.081551     2.073908     2.066265     2.058621     2.050978     2.043335     2.035692     2.028049     2.020405
      2.012762     2.005119     1.997476     1.989833     1.982190     1.974546     1.966903     1.959260     1.951617     1.943974
      1.936331     1.928688     1.921045     1.913402     1.905759     1.898115     1.890472     1.882829     1.875186     1.867543
      1.859900     1.852257     1.844614     1.836971     1.829327     1.821684     1.814041     1.806398     1.798755     1.791112
      1.783469     1.775826     1.768183     1.760540     1.752896     1.745253     1.737610     1.729967     1.722324     1.714681
      1.707038     1.699395     1.691752     1.684108     1.676465     1.668822     1.661179     1.653536     1.645893     1.638250
      1.630607     1.622964     1.615321     1.607677     1.600034     1.592391     1.584748     1.577105     1.569462     1.561819
      1.554176     1.546533     1.538890     1.531246     1.523603     1.515960     1.508317     1.500674     1.493031     1.485388
      1.477745     1.470102     1.462458     1.454815     1.447172     1.439529     1.431886     1.424243     1.416600     1.408957
      1.401314     1.393671     1.386027     1.378384     1.370741     1.363098     1.355455     1.347812     1.340169     1.332526
      1.324883     1.317240     1.309596     1.301953     1.294310     1.286667     1.279024     1.271381     1.263738     1.256095
      1.248452     1.240808     1.233165     1.225522     1.217879     1.210236     1.202593     1.194950     1.187307     1.179664
      1.172021     1.164377     1.156734     1.149091     1.141448     1.133805     1.126162     1.118519     1.110876     1.103233
      1.095590     1.087946     1.080303     1.072660     1.065017     1.057374     1.049731     1.042088     1.034445     1.026802
      1.019158     1.011515     1.003872     0.996229     0.988586     0.980943     0.973300     0.965657     0.958014     0.950371
      0.942727     0.935084     0.927441     0.919798     0.912155     0.904512     0.896869     0.889226     0.881583     0.873940
      0.866296     0.858653     0.851010     0.843367     0.835724     0.828081     0.820438     0.812795     0.805152     0.797508
      0.789865     0.782222     0.774579     0.766936     0.759293     0.751650     0.744007     0.736364     0.728721     0.721077
      0.713434     0.705791     0.698148     0.690505     0.682862     0.675219     0.667576     0.659933     0.652290     0.644646
      0.637003     0.629360     0.621717     0.614074     0.606431     0.598788     0.591145     0.583502     0.575858     0.568215
      0.560572     0.552929     0.545286     0.537643     0.530000     0.522357     0.514714     0.507071     0.499427     0.491784
      0.484141     0.476498     0.468855     0.461212     0.453569     0.445925     0.438282     0.430639     0.422996     0.415353
      0.407710     0.400067     0.392424     0.384780     0.377137     0.369494     0.361851     0.354208     0.346565     0.338922
      0.331278     0.323635     0.315992     0.308349     0.300706     0.293063     0.285420     0.277777     0.270133     0.262490
      0.254847     0.247204     0.239561     0.231918     0.224275     0.216631     0.208988     0.201345
 NY phased data points follow
   3.13599E+01  3.52780E+01  3.39495E+01  3.66356E+01  4.24699E+01  4.60053E+01  4.72718E+01  5.42321E+01  6.22251E+01  6.49978E+01
   6.35643E+01  6.71175E+01  6.15646E+01  5.52540E+01  5.63702E+01  4.77590E+01  3.79385E+01  3.87485E+01  3.04413E+01  2.83834E+01
   2.38249E+01  2.91493E+01  2.43936E+01  2.62446E+01  2.63223E+01  3.04478E+01  2.92233E+01  2.93170E+01  3.12262E+01  3.14587E+01
   3.42244E+01  3.37991E+01  3.54567E+01  3.18026E+01  2.86436E+01  2.88351E+01  2.69056E+01  2.41363E+01  2.78337E+01  2.73175E+01
   2.09529E+01  2.39690E+01  2.39831E+01  2.30541E+01  2.62103E+01  2.54394E+01  2.61084E+01  2.58234E+01  2.79885E+01  2.48718E+01
   2.35533E+01  2.55490E+01  2.02838E+01  1.98013E+01  2.06656E+01  2.15804E+01  2.25015E+01  2.03645E+01  2.23149E+01  1.74964E+01
   1.96039E+01  1.63437E+01  1.54105E+01  1.25318E+01  8.64860E+00  1.11115E+01  7.80393E+00  7.95080E+00  6.41118E+00  6.98767E+00
   8.57781E+00  8.74038E+00  8.97944E+00  7.11647E+00  1.04830E+01  7.41295E+00  1.15068E+01  7.47127E+00  1.13338E+01  1.21424E+01
   1.13604E+01  7.01100E+00  3.59529E+00  6.92079E+00  8.16816E+00  7.92746E+00  4.77349E+00  1.03178E+01  8.50397E+00  8.68261E+00
   5.85984E+00  5.85700E+00  1.26077E+01  7.33782E+00  1.35903E+01  1.13490E+01  1.18405E+01  1.20491E+01  1.37187E+01  2.27977E+01
   3.09605E+01  3.12979E+01  3.62830E+01  3.71258E+01  4.27442E+01  3.74321E+01  3.29621E+01  3.11006E+01  2.68609E+01  1.79447E+01
   1.46507E+01  1.29076E+01  9.76804E+00  9.67018E+00  6.85383E+00  9.35767E+00  8.36701E+00  1.16734E+01  9.31231E+00  1.44512E+01
   1.73933E+01  1.40480E+01  2.30238E+01  2.88690E+01  3.72553E+01  4.95131E+01  5.18566E+01  5.76574E+01  5.88920E+01  5.41312E+01
   4.88197E+01  4.37644E+01  3.47205E+01  2.55429E+01  2.19297E+01  1.79855E+01  1.23796E+01  8.26672E+00  1.07250E+01  4.76660E+00
   1.36053E+01  9.46675E+00  7.53455E+00  7.43751E+00  8.47207E+00  4.71498E+00  2.20496E+00  5.19636E+00  4.84497E+00  6.37599E+00
   3.36146E+00  2.55956E-01  8.18968E+00  5.98300E+00  5.14239E+00  6.10849E+00  4.30163E+00  3.48018E+00  3.28626E+00  3.15132E+00
   5.31254E-02  1.79432E-01 -2.59333E+00  4.31858E+00  8.40002E-01  2.72414E+00 -1.05950E+00  1.82538E+00  2.64274E+00 -4.68525E-01
  -1.78117E+00 -5.30595E+00 -5.69293E+00 -6.52561E+00 -1.01824E+01 -7.43547E+00 -6.83063E+00 -3.41194E+00 -8.90121E+00 -6.03128E+00
  -1.19661E+01 -1.08756E+01 -6.74594E+00 -6.78911E+00 -7.98946E+00 -4.01864E+00 -5.06736E+00 -4.40530E+00 -2.80132E+00 -8.58476E-01
  -6.59307E-01  3.88271E+00  1.00527E+01  1.86042E+00  3.49356E+00  6.37216E+00  6.85533E+00  6.04482E+00  7.00097E+00  2.17482E+00
   2.26761E+00  4.70371E+00  5.19084E+00  2.28458E+00  4.28537E+00  4.83877E+00 -6.90963E-01  1.60772E-01  7.65215E-01 -4.40558E+00
  -1.69323E+00  2.37797E+00  6.77055E-01  3.73060E+00  7.01611E+00  1.09477E+01  7.78859E+00  7.72502E+00  6.98456E+00  3.06715E+00
   1.08906E-01  1.27392E+00 -4.34201E-01 -9.06517E-01  5.73657E+00  5.57075E+00  5.39397E+00  9.48970E+00  8.72896E+00  7.54426E+00
   9.91735E+00  1.07143E+01  6.88958E+00  4.82228E+00  6.77572E+00  6.35964E+00  8.18449E+00  2.42722E+00  5.64303E+00  5.05683E+00
   4.81046E+00  1.01896E-01  5.67141E+00  4.12803E+00  3.57687E+00  9.98218E+00  8.21627E+00  1.37065E+01  1.84600E+01  1.75666E+01
   1.65397E+01  2.15776E+01  2.64328E+01  2.24399E+01  2.69739E+01  3.06541E+01  3.61247E+01  5.26307E+01  6.18871E+01  6.94476E+01
   7.06265E+01  7.52928E+01  6.42953E+01  5.82994E+01  4.46031E+01  3.47990E+01  2.26530E+01  1.74480E+01  1.43494E+01  7.95887E+00
   9.37331E+00  6.43697E+00  6.87015E+00  1.18286E+01  8.67718E+00  5.44194E+00  8.55746E+00  5.27375E+00  6.21039E+00  6.78296E+00
   4.55596E+00  3.80784E+00  4.50470E+00  7.66127E+00  8.17995E+00  4.41672E-01  2.93970E+00  5.35071E+00  5.66511E+00  4.56307E+00
   1.35676E+00  2.84814E+00  3.60294E+00  6.96691E+00  3.33321E-01  4.03268E+00  2.61686E+00  1.38849E+00  5.83830E+00 -8.53224E-01
  -1.42777E+00  1.43482E+00  3.61795E+00  4.18146E+00  1.75729E+00  5.36020E+00  4.43883E+00  5.59546E+00  5.01951E+00  6.83614E+00
   1.26267E+01  6.72170E+00  9.75193E+00  7.69052E+00  1.04611E+01  6.11416E+00  5.85429E+00  5.35462E+00  8.37428E+00  5.76338E+00
   9.56744E+00  9.86962E+00  1.08083E+01  1.13531E+01  8.38006E+00  7.32444E+00  1.19272E+01  9.96445E+00  9.59649E+00  7.66693E+00
   1.16893E+01  8.54377E+00  9.70049E+00  7.50393E+00  1.23300E+01  1.03217E+01  7.29147E+00  6.43325E+00  7.41719E+00  6.51115E+00
   8.25795E+00  3.70806E+00  3.81357E+00  5.91503E+00  4.22898E+00  9.88863E+00  5.26332E+00  9.90413E+00  3.68062E+00  6.39048E+00
   5.03219E+00  6.00938E+00  6.62699E+00  2.99188E+00  3.76681E+00  7.30471E+00  5.89738E+00  1.06722E+01  7.90084E+00  6.66019E+00
   8.00259E+00  1.00509E+01  1.03418E+01  7.97054E+00  7.42465E+00  5.91334E+00  3.25757E+00  9.05242E+00  9.53607E+00  6.72305E+00
   7.10183E+00  3.51943E+00  6.95339E+00  2.61814E+00  4.28300E+00  6.00446E+00  5.70636E+00  9.01054E+00  6.50827E+00  5.25181E+00
   4.55571E+00  2.69154E+00  5.39365E+00  5.65035E+00  4.37884E+00  4.83855E+00  4.63320E+00  4.97675E+00  7.81495E+00  5.47872E+00
   7.79327E+00  4.99758E+00  1.10990E+01  1.29248E+01  1.02156E+01  5.94086E+00  1.07315E+01  1.00509E+01  9.99756E+00  6.21076E+00
   4.61420E+00  7.95080E+00  1.37554E+01  8.50978E+00  1.37359E+01  1.07529E+01  1.20247E+01  1.25835E+01  1.13411E+01  1.08602E+01
   1.16314E+01  1.03389E+01  1.07447E+01  1.03569E+01  8.41260E+00  7.07199E+00  1.01859E+01  6.11877E+00  4.79570E+00  7.26253E+00
   3.21371E+00  7.43858E+00  4.06861E+00  7.92533E+00  1.82922E+00  3.11137E+00  1.38111E+00  4.72945E+00  4.73995E+00 -2.52736E-01
   1.06486E+00  1.98570E+00  3.21500E+00  6.88741E+00  4.44470E+00 -2.92684E-01  4.86387E+00  3.61061E+00  3.73212E+00  3.17093E+00
   3.37568E+00  2.11511E+00  7.69800E-01 -6.31867E-01  1.22470E-01  2.56288E+00  2.46191E+00  4.20079E+00 -5.66645E-02  9.96526E-01
  -1.87980E+00  9.45878E-01 -6.93504E-01  4.59436E-01  2.58408E+00  1.14559E+00 -1.50892E+00  7.30330E-01  6.51888E-01  5.16991E+00
  -2.07754E+00  3.81241E+00 -1.31239E+00 -2.08699E-01  1.47823E+00  1.76611E+00 -5.43772E-01  3.47657E+00  2.05866E+00  5.39926E+00
   3.22412E+00  6.46130E+00  5.49819E+00  3.20513E+00  1.64398E+00  1.88400E+00  4.24131E+00  1.51356E+00  5.36199E-01  1.08368E+00
   9.22931E-01  5.59862E-01 -1.73986E+00  1.26667E+00  2.41668E+00 -8.50953E-01  4.54364E+00  1.71195E+00  3.39735E+00  2.61853E+00
  -4.78023E-01  4.65199E+00  1.33656E+00  4.31464E+00 -8.30061E-01 -2.75584E+00  4.13490E-01  2.36992E+00
 NY points of the fit to the data follow
   2.97694E+01  3.11926E+01  3.34005E+01  3.48067E+01  3.69739E+01  4.08111E+01  4.63857E+01  5.25972E+01  5.78337E+01  6.14799E+01
   6.31086E+01  6.20403E+01  5.86274E+01  5.39885E+01  4.85018E+01  4.27483E+01  3.80041E+01  3.45681E+01  3.15851E+01  2.90468E+01
   2.75151E+01  2.68457E+01  2.70663E+01  2.69350E+01  2.63858E+01  2.63370E+01  2.73557E+01  2.91703E+01  3.12530E+01  3.33243E+01
   3.51180E+01  3.59387E+01  3.53170E+01  3.34641E+01  3.09639E+01  2.81174E+01  2.54872E+01  2.36812E+01  2.26253E+01  2.20368E+01
   2.19632E+01  2.21879E+01  2.25421E+01  2.30743E+01  2.37119E+01  2.41595E+01  2.43158E+01  2.42682E+01  2.38498E+01  2.29839E+01
   2.19943E+01  2.10257E+01  1.99740E+01  1.89792E+01  1.82916E+01  1.77891E+01  1.73947E+01  1.71758E+01  1.70971E+01  1.70315E+01
   1.68576E+01  1.65426E+01  1.61094E+01  1.56414E+01  1.51917E+01  1.47451E+01  1.43974E+01  1.41894E+01  1.40855E+01  1.40520E+01
   1.40240E+01  1.39635E+01  1.38644E+01  1.36951E+01  1.34554E+01  1.31783E+01  1.28806E+01  1.25665E+01  1.22397E+01  1.19050E+01
   1.15776E+01  1.12456E+01  1.09188E+01  1.05434E+01  1.00998E+01  9.63197E+00  9.19771E+00  8.82268E+00  8.57361E+00  8.45465E+00
   8.45072E+00  8.58378E+00  8.83822E+00  9.19773E+00  9.93627E+00  1.23901E+01  1.47401E+01  1.54588E+01  1.74952E+01  2.17489E+01
   2.76140E+01  3.34557E+01  3.77285E+01  4.03792E+01  4.10702E+01  3.89116E+01  3.47460E+01  2.99248E+01  2.44090E+01  1.89325E+01
   1.51870E+01  1.27941E+01  1.02819E+01  8.51580E+00  8.07002E+00  8.00974E+00  8.10563E+00  8.42424E+00  9.53409E+00  1.33188E+01
   1.70901E+01  1.88272E+01  2.26488E+01  2.98800E+01  3.95155E+01  4.91029E+01  5.62370E+01  6.04939E+01  6.15603E+01  5.84112E+01
   5.21579E+01  4.46767E+01  3.59200E+01  2.69962E+01  2.04638E+01  1.57218E+01  1.09966E+01  7.71326E+00  6.63339E+00  6.39561E+00
   6.54828E+00  6.85558E+00  7.02567E+00  7.01145E+00  6.87479E+00  6.58861E+00  6.17126E+00  5.68175E+00  5.19205E+00  4.74475E+00
   4.30689E+00  3.88083E+00  3.47364E+00  3.05774E+00  2.82146E+00  2.65734E+00  2.49704E+00  2.26273E+00  1.79364E+00  1.40887E+00
   1.20666E+00  1.08515E+00  1.00816E+00  9.36934E-01  8.08445E-01  6.11978E-01  3.16196E-01 -1.54989E-01 -7.50874E-01 -1.15643E+00
  -1.46118E+00 -1.87769E+00 -2.36661E+00 -2.93051E+00 -3.22284E+00 -3.26995E+00 -3.31199E+00 -3.42193E+00 -3.51612E+00 -3.56679E+00
  -3.41798E+00 -3.25799E+00 -3.18200E+00 -3.11658E+00 -2.90878E+00 -2.46591E+00 -1.79352E+00 -9.47711E-01  8.30454E-02  1.10545E+00
   1.76173E+00  2.27050E+00  2.53324E+00  2.31194E+00  1.71070E+00  1.18906E+00  1.07704E+00  1.20337E+00  1.63397E+00  2.38257E+00
   3.43314E+00  4.19496E+00  4.84982E+00  5.24225E+00  4.69298E+00  3.19790E+00  1.48263E+00  1.41632E-01 -8.18276E-01 -1.79377E+00
  -1.84980E+00 -5.21994E-01  1.53821E+00  3.49121E+00  5.01862E+00  6.20318E+00  6.60522E+00  5.67921E+00  3.82049E+00  1.55451E+00
  -5.95332E-01 -1.94391E+00 -2.23285E+00 -1.61393E+00 -2.66324E-01  1.58797E+00  3.52734E+00  5.06268E+00  6.18988E+00  6.76804E+00
   6.96733E+00  6.91646E+00  6.75904E+00  6.83290E+00  7.14928E+00  7.78153E+00  8.55028E+00  9.19169E+00  9.32402E+00  8.89178E+00
   8.28969E+00  7.65589E+00  7.04875E+00  6.82208E+00  7.25010E+00  8.07603E+00  8.99481E+00  1.00836E+01  1.13998E+01  1.24346E+01
   1.33951E+01  1.58864E+01  2.19725E+01  2.57600E+01  2.78714E+01  3.30522E+01  4.18729E+01  5.26073E+01  6.19801E+01  6.82684E+01
   7.17285E+01  7.10502E+01  6.52551E+01  5.69625E+01  4.76071E+01  3.68475E+01  2.70950E+01  2.09100E+01  1.61053E+01  1.10183E+01
   8.13455E+00  7.15094E+00  6.56689E+00  6.15602E+00  5.87590E+00  5.59194E+00  5.28369E+00  4.96007E+00  4.61691E+00  4.27133E+00
   3.95583E+00  3.67917E+00  3.43283E+00  3.21929E+00  3.04736E+00  2.91227E+00  2.80515E+00  2.71512E+00  2.64620E+00  2.60912E+00
   2.60027E+00  2.61644E+00  2.66245E+00  2.73970E+00  2.84385E+00  2.97162E+00  3.12284E+00  3.29714E+00  3.49273E+00  3.71074E+00
   3.95011E+00  4.20670E+00  4.47750E+00  4.75878E+00  5.04614E+00  5.33383E+00  5.61663E+00  5.89163E+00  6.15616E+00  6.40691E+00
   6.64238E+00  6.86144E+00  7.06373E+00  7.25025E+00  7.42205E+00  7.58070E+00  7.72801E+00  7.86588E+00  7.99634E+00  8.12116E+00
   8.24146E+00  8.35757E+00  8.46907E+00  8.57495E+00  8.67351E+00  8.76244E+00  8.83885E+00  8.89956E+00  8.94141E+00  8.96164E+00
   8.95800E+00  8.92892E+00  8.87364E+00  8.79258E+00  8.68761E+00  8.56246E+00  8.42316E+00  8.27986E+00  8.15406E+00  8.08303E+00
   7.95575E+00  7.73557E+00  7.62258E+00  7.59295E+00  7.54564E+00  7.38106E+00  7.07044E+00  6.79361E+00  6.49378E+00  6.05126E+00
   5.67020E+00  5.51792E+00  5.60970E+00  5.92280E+00  6.40842E+00  6.94983E+00  7.41118E+00  7.74928E+00  7.95687E+00  8.00328E+00
   7.87120E+00  7.59357E+00  7.29742E+00  7.02289E+00  6.70827E+00  6.39896E+00  6.14909E+00  5.93642E+00  5.74756E+00  5.57601E+00
   5.41783E+00  5.27063E+00  5.13343E+00  5.00653E+00  4.89131E+00  4.78998E+00  4.70521E+00  4.63993E+00  4.59726E+00  4.58037E+00
   4.59239E+00  4.63621E+00  4.71441E+00  4.82917E+00  4.98231E+00  5.17523E+00  5.40874E+00  5.68290E+00  5.99687E+00  6.34887E+00
   6.73612E+00  7.15472E+00  7.59951E+00  8.06403E+00  8.54057E+00  9.02032E+00  9.49361E+00  9.95013E+00  1.03792E+01  1.07700E+01
   1.11122E+01  1.13966E+01  1.16150E+01  1.17611E+01  1.18304E+01  1.18205E+01  1.17315E+01  1.15655E+01  1.13271E+01  1.10225E+01
   1.06596E+01  1.02473E+01  9.79562E+00  9.31466E+00  8.81458E+00  8.30505E+00  7.79491E+00  7.29205E+00  6.80322E+00  6.33398E+00
   5.88860E+00  5.47010E+00  5.08033E+00  4.72022E+00  4.38987E+00  4.08874E+00  3.81569E+00  3.56916E+00  3.34735E+00  3.14834E+00
   2.97021E+00  2.81105E+00  2.66895E+00  2.54209E+00  2.42883E+00  2.32767E+00  2.23732E+00  2.15656E+00  2.08429E+00  2.01950E+00
   1.96138E+00  1.90921E+00  1.86239E+00  1.82034E+00  1.78252E+00  1.74847E+00  1.71784E+00  1.69032E+00  1.66564E+00  1.64351E+00
   1.62366E+00  1.60588E+00  1.59003E+00  1.57598E+00  1.56357E+00  1.55265E+00  1.54306E+00  1.53472E+00  1.52757E+00  1.52154E+00
   1.51653E+00  1.51242E+00  1.50915E+00  1.50669E+00  1.50502E+00  1.50408E+00  1.50379E+00  1.50409E+00  1.50494E+00  1.50635E+00
   1.50830E+00  1.51075E+00  1.51362E+00  1.51690E+00  1.52056E+00  1.52464E+00  1.52909E+00  1.53389E+00  1.53897E+00  1.54433E+00
   1.54998E+00  1.55593E+00  1.56216E+00  1.56861E+00  1.57525E+00  1.58210E+00  1.58918E+00  1.59649E+00  1.60399E+00  1.61164E+00
   1.61943E+00  1.62738E+00  1.63553E+00  1.64384E+00  1.65230E+00  1.66086E+00  1.66954E+00  1.67839E+00
 NY background values follow
     2.569E+01    2.549E+01    2.528E+01    2.508E+01    2.487E+01    2.467E+01    2.446E+01    2.426E+01    2.405E+01    2.384E+01
     2.364E+01    2.343E+01    2.323E+01    2.302E+01    2.282E+01    2.261E+01    2.241E+01    2.220E+01    2.200E+01    2.179E+01
     2.159E+01    2.139E+01    2.118E+01    2.098E+01    2.078E+01    2.057E+01    2.037E+01    2.017E+01    1.996E+01    1.976E+01
     1.956E+01    1.936E+01    1.916E+01    1.896E+01    1.876E+01    1.856E+01    1.836E+01    1.816E+01    1.796E+01    1.776E+01
     1.757E+01    1.737E+01    1.717E+01    1.698E+01    1.678E+01    1.659E+01    1.639E+01    1.620E+01    1.601E+01    1.582E+01
     1.563E+01    1.543E+01    1.524E+01    1.506E+01    1.487E+01    1.468E+01    1.449E+01    1.431E+01    1.412E+01    1.393E+01
     1.375E+01    1.357E+01    1.339E+01    1.320E+01    1.302E+01    1.284E+01    1.267E+01    1.249E+01    1.231E+01    1.214E+01
     1.196E+01    1.179E+01    1.162E+01    1.145E+01    1.128E+01    1.111E+01    1.094E+01    1.077E+01    1.061E+01    1.044E+01
     1.028E+01    1.012E+01    9.954E+00    9.795E+00    9.637E+00    9.479E+00    9.324E+00    9.169E+00    9.016E+00    8.864E+00
     8.714E+00    8.565E+00    8.417E+00    8.271E+00    8.126E+00    7.983E+00    7.841E+00    7.700E+00    7.561E+00    7.423E+00
     7.286E+00    7.151E+00    7.017E+00    6.885E+00    6.753E+00    6.623E+00    6.495E+00    6.367E+00    6.241E+00    6.117E+00
     5.993E+00    5.871E+00    5.751E+00    5.631E+00    5.513E+00    5.396E+00    5.280E+00    5.166E+00    5.053E+00    4.941E+00
     4.830E+00    4.721E+00    4.612E+00    4.505E+00    4.400E+00    4.295E+00    4.192E+00    4.090E+00    3.989E+00    3.889E+00
     3.791E+00    3.693E+00    3.597E+00    3.502E+00    3.409E+00    3.316E+00    3.225E+00    3.134E+00    3.045E+00    2.957E+00
     2.870E+00    2.785E+00    2.700E+00    2.617E+00    2.534E+00    2.453E+00    2.373E+00    2.294E+00    2.216E+00    2.140E+00
     2.064E+00    1.989E+00    1.916E+00    1.844E+00    1.772E+00    1.702E+00    1.633E+00    1.565E+00    1.498E+00    1.433E+00
     1.368E+00    1.304E+00    1.241E+00    1.180E+00    1.119E+00    1.060E+00    1.001E+00    9.438E-01    8.874E-01    8.320E-01
     7.776E-01    7.243E-01    6.720E-01    6.207E-01    5.705E-01    5.212E-01    4.729E-01    4.256E-01    3.794E-01    3.341E-01
     2.898E-01    2.465E-01    2.041E-01    1.627E-01    1.223E-01    8.283E-02    4.426E-02    6.604E-03   -3.016E-02   -6.603E-02
    -1.010E-01   -1.352E-01   -1.685E-01   -2.010E-01   -2.326E-01   -2.635E-01   -2.935E-01   -3.228E-01   -3.513E-01   -3.791E-01
    -4.061E-01   -4.324E-01   -4.580E-01   -4.829E-01   -5.071E-01   -5.306E-01   -5.534E-01   -5.757E-01   -5.973E-01   -6.182E-01
    -6.386E-01   -6.583E-01   -6.775E-01   -6.961E-01   -7.142E-01   -7.317E-01   -7.487E-01   -7.652E-01   -7.812E-01   -7.966E-01
    -8.117E-01   -8.262E-01   -8.403E-01   -8.540E-01   -8.672E-01   -8.800E-01   -8.925E-01   -9.045E-01   -9.162E-01   -9.275E-01
    -9.384E-01   -9.490E-01   -9.592E-01   -9.690E-01   -9.785E-01   -9.876E-01   -9.964E-01   -1.005E+00   -1.013E+00   -1.021E+00
    -1.028E+00   -1.035E+00   -1.042E+00   -1.049E+00   -1.055E+00   -1.061E+00   -1.066E+00   -1.071E+00   -1.076E+00   -1.081E+00
    -1.085E+00   -1.089E+00   -1.093E+00   -1.097E+00   -1.100E+00   -1.103E+00   -1.106E+00   -1.108E+00   -1.110E+00   -1.112E+00
    -1.114E+00   -1.116E+00   -1.117E+00   -1.118E+00   -1.119E+00   -1.119E+00   -1.120E+00   -1.120E+00   -1.120E+00   -1.119E+00
    -1.119E+00   -1.118E+00   -1.117E+00   -1.116E+00   -1.115E+00   -1.113E+00   -1.112E+00   -1.110E+00   -1.108E+00   -1.106E+00
    -1.103E+00   -1.101E+00   -1.098E+00   -1.095E+00   -1.092E+00   -1.089E+00   -1.085E+00   -1.082E+00   -1.078E+00   -1.074E+00
    -1.070E+00   -1.066E+00   -1.061E+00   -1.057E+00   -1.052E+00   -1.047E+00   -1.043E+00   -1.037E+00   -1.032E+00   -1.027E+00
    -1.021E+00   -1.016E+00   -1.010E+00   -1.004E+00   -9.981E-01   -9.919E-01   -9.857E-01   -9.793E-01   -9.728E-01   -9.662E-01
    -9.595E-01   -9.527E-01   -9.457E-01   -9.387E-01   -9.315E-01   -9.243E-01   -9.169E-01   -9.095E-01   -9.020E-01   -8.943E-01
    -8.866E-01   -8.788E-01   -8.709E-01   -8.629E-01   -8.548E-01   -8.466E-01   -8.383E-01   -8.300E-01   -8.216E-01   -8.131E-01
    -8.045E-01   -7.958E-01   -7.871E-01   -7.783E-01   -7.694E-01   -7.604E-01   -7.514E-01   -7.423E-01   -7.331E-01   -7.239E-01
    -7.146E-01   -7.052E-01   -6.958E-01   -6.863E-01   -6.767E-01   -6.671E-01   -6.574E-01   -6.477E-01   -6.379E-01   -6.280E-01
    -6.182E-01   -6.082E-01   -5.982E-01   -5.882E-01   -5.781E-01   -5.679E-01   -5.577E-01   -5.475E-01   -5.373E-01   -5.269E-01
    -5.166E-01   -5.062E-01   -4.958E-01   -4.853E-01   -4.748E-01   -4.643E-01   -4.537E-01   -4.431E-01   -4.325E-01   -4.218E-01
    -4.111E-01   -4.003E-01   -3.895E-01   -3.787E-01   -3.678E-01   -3.569E-01   -3.459E-01   -3.349E-01   -3.238E-01   -3.128E-01
    -3.016E-01   -2.905E-01   -2.793E-01   -2.680E-01   -2.567E-01   -2.454E-01   -2.340E-01   -2.225E-01   -2.111E-01   -1.996E-01
    -1.880E-01   -1.764E-01   -1.647E-01   -1.530E-01   -1.413E-01   -1.295E-01   -1.176E-01   -1.058E-01   -9.382E-02   -8.184E-02
    -6.980E-02   -5.772E-02   -4.559E-02   -3.341E-02   -2.118E-02   -8.905E-03    3.425E-03    1.581E-02    2.824E-02    4.072E-02
     5.325E-02    6.583E-02    7.846E-02    9.113E-02    1.039E-01    1.166E-01    1.294E-01    1.423E-01    1.552E-01    1.682E-01
     1.812E-01    1.942E-01    2.073E-01    2.204E-01    2.336E-01    2.468E-01    2.600E-01    2.733E-01    2.866E-01    3.000E-01
     3.134E-01    3.268E-01    3.403E-01    3.538E-01    3.673E-01    3.809E-01    3.945E-01    4.082E-01    4.218E-01    4.356E-01
     4.493E-01    4.631E-01    4.769E-01    4.907E-01    5.046E-01    5.185E-01    5.324E-01    5.464E-01    5.604E-01    5.744E-01
     5.884E-01    6.025E-01    6.165E-01    6.306E-01    6.448E-01    6.589E-01    6.731E-01    6.873E-01    7.015E-01    7.158E-01
     7.300E-01    7.443E-01    7.586E-01    7.728E-01    7.872E-01    8.015E-01    8.158E-01    8.301E-01    8.445E-01    8.588E-01
     8.732E-01    8.876E-01    9.019E-01    9.163E-01    9.307E-01    9.451E-01    9.594E-01    9.738E-01    9.882E-01    1.003E+00
     1.017E+00    1.031E+00    1.046E+00    1.060E+00    1.074E+00    1.089E+00    1.103E+00    1.117E+00    1.132E+00    1.146E+00
     1.160E+00    1.174E+00    1.189E+00    1.203E+00    1.217E+00    1.231E+00    1.245E+00    1.259E+00
 Cr       Conc. = 3.46E+02
