 LCModel (Version 6.3-1L) Copyright: S.W. Provencher.          Ref.: Magn. Reson. Med. 30:672-679 (1993).                
 Slice#1 Row#7 Col#12  K_02_press_1_raw_act
 36 lines in following concentration table = NCONC+1
    Conc.  %SD /Cr+PCr  Metabolite                                         
  278.006  49%   0.869 Ala                                                 
   73.646 197%   0.230 Asp                                                 
    0.000 999%   0.000 Cr                                                  
  319.866  16%   1.000 PCr                                                 
   42.383 218%   0.133 GABA                                                
  111.038  81%   0.347 Glc                                                 
  504.517  54%   1.577 Gln                                                 
 1.37E+03  23%   4.272 Glu                                                 
   74.026  26%   0.231 GPC                                                 
    0.000 999%   0.000 PCh                                                 
   18.426 401% 5.8E-02 GSH                                                 
  141.255 160%   0.442 Ins                                                 
    0.000 999%   0.000 Lac                                                 
 2.00E+03   9%   6.241 NAA                                                 
  253.434  78%   0.792 NAAG                                                
   26.317  81% 8.2E-02 Scyllo                                              
  230.879  59%   0.722 Tau                                                 
  174.962  42%   0.547 -CrCH2                                              
   74.026  26%   0.231 GPC+PCh                                             
 2.25E+03   4%   7.033 NAA+NAAG                                            
  319.866  16%   1.000 Cr+PCr                                              
 1.87E+03  25%   5.850 Glu+Gln                                             
 1.72E+03  23%   5.391 Lip13a                                              
    0.000 999%   0.000 Lip13b                                              
  433.608  25%   1.356 Lip09                                               
  907.919  20%   2.838 MM09                                                
  260.024  24%   0.813 Lip20                                               
 1.76E+03  17%   5.516 MM20                                                
  275.900  36%   0.863 MM12                                                
 3.17E+03   6%   9.906+MM14                                                
 1.09E+03  17%   3.398 MM17                                                
 1.72E+03  23%   5.391 Lip13a+Lip13b                                       
 5.17E+03   5%  16.160 MM14+Lip13a+Lip13b+MM12                             
 1.34E+03  10%   4.194 MM09+Lip09                                          
 2.02E+03  14%   6.329 MM20+Lip20                                          
   6 lines in following misc. output table
  FWHM = 0.054 ppm    S/N =  10                                            
  Data shift = 0.008 ppm                                                   
  Ph: -73 deg     -28.1 deg/ppm                                            
  alphaB,S = 8.5E+01,   1.4E+02                                            
   14 spline knots.   Ns = 9(1)                                            
  ( 8) 3 infls.   ( 3) 1 extrs.                                            
  498 points on ppm-axis = NY
      4.000000     3.992357     3.984714     3.977070     3.969427     3.961784     3.954141     3.946497     3.938854     3.931211
      3.923568     3.915925     3.908281     3.900638     3.892995     3.885352     3.877708     3.870065     3.862422     3.854779
      3.847136     3.839492     3.831849     3.824206     3.816563     3.808919     3.801276     3.793633     3.785990     3.778347
      3.770703     3.763060     3.755417     3.747774     3.740130     3.732487     3.724844     3.717201     3.709558     3.701914
      3.694271     3.686628     3.678985     3.671341     3.663698     3.656055     3.648412     3.640769     3.633125     3.625482
      3.617839     3.610196     3.602552     3.594909     3.587266     3.579623     3.571980     3.564336     3.556693     3.549050
      3.541407     3.533763     3.526120     3.518477     3.510834     3.503191     3.495547     3.487904     3.480261     3.472618
      3.464974     3.457331     3.449688     3.442045     3.434402     3.426758     3.419115     3.411472     3.403829     3.396185
      3.388542     3.380899     3.373256     3.365613     3.357969     3.350326     3.342683     3.335040     3.327396     3.319753
      3.312110     3.304467     3.296824     3.289180     3.281537     3.273894     3.266251     3.258607     3.250964     3.243321
      3.235678     3.228034     3.220391     3.212748     3.205105     3.197462     3.189818     3.182175     3.174532     3.166889
      3.159245     3.151602     3.143959     3.136316     3.128673     3.121029     3.113386     3.105743     3.098100     3.090456
      3.082813     3.075170     3.067527     3.059884     3.052240     3.044597     3.036954     3.029311     3.021667     3.014024
      3.006381     2.998738     2.991095     2.983451     2.975808     2.968165     2.960522     2.952878     2.945235     2.937592
      2.929949     2.922306     2.914662     2.907019     2.899376     2.891733     2.884089     2.876446     2.868803     2.861160
      2.853517     2.845873     2.838230     2.830587     2.822944     2.815300     2.807657     2.800014     2.792371     2.784728
      2.777084     2.769441     2.761798     2.754155     2.746511     2.738868     2.731225     2.723582     2.715939     2.708295
      2.700652     2.693009     2.685366     2.677722     2.670079     2.662436     2.654793     2.647150     2.639506     2.631863
      2.624220     2.616577     2.608933     2.601290     2.593647     2.586004     2.578361     2.570717     2.563074     2.555431
      2.547788     2.540144     2.532501     2.524858     2.517215     2.509572     2.501928     2.494285     2.486642     2.478999
      2.471355     2.463712     2.456069     2.448426     2.440783     2.433139     2.425496     2.417853     2.410210     2.402566
      2.394923     2.387280     2.379637     2.371994     2.364350     2.356707     2.349064     2.341421     2.333777     2.326134
      2.318491     2.310848     2.303205     2.295561     2.287918     2.280275     2.272632     2.264988     2.257345     2.249702
      2.242059     2.234416     2.226772     2.219129     2.211486     2.203843     2.196199     2.188556     2.180913     2.173270
      2.165627     2.157983     2.150340     2.142697     2.135054     2.127410     2.119767     2.112124     2.104481     2.096838
      2.089194     2.081551     2.073908     2.066265     2.058621     2.050978     2.043335     2.035692     2.028049     2.020405
      2.012762     2.005119     1.997476     1.989833     1.982190     1.974546     1.966903     1.959260     1.951617     1.943974
      1.936331     1.928688     1.921045     1.913402     1.905759     1.898115     1.890472     1.882829     1.875186     1.867543
      1.859900     1.852257     1.844614     1.836971     1.829327     1.821684     1.814041     1.806398     1.798755     1.791112
      1.783469     1.775826     1.768183     1.760540     1.752896     1.745253     1.737610     1.729967     1.722324     1.714681
      1.707038     1.699395     1.691752     1.684108     1.676465     1.668822     1.661179     1.653536     1.645893     1.638250
      1.630607     1.622964     1.615321     1.607677     1.600034     1.592391     1.584748     1.577105     1.569462     1.561819
      1.554176     1.546533     1.538890     1.531246     1.523603     1.515960     1.508317     1.500674     1.493031     1.485388
      1.477745     1.470102     1.462458     1.454815     1.447172     1.439529     1.431886     1.424243     1.416600     1.408957
      1.401314     1.393671     1.386027     1.378384     1.370741     1.363098     1.355455     1.347812     1.340169     1.332526
      1.324883     1.317240     1.309596     1.301953     1.294310     1.286667     1.279024     1.271381     1.263738     1.256095
      1.248452     1.240808     1.233165     1.225522     1.217879     1.210236     1.202593     1.194950     1.187307     1.179664
      1.172021     1.164377     1.156734     1.149091     1.141448     1.133805     1.126162     1.118519     1.110876     1.103233
      1.095590     1.087946     1.080303     1.072660     1.065017     1.057374     1.049731     1.042088     1.034445     1.026802
      1.019158     1.011515     1.003872     0.996229     0.988586     0.980943     0.973300     0.965657     0.958014     0.950371
      0.942727     0.935084     0.927441     0.919798     0.912155     0.904512     0.896869     0.889226     0.881583     0.873940
      0.866296     0.858653     0.851010     0.843367     0.835724     0.828081     0.820438     0.812795     0.805152     0.797508
      0.789865     0.782222     0.774579     0.766936     0.759293     0.751650     0.744007     0.736364     0.728721     0.721077
      0.713434     0.705791     0.698148     0.690505     0.682862     0.675219     0.667576     0.659933     0.652290     0.644646
      0.637003     0.629360     0.621717     0.614074     0.606431     0.598788     0.591145     0.583502     0.575858     0.568215
      0.560572     0.552929     0.545286     0.537643     0.530000     0.522357     0.514714     0.507071     0.499427     0.491784
      0.484141     0.476498     0.468855     0.461212     0.453569     0.445925     0.438282     0.430639     0.422996     0.415353
      0.407710     0.400067     0.392424     0.384780     0.377137     0.369494     0.361851     0.354208     0.346565     0.338922
      0.331278     0.323635     0.315992     0.308349     0.300706     0.293063     0.285420     0.277777     0.270133     0.262490
      0.254847     0.247204     0.239561     0.231918     0.224275     0.216631     0.208988     0.201345
 NY phased data points follow
  -6.56918E+00 -7.26830E+00 -3.72272E+00 -1.04694E+01 -3.77778E+00 -1.01129E+01 -7.26067E+00 -5.96030E+00 -6.62441E+00 -1.54998E+00
  -2.15464E+00 -7.30827E+00 -1.43646E+00 -8.92050E+00 -1.90702E+00 -8.27950E+00 -6.09615E+00 -5.64119E+00 -7.79837E+00 -6.35121E+00
  -7.27502E+00 -5.30879E+00 -9.44174E+00 -7.70381E+00 -6.62354E+00 -2.43822E+00 -1.93041E+00 -3.61899E+00 -4.01395E+00 -3.21519E+00
  -3.74801E+00 -7.01492E+00 -3.44115E+00 -3.01621E+00 -6.75796E+00 -7.59830E+00 -5.29727E+00 -3.77486E+00 -6.26626E+00 -1.51525E+00
  -6.82848E+00 -1.06468E+01 -5.77510E+00 -3.63540E+00 -3.90887E+00 -2.43801E+00 -2.17542E+00 -4.33168E+00 -3.34908E+00 -9.34955E+00
  -1.31167E-01 -4.69027E+00 -3.43028E+00 -2.34857E+00 -6.96078E+00 -5.78042E+00 -9.46069E-01 -3.13119E+00 -5.46778E+00 -4.43289E+00
  -3.14590E+00 -7.28174E+00 -7.16160E+00 -6.13384E+00 -2.46645E+00 -6.61541E+00 -1.00537E+00 -2.74772E+00 -6.05751E+00 -4.86464E+00
  -3.54679E+00 -8.02992E+00 -3.06332E+00 -5.01624E+00 -2.20652E+00 -3.36691E-01 -4.96846E+00 -5.35073E+00 -2.82376E+00 -3.41417E+00
   3.99794E-01 -3.85701E+00 -4.71740E+00 -3.08917E+00 -3.03434E+00 -9.68990E+00 -3.27777E+00 -7.33424E+00 -5.64806E+00 -4.24253E+00
  -2.29213E+00 -4.41755E+00  1.75159E+00 -3.91915E+00 -4.52585E+00 -8.05528E+00 -5.44855E+00 -4.27124E+00 -6.28063E+00 -8.60554E+00
   6.04375E-01  8.64897E-01  3.50526E+00  6.67015E+00  7.41739E+00 -3.25217E+00 -3.20203E-01 -1.21613E+00 -1.69946E+00 -2.46125E+00
  -2.61401E+00 -1.59638E+00 -3.22826E+00 -4.11107E+00 -4.57581E+00 -6.27868E+00  3.09863E-01 -7.55571E-01 -2.17665E+00 -3.36472E+00
  -1.60457E+00 -6.33710E+00 -1.38369E-01 -2.96027E+00  2.44389E+00  6.73684E+00  1.18388E+01  6.35350E+00  9.29596E+00  5.90833E+00
   5.00224E+00  5.24825E+00  1.26271E+00  2.03921E+00  7.03606E+00  1.84805E+00 -2.15921E+00  2.54557E+00  6.31452E+00  4.88478E+00
   7.38905E+00  4.44753E+00  3.62033E+00  4.81855E+00  3.95717E+00  2.29573E+00  3.98785E+00  3.04173E+00 -6.11231E-02  3.88078E+00
   2.58568E+00  1.38753E+00  9.72040E-01  2.70626E+00  1.92581E+00 -1.42826E+00  3.02777E+00  8.47383E+00  4.07971E+00  5.33992E-01
   2.80639E+00  1.87572E+00  1.47708E+00  1.85224E+00  2.56608E+00  3.73473E+00 -1.18209E+00 -4.69822E-01 -2.78032E+00 -2.65252E+00
  -1.29807E+00 -3.29890E+00 -3.53301E+00 -1.75610E-02 -1.74333E+00 -5.46423E+00 -1.70791E+00 -3.12619E+00 -4.95250E+00 -1.53317E+00
  -1.40835E+00 -2.50222E+00 -1.12285E+01 -1.64672E+00 -6.59648E+00 -5.70168E+00 -2.06134E+00 -3.64063E+00 -4.56084E+00 -6.80893E+00
  -6.37208E-01 -5.72550E-01 -1.60612E+00 -3.03657E+00  2.08431E+00 -2.20943E+00 -3.55355E+00 -9.97312E+00 -7.13684E+00 -1.18455E+01
  -1.07889E+01 -7.05445E+00  1.57090E-01 -2.53788E+00  2.10592E+00 -2.53894E+00 -2.30215E+00 -1.41269E+00 -3.17252E+00 -6.79865E+00
  -3.68053E+00 -2.15073E+00 -5.28622E-01  2.32307E-01  4.32943E+00  8.97054E+00  8.12259E+00  3.72401E+00  5.44642E+00  3.07143E+00
   2.22691E+00 -2.02478E+00 -1.85975E+00 -3.16188E+00  2.49335E-02 -1.92631E+00  2.25000E-01  4.85331E+00  8.06898E+00  3.94319E+00
   3.53960E+00  6.13199E+00  7.60749E+00  5.14358E+00  6.68723E+00  5.48917E+00  5.46218E+00  5.95793E+00  2.53316E+00  4.37388E+00
   5.55958E+00  5.03373E+00  2.19512E+00  2.64706E+00  6.57434E+00  1.08031E+01  7.61342E+00  1.07744E+01  1.15828E+01  1.45665E+01
   1.45066E+01  1.54258E+01  1.97416E+01  2.24444E+01  3.03877E+01  3.90101E+01  4.45026E+01  5.42829E+01  6.84166E+01  7.56323E+01
   7.38038E+01  6.88812E+01  6.02141E+01  5.41923E+01  4.05982E+01  3.04377E+01  2.22308E+01  1.72863E+01  1.90581E+01  9.39467E+00
   7.73046E+00  1.26261E+01  7.98687E+00  1.02598E+01  1.03910E+01  5.50848E+00  1.01452E+01  8.42393E+00  4.19226E+00  4.90195E+00
   7.37327E+00  8.93013E+00  4.29462E+00  5.42764E+00  7.61392E+00  4.49808E+00  8.12458E+00  3.63073E+00  7.94130E+00  6.04617E+00
   8.79946E+00  9.88413E+00  9.58409E+00  8.26283E+00  7.82560E+00  3.65058E+00  1.21174E+01  8.52649E+00  6.43588E+00  8.76425E+00
   7.12585E+00  1.28616E+01  8.46918E+00  1.10187E+01  1.27932E+01  1.14961E+01  1.51020E+01  1.82726E+01  1.41502E+01  1.41573E+01
   1.97592E+01  1.73236E+01  1.84929E+01  2.09845E+01  1.87618E+01  1.74466E+01  1.21346E+01  1.79298E+01  1.80785E+01  1.78595E+01
   2.39883E+01  1.86258E+01  2.15168E+01  2.11868E+01  2.24028E+01  2.28672E+01  2.63140E+01  2.44224E+01  2.27498E+01  2.84820E+01
   2.88073E+01  2.78657E+01  2.82796E+01  2.72576E+01  2.95218E+01  3.26059E+01  3.09041E+01  2.61257E+01  3.14986E+01  2.97810E+01
   2.55199E+01  2.55800E+01  2.57856E+01  2.32396E+01  1.79388E+01  1.53604E+01  1.59330E+01  1.70686E+01  1.22006E+01  1.22330E+01
   7.61345E+00  7.31920E+00  5.05888E+00  3.47171E+00 -1.45068E+00  1.06345E+00 -1.03366E+00 -6.48042E+00 -1.68625E+00 -1.74275E+00
  -9.88749E-01  1.89462E+00 -5.64580E+00 -4.46907E+00 -7.66930E-01  1.42618E+00 -5.91947E-01  2.41514E+00  8.32017E-01 -1.55023E-01
   3.92082E-01 -3.94238E+00 -2.09566E+00 -1.65910E-01 -3.97544E+00 -4.84244E+00 -7.93602E+00 -5.62713E+00 -5.00977E+00 -4.37036E+00
  -5.59208E+00 -3.54624E+00 -2.47662E+00 -6.71046E+00 -2.18935E+00 -4.38326E+00 -5.80044E+00  9.47111E-01 -2.42643E+00 -2.47183E+00
  -4.00795E+00 -6.23174E-01  4.93120E-01  1.34989E+00 -5.09845E-01  2.27990E+00  3.10407E-01  3.81057E+00  7.68299E-01 -1.46840E+00
   2.17510E+00  2.71047E+00  1.02396E-01  9.91898E-02 -3.43838E+00  5.96936E-01 -1.80579E-01 -2.95397E+00  6.36956E-01 -1.86395E-01
  -1.24268E+00  1.29999E+00 -5.71455E+00 -4.12535E+00 -3.56740E+00 -5.09761E+00 -8.61585E+00 -9.06542E+00 -8.27567E+00 -9.38194E+00
  -7.05800E+00 -7.11939E+00 -6.55191E+00 -8.58782E+00 -1.03986E+01 -8.75433E+00 -9.09688E+00 -9.62922E+00 -3.91005E+00 -8.87135E+00
  -6.40057E+00 -6.19510E+00 -7.90488E+00 -8.16962E+00 -7.77059E+00 -6.03876E+00 -8.50718E+00 -6.01579E+00 -6.93447E+00 -4.73624E+00
  -1.13181E+00 -3.35924E+00 -4.50580E+00 -4.30024E+00 -5.02700E+00 -6.02082E+00 -5.70187E+00 -1.04389E+01 -4.01922E+00 -7.38183E+00
  -2.53046E+00 -2.72914E+00 -4.50717E+00 -3.42175E+00 -4.12558E+00 -2.75212E+00 -5.48247E+00 -3.22143E+00 -1.83394E+00 -6.35583E+00
  -6.95589E-01 -2.58399E+00 -4.58616E+00 -8.14742E-01 -8.02104E-01 -4.99182E+00 -2.59778E+00 -5.25396E+00 -4.45941E+00 -6.02467E+00
  -4.56669E+00 -2.83120E+00 -4.44412E+00 -1.30014E+00 -3.63874E+00 -1.20151E+00 -5.28034E+00 -5.22053E+00 -3.51353E-01 -3.70373E+00
  -6.50780E-01 -1.64236E+00 -8.88302E-01 -4.28469E-01 -4.41035E+00 -5.55952E+00 -3.38471E+00 -2.38948E+00 -4.86043E+00 -4.56000E+00
  -3.52324E+00 -4.35618E+00 -3.38221E+00 -5.03855E+00 -3.19342E+00  8.49040E-01 -3.24469E+00 -3.02796E+00
 NY points of the fit to the data follow
  -7.67140E+00 -7.93476E+00 -8.18762E+00 -8.37840E+00 -8.40174E+00 -8.12085E+00 -7.49102E+00 -6.66707E+00 -5.88320E+00 -5.28082E+00
  -4.88610E+00 -4.69398E+00 -4.71054E+00 -4.88652E+00 -5.11256E+00 -5.31716E+00 -5.52816E+00 -5.79053E+00 -6.05325E+00 -6.19059E+00
  -6.16633E+00 -6.00100E+00 -5.69841E+00 -5.30450E+00 -4.91818E+00 -4.70546E+00 -4.81310E+00 -5.27059E+00 -5.96509E+00 -6.65520E+00
  -7.05617E+00 -6.95814E+00 -6.30117E+00 -5.25614E+00 -4.16878E+00 -3.38829E+00 -3.11693E+00 -3.33385E+00 -3.85525E+00 -4.43825E+00
  -4.88793E+00 -5.11729E+00 -5.14415E+00 -5.03188E+00 -4.83752E+00 -4.59625E+00 -4.32665E+00 -4.04747E+00 -3.78429E+00 -3.58029E+00
  -3.47291E+00 -3.46765E+00 -3.53830E+00 -3.65129E+00 -3.77956E+00 -3.90635E+00 -4.02098E+00 -4.11461E+00 -4.17551E+00 -4.20443E+00
  -4.21448E+00 -4.21573E+00 -4.22239E+00 -4.23540E+00 -4.24889E+00 -4.27030E+00 -4.30870E+00 -4.35190E+00 -4.39558E+00 -4.44189E+00
  -4.47740E+00 -4.47798E+00 -4.41304E+00 -4.25529E+00 -4.01918E+00 -3.78197E+00 -3.63668E+00 -3.63138E+00 -3.73966E+00 -3.91539E+00
  -4.10253E+00 -4.24490E+00 -4.29139E+00 -4.20175E+00 -3.98557E+00 -3.72147E+00 -3.50708E+00 -3.40102E+00 -3.41402E+00 -3.53729E+00
  -3.76430E+00 -4.11479E+00 -4.60840E+00 -5.17361E+00 -5.65098E+00 -5.98810E+00 -6.12438E+00 -5.97850E+00 -5.46613E+00 -4.49321E+00
  -3.08615E+00 -1.50514E+00 -1.07258E-01  8.77744E-01  1.40830E+00  1.53148E+00  1.30293E+00  8.19376E-01  2.45833E-01 -2.73382E-01
  -7.22634E-01 -1.17917E+00 -1.65539E+00 -2.10431E+00 -2.51498E+00 -2.93641E+00 -3.41011E+00 -3.84191E+00 -4.11692E+00 -4.22192E+00
  -4.09909E+00 -3.63176E+00 -2.62694E+00 -9.36445E-01  1.29712E+00  3.60580E+00  5.49325E+00  6.71035E+00  7.24579E+00  7.17141E+00
   6.60854E+00  5.78519E+00  4.97074E+00  4.30885E+00  3.74432E+00  3.19647E+00  2.70545E+00  2.34701E+00  2.11707E+00  1.96051E+00
   1.84638E+00  1.76031E+00  1.69638E+00  1.65039E+00  1.61572E+00  1.58296E+00  1.54468E+00  1.50095E+00  1.45309E+00  1.40359E+00
   1.36025E+00  1.33003E+00  1.30147E+00  1.25787E+00  1.20824E+00  1.15277E+00  1.08888E+00  9.84007E-01  7.76207E-01  4.74986E-01
   1.72189E-01 -1.99226E-02 -5.01844E-02  3.32287E-02  1.21494E-01  1.28920E-01  1.52790E-02 -2.41127E-01 -6.40456E-01 -1.10147E+00
  -1.54272E+00 -1.94926E+00 -2.37616E+00 -2.87995E+00 -3.40325E+00 -3.81707E+00 -4.04348E+00 -4.13521E+00 -4.21643E+00 -4.34348E+00
  -4.45336E+00 -4.50122E+00 -4.49914E+00 -4.47222E+00 -4.39449E+00 -4.18747E+00 -3.79807E+00 -3.25354E+00 -2.61797E+00 -1.95450E+00
  -1.33387E+00 -8.21380E-01 -4.67856E-01 -2.64375E-01 -1.48744E-01 -4.03038E-02  1.05412E-01  3.16481E-01  6.48190E-01  1.13945E+00
   1.79382E+00  2.50786E+00  3.13352E+00  3.51350E+00  3.43399E+00  2.76304E+00  1.55762E+00  4.39587E-02 -1.38516E+00 -2.41570E+00
  -2.79306E+00 -2.36878E+00 -1.12939E+00  7.29815E-01  2.71516E+00  4.21050E+00  4.79330E+00  4.35060E+00  3.01795E+00  1.06431E+00
  -1.10519E+00 -2.87457E+00 -3.67348E+00 -3.35815E+00 -2.21241E+00 -6.40354E-01  1.06088E+00  2.62303E+00  3.80303E+00  4.48666E+00
   4.79364E+00  4.94749E+00  5.06889E+00  5.17551E+00  5.28898E+00  5.49947E+00  5.84003E+00  6.22517E+00  6.53010E+00  6.68119E+00
   6.68469E+00  6.61643E+00  6.58962E+00  6.69225E+00  6.96107E+00  7.38207E+00  7.93741E+00  8.67307E+00  9.54580E+00  1.05623E+01
   1.19113E+01  1.43208E+01  1.85279E+01  2.40706E+01  3.06303E+01  3.81679E+01  4.69478E+01  5.68741E+01  6.63520E+01  7.25293E+01
   7.33997E+01  6.91343E+01  6.12779E+01  5.13801E+01  4.07483E+01  3.09489E+01  2.33654E+01  1.82318E+01  1.45951E+01  1.15824E+01
   9.30848E+00  8.04966E+00  7.54654E+00  7.29026E+00  7.09362E+00  6.90062E+00  6.68688E+00  6.44834E+00  6.19927E+00  5.96334E+00
   5.76670E+00  5.62129E+00  5.51890E+00  5.44764E+00  5.40412E+00  5.38876E+00  5.39871E+00  5.43233E+00  5.49542E+00  5.59687E+00
   5.73925E+00  5.92002E+00  6.13740E+00  6.39287E+00  6.68830E+00  7.02508E+00  7.40622E+00  7.83652E+00  8.31894E+00  8.85152E+00
   9.42728E+00  1.00368E+01  1.06692E+01  1.13116E+01  1.19496E+01  1.25694E+01  1.31589E+01  1.37081E+01  1.42085E+01  1.46545E+01
   1.50450E+01  1.53840E+01  1.56803E+01  1.59480E+01  1.62065E+01  1.64799E+01  1.67975E+01  1.71955E+01  1.77169E+01  1.83529E+01
   1.90639E+01  1.98498E+01  2.06900E+01  2.15270E+01  2.22474E+01  2.27172E+01  2.29342E+01  2.30728E+01  2.33109E+01  2.37769E+01
   2.45244E+01  2.55807E+01  2.69289E+01  2.83894E+01  2.96188E+01  3.03104E+01  3.03712E+01  2.98682E+01  2.88764E+01  2.74633E+01
   2.57577E+01  2.39251E+01  2.20700E+01  2.02064E+01  1.83243E+01  1.64641E+01  1.46823E+01  1.30009E+01  1.14139E+01  9.92347E+00
   8.53438E+00  7.24901E+00  6.06693E+00  4.98526E+00  3.99936E+00  3.10357E+00  2.29182E+00  1.55812E+00  8.96824E-01  3.02901E-01
  -2.28017E-01 -6.99631E-01 -1.11508E+00 -1.47712E+00 -1.78823E+00 -2.05078E+00 -2.26705E+00 -2.43933E+00 -2.56992E+00 -2.66121E+00
  -2.71561E+00 -2.73554E+00 -2.72334E+00 -2.68123E+00 -2.61132E+00 -2.51559E+00 -2.39591E+00 -2.25395E+00 -2.09125E+00 -1.90922E+00
  -1.70925E+00 -1.49273E+00 -1.26111E+00 -1.01595E+00 -7.59015E-01 -4.92354E-01 -2.18420E-01  5.98598E-02  3.39034E-01  6.15092E-01
   8.83427E-01  1.13883E+00  1.37550E+00  1.58721E+00  1.76740E+00  1.90945E+00  2.00684E+00  2.05346E+00  2.04390E+00  1.97374E+00
   1.83989E+00  1.64084E+00  1.37679E+00  1.04981E+00  6.63832E-01  2.24598E-01 -2.60498E-01 -7.82681E-01 -1.33217E+00 -1.89857E+00
  -2.47128E+00 -3.03991E+00 -3.59464E+00 -4.12662E+00 -4.62827E+00 -5.09341E+00 -5.51743E+00 -5.89722E+00 -6.23119E+00 -6.51911E+00
  -6.76198E+00 -6.96180E+00 -7.12135E+00 -7.24393E+00 -7.33320E+00 -7.39298E+00 -7.42713E+00 -7.43934E+00 -7.43310E+00 -7.41159E+00
  -7.37767E+00 -7.33386E+00 -7.28236E+00 -7.22505E+00 -7.16349E+00 -7.09895E+00 -7.03249E+00 -6.96494E+00 -6.89702E+00 -6.82924E+00
  -6.76200E+00 -6.69560E+00 -6.63026E+00 -6.56617E+00 -6.50345E+00 -6.44217E+00 -6.38235E+00 -6.32402E+00 -6.26717E+00 -6.21181E+00
  -6.15791E+00 -6.10544E+00 -6.05436E+00 -6.00460E+00 -5.95616E+00 -5.90898E+00 -5.86304E+00 -5.81827E+00 -5.77462E+00 -5.73205E+00
  -5.69052E+00 -5.65000E+00 -5.61045E+00 -5.57180E+00 -5.53403E+00 -5.49708E+00 -5.46095E+00 -5.42560E+00 -5.39098E+00 -5.35703E+00
  -5.32374E+00 -5.29107E+00 -5.25902E+00 -5.22753E+00 -5.19658E+00 -5.16611E+00 -5.13612E+00 -5.10657E+00 -5.07745E+00 -5.04870E+00
  -5.02031E+00 -4.99222E+00 -4.96442E+00 -4.93687E+00 -4.90957E+00 -4.88244E+00 -4.85545E+00 -4.82857E+00 -4.80176E+00 -4.77498E+00
  -4.74820E+00 -4.72133E+00 -4.69433E+00 -4.66712E+00 -4.63967E+00 -4.61189E+00 -4.58369E+00 -4.55494E+00
 NY background values follow
    -1.451E+00   -1.424E+00   -1.397E+00   -1.369E+00   -1.342E+00   -1.315E+00   -1.287E+00   -1.260E+00   -1.232E+00   -1.205E+00
    -1.177E+00   -1.150E+00   -1.122E+00   -1.094E+00   -1.066E+00   -1.039E+00   -1.011E+00   -9.829E-01   -9.550E-01   -9.270E-01
    -8.991E-01   -8.711E-01   -8.431E-01   -8.150E-01   -7.870E-01   -7.589E-01   -7.308E-01   -7.027E-01   -6.746E-01   -6.464E-01
    -6.183E-01   -5.901E-01   -5.619E-01   -5.338E-01   -5.056E-01   -4.774E-01   -4.492E-01   -4.210E-01   -3.928E-01   -3.646E-01
    -3.364E-01   -3.082E-01   -2.800E-01   -2.519E-01   -2.237E-01   -1.955E-01   -1.674E-01   -1.393E-01   -1.112E-01   -8.309E-02
    -5.501E-02   -2.696E-02    1.068E-03    2.907E-02    5.705E-02    8.501E-02    1.129E-01    1.408E-01    1.687E-01    1.965E-01
     2.243E-01    2.521E-01    2.798E-01    3.075E-01    3.351E-01    3.627E-01    3.903E-01    4.178E-01    4.453E-01    4.727E-01
     5.000E-01    5.274E-01    5.546E-01    5.818E-01    6.090E-01    6.361E-01    6.631E-01    6.901E-01    7.170E-01    7.438E-01
     7.706E-01    7.974E-01    8.240E-01    8.506E-01    8.771E-01    9.036E-01    9.299E-01    9.562E-01    9.824E-01    1.009E+00
     1.035E+00    1.061E+00    1.087E+00    1.112E+00    1.138E+00    1.164E+00    1.189E+00    1.215E+00    1.240E+00    1.265E+00
     1.291E+00    1.316E+00    1.341E+00    1.366E+00    1.390E+00    1.415E+00    1.440E+00    1.464E+00    1.489E+00    1.513E+00
     1.537E+00    1.561E+00    1.585E+00    1.609E+00    1.633E+00    1.657E+00    1.680E+00    1.704E+00    1.727E+00    1.750E+00
     1.773E+00    1.796E+00    1.819E+00    1.842E+00    1.864E+00    1.887E+00    1.909E+00    1.931E+00    1.953E+00    1.975E+00
     1.997E+00    2.019E+00    2.040E+00    2.062E+00    2.083E+00    2.104E+00    2.125E+00    2.146E+00    2.167E+00    2.188E+00
     2.208E+00    2.228E+00    2.249E+00    2.269E+00    2.288E+00    2.308E+00    2.328E+00    2.347E+00    2.367E+00    2.386E+00
     2.405E+00    2.424E+00    2.442E+00    2.461E+00    2.479E+00    2.498E+00    2.516E+00    2.534E+00    2.551E+00    2.569E+00
     2.586E+00    2.604E+00    2.621E+00    2.638E+00    2.655E+00    2.671E+00    2.688E+00    2.704E+00    2.720E+00    2.736E+00
     2.752E+00    2.768E+00    2.783E+00    2.798E+00    2.814E+00    2.829E+00    2.843E+00    2.858E+00    2.872E+00    2.887E+00
     2.901E+00    2.915E+00    2.929E+00    2.942E+00    2.956E+00    2.969E+00    2.982E+00    2.995E+00    3.007E+00    3.020E+00
     3.032E+00    3.044E+00    3.056E+00    3.068E+00    3.080E+00    3.091E+00    3.102E+00    3.113E+00    3.124E+00    3.135E+00
     3.145E+00    3.156E+00    3.166E+00    3.176E+00    3.186E+00    3.195E+00    3.205E+00    3.214E+00    3.223E+00    3.232E+00
     3.240E+00    3.249E+00    3.257E+00    3.265E+00    3.273E+00    3.281E+00    3.288E+00    3.295E+00    3.302E+00    3.309E+00
     3.316E+00    3.323E+00    3.329E+00    3.335E+00    3.341E+00    3.347E+00    3.352E+00    3.358E+00    3.363E+00    3.368E+00
     3.373E+00    3.377E+00    3.382E+00    3.386E+00    3.390E+00    3.394E+00    3.398E+00    3.401E+00    3.404E+00    3.407E+00
     3.410E+00    3.413E+00    3.415E+00    3.418E+00    3.420E+00    3.422E+00    3.423E+00    3.425E+00    3.426E+00    3.427E+00
     3.428E+00    3.429E+00    3.429E+00    3.430E+00    3.430E+00    3.430E+00    3.430E+00    3.429E+00    3.429E+00    3.428E+00
     3.427E+00    3.426E+00    3.424E+00    3.423E+00    3.421E+00    3.419E+00    3.417E+00    3.415E+00    3.412E+00    3.409E+00
     3.407E+00    3.404E+00    3.400E+00    3.397E+00    3.393E+00    3.389E+00    3.385E+00    3.381E+00    3.377E+00    3.372E+00
     3.367E+00    3.363E+00    3.357E+00    3.352E+00    3.347E+00    3.341E+00    3.335E+00    3.329E+00    3.323E+00    3.316E+00
     3.310E+00    3.303E+00    3.296E+00    3.289E+00    3.282E+00    3.274E+00    3.267E+00    3.259E+00    3.251E+00    3.243E+00
     3.234E+00    3.226E+00    3.217E+00    3.208E+00    3.199E+00    3.190E+00    3.181E+00    3.171E+00    3.162E+00    3.152E+00
     3.142E+00    3.132E+00    3.121E+00    3.111E+00    3.100E+00    3.089E+00    3.078E+00    3.067E+00    3.055E+00    3.044E+00
     3.032E+00    3.020E+00    3.009E+00    2.996E+00    2.984E+00    2.972E+00    2.959E+00    2.946E+00    2.933E+00    2.920E+00
     2.907E+00    2.894E+00    2.880E+00    2.867E+00    2.853E+00    2.839E+00    2.825E+00    2.810E+00    2.796E+00    2.781E+00
     2.767E+00    2.752E+00    2.737E+00    2.722E+00    2.707E+00    2.691E+00    2.676E+00    2.660E+00    2.644E+00    2.628E+00
     2.612E+00    2.596E+00    2.580E+00    2.564E+00    2.547E+00    2.530E+00    2.513E+00    2.497E+00    2.480E+00    2.462E+00
     2.445E+00    2.428E+00    2.410E+00    2.392E+00    2.375E+00    2.357E+00    2.339E+00    2.321E+00    2.302E+00    2.284E+00
     2.266E+00    2.247E+00    2.228E+00    2.210E+00    2.191E+00    2.172E+00    2.153E+00    2.133E+00    2.114E+00    2.095E+00
     2.075E+00    2.056E+00    2.036E+00    2.016E+00    1.996E+00    1.976E+00    1.956E+00    1.936E+00    1.916E+00    1.896E+00
     1.875E+00    1.855E+00    1.834E+00    1.814E+00    1.793E+00    1.772E+00    1.751E+00    1.730E+00    1.709E+00    1.688E+00
     1.667E+00    1.646E+00    1.624E+00    1.603E+00    1.581E+00    1.560E+00    1.538E+00    1.516E+00    1.495E+00    1.473E+00
     1.451E+00    1.429E+00    1.407E+00    1.385E+00    1.363E+00    1.341E+00    1.319E+00    1.296E+00    1.274E+00    1.252E+00
     1.229E+00    1.207E+00    1.184E+00    1.162E+00    1.139E+00    1.117E+00    1.094E+00    1.071E+00    1.049E+00    1.026E+00
     1.003E+00    9.802E-01    9.574E-01    9.345E-01    9.115E-01    8.886E-01    8.656E-01    8.426E-01    8.196E-01    7.965E-01
     7.734E-01    7.503E-01    7.272E-01    7.041E-01    6.809E-01    6.578E-01    6.346E-01    6.114E-01    5.882E-01    5.650E-01
     5.418E-01    5.186E-01    4.954E-01    4.721E-01    4.489E-01    4.257E-01    4.024E-01    3.792E-01    3.560E-01    3.327E-01
     3.095E-01    2.863E-01    2.631E-01    2.399E-01    2.167E-01    1.935E-01    1.704E-01    1.472E-01    1.241E-01    1.010E-01
     7.787E-02    5.479E-02    3.173E-02    8.695E-03   -1.432E-02   -3.731E-02   -6.027E-02   -8.320E-02   -1.061E-01   -1.290E-01
    -1.518E-01   -1.746E-01   -1.974E-01   -2.202E-01   -2.429E-01   -2.656E-01   -2.882E-01   -3.108E-01   -3.333E-01   -3.559E-01
    -3.783E-01   -4.007E-01   -4.231E-01   -4.455E-01   -4.677E-01   -4.900E-01   -5.122E-01   -5.343E-01
 Ala      Conc. = 2.78E+02
