 LCModel (Version 6.3-1L) Copyright: S.W. Provencher.          Ref.: Magn. Reson. Med. 30:672-679 (1993).                
 Slice#1 Row#11 Col#14  K_02_press_1_raw_act
 36 lines in following concentration table = NCONC+1
    Conc.  %SD /Cr+PCr  Metabolite                                         
 3.93E+03  25%  97.565 Ala                                                 
    4.149 125%   0.103 Asp                                                 
   40.232  80%   1.000 Cr                                                  
    0.000 999%   0.000 PCr                                                 
    2.388 130% 5.9E-02 GABA                                                
    2.458 127% 6.1E-02 Glc                                                 
    0.000 999%   0.000 Gln                                                 
  338.359 124%   8.410 Glu                                                 
    0.000 999%   0.000 GPC                                                 
   13.422  81%   0.334 PCh                                                 
    0.000 999%   0.000 GSH                                                 
    0.000 999%   0.000 Ins                                                 
 1.77E+03  58%  44.092 Lac                                                 
    0.000 999%   0.000 NAA                                                 
    0.000 999%   0.000 NAAG                                                
    0.863 120% 2.1E-02 Scyllo                                              
    4.303 120%   0.107 Tau                                                 
   44.953  48%   1.117 -CrCH2                                              
   13.422  81%   0.334 GPC+PCh                                             
    0.000 999%   0.000 NAA+NAAG                                            
   40.232  80%   1.000 Cr+PCr                                              
  338.359 124%   8.410 Glu+Gln                                             
 7.75E+03  19% 192.667 Lip13a                                              
    0.000 999%   0.000 Lip13b                                              
 2.01E+03  18%  49.979 Lip09                                               
 2.50E+03  16%  62.116 MM09                                                
  824.925  38%  20.504 Lip20                                               
  125.206 160%   3.112 MM20                                                
 1.30E+03  28%  32.429 MM12                                                
 5.75E+03  17% 142.957 MM14                                                
 4.07E+03  20% 101.094 MM17                                                
 7.75E+03  19% 192.667 Lip13a+Lip13b                                       
 1.48E+04  10% 368.052 MM14+Lip13a+Lip13b+MM12                             
 4.51E+03   9% 112.095 MM09+Lip09                                          
  950.131  23%  23.617 MM20+Lip20                                          
   6 lines in following misc. output table
  FWHM = 0.168 ppm    S/N =  20                                            
  Data shift = 0.183 ppm                                                   
  Ph:-131 deg     -35.2 deg/ppm                                            
  alphaB,S = 8.5E+01,   2.0E+02                                            
    6 spline knots.   Ns = 9(2)                                            
   2 inflections.     1 extrema                                            
  498 points on ppm-axis = NY
      4.000000     3.992357     3.984714     3.977070     3.969427     3.961784     3.954141     3.946497     3.938854     3.931211
      3.923568     3.915925     3.908281     3.900638     3.892995     3.885352     3.877708     3.870065     3.862422     3.854779
      3.847136     3.839492     3.831849     3.824206     3.816563     3.808919     3.801276     3.793633     3.785990     3.778347
      3.770703     3.763060     3.755417     3.747774     3.740130     3.732487     3.724844     3.717201     3.709558     3.701914
      3.694271     3.686628     3.678985     3.671341     3.663698     3.656055     3.648412     3.640769     3.633125     3.625482
      3.617839     3.610196     3.602552     3.594909     3.587266     3.579623     3.571980     3.564336     3.556693     3.549050
      3.541407     3.533763     3.526120     3.518477     3.510834     3.503191     3.495547     3.487904     3.480261     3.472618
      3.464974     3.457331     3.449688     3.442045     3.434402     3.426758     3.419115     3.411472     3.403829     3.396185
      3.388542     3.380899     3.373256     3.365613     3.357969     3.350326     3.342683     3.335040     3.327396     3.319753
      3.312110     3.304467     3.296824     3.289180     3.281537     3.273894     3.266251     3.258607     3.250964     3.243321
      3.235678     3.228034     3.220391     3.212748     3.205105     3.197462     3.189818     3.182175     3.174532     3.166889
      3.159245     3.151602     3.143959     3.136316     3.128673     3.121029     3.113386     3.105743     3.098100     3.090456
      3.082813     3.075170     3.067527     3.059884     3.052240     3.044597     3.036954     3.029311     3.021667     3.014024
      3.006381     2.998738     2.991095     2.983451     2.975808     2.968165     2.960522     2.952878     2.945235     2.937592
      2.929949     2.922306     2.914662     2.907019     2.899376     2.891733     2.884089     2.876446     2.868803     2.861160
      2.853517     2.845873     2.838230     2.830587     2.822944     2.815300     2.807657     2.800014     2.792371     2.784728
      2.777084     2.769441     2.761798     2.754155     2.746511     2.738868     2.731225     2.723582     2.715939     2.708295
      2.700652     2.693009     2.685366     2.677722     2.670079     2.662436     2.654793     2.647150     2.639506     2.631863
      2.624220     2.616577     2.608933     2.601290     2.593647     2.586004     2.578361     2.570717     2.563074     2.555431
      2.547788     2.540144     2.532501     2.524858     2.517215     2.509572     2.501928     2.494285     2.486642     2.478999
      2.471355     2.463712     2.456069     2.448426     2.440783     2.433139     2.425496     2.417853     2.410210     2.402566
      2.394923     2.387280     2.379637     2.371994     2.364350     2.356707     2.349064     2.341421     2.333777     2.326134
      2.318491     2.310848     2.303205     2.295561     2.287918     2.280275     2.272632     2.264988     2.257345     2.249702
      2.242059     2.234416     2.226772     2.219129     2.211486     2.203843     2.196199     2.188556     2.180913     2.173270
      2.165627     2.157983     2.150340     2.142697     2.135054     2.127410     2.119767     2.112124     2.104481     2.096838
      2.089194     2.081551     2.073908     2.066265     2.058621     2.050978     2.043335     2.035692     2.028049     2.020405
      2.012762     2.005119     1.997476     1.989833     1.982190     1.974546     1.966903     1.959260     1.951617     1.943974
      1.936331     1.928688     1.921045     1.913402     1.905759     1.898115     1.890472     1.882829     1.875186     1.867543
      1.859900     1.852257     1.844614     1.836971     1.829327     1.821684     1.814041     1.806398     1.798755     1.791112
      1.783469     1.775826     1.768183     1.760540     1.752896     1.745253     1.737610     1.729967     1.722324     1.714681
      1.707038     1.699395     1.691752     1.684108     1.676465     1.668822     1.661179     1.653536     1.645893     1.638250
      1.630607     1.622964     1.615321     1.607677     1.600034     1.592391     1.584748     1.577105     1.569462     1.561819
      1.554176     1.546533     1.538890     1.531246     1.523603     1.515960     1.508317     1.500674     1.493031     1.485388
      1.477745     1.470102     1.462458     1.454815     1.447172     1.439529     1.431886     1.424243     1.416600     1.408957
      1.401314     1.393671     1.386027     1.378384     1.370741     1.363098     1.355455     1.347812     1.340169     1.332526
      1.324883     1.317240     1.309596     1.301953     1.294310     1.286667     1.279024     1.271381     1.263738     1.256095
      1.248452     1.240808     1.233165     1.225522     1.217879     1.210236     1.202593     1.194950     1.187307     1.179664
      1.172021     1.164377     1.156734     1.149091     1.141448     1.133805     1.126162     1.118519     1.110876     1.103233
      1.095590     1.087946     1.080303     1.072660     1.065017     1.057374     1.049731     1.042088     1.034445     1.026802
      1.019158     1.011515     1.003872     0.996229     0.988586     0.980943     0.973300     0.965657     0.958014     0.950371
      0.942727     0.935084     0.927441     0.919798     0.912155     0.904512     0.896869     0.889226     0.881583     0.873940
      0.866296     0.858653     0.851010     0.843367     0.835724     0.828081     0.820438     0.812795     0.805152     0.797508
      0.789865     0.782222     0.774579     0.766936     0.759293     0.751650     0.744007     0.736364     0.728721     0.721077
      0.713434     0.705791     0.698148     0.690505     0.682862     0.675219     0.667576     0.659933     0.652290     0.644646
      0.637003     0.629360     0.621717     0.614074     0.606431     0.598788     0.591145     0.583502     0.575858     0.568215
      0.560572     0.552929     0.545286     0.537643     0.530000     0.522357     0.514714     0.507071     0.499427     0.491784
      0.484141     0.476498     0.468855     0.461212     0.453569     0.445925     0.438282     0.430639     0.422996     0.415353
      0.407710     0.400067     0.392424     0.384780     0.377137     0.369494     0.361851     0.354208     0.346565     0.338922
      0.331278     0.323635     0.315992     0.308349     0.300706     0.293063     0.285420     0.277777     0.270133     0.262490
      0.254847     0.247204     0.239561     0.231918     0.224275     0.216631     0.208988     0.201345
 NY phased data points follow
   2.56442E+00  4.44325E-01  1.14621E+00 -7.34499E-01  4.87633E-01  3.33848E-01  1.16400E-01  8.93676E-01  3.80876E-01 -1.63587E+00
  -5.09610E-01  1.97323E+00  1.62146E+00  6.49206E-01  1.07120E+00  1.41706E+00  7.54345E-01  3.72640E+00  9.66823E-01  1.73419E+00
  -1.43069E-01  3.25918E-01  1.35522E+00  2.33347E-01 -1.58930E+00  1.22102E+00  2.38027E+00  2.54077E+00 -3.43333E-02  2.81417E+00
   1.32807E+00  2.61121E+00  9.91175E-01  2.34471E+00  1.00629E+00  1.63426E-01  2.15760E+00  1.75314E+00  1.50441E+00  1.81121E+00
   3.55043E-01  1.05388E+00  5.23858E-01  2.21608E+00  5.52746E-01  1.82378E+00 -7.74275E-01  4.23584E-01  1.52637E+00  1.14859E+00
   1.46657E+00  2.21722E+00  1.79475E+00  6.51611E-01  3.59384E+00  1.82369E+00  2.43712E+00  1.64310E-01  2.05939E+00  2.05808E+00
   2.26725E+00  3.61290E-01  2.84917E+00  3.22930E-01  9.36009E-01  2.14597E+00  2.40243E+00  8.85403E-01  2.66700E+00  7.92598E-01
   2.89414E+00  2.59499E+00  1.66898E+00  9.05806E-01  5.29272E-01  8.53863E-01  1.70646E+00  3.04763E+00  4.72028E+00  1.51677E+00
   4.46332E+00  1.35110E+00  1.38278E+00 -1.88408E-01 -4.92806E-01  2.62901E+00  1.84477E+00  1.90600E+00  1.84777E+00  1.14832E+00
   2.37963E+00  2.28840E+00  1.35902E+00  4.24774E+00  2.21507E+00  2.54107E+00  8.85085E-01  1.81848E+00  7.78369E-01  4.23800E+00
   1.49665E+00  2.01424E+00  3.34639E+00  3.26917E+00  2.29838E+00  1.94015E+00  1.91912E-01  1.00553E+00  4.49639E-01  1.85492E+00
   1.08611E+00  6.20949E-01  4.16179E+00  2.63557E+00  2.78819E+00  2.24019E+00  2.45612E+00  2.36056E+00  1.44609E+00  2.76482E+00
   3.54718E+00  2.42139E+00  1.37364E+00  4.64678E+00  3.09291E+00  2.77324E+00  3.32478E+00  3.35276E+00  2.86746E+00  3.09527E+00
   2.76376E+00  2.20730E+00  3.12792E+00  3.78909E+00  2.39939E+00  2.05375E+00  1.24994E+00  2.71050E+00  4.66063E+00  1.89306E+00
   4.31472E+00  4.40873E+00  3.63695E+00  5.58766E-01  3.11371E+00  1.96102E+00  5.61826E-01  2.06742E+00  1.14203E+00 -1.76364E-01
   2.20885E+00  1.97720E+00  1.49428E+00  2.20944E+00  2.39029E+00  3.17783E+00  3.31622E+00  1.63693E+00  2.36720E+00  3.03887E+00
   2.37802E+00  3.02644E+00  3.07071E+00  2.44297E+00  2.85953E+00  4.08835E+00  3.08190E+00  2.09217E+00  3.49633E+00  3.70156E+00
   2.86529E+00  3.44391E+00  2.08247E+00  1.60463E+00  2.74692E+00  1.81752E+00  1.38927E+00  2.51741E+00  2.54150E+00  2.26184E+00
   1.70604E+00  6.49341E+00  2.78776E+00  2.48729E+00  2.27171E+00  1.65506E+00  1.14010E+00  1.27518E+00  3.21874E+00  2.32814E+00
   1.73353E+00  2.25977E+00  3.01567E+00  2.32128E+00  4.73377E+00  1.87289E+00  3.62028E+00  1.95980E+00  3.04573E+00  1.78003E+00
   3.26247E+00  3.24733E+00  4.11882E+00  2.75139E+00  4.16380E+00  2.39622E+00  3.59480E+00  2.39169E+00  5.55459E+00  1.98297E+00
   6.11491E-01  3.78107E+00  2.78656E+00  2.27766E+00  4.59462E+00  3.77854E+00  3.19965E+00  3.51475E+00  3.98706E+00  2.18679E+00
   2.06337E+00  3.11330E+00  3.41275E+00  4.28075E+00  1.23405E+00  2.54128E+00  3.56970E+00  2.86997E+00  4.55440E+00 -4.30267E-02
   3.21674E+00  2.24608E+00  3.89570E+00  4.20250E+00  2.36614E+00  4.03769E+00  6.67565E+00  7.09705E+00  5.67090E+00  6.21099E+00
   3.45186E+00  2.17311E+00  3.34306E+00  4.31793E+00  5.24556E+00  2.77413E+00  5.55388E+00  5.41980E+00  5.95729E+00  7.01735E+00
   6.29889E+00  5.83486E+00  6.42547E+00  5.44625E+00  5.41241E+00  3.97385E+00  5.45337E+00  4.69206E+00  4.34324E+00  5.34284E+00
   7.35812E+00  5.86243E+00  4.42556E+00  4.84872E+00  4.25725E+00  6.15222E+00  4.08659E+00  4.67144E+00  5.04585E+00  5.82396E+00
   5.04626E+00  5.75672E+00  6.24326E+00  7.02619E+00  5.58933E+00  6.73754E+00  6.62849E+00  7.75290E+00  5.99563E+00  8.11497E+00
   9.01893E+00  8.18819E+00  6.97776E+00  7.05784E+00  7.74919E+00  8.05966E+00  7.95643E+00  7.45276E+00  8.25688E+00  1.03757E+01
   1.09194E+01  1.17724E+01  1.31994E+01  1.23542E+01  1.50160E+01  1.57841E+01  1.70418E+01  1.87593E+01  1.98599E+01  2.06760E+01
   2.08406E+01  2.35567E+01  2.64626E+01  2.86695E+01  2.78579E+01  2.99420E+01  3.28313E+01  3.52974E+01  3.71930E+01  3.98741E+01
   4.30835E+01  4.27249E+01  4.53957E+01  4.67895E+01  4.70108E+01  4.67502E+01  4.72938E+01  4.87214E+01  5.02758E+01  5.05764E+01
   4.84926E+01  5.13002E+01  5.00326E+01  4.92509E+01  4.97889E+01  4.86777E+01  4.79175E+01  5.00958E+01  4.95426E+01  5.12122E+01
   4.90565E+01  5.01219E+01  5.00833E+01  4.60365E+01  4.78790E+01  4.84445E+01  4.87760E+01  4.66683E+01  4.53653E+01  4.67044E+01
   4.74987E+01  4.48234E+01  4.67609E+01  4.60959E+01  4.38607E+01  4.48815E+01  4.44542E+01  4.42971E+01  4.42036E+01  4.45980E+01
   4.36083E+01  4.06736E+01  4.16451E+01  4.11363E+01  4.02369E+01  4.10370E+01  4.08372E+01  3.86721E+01  3.73017E+01  3.75064E+01
   3.88648E+01  3.69143E+01  3.79748E+01  3.79620E+01  3.89923E+01  3.80827E+01  3.84097E+01  3.93953E+01  3.72858E+01  3.79838E+01
   3.62495E+01  3.57444E+01  3.58580E+01  3.65794E+01  3.50597E+01  3.56496E+01  3.48527E+01  3.30685E+01  3.45040E+01  3.33658E+01
   3.28031E+01  3.31850E+01  3.00907E+01  3.23190E+01  3.07327E+01  3.09187E+01  3.17018E+01  2.98737E+01  3.02592E+01  2.83770E+01
   2.90503E+01  2.81429E+01  2.93223E+01  2.62962E+01  2.66522E+01  2.56748E+01  2.49727E+01  2.42176E+01  2.47890E+01  2.30281E+01
   2.40782E+01  2.28044E+01  2.25854E+01  2.10431E+01  2.02737E+01  2.07823E+01  2.06452E+01  1.93159E+01  1.91374E+01  1.77006E+01
   1.74654E+01  1.66406E+01  1.79496E+01  1.62362E+01  1.71243E+01  1.51099E+01  1.44716E+01  1.55919E+01  1.42082E+01  1.48219E+01
   1.24373E+01  1.16858E+01  1.18917E+01  1.26070E+01  1.10594E+01  1.19334E+01  1.19688E+01  1.02753E+01  8.92865E+00  9.56716E+00
   9.52097E+00  7.63006E+00  7.28366E+00  6.49841E+00  5.76628E+00  6.01332E+00  6.02794E+00  6.35543E+00  5.34529E+00  5.51021E+00
   5.70260E+00  7.13030E+00  3.76723E+00  5.03655E+00  4.21860E+00  4.35643E+00  4.30820E+00  2.85118E+00  3.23001E+00  2.26096E+00
   3.29657E+00  2.56767E+00  2.55068E+00  1.93997E+00  2.82387E+00  3.65466E+00  1.85549E+00  2.17333E+00  1.64236E+00  2.27665E+00
   3.58797E+00  1.27214E+00  1.57851E+00  1.99961E+00  1.55032E+00  1.61243E+00  9.36997E-01  2.53637E+00  7.63119E-01  1.13112E+00
   1.64921E+00  9.35216E-01  9.13534E-02  1.16135E+00 -2.21502E-01  8.46090E-01  1.24073E+00  1.75898E+00  1.65996E+00 -1.92223E-01
   6.96617E-01 -1.48592E-02  1.43477E+00 -1.53593E-01 -2.80731E-01  7.50702E-01 -7.49833E-01  3.37409E-01  1.49395E+00 -5.46356E-01
  -2.89447E-01 -1.25770E+00 -1.32266E-01  5.37626E-01  1.26452E+00  2.49198E-01  1.10744E+00  9.40786E-01
 NY points of the fit to the data follow
   1.33171E+00  1.65388E+00  1.29941E+00  1.57567E+00  1.33639E+00  1.63201E+00  1.48464E+00  1.87127E+00  1.62309E+00  1.96088E+00
   1.58845E+00  1.90866E+00  1.46362E+00  1.83570E+00  1.30591E+00  1.90784E+00  1.36488E+00  2.04639E+00  1.32994E+00  1.95055E+00
   1.15481E+00  1.76909E+00  9.41740E-01  1.60018E+00  9.02174E-01  1.62127E+00  1.04514E+00  1.61199E+00  1.14650E+00  1.53052E+00
   1.13255E+00  1.29915E+00  1.08128E+00  1.16388E+00  1.14491E+00  1.05419E+00  1.21653E+00  1.03188E+00  1.38466E+00  1.06871E+00
   1.46959E+00  1.17756E+00  1.66178E+00  1.30685E+00  1.76240E+00  1.35110E+00  1.80761E+00  1.47011E+00  1.74513E+00  1.41944E+00
   1.63711E+00  1.36961E+00  1.52985E+00  1.28932E+00  1.35729E+00  1.29210E+00  1.39386E+00  1.38513E+00  1.47136E+00  1.49038E+00
   1.55774E+00  1.59191E+00  1.59587E+00  1.59997E+00  1.59463E+00  1.59589E+00  1.58937E+00  1.59054E+00  1.58526E+00  1.58674E+00
   1.58203E+00  1.58363E+00  1.57973E+00  1.58144E+00  1.57903E+00  1.58095E+00  1.57980E+00  1.58157E+00  1.58142E+00  1.58292E+00
   1.58346E+00  1.58515E+00  1.58652E+00  1.58981E+00  1.59738E+00  1.62234E+00  1.63718E+00  1.66866E+00  1.68586E+00  1.72082E+00
   1.73987E+00  1.77896E+00  1.80077E+00  1.84918E+00  1.87488E+00  1.92977E+00  1.95348E+00  1.99521E+00  2.01273E+00  2.04233E+00
   2.05527E+00  2.07762E+00  2.08803E+00  2.10587E+00  2.11186E+00  2.11463E+00  2.11501E+00  2.10778E+00  2.10943E+00  2.11047E+00
   2.11366E+00  2.12092E+00  2.12277E+00  2.12699E+00  2.12657E+00  2.13338E+00  2.13540E+00  2.15984E+00  2.16852E+00  2.21639E+00
   2.22581E+00  2.27156E+00  2.27640E+00  2.31772E+00  2.32317E+00  2.37816E+00  2.38576E+00  2.43923E+00  2.44227E+00  2.48175E+00
   2.47964E+00  2.50760E+00  2.50089E+00  2.51364E+00  2.50630E+00  2.51572E+00  2.50876E+00  2.50773E+00  2.50162E+00  2.49428E+00
   2.49245E+00  2.48714E+00  2.49285E+00  2.49769E+00  2.50981E+00  2.51893E+00  2.53412E+00  2.54450E+00  2.56486E+00  2.59019E+00
   2.61121E+00  2.63353E+00  2.65018E+00  2.66770E+00  2.67878E+00  2.69049E+00  2.69518E+00  2.70067E+00  2.69875E+00  2.69786E+00
   2.68941E+00  2.68238E+00  2.66788E+00  2.65511E+00  2.63522E+00  2.61766E+00  2.59370E+00  2.57260E+00  2.54567E+00  2.52200E+00
   2.49340E+00  2.46841E+00  2.43943E+00  2.41424E+00  2.38609E+00  2.36184E+00  2.33564E+00  2.31330E+00  2.28985E+00  2.27023E+00
   2.25048E+00  2.23440E+00  2.21873E+00  2.20689E+00  2.19595E+00  2.18917E+00  2.18401E+00  2.18399E+00  2.18608E+00  2.18810E+00
   2.19570E+00  2.19942E+00  2.20311E+00  2.21001E+00  2.21164E+00  2.22721E+00  2.23752E+00  2.27188E+00  2.31460E+00  2.34777E+00
   2.39898E+00  2.42406E+00  2.47498E+00  2.48374E+00  2.52615E+00  2.51943E+00  2.59028E+00  2.57934E+00  2.67128E+00  2.64512E+00
   2.72895E+00  2.68880E+00  2.76248E+00  2.71605E+00  2.79351E+00  2.75996E+00  2.86444E+00  2.85318E+00  2.95865E+00  2.96522E+00
   3.06390E+00  3.07963E+00  3.16001E+00  3.19142E+00  3.27374E+00  3.32049E+00  3.39354E+00  3.46277E+00  3.53609E+00  3.62055E+00
   3.69323E+00  3.78475E+00  3.86535E+00  3.95319E+00  4.04142E+00  4.12337E+00  4.22306E+00  4.30214E+00  4.42001E+00  4.47545E+00
   4.58839E+00  4.62773E+00  4.73863E+00  4.76883E+00  4.86950E+00  4.90144E+00  5.01232E+00  5.05426E+00  5.15642E+00  5.20871E+00
   5.29187E+00  5.35057E+00  5.41854E+00  5.48433E+00  5.52734E+00  5.59382E+00  5.61023E+00  5.67378E+00  5.66034E+00  5.71991E+00
   5.68877E+00  5.74861E+00  5.70407E+00  5.75958E+00  5.71219E+00  5.76029E+00  5.71664E+00  5.76526E+00  5.73455E+00  5.78656E+00
   5.77621E+00  5.83576E+00  5.84599E+00  5.91366E+00  5.95086E+00  6.04167E+00  6.11629E+00  6.23858E+00  6.35851E+00  6.51879E+00
   6.68726E+00  6.89693E+00  7.13062E+00  7.40726E+00  7.71907E+00  8.07937E+00  8.48904E+00  8.95186E+00  9.47839E+00  1.00714E+01
   1.07408E+01  1.14894E+01  1.23257E+01  1.32522E+01  1.42742E+01  1.53950E+01  1.66140E+01  1.79315E+01  1.93414E+01  2.08408E+01
   2.24187E+01  2.40691E+01  2.57775E+01  2.75379E+01  2.93384E+01  3.11804E+01  3.30698E+01  3.50513E+01  3.72525E+01  3.97140E+01
   4.13731E+01  4.35094E+01  4.45204E+01  4.62713E+01  4.66203E+01  4.79312E+01  4.75763E+01  4.93954E+01  4.88827E+01  5.07263E+01
   4.95320E+01  5.07342E+01  4.92227E+01  5.00822E+01  4.85640E+01  4.95673E+01  4.84234E+01  4.97883E+01  4.91791E+01  5.01924E+01
   4.96166E+01  4.98437E+01  4.91475E+01  4.86636E+01  4.82955E+01  4.76668E+01  4.75989E+01  4.68018E+01  4.70909E+01  4.61692E+01
   4.67271E+01  4.53631E+01  4.59757E+01  4.48383E+01  4.55098E+01  4.44186E+01  4.49239E+01  4.40113E+01  4.44195E+01  4.36471E+01
   4.33509E+01  4.24772E+01  4.19331E+01  4.10827E+01  4.05036E+01  3.98558E+01  3.91223E+01  3.89188E+01  3.86290E+01  3.86070E+01
   3.85340E+01  3.85137E+01  3.85015E+01  3.86296E+01  3.85960E+01  3.84950E+01  3.83221E+01  3.79414E+01  3.77078E+01  3.73362E+01
   3.68933E+01  3.63687E+01  3.58829E+01  3.52935E+01  3.48024E+01  3.41243E+01  3.36388E+01  3.32739E+01  3.29749E+01  3.27214E+01
   3.24940E+01  3.22824E+01  3.20706E+01  3.18498E+01  3.16055E+01  3.13310E+01  3.10147E+01  3.06535E+01  3.02402E+01  2.97767E+01
   2.92609E+01  2.86998E+01  2.80960E+01  2.74603E+01  2.67984E+01  2.61234E+01  2.54419E+01  2.47665E+01  2.41028E+01  2.34611E+01
   2.28440E+01  2.22585E+01  2.17036E+01  2.11823E+01  2.06900E+01  2.02268E+01  1.97851E+01  1.93630E+01  1.89516E+01  1.85483E+01
   1.81441E+01  1.77371E+01  1.73196E+01  1.68911E+01  1.64459E+01  1.59854E+01  1.55062E+01  1.50119E+01  1.45008E+01  1.39783E+01
   1.34440E+01  1.29044E+01  1.23600E+01  1.18175E+01  1.12775E+01  1.07466E+01  1.02248E+01  9.71805E+00  9.22572E+00  8.75286E+00
   8.29789E+00  7.86498E+00  7.45169E+00  7.06143E+00  6.69108E+00  6.34341E+00  6.01479E+00  5.70760E+00  5.41788E+00  5.14779E+00
   4.89325E+00  4.65629E+00  4.43282E+00  4.22487E+00  4.02840E+00  3.84555E+00  3.67233E+00  3.51099E+00  3.35766E+00  3.21469E+00
   3.07833E+00  2.95103E+00  2.82917E+00  2.71526E+00  2.60577E+00  2.50332E+00  2.40446E+00  2.31187E+00  2.22217E+00  2.13810E+00
   2.05632E+00  1.97962E+00  1.90474E+00  1.83448E+00  1.76562E+00  1.70101E+00  1.63743E+00  1.57778E+00  1.51888E+00  1.46362E+00
   1.40885E+00  1.35749E+00  1.30641E+00  1.25852E+00  1.21073E+00  1.16596E+00  1.12112E+00  1.07915E+00  1.03698E+00  9.97536E-01
   9.57770E-01  9.20620E-01  8.83037E-01  8.47969E-01  8.12380E-01  7.79218E-01  7.45456E-01  7.14042E-01  6.81958E-01  6.52158E-01
   6.21634E-01  5.93340E-01  5.64276E-01  5.37398E-01  5.09722E-01  4.84212E-01  4.57897E-01  4.33757E-01
 NY background values follow
     1.263E+00    1.262E+00    1.261E+00    1.260E+00    1.259E+00    1.258E+00    1.257E+00    1.256E+00    1.255E+00    1.254E+00
     1.253E+00    1.252E+00    1.251E+00    1.249E+00    1.248E+00    1.247E+00    1.246E+00    1.245E+00    1.244E+00    1.243E+00
     1.242E+00    1.241E+00    1.240E+00    1.238E+00    1.237E+00    1.236E+00    1.235E+00    1.234E+00    1.233E+00    1.232E+00
     1.231E+00    1.229E+00    1.228E+00    1.227E+00    1.226E+00    1.225E+00    1.224E+00    1.223E+00    1.221E+00    1.220E+00
     1.219E+00    1.218E+00    1.217E+00    1.215E+00    1.214E+00    1.213E+00    1.212E+00    1.211E+00    1.209E+00    1.208E+00
     1.207E+00    1.206E+00    1.204E+00    1.203E+00    1.202E+00    1.201E+00    1.199E+00    1.198E+00    1.197E+00    1.195E+00
     1.194E+00    1.193E+00    1.192E+00    1.190E+00    1.189E+00    1.188E+00    1.186E+00    1.185E+00    1.183E+00    1.182E+00
     1.181E+00    1.179E+00    1.178E+00    1.176E+00    1.175E+00    1.174E+00    1.172E+00    1.171E+00    1.169E+00    1.168E+00
     1.166E+00    1.165E+00    1.163E+00    1.162E+00    1.160E+00    1.159E+00    1.157E+00    1.156E+00    1.154E+00    1.152E+00
     1.151E+00    1.149E+00    1.148E+00    1.146E+00    1.144E+00    1.143E+00    1.141E+00    1.139E+00    1.138E+00    1.136E+00
     1.134E+00    1.133E+00    1.131E+00    1.129E+00    1.127E+00    1.126E+00    1.124E+00    1.122E+00    1.120E+00    1.119E+00
     1.117E+00    1.115E+00    1.113E+00    1.111E+00    1.109E+00    1.107E+00    1.105E+00    1.103E+00    1.102E+00    1.100E+00
     1.098E+00    1.096E+00    1.094E+00    1.092E+00    1.090E+00    1.088E+00    1.085E+00    1.083E+00    1.081E+00    1.079E+00
     1.077E+00    1.075E+00    1.073E+00    1.071E+00    1.068E+00    1.066E+00    1.064E+00    1.062E+00    1.060E+00    1.057E+00
     1.055E+00    1.053E+00    1.050E+00    1.048E+00    1.046E+00    1.043E+00    1.041E+00    1.039E+00    1.036E+00    1.034E+00
     1.031E+00    1.029E+00    1.026E+00    1.024E+00    1.021E+00    1.019E+00    1.016E+00    1.013E+00    1.011E+00    1.008E+00
     1.006E+00    1.003E+00    1.000E+00    9.975E-01    9.948E-01    9.921E-01    9.893E-01    9.865E-01    9.837E-01    9.809E-01
     9.780E-01    9.752E-01    9.723E-01    9.694E-01    9.665E-01    9.635E-01    9.606E-01    9.576E-01    9.546E-01    9.516E-01
     9.485E-01    9.455E-01    9.424E-01    9.393E-01    9.362E-01    9.331E-01    9.299E-01    9.267E-01    9.235E-01    9.203E-01
     9.171E-01    9.139E-01    9.106E-01    9.073E-01    9.040E-01    9.007E-01    8.974E-01    8.940E-01    8.906E-01    8.872E-01
     8.838E-01    8.804E-01    8.769E-01    8.735E-01    8.700E-01    8.665E-01    8.630E-01    8.594E-01    8.559E-01    8.523E-01
     8.487E-01    8.451E-01    8.415E-01    8.378E-01    8.342E-01    8.305E-01    8.268E-01    8.231E-01    8.193E-01    8.156E-01
     8.118E-01    8.080E-01    8.042E-01    8.004E-01    7.966E-01    7.927E-01    7.889E-01    7.850E-01    7.811E-01    7.772E-01
     7.732E-01    7.693E-01    7.653E-01    7.613E-01    7.573E-01    7.533E-01    7.493E-01    7.452E-01    7.412E-01    7.371E-01
     7.330E-01    7.289E-01    7.248E-01    7.206E-01    7.164E-01    7.123E-01    7.081E-01    7.039E-01    6.996E-01    6.954E-01
     6.911E-01    6.869E-01    6.826E-01    6.783E-01    6.740E-01    6.696E-01    6.653E-01    6.609E-01    6.565E-01    6.522E-01
     6.477E-01    6.433E-01    6.389E-01    6.344E-01    6.300E-01    6.255E-01    6.210E-01    6.165E-01    6.119E-01    6.074E-01
     6.028E-01    5.983E-01    5.937E-01    5.891E-01    5.845E-01    5.798E-01    5.752E-01    5.705E-01    5.659E-01    5.612E-01
     5.565E-01    5.518E-01    5.470E-01    5.423E-01    5.376E-01    5.328E-01    5.280E-01    5.232E-01    5.184E-01    5.136E-01
     5.087E-01    5.039E-01    4.990E-01    4.942E-01    4.893E-01    4.844E-01    4.794E-01    4.745E-01    4.696E-01    4.646E-01
     4.597E-01    4.547E-01    4.497E-01    4.447E-01    4.397E-01    4.346E-01    4.296E-01    4.245E-01    4.194E-01    4.144E-01
     4.093E-01    4.042E-01    3.990E-01    3.939E-01    3.888E-01    3.836E-01    3.784E-01    3.733E-01    3.681E-01    3.629E-01
     3.576E-01    3.524E-01    3.472E-01    3.419E-01    3.367E-01    3.314E-01    3.261E-01    3.208E-01    3.155E-01    3.102E-01
     3.048E-01    2.995E-01    2.941E-01    2.888E-01    2.834E-01    2.780E-01    2.726E-01    2.672E-01    2.618E-01    2.563E-01
     2.509E-01    2.455E-01    2.400E-01    2.345E-01    2.290E-01    2.235E-01    2.180E-01    2.125E-01    2.070E-01    2.015E-01
     1.959E-01    1.903E-01    1.848E-01    1.792E-01    1.736E-01    1.680E-01    1.624E-01    1.568E-01    1.512E-01    1.455E-01
     1.399E-01    1.343E-01    1.286E-01    1.229E-01    1.172E-01    1.116E-01    1.059E-01    1.002E-01    9.444E-02    8.872E-02
     8.299E-02    7.725E-02    7.150E-02    6.574E-02    5.998E-02    5.420E-02    4.842E-02    4.263E-02    3.683E-02    3.103E-02
     2.521E-02    1.939E-02    1.356E-02    7.725E-03    1.880E-03   -3.972E-03   -9.831E-03   -1.570E-02   -2.157E-02   -2.745E-02
    -3.334E-02   -3.924E-02   -4.514E-02   -5.105E-02   -5.697E-02   -6.289E-02   -6.882E-02   -7.476E-02   -8.070E-02   -8.665E-02
    -9.261E-02   -9.857E-02   -1.045E-01   -1.105E-01   -1.165E-01   -1.225E-01   -1.285E-01   -1.345E-01   -1.405E-01   -1.465E-01
    -1.525E-01   -1.585E-01   -1.646E-01   -1.706E-01   -1.766E-01   -1.827E-01   -1.887E-01   -1.948E-01   -2.009E-01   -2.069E-01
    -2.130E-01   -2.191E-01   -2.252E-01   -2.312E-01   -2.373E-01   -2.434E-01   -2.495E-01   -2.556E-01   -2.617E-01   -2.679E-01
    -2.740E-01   -2.801E-01   -2.862E-01   -2.924E-01   -2.985E-01   -3.046E-01   -3.108E-01   -3.169E-01   -3.231E-01   -3.292E-01
    -3.354E-01   -3.415E-01   -3.477E-01   -3.539E-01   -3.601E-01   -3.662E-01   -3.724E-01   -3.786E-01   -3.848E-01   -3.910E-01
    -3.971E-01   -4.033E-01   -4.095E-01   -4.157E-01   -4.219E-01   -4.281E-01   -4.344E-01   -4.406E-01   -4.468E-01   -4.530E-01
    -4.592E-01   -4.654E-01   -4.716E-01   -4.779E-01   -4.841E-01   -4.903E-01   -4.965E-01   -5.028E-01   -5.090E-01   -5.152E-01
    -5.215E-01   -5.277E-01   -5.339E-01   -5.402E-01   -5.464E-01   -5.527E-01   -5.589E-01   -5.651E-01   -5.714E-01   -5.776E-01
    -5.839E-01   -5.901E-01   -5.964E-01   -6.026E-01   -6.089E-01   -6.151E-01   -6.214E-01   -6.276E-01   -6.339E-01   -6.401E-01
    -6.464E-01   -6.526E-01   -6.589E-01   -6.651E-01   -6.714E-01   -6.776E-01   -6.839E-01   -6.901E-01
 Ala      Conc. = 3.93E+03
