 LCModel (Version 6.3-1L) Copyright: S.W. Provencher.          Ref.: Magn. Reson. Med. 30:672-679 (1993).                
 Slice#1 Row#6 Col#14  K_02_press_1_raw_act
 36 lines in following concentration table = NCONC+1
    Conc.  %SD /Cr+PCr  Metabolite                                         
    4.961 155%   0.797 Ala                                                 
    1.801 152%   0.289 Asp                                                 
    0.649 999%   0.104 Cr                                                  
    5.577 190%   0.896 PCr                                                 
    0.946 173%   0.152 GABA                                                
    1.083 152%   0.174 Glc                                                 
    0.000 999%   0.000 Gln                                                 
    0.000 999%   0.000 Glu                                                 
    0.000 999%   0.000 GPC                                                 
    1.973 111%   0.317 PCh                                                 
    0.000 999%   0.000 GSH                                                 
    0.000 999%   0.000 Ins                                                 
    0.000 999%   0.000 Lac                                                 
    4.570 179%   0.734 NAA                                                 
   16.972  63%   2.726 NAAG                                                
    0.433 125% 7.0E-02 Scyllo                                              
    2.232 122%   0.359 Tau                                                 
    0.684 298%   0.110 -CrCH2                                              
    1.973 111%   0.317 GPC+PCh                                             
   21.542  74%   3.460 NAA+NAAG                                            
    6.227  98%   1.000 Cr+PCr                                              
    0.000 999%   0.000 Glu+Gln                                             
    0.000 999%   0.000 Lip13a                                              
 3.71E+04  17% 6.0E+03 Lip13b                                              
 1.78E+04  15% 2.9E+03 Lip09                                               
 9.44E+03  21% 1.5E+03 MM09                                                
    0.000 999%   0.000 Lip20                                               
    0.000 999%   0.000 MM20                                                
 6.24E+03  29% 1.0E+03 MM12                                                
 4.35E+03  29% 698.086 MM14                                                
   53.264 652%   8.554 MM17                                                
 3.71E+04  17% 6.0E+03 Lip13a+Lip13b                                       
 4.77E+04  12% 7.7E+03 MM14+Lip13a+Lip13b+MM12                             
 2.72E+04  10% 4.4E+03 MM09+Lip09                                          
    0.000 999%   0.000 MM20+Lip20                                          
   6 lines in following misc. output table
  FWHM = 0.038 ppm    S/N =  38                                            
  Data shift = 0.099 ppm                                                   
  Ph: 102 deg      25.3 deg/ppm                                            
  alphaB,S = 3.7E-01,   3.7E+00                                            
   14 spline knots.   Ns = 6(1)                                            
  ( 6) 2 infls.   ( 2) 2 extrs.                                            
  498 points on ppm-axis = NY
      4.000000     3.992357     3.984714     3.977070     3.969427     3.961784     3.954141     3.946497     3.938854     3.931211
      3.923568     3.915925     3.908281     3.900638     3.892995     3.885352     3.877708     3.870065     3.862422     3.854779
      3.847136     3.839492     3.831849     3.824206     3.816563     3.808919     3.801276     3.793633     3.785990     3.778347
      3.770703     3.763060     3.755417     3.747774     3.740130     3.732487     3.724844     3.717201     3.709558     3.701914
      3.694271     3.686628     3.678985     3.671341     3.663698     3.656055     3.648412     3.640769     3.633125     3.625482
      3.617839     3.610196     3.602552     3.594909     3.587266     3.579623     3.571980     3.564336     3.556693     3.549050
      3.541407     3.533763     3.526120     3.518477     3.510834     3.503191     3.495547     3.487904     3.480261     3.472618
      3.464974     3.457331     3.449688     3.442045     3.434402     3.426758     3.419115     3.411472     3.403829     3.396185
      3.388542     3.380899     3.373256     3.365613     3.357969     3.350326     3.342683     3.335040     3.327396     3.319753
      3.312110     3.304467     3.296824     3.289180     3.281537     3.273894     3.266251     3.258607     3.250964     3.243321
      3.235678     3.228034     3.220391     3.212748     3.205105     3.197462     3.189818     3.182175     3.174532     3.166889
      3.159245     3.151602     3.143959     3.136316     3.128673     3.121029     3.113386     3.105743     3.098100     3.090456
      3.082813     3.075170     3.067527     3.059884     3.052240     3.044597     3.036954     3.029311     3.021667     3.014024
      3.006381     2.998738     2.991095     2.983451     2.975808     2.968165     2.960522     2.952878     2.945235     2.937592
      2.929949     2.922306     2.914662     2.907019     2.899376     2.891733     2.884089     2.876446     2.868803     2.861160
      2.853517     2.845873     2.838230     2.830587     2.822944     2.815300     2.807657     2.800014     2.792371     2.784728
      2.777084     2.769441     2.761798     2.754155     2.746511     2.738868     2.731225     2.723582     2.715939     2.708295
      2.700652     2.693009     2.685366     2.677722     2.670079     2.662436     2.654793     2.647150     2.639506     2.631863
      2.624220     2.616577     2.608933     2.601290     2.593647     2.586004     2.578361     2.570717     2.563074     2.555431
      2.547788     2.540144     2.532501     2.524858     2.517215     2.509572     2.501928     2.494285     2.486642     2.478999
      2.471355     2.463712     2.456069     2.448426     2.440783     2.433139     2.425496     2.417853     2.410210     2.402566
      2.394923     2.387280     2.379637     2.371994     2.364350     2.356707     2.349064     2.341421     2.333777     2.326134
      2.318491     2.310848     2.303205     2.295561     2.287918     2.280275     2.272632     2.264988     2.257345     2.249702
      2.242059     2.234416     2.226772     2.219129     2.211486     2.203843     2.196199     2.188556     2.180913     2.173270
      2.165627     2.157983     2.150340     2.142697     2.135054     2.127410     2.119767     2.112124     2.104481     2.096838
      2.089194     2.081551     2.073908     2.066265     2.058621     2.050978     2.043335     2.035692     2.028049     2.020405
      2.012762     2.005119     1.997476     1.989833     1.982190     1.974546     1.966903     1.959260     1.951617     1.943974
      1.936331     1.928688     1.921045     1.913402     1.905759     1.898115     1.890472     1.882829     1.875186     1.867543
      1.859900     1.852257     1.844614     1.836971     1.829327     1.821684     1.814041     1.806398     1.798755     1.791112
      1.783469     1.775826     1.768183     1.760540     1.752896     1.745253     1.737610     1.729967     1.722324     1.714681
      1.707038     1.699395     1.691752     1.684108     1.676465     1.668822     1.661179     1.653536     1.645893     1.638250
      1.630607     1.622964     1.615321     1.607677     1.600034     1.592391     1.584748     1.577105     1.569462     1.561819
      1.554176     1.546533     1.538890     1.531246     1.523603     1.515960     1.508317     1.500674     1.493031     1.485388
      1.477745     1.470102     1.462458     1.454815     1.447172     1.439529     1.431886     1.424243     1.416600     1.408957
      1.401314     1.393671     1.386027     1.378384     1.370741     1.363098     1.355455     1.347812     1.340169     1.332526
      1.324883     1.317240     1.309596     1.301953     1.294310     1.286667     1.279024     1.271381     1.263738     1.256095
      1.248452     1.240808     1.233165     1.225522     1.217879     1.210236     1.202593     1.194950     1.187307     1.179664
      1.172021     1.164377     1.156734     1.149091     1.141448     1.133805     1.126162     1.118519     1.110876     1.103233
      1.095590     1.087946     1.080303     1.072660     1.065017     1.057374     1.049731     1.042088     1.034445     1.026802
      1.019158     1.011515     1.003872     0.996229     0.988586     0.980943     0.973300     0.965657     0.958014     0.950371
      0.942727     0.935084     0.927441     0.919798     0.912155     0.904512     0.896869     0.889226     0.881583     0.873940
      0.866296     0.858653     0.851010     0.843367     0.835724     0.828081     0.820438     0.812795     0.805152     0.797508
      0.789865     0.782222     0.774579     0.766936     0.759293     0.751650     0.744007     0.736364     0.728721     0.721077
      0.713434     0.705791     0.698148     0.690505     0.682862     0.675219     0.667576     0.659933     0.652290     0.644646
      0.637003     0.629360     0.621717     0.614074     0.606431     0.598788     0.591145     0.583502     0.575858     0.568215
      0.560572     0.552929     0.545286     0.537643     0.530000     0.522357     0.514714     0.507071     0.499427     0.491784
      0.484141     0.476498     0.468855     0.461212     0.453569     0.445925     0.438282     0.430639     0.422996     0.415353
      0.407710     0.400067     0.392424     0.384780     0.377137     0.369494     0.361851     0.354208     0.346565     0.338922
      0.331278     0.323635     0.315992     0.308349     0.300706     0.293063     0.285420     0.277777     0.270133     0.262490
      0.254847     0.247204     0.239561     0.231918     0.224275     0.216631     0.208988     0.201345
 NY phased data points follow
  -6.45812E+00 -8.59555E+00 -6.45627E+00 -7.17357E+00 -8.07470E+00 -6.32228E+00 -8.65271E+00 -8.42809E+00 -6.65937E+00 -4.69245E+00
  -6.03842E+00 -7.71926E+00 -8.48807E+00 -7.03520E+00 -3.79033E+00 -4.57285E+00 -8.11275E+00 -8.28328E+00 -6.84372E+00 -5.43452E+00
  -3.54344E+00 -8.04558E+00 -8.94831E+00 -6.35445E+00 -6.29506E+00 -5.13214E+00 -5.00608E+00 -8.03483E+00 -3.93945E+00 -5.82913E+00
  -4.28382E+00 -5.23556E+00 -6.51109E+00 -5.82365E+00 -3.38199E+00 -4.69584E+00 -4.93946E+00 -5.67273E+00 -4.31438E+00 -4.93866E+00
  -3.97535E+00 -4.02451E+00 -6.85896E+00 -6.65595E+00 -4.40962E+00 -4.93311E+00 -6.22184E+00 -7.70770E+00 -4.33801E+00 -4.56688E+00
  -5.13268E+00 -4.64103E+00 -3.99486E+00 -2.64084E+00 -3.73170E+00 -3.90098E+00 -4.10355E+00 -4.33379E+00 -4.40228E+00 -4.67727E+00
  -2.89476E+00 -4.20777E+00 -6.50523E+00 -2.75242E+00 -3.19662E+00 -1.92945E+00 -1.53079E+00 -3.18321E+00 -3.85997E+00 -4.81233E+00
  -2.72035E+00 -4.87517E+00 -4.03527E+00 -5.45350E+00 -5.96520E+00 -2.64387E+00 -4.46689E+00 -2.23391E+00 -4.21729E+00 -5.12155E+00
  -7.78691E+00 -3.50203E+00 -4.09196E+00 -3.66385E+00 -4.08461E+00 -4.33487E+00 -1.31061E+00 -3.24213E+00 -5.22212E+00 -2.97700E+00
  -1.82866E+00 -1.45960E+00 -2.21954E+00 -5.12399E+00 -8.01187E+00 -5.61613E+00 -5.42383E+00 -3.42349E+00 -4.29131E+00 -3.34444E+00
  -5.31426E+00 -4.02216E+00 -3.69688E+00 -3.91713E+00 -2.27992E+00 -9.79586E-01 -2.67918E+00 -2.80036E+00 -4.93558E+00 -5.36672E+00
  -2.38084E+00 -1.85889E+00 -2.49323E+00  1.29611E-01 -3.06880E+00 -2.46489E+00 -3.35848E+00 -3.78001E+00 -5.11257E+00 -4.71210E+00
  -4.18728E+00 -1.20472E+00 -4.53966E+00 -4.31367E+00 -1.39053E+00 -3.14016E+00 -1.56719E+00  1.16510E+00 -1.28322E+00 -3.69767E+00
  -1.62929E+00 -2.28752E+00 -1.37246E+00 -5.40825E-01 -1.03436E+00 -8.27354E-01 -3.52970E-01  5.83941E-01 -4.04627E-01 -8.62775E-01
  -6.42589E-01 -8.01471E-01 -2.00214E+00 -7.77624E-01 -2.47116E+00 -2.96934E-01  5.60726E-01 -3.06137E+00  7.45138E-01 -3.12174E+00
  -8.52363E-01 -1.16127E+00  2.21058E+00 -1.01175E-02 -1.14609E+00  1.63694E-01  1.06444E+00  7.27936E-01  1.48950E+00  1.77143E-01
   1.89214E-01  1.64691E+00  1.29892E-02  1.81129E-01  4.44301E-01 -5.66281E-01  2.73461E+00 -4.64631E-01  3.47365E-01  1.84196E+00
   1.65182E+00  2.38077E+00  2.98630E+00  1.88685E+00  4.55877E-01  2.63819E+00  3.44319E+00  2.28633E+00  3.94340E+00  3.58131E+00
   2.88657E-01  1.15199E+00  3.21947E+00 -8.51797E-01 -5.17126E-01  1.47292E+00  2.76913E+00  4.22092E-01  1.84231E+00  2.88211E+00
   2.18377E+00  3.37945E+00  3.32704E+00  3.63986E+00  4.11063E+00  4.52675E+00  1.30552E+00  4.29447E+00  2.26009E+00  5.63326E+00
   2.85360E+00  1.21128E+00  3.58526E-01  4.87231E+00  3.60563E+00  2.98140E+00  1.88006E+00  9.90838E-01 -7.55297E-01  2.50342E+00
   4.38154E+00  6.47153E+00  3.84225E+00  6.40724E+00  2.77141E+00  3.66089E+00  4.01189E+00  5.69541E+00  3.16522E+00  5.08882E+00
   2.94880E+00  3.44581E+00  3.90606E+00  5.56248E+00  4.97614E+00  7.21983E+00  5.42503E+00  1.40881E+00  3.15816E+00  3.62812E+00
   6.09700E+00  6.58001E+00  4.77041E+00  3.81860E+00  5.23252E+00  5.82542E+00  6.73258E+00  6.01625E+00  3.53675E+00  2.99417E+00
   7.41944E+00  5.21277E+00  5.17858E+00  8.03147E+00  9.07173E+00  9.19969E+00  8.10016E+00  8.58699E+00  7.29356E+00  7.08890E+00
   3.38307E+00  1.40012E+00  4.70949E+00  6.34955E+00  9.21531E+00  7.95500E+00  8.05615E+00  1.18920E+01  7.68871E+00  1.42606E+01
   1.08973E+01  7.82506E+00  1.19126E+01  1.09062E+01  1.28710E+01  1.25142E+01  1.23328E+01  1.16592E+01  1.53238E+01  1.12508E+01
   1.30051E+01  1.38135E+01  1.48409E+01  1.69875E+01  1.77008E+01  1.64524E+01  1.56750E+01  1.86406E+01  1.67849E+01  1.97067E+01
   1.86338E+01  1.87354E+01  1.89872E+01  1.95282E+01  1.84945E+01  2.26502E+01  1.94410E+01  2.19816E+01  2.12624E+01  2.30377E+01
   2.39183E+01  2.44184E+01  2.57640E+01  2.62472E+01  2.34865E+01  2.54014E+01  2.52848E+01  2.63881E+01  2.63402E+01  3.12035E+01
   3.23539E+01  3.12069E+01  3.14776E+01  3.29981E+01  3.74252E+01  3.64012E+01  3.69756E+01  3.91120E+01  4.24110E+01  4.04602E+01
   4.35603E+01  4.63530E+01  4.70443E+01  5.05160E+01  5.08932E+01  5.15994E+01  5.42348E+01  5.62962E+01  5.94161E+01  6.02519E+01
   5.98391E+01  6.51113E+01  6.55090E+01  6.68698E+01  6.86232E+01  7.08749E+01  7.13560E+01  7.20653E+01  7.37994E+01  7.71577E+01
   7.58032E+01  7.84240E+01  7.83997E+01  8.03684E+01  8.11688E+01  8.33307E+01  8.43469E+01  8.50929E+01  8.89935E+01  8.83642E+01
   9.37836E+01  9.25965E+01  9.51810E+01  9.79799E+01  1.01001E+02  1.00934E+02  1.04294E+02  1.03891E+02  1.07063E+02  1.10566E+02
   1.12095E+02  1.15405E+02  1.16934E+02  1.19063E+02  1.19899E+02  1.19505E+02  1.22622E+02  1.23949E+02  1.25119E+02  1.25562E+02
   1.27295E+02  1.27415E+02  1.27276E+02  1.31472E+02  1.31458E+02  1.29638E+02  1.32078E+02  1.32466E+02  1.29369E+02  1.34723E+02
   1.31680E+02  1.30287E+02  1.29212E+02  1.29572E+02  1.29480E+02  1.29703E+02  1.30807E+02  1.29004E+02  1.29957E+02  1.26709E+02
   1.26523E+02  1.25848E+02  1.27008E+02  1.21400E+02  1.21738E+02  1.20722E+02  1.15635E+02  1.16737E+02  1.15287E+02  1.14075E+02
   1.09217E+02  1.08076E+02  1.05074E+02  1.02695E+02  9.97540E+01  9.55256E+01  9.64570E+01  9.34310E+01  8.90344E+01  8.73796E+01
   8.34030E+01  8.25183E+01  8.12082E+01  7.71123E+01  7.46988E+01  7.27171E+01  7.12644E+01  6.73216E+01  6.30828E+01  6.26491E+01
   6.10883E+01  5.81038E+01  5.51077E+01  5.31234E+01  4.99974E+01  4.60814E+01  4.53124E+01  4.03037E+01  3.73848E+01  3.65096E+01
   3.29892E+01  3.12679E+01  3.07195E+01  2.82744E+01  2.43091E+01  2.14524E+01  2.04350E+01  1.80892E+01  1.54704E+01  1.27271E+01
   1.39547E+01  1.18686E+01  1.07524E+01  4.75088E+00  2.61504E+00  3.59696E+00  2.91758E+00 -5.17573E-01 -2.45123E+00 -3.38094E+00
  -4.30586E+00 -7.58347E+00 -8.44740E+00 -9.10672E+00 -9.95550E+00 -1.29860E+01 -1.16813E+01 -1.22695E+01 -1.31320E+01 -1.45980E+01
  -1.52426E+01 -1.65167E+01 -1.82880E+01 -2.06284E+01 -1.78397E+01 -2.07931E+01 -2.32009E+01 -2.09330E+01 -2.21231E+01 -2.54509E+01
  -2.45367E+01 -2.70210E+01 -2.63215E+01 -2.68985E+01 -2.76701E+01 -2.82782E+01 -2.61573E+01 -2.91437E+01 -2.91531E+01 -3.20731E+01
  -3.04861E+01 -3.00151E+01 -3.22725E+01 -3.17144E+01 -3.18680E+01 -2.99838E+01 -3.12808E+01 -3.09414E+01 -3.35230E+01 -3.57862E+01
  -3.25616E+01 -3.28078E+01 -3.38042E+01 -3.39829E+01 -3.37054E+01 -3.35028E+01 -3.12339E+01 -3.22486E+01 -3.49656E+01 -3.47248E+01
  -3.29525E+01 -3.30339E+01 -3.34527E+01 -3.17164E+01 -3.64060E+01 -3.30993E+01 -3.28450E+01 -3.14223E+01
 NY points of the fit to the data follow
  -7.52590E+00 -7.48403E+00 -7.46969E+00 -7.54086E+00 -7.62004E+00 -7.59069E+00 -7.42362E+00 -7.15897E+00 -6.87060E+00 -6.62224E+00
  -6.44981E+00 -6.35472E+00 -6.31468E+00 -6.32172E+00 -6.35857E+00 -6.40196E+00 -6.43702E+00 -6.43940E+00 -6.41630E+00 -6.37848E+00
  -6.31233E+00 -6.21029E+00 -6.08632E+00 -5.96407E+00 -5.85988E+00 -5.77764E+00 -5.71473E+00 -5.67780E+00 -5.67137E+00 -5.67401E+00
  -5.65801E+00 -5.60971E+00 -5.53411E+00 -5.44160E+00 -5.34176E+00 -5.24162E+00 -5.15062E+00 -5.07516E+00 -5.02028E+00 -4.98157E+00
  -4.95168E+00 -4.92440E+00 -4.89427E+00 -4.86076E+00 -4.82437E+00 -4.78348E+00 -4.74109E+00 -4.70221E+00 -4.66716E+00 -4.63355E+00
  -4.59842E+00 -4.56173E+00 -4.52352E+00 -4.48631E+00 -4.45334E+00 -4.42548E+00 -4.40178E+00 -4.38145E+00 -4.36337E+00 -4.34739E+00
  -4.33400E+00 -4.32115E+00 -4.30313E+00 -4.28158E+00 -4.25598E+00 -4.22757E+00 -4.20303E+00 -4.18664E+00 -4.17768E+00 -4.18168E+00
  -4.19767E+00 -4.20451E+00 -4.18585E+00 -4.14403E+00 -4.09145E+00 -4.04439E+00 -4.01899E+00 -4.01633E+00 -4.02670E+00 -4.04445E+00
  -4.07961E+00 -4.11494E+00 -4.11393E+00 -4.06521E+00 -3.98582E+00 -3.90507E+00 -3.84347E+00 -3.80162E+00 -3.77029E+00 -3.74646E+00
  -3.73561E+00 -3.74095E+00 -3.76240E+00 -3.79538E+00 -3.81588E+00 -3.81588E+00 -3.82597E+00 -3.95089E+00 -4.18589E+00 -4.28748E+00
  -4.11525E+00 -3.72740E+00 -3.28232E+00 -2.91243E+00 -2.67607E+00 -2.57707E+00 -2.58700E+00 -2.67758E+00 -2.82089E+00 -2.95870E+00
  -3.05115E+00 -3.07885E+00 -3.04983E+00 -3.00566E+00 -2.95656E+00 -2.90594E+00 -2.85611E+00 -2.80784E+00 -2.76427E+00 -2.73896E+00
  -2.79878E+00 -3.03180E+00 -3.23263E+00 -3.16668E+00 -2.81467E+00 -2.31742E+00 -1.83939E+00 -1.48101E+00 -1.27412E+00 -1.20402E+00
  -1.23899E+00 -1.35401E+00 -1.49142E+00 -1.59372E+00 -1.63636E+00 -1.60354E+00 -1.53325E+00 -1.45143E+00 -1.36685E+00 -1.28434E+00
  -1.20622E+00 -1.12798E+00 -1.04347E+00 -9.52703E-01 -8.58818E-01 -7.65542E-01 -6.74071E-01 -5.81481E-01 -4.76909E-01 -3.64016E-01
  -2.66053E-01 -1.95476E-01 -1.50097E-01 -1.14623E-01 -5.14858E-02  5.44451E-02  1.84859E-01  3.12156E-01  4.21424E-01  5.10090E-01
   5.84839E-01  6.53686E-01  7.21913E-01  7.97392E-01  8.90173E-01  9.74926E-01  1.02754E+00  1.06047E+00  1.09930E+00  1.17362E+00
   1.28725E+00  1.40550E+00  1.49685E+00  1.55962E+00  1.61197E+00  1.67209E+00  1.74750E+00  1.82684E+00  1.86996E+00  1.87621E+00
   1.87912E+00  1.90585E+00  1.95961E+00  2.02670E+00  2.09739E+00  2.16784E+00  2.23260E+00  2.30609E+00  2.39650E+00  2.49005E+00
   2.56865E+00  2.62221E+00  2.65864E+00  2.67527E+00  2.66699E+00  2.65462E+00  2.65962E+00  2.68878E+00  2.73471E+00  2.78996E+00
   2.85129E+00  2.91291E+00  2.97750E+00  3.05050E+00  3.10952E+00  3.13850E+00  3.14255E+00  3.14140E+00  3.14841E+00  3.16404E+00
   3.18992E+00  3.22835E+00  3.28029E+00  3.34361E+00  3.41264E+00  3.48228E+00  3.54950E+00  3.61162E+00  3.67195E+00  3.73502E+00
   3.80555E+00  3.88677E+00  3.98497E+00  4.09427E+00  4.20797E+00  4.32956E+00  4.44801E+00  4.55122E+00  4.63376E+00  4.69239E+00
   4.74593E+00  4.83288E+00  4.97353E+00  5.14841E+00  5.32989E+00  5.51011E+00  5.69548E+00  5.87023E+00  6.00584E+00  6.10225E+00
   6.18851E+00  6.29386E+00  6.43637E+00  6.61905E+00  6.82588E+00  7.03583E+00  7.23046E+00  7.39793E+00  7.51259E+00  7.41015E+00
   6.83762E+00  6.34108E+00  6.55830E+00  7.52997E+00  8.79798E+00  9.92500E+00  1.08269E+01  1.15258E+01  1.20234E+01  1.23002E+01
   1.23185E+01  1.21794E+01  1.20383E+01  1.19817E+01  1.20679E+01  1.21981E+01  1.23419E+01  1.25253E+01  1.27713E+01  1.30772E+01
   1.34177E+01  1.37908E+01  1.41865E+01  1.45861E+01  1.49784E+01  1.53623E+01  1.57417E+01  1.61197E+01  1.65047E+01  1.69099E+01
   1.73424E+01  1.78038E+01  1.82915E+01  1.88001E+01  1.93255E+01  1.98628E+01  2.04046E+01  2.09521E+01  2.15154E+01  2.21054E+01
   2.27283E+01  2.33865E+01  2.40805E+01  2.48110E+01  2.55743E+01  2.63662E+01  2.71858E+01  2.80373E+01  2.89274E+01  2.98627E+01
   3.08496E+01  3.18913E+01  3.29895E+01  3.41463E+01  3.53626E+01  3.66387E+01  3.79750E+01  3.93713E+01  4.08282E+01  4.23448E+01
   4.39188E+01  4.55464E+01  4.72227E+01  4.89415E+01  5.06954E+01  5.24757E+01  5.42731E+01  5.60772E+01  5.78765E+01  5.96580E+01
   6.14033E+01  6.30943E+01  6.47956E+01  6.65704E+01  6.83720E+01  7.01103E+01  7.17254E+01  7.32116E+01  7.45944E+01  7.58538E+01
   7.69794E+01  7.80699E+01  7.92478E+01  8.05790E+01  8.20525E+01  8.36254E+01  8.52469E+01  8.68861E+01  8.85440E+01  9.02225E+01
   9.19232E+01  9.36630E+01  9.54586E+01  9.73250E+01  9.92665E+01  1.01266E+02  1.03307E+02  1.05376E+02  1.07459E+02  1.09541E+02
   1.11605E+02  1.13636E+02  1.15617E+02  1.17534E+02  1.19370E+02  1.21111E+02  1.22743E+02  1.24256E+02  1.25637E+02  1.26879E+02
   1.27974E+02  1.28918E+02  1.29709E+02  1.30347E+02  1.30836E+02  1.31182E+02  1.31393E+02  1.31480E+02  1.31456E+02  1.31333E+02
   1.31127E+02  1.30851E+02  1.30517E+02  1.30136E+02  1.29714E+02  1.29254E+02  1.28756E+02  1.28214E+02  1.27619E+02  1.26955E+02
   1.26208E+02  1.25359E+02  1.24388E+02  1.23278E+02  1.22013E+02  1.20579E+02  1.18969E+02  1.17180E+02  1.15214E+02  1.13080E+02
   1.10792E+02  1.08368E+02  1.05830E+02  1.03201E+02  1.00507E+02  9.77730E+01  9.50225E+01  9.22764E+01  8.95521E+01  8.68634E+01
   8.42197E+01  8.16262E+01  7.90841E+01  7.65911E+01  7.41421E+01  7.17293E+01  6.93440E+01  6.69763E+01  6.46165E+01  6.22553E+01
   5.98849E+01  5.74985E+01  5.50914E+01  5.26607E+01  5.02054E+01  4.77264E+01  4.52264E+01  4.27095E+01  4.01814E+01  3.76484E+01
   3.51179E+01  3.25975E+01  3.00952E+01  2.76189E+01  2.51760E+01  2.27737E+01  2.04185E+01  1.81162E+01  1.58720E+01  1.36900E+01
   1.15736E+01  9.52554E+00  7.54761E+00  5.64093E+00  3.80602E+00  2.04275E+00  3.50468E-01 -1.27190E+00 -2.82582E+00 -4.31303E+00
  -5.73554E+00 -7.09554E+00 -8.39533E+00 -9.63733E+00 -1.08240E+01 -1.19577E+01 -1.30409E+01 -1.40761E+01 -1.50655E+01 -1.60115E+01
  -1.69161E+01 -1.77815E+01 -1.86097E+01 -1.94025E+01 -2.01618E+01 -2.08894E+01 -2.15868E+01 -2.22556E+01 -2.28972E+01 -2.35130E+01
  -2.41042E+01 -2.46722E+01 -2.52178E+01 -2.57423E+01 -2.62465E+01 -2.67314E+01 -2.71979E+01 -2.76466E+01 -2.80784E+01 -2.84939E+01
  -2.88937E+01 -2.92785E+01 -2.96488E+01 -3.00051E+01 -3.03479E+01 -3.06777E+01 -3.09948E+01 -3.12996E+01 -3.15926E+01 -3.18740E+01
  -3.21441E+01 -3.24032E+01 -3.26517E+01 -3.28897E+01 -3.31174E+01 -3.33352E+01 -3.35431E+01 -3.37414E+01 -3.39303E+01 -3.41098E+01
  -3.42802E+01 -3.44416E+01 -3.45940E+01 -3.47377E+01 -3.48727E+01 -3.49991E+01 -3.51170E+01 -3.52265E+01
 NY background values follow
    -1.075E+01   -1.071E+01   -1.066E+01   -1.061E+01   -1.057E+01   -1.052E+01   -1.047E+01   -1.041E+01   -1.036E+01   -1.031E+01
    -1.026E+01   -1.020E+01   -1.015E+01   -1.010E+01   -1.004E+01   -9.987E+00   -9.932E+00   -9.878E+00   -9.823E+00   -9.768E+00
    -9.714E+00   -9.660E+00   -9.606E+00   -9.552E+00   -9.499E+00   -9.447E+00   -9.395E+00   -9.344E+00   -9.293E+00   -9.244E+00
    -9.195E+00   -9.147E+00   -9.100E+00   -9.055E+00   -9.010E+00   -8.967E+00   -8.926E+00   -8.885E+00   -8.846E+00   -8.809E+00
    -8.773E+00   -8.739E+00   -8.707E+00   -8.677E+00   -8.648E+00   -8.622E+00   -8.597E+00   -8.575E+00   -8.554E+00   -8.536E+00
    -8.519E+00   -8.504E+00   -8.491E+00   -8.479E+00   -8.469E+00   -8.460E+00   -8.453E+00   -8.447E+00   -8.442E+00   -8.438E+00
    -8.436E+00   -8.434E+00   -8.434E+00   -8.434E+00   -8.436E+00   -8.438E+00   -8.441E+00   -8.444E+00   -8.448E+00   -8.453E+00
    -8.458E+00   -8.463E+00   -8.469E+00   -8.475E+00   -8.481E+00   -8.487E+00   -8.493E+00   -8.499E+00   -8.505E+00   -8.511E+00
    -8.517E+00   -8.522E+00   -8.527E+00   -8.531E+00   -8.535E+00   -8.538E+00   -8.541E+00   -8.543E+00   -8.544E+00   -8.544E+00
    -8.543E+00   -8.542E+00   -8.539E+00   -8.535E+00   -8.530E+00   -8.524E+00   -8.518E+00   -8.510E+00   -8.501E+00   -8.491E+00
    -8.480E+00   -8.468E+00   -8.455E+00   -8.441E+00   -8.427E+00   -8.411E+00   -8.394E+00   -8.376E+00   -8.357E+00   -8.337E+00
    -8.316E+00   -8.294E+00   -8.272E+00   -8.248E+00   -8.223E+00   -8.197E+00   -8.171E+00   -8.143E+00   -8.114E+00   -8.085E+00
    -8.054E+00   -8.023E+00   -7.990E+00   -7.957E+00   -7.922E+00   -7.887E+00   -7.851E+00   -7.813E+00   -7.775E+00   -7.736E+00
    -7.696E+00   -7.655E+00   -7.613E+00   -7.570E+00   -7.527E+00   -7.482E+00   -7.436E+00   -7.390E+00   -7.343E+00   -7.295E+00
    -7.246E+00   -7.197E+00   -7.147E+00   -7.097E+00   -7.047E+00   -6.997E+00   -6.946E+00   -6.895E+00   -6.845E+00   -6.795E+00
    -6.745E+00   -6.695E+00   -6.646E+00   -6.597E+00   -6.548E+00   -6.501E+00   -6.454E+00   -6.408E+00   -6.363E+00   -6.319E+00
    -6.276E+00   -6.234E+00   -6.194E+00   -6.155E+00   -6.117E+00   -6.081E+00   -6.047E+00   -6.014E+00   -5.983E+00   -5.954E+00
    -5.927E+00   -5.902E+00   -5.879E+00   -5.858E+00   -5.840E+00   -5.824E+00   -5.811E+00   -5.800E+00   -5.791E+00   -5.786E+00
    -5.783E+00   -5.783E+00   -5.787E+00   -5.793E+00   -5.801E+00   -5.813E+00   -5.826E+00   -5.842E+00   -5.861E+00   -5.881E+00
    -5.903E+00   -5.927E+00   -5.953E+00   -5.981E+00   -6.010E+00   -6.040E+00   -6.071E+00   -6.104E+00   -6.138E+00   -6.172E+00
    -6.207E+00   -6.243E+00   -6.279E+00   -6.316E+00   -6.353E+00   -6.390E+00   -6.427E+00   -6.463E+00   -6.500E+00   -6.536E+00
    -6.572E+00   -6.607E+00   -6.641E+00   -6.675E+00   -6.707E+00   -6.739E+00   -6.769E+00   -6.798E+00   -6.825E+00   -6.851E+00
    -6.875E+00   -6.897E+00   -6.917E+00   -6.935E+00   -6.951E+00   -6.965E+00   -6.976E+00   -6.984E+00   -6.990E+00   -6.994E+00
    -6.995E+00   -6.994E+00   -6.991E+00   -6.985E+00   -6.977E+00   -6.967E+00   -6.955E+00   -6.942E+00   -6.926E+00   -6.908E+00
    -6.889E+00   -6.868E+00   -6.845E+00   -6.820E+00   -6.795E+00   -6.767E+00   -6.738E+00   -6.708E+00   -6.676E+00   -6.643E+00
    -6.609E+00   -6.574E+00   -6.538E+00   -6.501E+00   -6.462E+00   -6.423E+00   -6.383E+00   -6.343E+00   -6.301E+00   -6.259E+00
    -6.216E+00   -6.173E+00   -6.129E+00   -6.085E+00   -6.040E+00   -5.996E+00   -5.950E+00   -5.905E+00   -5.860E+00   -5.814E+00
    -5.769E+00   -5.723E+00   -5.678E+00   -5.633E+00   -5.588E+00   -5.543E+00   -5.499E+00   -5.456E+00   -5.413E+00   -5.371E+00
    -5.329E+00   -5.289E+00   -5.249E+00   -5.210E+00   -5.173E+00   -5.137E+00   -5.102E+00   -5.068E+00   -5.036E+00   -5.005E+00
    -4.976E+00   -4.949E+00   -4.924E+00   -4.900E+00   -4.879E+00   -4.859E+00   -4.842E+00   -4.827E+00   -4.814E+00   -4.803E+00
    -4.795E+00   -4.790E+00   -4.787E+00   -4.787E+00   -4.790E+00   -4.795E+00   -4.804E+00   -4.816E+00   -4.831E+00   -4.849E+00
    -4.870E+00   -4.895E+00   -4.923E+00   -4.955E+00   -4.991E+00   -5.030E+00   -5.073E+00   -5.120E+00   -5.171E+00   -5.226E+00
    -5.284E+00   -5.346E+00   -5.412E+00   -5.481E+00   -5.554E+00   -5.630E+00   -5.710E+00   -5.793E+00   -5.879E+00   -5.968E+00
    -6.061E+00   -6.156E+00   -6.254E+00   -6.356E+00   -6.460E+00   -6.566E+00   -6.676E+00   -6.788E+00   -6.903E+00   -7.020E+00
    -7.140E+00   -7.262E+00   -7.386E+00   -7.513E+00   -7.642E+00   -7.772E+00   -7.905E+00   -8.040E+00   -8.177E+00   -8.316E+00
    -8.456E+00   -8.598E+00   -8.742E+00   -8.887E+00   -9.034E+00   -9.183E+00   -9.332E+00   -9.483E+00   -9.636E+00   -9.789E+00
    -9.944E+00   -1.010E+01   -1.026E+01   -1.041E+01   -1.057E+01   -1.073E+01   -1.089E+01   -1.105E+01   -1.122E+01   -1.138E+01
    -1.155E+01   -1.171E+01   -1.188E+01   -1.205E+01   -1.222E+01   -1.239E+01   -1.256E+01   -1.274E+01   -1.291E+01   -1.309E+01
    -1.327E+01   -1.345E+01   -1.363E+01   -1.381E+01   -1.400E+01   -1.418E+01   -1.437E+01   -1.456E+01   -1.475E+01   -1.494E+01
    -1.513E+01   -1.533E+01   -1.553E+01   -1.573E+01   -1.593E+01   -1.613E+01   -1.634E+01   -1.654E+01   -1.675E+01   -1.696E+01
    -1.717E+01   -1.739E+01   -1.760E+01   -1.782E+01   -1.804E+01   -1.827E+01   -1.849E+01   -1.872E+01   -1.895E+01   -1.918E+01
    -1.941E+01   -1.965E+01   -1.988E+01   -2.012E+01   -2.036E+01   -2.060E+01   -2.084E+01   -2.109E+01   -2.133E+01   -2.158E+01
    -2.182E+01   -2.207E+01   -2.232E+01   -2.257E+01   -2.281E+01   -2.306E+01   -2.331E+01   -2.356E+01   -2.381E+01   -2.406E+01
    -2.431E+01   -2.456E+01   -2.480E+01   -2.505E+01   -2.530E+01   -2.554E+01   -2.579E+01   -2.603E+01   -2.628E+01   -2.652E+01
    -2.676E+01   -2.700E+01   -2.724E+01   -2.747E+01   -2.771E+01   -2.794E+01   -2.817E+01   -2.840E+01   -2.863E+01   -2.885E+01
    -2.907E+01   -2.929E+01   -2.951E+01   -2.972E+01   -2.994E+01   -3.014E+01   -3.035E+01   -3.055E+01   -3.075E+01   -3.095E+01
    -3.114E+01   -3.133E+01   -3.152E+01   -3.171E+01   -3.189E+01   -3.207E+01   -3.224E+01   -3.241E+01   -3.258E+01   -3.274E+01
    -3.290E+01   -3.306E+01   -3.321E+01   -3.336E+01   -3.350E+01   -3.364E+01   -3.378E+01   -3.391E+01   -3.404E+01   -3.416E+01
    -3.428E+01   -3.439E+01   -3.450E+01   -3.461E+01   -3.471E+01   -3.481E+01   -3.490E+01   -3.499E+01   -3.507E+01   -3.515E+01
    -3.522E+01   -3.529E+01   -3.535E+01   -3.540E+01   -3.546E+01   -3.550E+01   -3.555E+01   -3.558E+01
 Ala      Conc. = 4.96E+00
