 LCModel (Version 6.3-1L) Copyright: S.W. Provencher.          Ref.: Magn. Reson. Med. 30:672-679 (1993).                
 Slice#3 Row#13 Col#14  K_02_press_1_raw_act
 36 lines in following concentration table = NCONC+1
    Conc.  %SD /Cr+PCr  Metabolite                                         
 2.12E+03  49%   0.000 Ala                                                 
    1.919 999%   0.000 Asp                                                 
    0.000 999%   0.000 Cr                                                  
    0.000 999%   0.000 PCr                                                 
    0.000 999%   0.000 GABA                                                
    4.588 437%   0.000 Glc                                                 
    0.000 999%   0.000 Gln                                                 
   26.877 999%   0.000 Glu                                                 
    0.000 999%   0.000 GPC                                                 
    0.000 999%   0.000 PCh                                                 
    0.000 999%   0.000 GSH                                                 
  358.922  43%   0.000 Ins                                                 
    0.000 999%   0.000 Lac                                                 
   92.448  73%   0.000 NAA                                                 
    0.000 999%   0.000 NAAG                                                
    2.742 235%   0.000 Scyllo                                              
    9.422 352%   0.000 Tau                                                 
    0.000 999%   0.000 -CrCH2                                              
    0.000 999%   0.000 GPC+PCh                                             
   92.448  73%   0.000 NAA+NAAG                                            
    0.000 999%   0.000 Cr+PCr                                              
   26.877 999%   0.000 Glu+Gln                                             
 1.28E+04  14%   0.000 Lip13a                                              
  499.960  47%   0.000 Lip13b                                              
 2.98E+03  23%   0.000 Lip09                                               
 4.97E+03   6%   0.000 MM09                                                
    0.000 999%   0.000-Lip20                                               
 7.40E+03   6%   0.000 MM20                                                
 1.49E+03   6%   0.000 MM12                                                
 3.85E+03   6%   0.000 MM14                                                
 1.93E+03   6%   0.000 MM17                                                
 1.33E+04  13%   0.000 Lip13a+Lip13b                                       
 1.87E+04   9%   0.000 MM14+Lip13a+Lip13b+MM12                             
 7.96E+03   9%   0.000 MM09+Lip09                                          
 7.40E+03   6%   0.000 MM20+Lip20                                          
   6 lines in following misc. output table
  FWHM = 0.122 ppm    S/N =  15                                            
  Data shift = 0.222 ppm                                                   
  Ph: -82 deg      67.1 deg/ppm                                            
  alphaB,S = 5.2E-01,   4.9E+01                                            
    8 spline knots.   Ns = 9(2)                                            
  (10) 6 infls.   ( 2) 2 extrs.                                            
  498 points on ppm-axis = NY
      4.000000     3.992357     3.984714     3.977070     3.969427     3.961784     3.954141     3.946497     3.938854     3.931211
      3.923568     3.915925     3.908281     3.900638     3.892995     3.885352     3.877708     3.870065     3.862422     3.854779
      3.847136     3.839492     3.831849     3.824206     3.816563     3.808919     3.801276     3.793633     3.785990     3.778347
      3.770703     3.763060     3.755417     3.747774     3.740130     3.732487     3.724844     3.717201     3.709558     3.701914
      3.694271     3.686628     3.678985     3.671341     3.663698     3.656055     3.648412     3.640769     3.633125     3.625482
      3.617839     3.610196     3.602552     3.594909     3.587266     3.579623     3.571980     3.564336     3.556693     3.549050
      3.541407     3.533763     3.526120     3.518477     3.510834     3.503191     3.495547     3.487904     3.480261     3.472618
      3.464974     3.457331     3.449688     3.442045     3.434402     3.426758     3.419115     3.411472     3.403829     3.396185
      3.388542     3.380899     3.373256     3.365613     3.357969     3.350326     3.342683     3.335040     3.327396     3.319753
      3.312110     3.304467     3.296824     3.289180     3.281537     3.273894     3.266251     3.258607     3.250964     3.243321
      3.235678     3.228034     3.220391     3.212748     3.205105     3.197462     3.189818     3.182175     3.174532     3.166889
      3.159245     3.151602     3.143959     3.136316     3.128673     3.121029     3.113386     3.105743     3.098100     3.090456
      3.082813     3.075170     3.067527     3.059884     3.052240     3.044597     3.036954     3.029311     3.021667     3.014024
      3.006381     2.998738     2.991095     2.983451     2.975808     2.968165     2.960522     2.952878     2.945235     2.937592
      2.929949     2.922306     2.914662     2.907019     2.899376     2.891733     2.884089     2.876446     2.868803     2.861160
      2.853517     2.845873     2.838230     2.830587     2.822944     2.815300     2.807657     2.800014     2.792371     2.784728
      2.777084     2.769441     2.761798     2.754155     2.746511     2.738868     2.731225     2.723582     2.715939     2.708295
      2.700652     2.693009     2.685366     2.677722     2.670079     2.662436     2.654793     2.647150     2.639506     2.631863
      2.624220     2.616577     2.608933     2.601290     2.593647     2.586004     2.578361     2.570717     2.563074     2.555431
      2.547788     2.540144     2.532501     2.524858     2.517215     2.509572     2.501928     2.494285     2.486642     2.478999
      2.471355     2.463712     2.456069     2.448426     2.440783     2.433139     2.425496     2.417853     2.410210     2.402566
      2.394923     2.387280     2.379637     2.371994     2.364350     2.356707     2.349064     2.341421     2.333777     2.326134
      2.318491     2.310848     2.303205     2.295561     2.287918     2.280275     2.272632     2.264988     2.257345     2.249702
      2.242059     2.234416     2.226772     2.219129     2.211486     2.203843     2.196199     2.188556     2.180913     2.173270
      2.165627     2.157983     2.150340     2.142697     2.135054     2.127410     2.119767     2.112124     2.104481     2.096838
      2.089194     2.081551     2.073908     2.066265     2.058621     2.050978     2.043335     2.035692     2.028049     2.020405
      2.012762     2.005119     1.997476     1.989833     1.982190     1.974546     1.966903     1.959260     1.951617     1.943974
      1.936331     1.928688     1.921045     1.913402     1.905759     1.898115     1.890472     1.882829     1.875186     1.867543
      1.859900     1.852257     1.844614     1.836971     1.829327     1.821684     1.814041     1.806398     1.798755     1.791112
      1.783469     1.775826     1.768183     1.760540     1.752896     1.745253     1.737610     1.729967     1.722324     1.714681
      1.707038     1.699395     1.691752     1.684108     1.676465     1.668822     1.661179     1.653536     1.645893     1.638250
      1.630607     1.622964     1.615321     1.607677     1.600034     1.592391     1.584748     1.577105     1.569462     1.561819
      1.554176     1.546533     1.538890     1.531246     1.523603     1.515960     1.508317     1.500674     1.493031     1.485388
      1.477745     1.470102     1.462458     1.454815     1.447172     1.439529     1.431886     1.424243     1.416600     1.408957
      1.401314     1.393671     1.386027     1.378384     1.370741     1.363098     1.355455     1.347812     1.340169     1.332526
      1.324883     1.317240     1.309596     1.301953     1.294310     1.286667     1.279024     1.271381     1.263738     1.256095
      1.248452     1.240808     1.233165     1.225522     1.217879     1.210236     1.202593     1.194950     1.187307     1.179664
      1.172021     1.164377     1.156734     1.149091     1.141448     1.133805     1.126162     1.118519     1.110876     1.103233
      1.095590     1.087946     1.080303     1.072660     1.065017     1.057374     1.049731     1.042088     1.034445     1.026802
      1.019158     1.011515     1.003872     0.996229     0.988586     0.980943     0.973300     0.965657     0.958014     0.950371
      0.942727     0.935084     0.927441     0.919798     0.912155     0.904512     0.896869     0.889226     0.881583     0.873940
      0.866296     0.858653     0.851010     0.843367     0.835724     0.828081     0.820438     0.812795     0.805152     0.797508
      0.789865     0.782222     0.774579     0.766936     0.759293     0.751650     0.744007     0.736364     0.728721     0.721077
      0.713434     0.705791     0.698148     0.690505     0.682862     0.675219     0.667576     0.659933     0.652290     0.644646
      0.637003     0.629360     0.621717     0.614074     0.606431     0.598788     0.591145     0.583502     0.575858     0.568215
      0.560572     0.552929     0.545286     0.537643     0.530000     0.522357     0.514714     0.507071     0.499427     0.491784
      0.484141     0.476498     0.468855     0.461212     0.453569     0.445925     0.438282     0.430639     0.422996     0.415353
      0.407710     0.400067     0.392424     0.384780     0.377137     0.369494     0.361851     0.354208     0.346565     0.338922
      0.331278     0.323635     0.315992     0.308349     0.300706     0.293063     0.285420     0.277777     0.270133     0.262490
      0.254847     0.247204     0.239561     0.231918     0.224275     0.216631     0.208988     0.201345
 NY phased data points follow
   1.91196E-01 -2.47356E+00 -2.51537E+00 -4.70059E-01 -5.20384E-01 -5.29391E-01 -6.78877E-01  1.46442E+00 -1.99471E-01 -1.14780E-02
   1.76414E+00  9.91640E-01 -7.49704E-01  4.15075E-01 -1.07077E-01 -2.31170E-01 -9.04225E-01 -5.60776E-01 -1.74759E+00 -4.01100E-01
  -6.79300E-01 -9.31324E-01 -7.34940E-01  9.77339E-01  5.91931E-01  6.78341E-01 -1.36761E+00 -9.32665E-01  5.55885E-01 -3.38994E-02
   1.06197E-03  6.60475E-02 -1.43071E-01  1.17844E+00 -1.38122E+00 -1.13164E+00 -1.33934E+00  5.11883E-01 -1.32995E-01 -5.45069E-01
   5.93088E-01  1.99715E-01 -5.10135E-01 -4.41128E-01 -1.07072E+00 -1.40241E+00  1.92771E-01  5.50994E-01  1.89473E-01  6.00208E-01
   1.07688E+00  2.36669E-01  9.85327E-01  7.08088E-01 -1.39770E-01 -1.68452E+00 -5.21322E-01  1.41057E+00  1.57629E+00  4.99293E-01
   9.27906E-01 -1.12812E+00 -6.98548E-01  1.06386E+00  6.48751E-01  4.69036E-01  4.04625E-01 -1.05110E+00  5.17784E-01 -2.57346E-01
   4.57901E-01  4.13474E-01  1.01723E+00 -3.88833E-01 -3.55754E-01 -1.79405E-01  6.99474E-01  2.36195E+00  7.80726E-01  1.01965E+00
   1.37938E+00  1.06536E+00  1.37731E+00 -1.86399E-01  9.66978E-01 -1.09114E+00 -1.34062E+00 -1.93228E+00 -1.28848E+00 -1.47486E-01
   3.46317E-01 -1.16771E+00 -2.47375E-01 -1.81866E-01 -3.17983E-01 -2.35936E-01 -1.76433E+00 -7.54729E-01 -2.78140E-02 -7.15991E-01
  -1.01710E+00  6.18136E-01  5.27329E-01  1.42376E+00  6.57820E-01 -1.44051E+00 -1.38623E+00 -7.18200E-01 -1.38822E+00  2.09133E-01
  -1.21978E+00 -8.98700E-01 -1.07125E+00  8.62434E-01 -5.39274E-01 -5.26071E-01 -5.08200E-01 -1.44813E+00 -4.18556E-01 -1.01718E+00
  -2.02667E+00 -1.97569E+00 -6.56756E-01  9.43844E-02 -2.16891E+00 -6.62139E-01 -7.32717E-01 -1.01033E+00 -2.11475E+00 -9.89339E-01
  -8.02533E-01  3.66003E-01 -1.25954E+00 -5.18551E-01 -1.36083E+00 -1.43088E+00 -1.55916E+00 -2.03289E+00 -7.97107E-01 -9.41497E-01
  -2.15754E+00 -1.34560E+00 -1.01340E+00 -4.54963E-02 -1.87222E+00 -1.39681E+00  2.67617E-01 -2.60114E+00 -1.47706E+00 -1.97126E-01
  -2.47734E+00 -5.30113E-01 -1.11337E+00 -3.04140E+00 -9.89210E-01 -2.67755E+00 -3.19405E+00 -1.93335E+00 -2.68961E+00 -2.26738E+00
  -1.32397E+00 -3.06967E+00 -7.30565E-01 -3.07562E+00 -1.64915E+00 -2.10737E+00 -1.31613E+00 -1.92614E+00 -2.56109E+00 -2.62222E+00
  -3.13464E+00 -2.65196E+00 -2.25761E+00 -3.54317E+00 -4.04443E+00 -3.66427E+00 -2.61329E+00 -4.11088E+00 -4.27502E+00 -3.33576E+00
  -2.89288E+00 -3.20257E+00 -3.54603E+00 -5.17061E+00 -3.62570E+00 -5.14177E+00 -7.11331E+00 -2.65657E+00 -4.55812E+00 -4.02556E+00
  -5.28397E+00 -2.83608E+00 -3.27248E+00 -5.42149E+00 -5.91222E+00 -3.37292E+00 -4.53237E+00 -5.96663E+00 -4.08203E+00 -5.85244E+00
  -5.94712E+00 -7.93496E+00 -4.13470E+00 -7.56444E+00 -5.84099E+00 -7.77979E+00 -7.42465E+00 -6.81176E+00 -7.16344E+00 -5.94194E+00
  -8.76620E+00 -7.16554E+00 -6.97205E+00 -6.85795E+00 -7.68716E+00 -8.49735E+00 -8.52819E+00 -8.56952E+00 -8.41733E+00 -6.84393E+00
  -8.20474E+00 -8.23555E+00 -8.50616E+00 -8.79349E+00 -7.79005E+00 -8.57328E+00 -1.08360E+01 -9.55927E+00 -1.05891E+01 -1.07792E+01
  -1.10031E+01 -1.05803E+01 -8.96767E+00 -8.32278E+00 -7.44424E+00 -7.40946E+00 -8.37733E+00 -1.10207E+01 -1.25282E+01 -9.42122E+00
  -1.07862E+01 -1.13107E+01 -1.10073E+01 -1.17861E+01 -1.24991E+01 -1.22677E+01 -1.27411E+01 -1.24017E+01 -1.25706E+01 -1.29872E+01
  -1.23499E+01 -1.26381E+01 -1.16972E+01 -1.13041E+01 -1.18749E+01 -1.36001E+01 -1.45436E+01 -1.34403E+01 -1.42745E+01 -1.40637E+01
  -1.43092E+01 -1.45766E+01 -1.40371E+01 -1.45560E+01 -1.59393E+01 -1.53054E+01 -1.44929E+01 -1.57476E+01 -1.62577E+01 -1.64071E+01
  -1.62897E+01 -1.76129E+01 -1.72298E+01 -1.67354E+01 -1.79991E+01 -1.81999E+01 -1.77243E+01 -1.85360E+01 -1.97471E+01 -1.91599E+01
  -2.01839E+01 -2.11518E+01 -2.03914E+01 -1.94600E+01 -2.18639E+01 -2.03030E+01 -2.09433E+01 -2.00846E+01 -1.96797E+01 -2.03676E+01
  -1.79590E+01 -1.76080E+01 -1.53125E+01 -1.32600E+01 -8.71352E+00 -5.32496E+00 -1.14825E+00  3.12884E+00  8.91107E+00  9.86440E+00
   1.20307E+01  1.72534E+01  1.96876E+01  2.16124E+01  2.03955E+01  2.24464E+01  2.42974E+01  2.42781E+01  2.33472E+01  2.16485E+01
   2.08718E+01  1.79826E+01  1.71521E+01  1.59821E+01  1.42876E+01  1.49331E+01  1.30778E+01  1.19450E+01  1.11450E+01  1.17330E+01
   9.35078E+00  1.15460E+01  1.15210E+01  1.26419E+01  1.33562E+01  1.56172E+01  1.53275E+01  1.57930E+01  1.81994E+01  2.02892E+01
   1.98766E+01  2.01847E+01  2.22869E+01  2.17792E+01  2.34069E+01  2.44204E+01  2.44114E+01  2.46788E+01  2.66235E+01  2.63710E+01
   2.56303E+01  2.68218E+01  2.83376E+01  2.72407E+01  2.71689E+01  2.66384E+01  2.65321E+01  2.82244E+01  2.79608E+01  2.91679E+01
   2.86414E+01  2.96925E+01  2.95553E+01  2.72892E+01  2.61953E+01  2.57994E+01  2.55835E+01  2.44146E+01  2.66680E+01  2.54956E+01
   2.35091E+01  2.37487E+01  2.31977E+01  2.17646E+01  2.23214E+01  2.09077E+01  2.18104E+01  2.10946E+01  1.97796E+01  1.93430E+01
   1.91747E+01  1.73687E+01  1.73364E+01  1.70915E+01  1.50778E+01  1.60307E+01  1.46208E+01  1.46318E+01  1.57865E+01  1.29397E+01
   1.45630E+01  1.23948E+01  1.30928E+01  1.26817E+01  1.27627E+01  1.10751E+01  1.18588E+01  1.06907E+01  1.05245E+01  8.50570E+00
   9.32206E+00  7.59447E+00  6.00182E+00  8.99090E+00  8.22266E+00  7.29523E+00  6.81069E+00  7.77550E+00  5.65006E+00  6.00026E+00
   7.15105E+00  6.41250E+00  4.66238E+00  4.66038E+00  5.81244E+00  5.55523E+00  5.81312E+00  3.95051E+00  5.29434E+00  4.90492E+00
   4.08864E+00  1.34543E+00  3.14291E+00  2.75065E+00  2.97036E+00  2.24169E+00  2.44037E+00  1.43374E-01  2.38812E+00  2.33571E+00
   2.52056E-01  1.24144E+00  1.23735E+00  8.27839E-01  1.56543E+00  1.43940E+00  5.60355E-02  9.20982E-01 -5.89408E-03  5.84710E-01
   1.43267E-02 -1.61569E-01  1.04298E+00  1.97283E-01  1.24682E+00  1.31659E+00  7.12430E-01  3.21286E-01 -7.70396E-01 -1.42303E+00
  -8.91018E-01 -2.85405E-01 -9.17519E-01 -4.91765E-01 -7.82692E-01 -2.26244E+00  1.44201E+00 -3.07018E+00 -1.09363E+00 -1.15742E+00
  -1.05277E+00 -1.52746E+00 -6.01881E-01 -7.08848E-01 -2.95590E+00 -2.90027E+00 -5.84564E-01 -2.34283E+00 -1.60393E+00 -1.08048E+00
  -1.31375E+00 -2.17521E+00 -1.18490E+00 -3.15184E+00 -1.72118E+00 -3.63829E+00 -1.75312E+00 -3.23524E+00 -2.70858E+00 -3.30438E+00
  -2.44618E+00 -3.80152E+00 -2.83662E+00 -3.63386E+00 -5.19031E+00 -3.81503E+00 -2.22492E+00 -3.17467E+00 -4.29863E+00 -4.05165E+00
  -2.17585E+00 -2.20084E+00 -3.86201E+00 -3.73077E+00 -1.07817E+00 -3.20808E+00 -1.99540E+00 -1.73751E+00 -4.52262E+00 -3.38365E+00
  -4.45204E+00 -3.47445E+00 -3.46473E+00 -4.01801E+00 -5.37612E+00 -2.41193E+00 -4.34640E+00 -2.98200E+00
 NY points of the fit to the data follow
  -5.50205E-01 -3.19319E-01 -1.07125E-01  4.11888E-02  2.07843E-01  3.32686E-01  2.13423E-01  5.10427E-02 -7.00419E-02 -2.51665E-01
  -2.96233E-01 -3.73798E-01 -4.82971E-01 -4.30434E-01 -3.85842E-01 -3.75928E-01 -4.30801E-01 -4.04716E-01 -5.24119E-01 -2.94300E-01
  -4.98517E-01 -2.12358E-01 -2.99243E-01  1.72877E-02 -2.81499E-01  2.88085E-02 -3.50056E-01  1.83081E-02 -4.09513E-01 -2.12300E-01
  -5.19325E-01 -2.54967E-01 -5.92451E-01 -5.38571E-01 -8.03635E-01 -7.51727E-01 -4.79454E-01 -5.59974E-01 -4.47026E-01 -6.06521E-01
  -4.06008E-01 -7.42388E-01 -4.14498E-01 -9.52655E-01 -1.62403E-01 -1.17218E-01  5.04438E-01  4.17373E-01  1.02144E+00  8.14468E-01
   1.26483E+00  6.77032E-01  5.32985E-01  2.07838E-01  2.47300E-01  6.05983E-02  2.19484E-01  1.68353E-01  4.20907E-01  5.07546E-01
   5.70945E-01  5.09987E-01  5.35734E-01  4.61993E-01  4.86503E-01  3.62889E-01  3.17030E-01  9.73869E-02 -1.13739E-02 -1.52642E-01
  -4.95288E-02 -9.37068E-02  1.56325E-02 -3.48568E-02  6.84038E-02  7.16493E-03  1.06757E-01  1.78225E-02  8.45334E-02 -2.71860E-02
  -3.92063E-02 -1.38372E-01 -1.31918E-01 -1.89748E-01 -1.57882E-01 -2.23594E-01 -2.11270E-01 -3.11613E-01 -3.41339E-01 -4.58528E-01
  -5.01073E-01 -6.13334E-01 -6.80051E-01 -7.85544E-01 -8.01537E-01 -8.75482E-01 -8.85897E-01 -9.36608E-01 -9.47618E-01 -9.62054E-01
  -9.64389E-01 -9.45851E-01 -9.57749E-01 -9.29977E-01 -9.49163E-01 -8.98168E-01 -9.15077E-01 -8.20080E-01 -7.94738E-01 -7.04076E-01
  -6.91375E-01 -6.34993E-01 -6.26113E-01 -5.80725E-01 -5.63928E-01 -5.24809E-01 -4.79328E-01 -4.41754E-01 -3.57569E-01 -3.01959E-01
  -2.20232E-01 -1.73471E-01 -1.07874E-01 -6.83615E-02 -2.20254E-02  1.23338E-03  1.81552E-02  3.17846E-02  3.83097E-02  4.21322E-02
   3.78886E-02  2.98950E-02  1.38109E-02 -5.92503E-03 -3.21715E-02 -6.27607E-02 -9.76787E-02 -1.38568E-01 -1.83394E-01 -2.33788E-01
  -2.89401E-01 -3.50618E-01 -4.17647E-01 -4.91935E-01 -5.68694E-01 -6.47936E-01 -7.30463E-01 -8.13217E-01 -9.04242E-01 -9.99544E-01
  -1.09718E+00 -1.19876E+00 -1.29935E+00 -1.40075E+00 -1.50403E+00 -1.60933E+00 -1.71682E+00 -1.82846E+00 -1.93977E+00 -2.05273E+00
  -2.15943E+00 -2.27196E+00 -2.38212E+00 -2.49831E+00 -2.61466E+00 -2.72963E+00 -2.84654E+00 -2.96007E+00 -3.07683E+00 -3.19589E+00
  -3.31630E+00 -3.43374E+00 -3.55498E+00 -3.67046E+00 -3.79249E+00 -3.91811E+00 -4.04163E+00 -4.17373E+00 -4.29169E+00 -4.41844E+00
  -4.53555E+00 -4.66433E+00 -4.77748E+00 -4.91783E+00 -5.03159E+00 -5.17054E+00 -5.27161E+00 -5.39567E+00 -5.49707E+00 -5.61969E+00
  -5.72716E+00 -5.84233E+00 -5.94771E+00 -6.04907E+00 -6.15196E+00 -6.25244E+00 -6.35492E+00 -6.44460E+00 -6.55694E+00 -6.64642E+00
  -6.75982E+00 -6.85083E+00 -6.96529E+00 -7.06727E+00 -7.17677E+00 -7.27360E+00 -7.37347E+00 -7.46892E+00 -7.57078E+00 -7.68360E+00
  -7.78259E+00 -7.89177E+00 -7.97980E+00 -8.08616E+00 -8.16707E+00 -8.27067E+00 -8.34719E+00 -8.45067E+00 -8.51550E+00 -8.60343E+00
  -8.66019E+00 -8.74613E+00 -8.80304E+00 -8.88227E+00 -8.93699E+00 -9.00199E+00 -9.04637E+00 -9.10022E+00 -9.13878E+00 -9.18302E+00
  -9.21514E+00 -9.25148E+00 -9.28224E+00 -9.31142E+00 -9.35011E+00 -9.38855E+00 -9.44085E+00 -9.47724E+00 -9.52646E+00 -9.57246E+00
  -9.63023E+00 -9.67948E+00 -9.68793E+00 -9.71392E+00 -9.87211E+00 -1.00098E+01 -1.02197E+01 -1.04232E+01 -1.05846E+01 -1.07800E+01
  -1.09547E+01 -1.11725E+01 -1.14141E+01 -1.16858E+01 -1.19276E+01 -1.21976E+01 -1.24254E+01 -1.26622E+01 -1.29245E+01 -1.31351E+01
  -1.34198E+01 -1.35811E+01 -1.39492E+01 -1.40885E+01 -1.45054E+01 -1.46121E+01 -1.51687E+01 -1.53068E+01 -1.59068E+01 -1.60423E+01
  -1.67315E+01 -1.69218E+01 -1.77001E+01 -1.79739E+01 -1.86977E+01 -1.89744E+01 -1.96274E+01 -1.98969E+01 -2.05089E+01 -2.08008E+01
  -2.13500E+01 -2.16203E+01 -2.16831E+01 -2.16102E+01 -2.14013E+01 -2.10303E+01 -2.04788E+01 -1.97211E+01 -1.87329E+01 -1.74935E+01
  -1.59850E+01 -1.41976E+01 -1.21274E+01 -9.78357E+00 -7.18369E+00 -4.35988E+00 -1.35612E+00  1.76957E+00  4.94978E+00  8.10722E+00
   1.11606E+01  1.40265E+01  1.66264E+01  1.88921E+01  2.07738E+01  2.22565E+01  2.34061E+01  2.41847E+01  2.34471E+01  2.21897E+01
   2.07763E+01  1.89845E+01  1.76845E+01  1.61864E+01  1.46150E+01  1.39000E+01  1.31615E+01  1.19633E+01  1.14357E+01  1.06161E+01
   1.02198E+01  1.07392E+01  1.10086E+01  1.24071E+01  1.32886E+01  1.49431E+01  1.53150E+01  1.69605E+01  1.72811E+01  1.93874E+01
   1.94129E+01  2.09021E+01  2.11354E+01  2.28961E+01  2.31444E+01  2.40115E+01  2.41258E+01  2.46401E+01  2.58618E+01  2.60553E+01
   2.70957E+01  2.69965E+01  2.79781E+01  2.67975E+01  2.76824E+01  2.54720E+01  2.76157E+01  2.77076E+01  2.91168E+01  2.88176E+01
   3.00125E+01  2.92937E+01  2.98163E+01  2.75389E+01  2.60967E+01  2.55151E+01  2.52927E+01  2.51872E+01  2.50588E+01  2.48268E+01
   2.44562E+01  2.39490E+01  2.33334E+01  2.26515E+01  2.19469E+01  2.12553E+01  2.05993E+01  1.99876E+01  1.94175E+01  1.88797E+01
   1.83627E+01  1.78568E+01  1.73561E+01  1.68588E+01  1.63665E+01  1.58831E+01  1.54128E+01  1.49592E+01  1.45240E+01  1.41071E+01
   1.37064E+01  1.33180E+01  1.29372E+01  1.25589E+01  1.21783E+01  1.17911E+01  1.13945E+01  1.09867E+01  1.05677E+01  1.01384E+01
   9.70132E+00  9.25962E+00  8.81717E+00  8.37817E+00  7.94691E+00  7.52747E+00  7.12351E+00  6.73812E+00  6.37374E+00  6.03212E+00
   5.71432E+00  5.42070E+00  5.15096E+00  4.90417E+00  4.67891E+00  4.47338E+00  4.28544E+00  4.11276E+00  3.95287E+00  3.80328E+00
   3.66153E+00  3.52529E+00  3.39237E+00  3.26081E+00  3.12889E+00  2.99510E+00  2.85828E+00  2.71750E+00  2.57213E+00  2.42179E+00
   2.26635E+00  2.10588E+00  1.94070E+00  1.77126E+00  1.59815E+00  1.42210E+00  1.24388E+00  1.06434E+00  8.84350E-01  7.04783E-01
   5.26487E-01  3.50278E-01  1.76910E-01  7.08987E-03 -1.58551E-01 -3.19464E-01 -4.75174E-01 -6.25302E-01 -7.69532E-01 -9.07631E-01
  -1.03944E+00 -1.16485E+00 -1.28384E+00 -1.39644E+00 -1.50272E+00 -1.60279E+00 -1.69680E+00 -1.78494E+00 -1.86740E+00 -1.94443E+00
  -2.01627E+00 -2.08315E+00 -2.14535E+00 -2.20313E+00 -2.25677E+00 -2.30652E+00 -2.35265E+00 -2.39542E+00 -2.43508E+00 -2.47188E+00
  -2.50607E+00 -2.53787E+00 -2.56750E+00 -2.59519E+00 -2.62113E+00 -2.64553E+00 -2.66858E+00 -2.69046E+00 -2.71133E+00 -2.73136E+00
  -2.75072E+00 -2.76954E+00 -2.78797E+00 -2.80615E+00 -2.82420E+00 -2.84223E+00 -2.86038E+00 -2.87874E+00 -2.89743E+00 -2.91654E+00
  -2.93615E+00 -2.95636E+00 -2.97726E+00 -2.99893E+00 -3.02144E+00 -3.04485E+00 -3.06925E+00 -3.09468E+00 -3.12123E+00 -3.14894E+00
  -3.17787E+00 -3.20807E+00 -3.23957E+00 -3.27244E+00 -3.30672E+00 -3.34243E+00 -3.37960E+00 -3.41823E+00
 NY background values follow
    -9.004E-01   -8.146E-01   -7.321E-01   -6.526E-01   -5.763E-01   -5.031E-01   -4.328E-01   -3.656E-01   -3.013E-01   -2.399E-01
    -1.814E-01   -1.257E-01   -7.280E-02   -2.264E-02    2.482E-02    6.961E-02    1.118E-01    1.514E-01    1.884E-01    2.229E-01
     2.550E-01    2.847E-01    3.119E-01    3.369E-01    3.595E-01    3.798E-01    3.980E-01    4.139E-01    4.278E-01    4.395E-01
     4.491E-01    4.568E-01    4.624E-01    4.662E-01    4.680E-01    4.680E-01    4.661E-01    4.625E-01    4.571E-01    4.501E-01
     4.414E-01    4.311E-01    4.192E-01    4.057E-01    3.908E-01    3.744E-01    3.567E-01    3.375E-01    3.170E-01    2.953E-01
     2.722E-01    2.480E-01    2.226E-01    1.961E-01    1.685E-01    1.398E-01    1.102E-01    7.956E-02    4.802E-02    1.560E-02
    -1.767E-02   -5.173E-02   -8.656E-02   -1.221E-01   -1.583E-01   -1.952E-01   -2.326E-01   -2.707E-01   -3.092E-01   -3.482E-01
    -3.876E-01   -4.274E-01   -4.676E-01   -5.081E-01   -5.489E-01   -5.899E-01   -6.310E-01   -6.724E-01   -7.138E-01   -7.553E-01
    -7.968E-01   -8.383E-01   -8.798E-01   -9.211E-01   -9.623E-01   -1.003E+00   -1.044E+00   -1.085E+00   -1.125E+00   -1.165E+00
    -1.204E+00   -1.243E+00   -1.282E+00   -1.320E+00   -1.358E+00   -1.395E+00   -1.431E+00   -1.467E+00   -1.502E+00   -1.536E+00
    -1.569E+00   -1.602E+00   -1.634E+00   -1.665E+00   -1.696E+00   -1.726E+00   -1.756E+00   -1.785E+00   -1.813E+00   -1.842E+00
    -1.870E+00   -1.898E+00   -1.926E+00   -1.953E+00   -1.981E+00   -2.008E+00   -2.036E+00   -2.064E+00   -2.092E+00   -2.120E+00
    -2.148E+00   -2.177E+00   -2.206E+00   -2.236E+00   -2.266E+00   -2.297E+00   -2.328E+00   -2.360E+00   -2.393E+00   -2.426E+00
    -2.461E+00   -2.496E+00   -2.532E+00   -2.569E+00   -2.607E+00   -2.647E+00   -2.687E+00   -2.729E+00   -2.772E+00   -2.817E+00
    -2.862E+00   -2.910E+00   -2.958E+00   -3.009E+00   -3.061E+00   -3.114E+00   -3.170E+00   -3.227E+00   -3.286E+00   -3.347E+00
    -3.410E+00   -3.475E+00   -3.542E+00   -3.611E+00   -3.682E+00   -3.756E+00   -3.831E+00   -3.910E+00   -3.990E+00   -4.073E+00
    -4.159E+00   -4.247E+00   -4.338E+00   -4.431E+00   -4.528E+00   -4.627E+00   -4.728E+00   -4.833E+00   -4.941E+00   -5.052E+00
    -5.166E+00   -5.283E+00   -5.403E+00   -5.526E+00   -5.653E+00   -5.783E+00   -5.917E+00   -6.054E+00   -6.194E+00   -6.339E+00
    -6.486E+00   -6.638E+00   -6.793E+00   -6.952E+00   -7.115E+00   -7.282E+00   -7.453E+00   -7.628E+00   -7.807E+00   -7.990E+00
    -8.177E+00   -8.369E+00   -8.565E+00   -8.765E+00   -8.970E+00   -9.179E+00   -9.393E+00   -9.611E+00   -9.834E+00   -1.006E+01
    -1.029E+01   -1.053E+01   -1.077E+01   -1.102E+01   -1.127E+01   -1.152E+01   -1.178E+01   -1.204E+01   -1.231E+01   -1.258E+01
    -1.285E+01   -1.313E+01   -1.341E+01   -1.369E+01   -1.397E+01   -1.426E+01   -1.455E+01   -1.484E+01   -1.514E+01   -1.544E+01
    -1.574E+01   -1.604E+01   -1.634E+01   -1.665E+01   -1.695E+01   -1.726E+01   -1.757E+01   -1.788E+01   -1.819E+01   -1.851E+01
    -1.882E+01   -1.913E+01   -1.945E+01   -1.976E+01   -2.008E+01   -2.039E+01   -2.071E+01   -2.102E+01   -2.134E+01   -2.165E+01
    -2.197E+01   -2.228E+01   -2.259E+01   -2.291E+01   -2.322E+01   -2.353E+01   -2.383E+01   -2.414E+01   -2.445E+01   -2.475E+01
    -2.505E+01   -2.535E+01   -2.565E+01   -2.594E+01   -2.624E+01   -2.653E+01   -2.681E+01   -2.710E+01   -2.738E+01   -2.766E+01
    -2.794E+01   -2.821E+01   -2.848E+01   -2.875E+01   -2.901E+01   -2.927E+01   -2.952E+01   -2.977E+01   -3.002E+01   -3.026E+01
    -3.049E+01   -3.073E+01   -3.096E+01   -3.118E+01   -3.140E+01   -3.161E+01   -3.182E+01   -3.202E+01   -3.222E+01   -3.241E+01
    -3.259E+01   -3.277E+01   -3.294E+01   -3.311E+01   -3.327E+01   -3.343E+01   -3.357E+01   -3.371E+01   -3.385E+01   -3.397E+01
    -3.409E+01   -3.421E+01   -3.431E+01   -3.441E+01   -3.450E+01   -3.458E+01   -3.466E+01   -3.472E+01   -3.478E+01   -3.483E+01
    -3.487E+01   -3.491E+01   -3.493E+01   -3.495E+01   -3.496E+01   -3.496E+01   -3.496E+01   -3.494E+01   -3.492E+01   -3.490E+01
    -3.486E+01   -3.482E+01   -3.477E+01   -3.472E+01   -3.465E+01   -3.458E+01   -3.451E+01   -3.443E+01   -3.434E+01   -3.424E+01
    -3.414E+01   -3.404E+01   -3.392E+01   -3.381E+01   -3.368E+01   -3.355E+01   -3.342E+01   -3.328E+01   -3.313E+01   -3.298E+01
    -3.283E+01   -3.267E+01   -3.250E+01   -3.233E+01   -3.216E+01   -3.198E+01   -3.180E+01   -3.161E+01   -3.142E+01   -3.122E+01
    -3.102E+01   -3.082E+01   -3.061E+01   -3.040E+01   -3.019E+01   -2.997E+01   -2.975E+01   -2.952E+01   -2.930E+01   -2.907E+01
    -2.883E+01   -2.860E+01   -2.836E+01   -2.812E+01   -2.788E+01   -2.763E+01   -2.738E+01   -2.713E+01   -2.688E+01   -2.663E+01
    -2.637E+01   -2.612E+01   -2.586E+01   -2.560E+01   -2.534E+01   -2.508E+01   -2.481E+01   -2.455E+01   -2.428E+01   -2.402E+01
    -2.375E+01   -2.348E+01   -2.321E+01   -2.295E+01   -2.268E+01   -2.241E+01   -2.214E+01   -2.187E+01   -2.160E+01   -2.133E+01
    -2.107E+01   -2.080E+01   -2.053E+01   -2.027E+01   -2.000E+01   -1.974E+01   -1.948E+01   -1.921E+01   -1.895E+01   -1.869E+01
    -1.844E+01   -1.818E+01   -1.793E+01   -1.767E+01   -1.742E+01   -1.718E+01   -1.693E+01   -1.668E+01   -1.644E+01   -1.620E+01
    -1.597E+01   -1.573E+01   -1.550E+01   -1.527E+01   -1.504E+01   -1.482E+01   -1.460E+01   -1.438E+01   -1.416E+01   -1.394E+01
    -1.373E+01   -1.352E+01   -1.331E+01   -1.311E+01   -1.291E+01   -1.271E+01   -1.251E+01   -1.231E+01   -1.212E+01   -1.193E+01
    -1.174E+01   -1.156E+01   -1.137E+01   -1.119E+01   -1.101E+01   -1.084E+01   -1.066E+01   -1.049E+01   -1.033E+01   -1.016E+01
    -9.996E+00   -9.835E+00   -9.677E+00   -9.521E+00   -9.367E+00   -9.216E+00   -9.068E+00   -8.921E+00   -8.778E+00   -8.637E+00
    -8.498E+00   -8.362E+00   -8.228E+00   -8.097E+00   -7.969E+00   -7.842E+00   -7.719E+00   -7.598E+00   -7.479E+00   -7.363E+00
    -7.249E+00   -7.138E+00   -7.029E+00   -6.923E+00   -6.819E+00   -6.718E+00   -6.620E+00   -6.523E+00   -6.430E+00   -6.339E+00
    -6.250E+00   -6.164E+00   -6.080E+00   -5.999E+00   -5.921E+00   -5.845E+00   -5.771E+00   -5.700E+00   -5.632E+00   -5.566E+00
    -5.502E+00   -5.441E+00   -5.383E+00   -5.327E+00   -5.274E+00   -5.223E+00   -5.175E+00   -5.129E+00   -5.086E+00   -5.045E+00
    -5.007E+00   -4.972E+00   -4.939E+00   -4.908E+00   -4.880E+00   -4.855E+00   -4.832E+00   -4.812E+00   -4.794E+00   -4.779E+00
    -4.766E+00   -4.756E+00   -4.749E+00   -4.744E+00   -4.741E+00   -4.742E+00   -4.744E+00   -4.750E+00
 Ala      Conc. = 2.12E+03
