 LCModel (Version 6.3-1L) Copyright: S.W. Provencher.          Ref.: Magn. Reson. Med. 30:672-679 (1993).                
 Slice#1 Row#1 Col#11  K_02_press_1_raw_act
 36 lines in following concentration table = NCONC+1
    Conc.  %SD /Cr+PCr  Metabolite                                         
 1.08E+03  52%  23.141 Ala                                                 
    6.573 231%   0.141 Asp                                                 
   46.686 106%   1.000 Cr                                                  
    0.000 999%   0.000 PCr                                                 
    4.576 199% 9.8E-02 GABA                                                
    4.648 197%   0.100 Glc                                                 
    0.000 999%   0.000 Gln                                                 
    0.000 999%   0.000 Glu                                                 
    0.000 999%   0.000 GPC                                                 
   37.269  46%   0.798 PCh                                                 
   64.079 121%   1.373 GSH                                                 
    0.000 999%   0.000 Ins                                                 
 2.31E+03  25%  49.452 Lac                                                 
    0.000 999%   0.000 NAA                                                 
    0.000 999%   0.000 NAAG                                                
    1.823 166% 3.9E-02 Scyllo                                              
    9.014 167%   0.193 Tau                                                 
   86.688  49%   1.857 -CrCH2                                              
   37.269  46%   0.798 GPC+PCh                                             
    0.000 999%   0.000 NAA+NAAG                                            
   46.686 106%   1.000 Cr+PCr                                              
    0.000 999%   0.000 Glu+Gln                                             
    0.000 999%   0.000 Lip13a                                              
 1.48E+03  30%  31.683 Lip13b                                              
  395.406  30%   8.469 Lip09                                               
  155.127  64%   3.323 MM09                                                
  222.087  31%   4.757 Lip20                                               
  147.199  98%   3.153 MM20                                                
   38.762 106%   0.830 MM12                                                
  496.116  26%  10.627 MM14                                                
    0.000 999%   0.000 MM17                                                
 1.48E+03  30%  31.683 Lip13a+Lip13b                                       
 2.01E+03  20%  43.140 MM14+Lip13a+Lip13b+MM12                             
  550.534  17%  11.792 MM09+Lip09                                          
  369.287  32%   7.910 MM20+Lip20                                          
   6 lines in following misc. output table
  FWHM = 0.168 ppm    S/N =   4                                            
  Data shift =-0.023 ppm                                                   
  Ph:  94 deg     -36.9 deg/ppm                                            
  alphaB,S = 8.5E+01,   7.2E+02                                            
    7 spline knots.   Ns = 9(2)                                            
   2 inflections.     1 extrema                                            
  498 points on ppm-axis = NY
      4.000000     3.992357     3.984714     3.977070     3.969427     3.961784     3.954141     3.946497     3.938854     3.931211
      3.923568     3.915925     3.908281     3.900638     3.892995     3.885352     3.877708     3.870065     3.862422     3.854779
      3.847136     3.839492     3.831849     3.824206     3.816563     3.808919     3.801276     3.793633     3.785990     3.778347
      3.770703     3.763060     3.755417     3.747774     3.740130     3.732487     3.724844     3.717201     3.709558     3.701914
      3.694271     3.686628     3.678985     3.671341     3.663698     3.656055     3.648412     3.640769     3.633125     3.625482
      3.617839     3.610196     3.602552     3.594909     3.587266     3.579623     3.571980     3.564336     3.556693     3.549050
      3.541407     3.533763     3.526120     3.518477     3.510834     3.503191     3.495547     3.487904     3.480261     3.472618
      3.464974     3.457331     3.449688     3.442045     3.434402     3.426758     3.419115     3.411472     3.403829     3.396185
      3.388542     3.380899     3.373256     3.365613     3.357969     3.350326     3.342683     3.335040     3.327396     3.319753
      3.312110     3.304467     3.296824     3.289180     3.281537     3.273894     3.266251     3.258607     3.250964     3.243321
      3.235678     3.228034     3.220391     3.212748     3.205105     3.197462     3.189818     3.182175     3.174532     3.166889
      3.159245     3.151602     3.143959     3.136316     3.128673     3.121029     3.113386     3.105743     3.098100     3.090456
      3.082813     3.075170     3.067527     3.059884     3.052240     3.044597     3.036954     3.029311     3.021667     3.014024
      3.006381     2.998738     2.991095     2.983451     2.975808     2.968165     2.960522     2.952878     2.945235     2.937592
      2.929949     2.922306     2.914662     2.907019     2.899376     2.891733     2.884089     2.876446     2.868803     2.861160
      2.853517     2.845873     2.838230     2.830587     2.822944     2.815300     2.807657     2.800014     2.792371     2.784728
      2.777084     2.769441     2.761798     2.754155     2.746511     2.738868     2.731225     2.723582     2.715939     2.708295
      2.700652     2.693009     2.685366     2.677722     2.670079     2.662436     2.654793     2.647150     2.639506     2.631863
      2.624220     2.616577     2.608933     2.601290     2.593647     2.586004     2.578361     2.570717     2.563074     2.555431
      2.547788     2.540144     2.532501     2.524858     2.517215     2.509572     2.501928     2.494285     2.486642     2.478999
      2.471355     2.463712     2.456069     2.448426     2.440783     2.433139     2.425496     2.417853     2.410210     2.402566
      2.394923     2.387280     2.379637     2.371994     2.364350     2.356707     2.349064     2.341421     2.333777     2.326134
      2.318491     2.310848     2.303205     2.295561     2.287918     2.280275     2.272632     2.264988     2.257345     2.249702
      2.242059     2.234416     2.226772     2.219129     2.211486     2.203843     2.196199     2.188556     2.180913     2.173270
      2.165627     2.157983     2.150340     2.142697     2.135054     2.127410     2.119767     2.112124     2.104481     2.096838
      2.089194     2.081551     2.073908     2.066265     2.058621     2.050978     2.043335     2.035692     2.028049     2.020405
      2.012762     2.005119     1.997476     1.989833     1.982190     1.974546     1.966903     1.959260     1.951617     1.943974
      1.936331     1.928688     1.921045     1.913402     1.905759     1.898115     1.890472     1.882829     1.875186     1.867543
      1.859900     1.852257     1.844614     1.836971     1.829327     1.821684     1.814041     1.806398     1.798755     1.791112
      1.783469     1.775826     1.768183     1.760540     1.752896     1.745253     1.737610     1.729967     1.722324     1.714681
      1.707038     1.699395     1.691752     1.684108     1.676465     1.668822     1.661179     1.653536     1.645893     1.638250
      1.630607     1.622964     1.615321     1.607677     1.600034     1.592391     1.584748     1.577105     1.569462     1.561819
      1.554176     1.546533     1.538890     1.531246     1.523603     1.515960     1.508317     1.500674     1.493031     1.485388
      1.477745     1.470102     1.462458     1.454815     1.447172     1.439529     1.431886     1.424243     1.416600     1.408957
      1.401314     1.393671     1.386027     1.378384     1.370741     1.363098     1.355455     1.347812     1.340169     1.332526
      1.324883     1.317240     1.309596     1.301953     1.294310     1.286667     1.279024     1.271381     1.263738     1.256095
      1.248452     1.240808     1.233165     1.225522     1.217879     1.210236     1.202593     1.194950     1.187307     1.179664
      1.172021     1.164377     1.156734     1.149091     1.141448     1.133805     1.126162     1.118519     1.110876     1.103233
      1.095590     1.087946     1.080303     1.072660     1.065017     1.057374     1.049731     1.042088     1.034445     1.026802
      1.019158     1.011515     1.003872     0.996229     0.988586     0.980943     0.973300     0.965657     0.958014     0.950371
      0.942727     0.935084     0.927441     0.919798     0.912155     0.904512     0.896869     0.889226     0.881583     0.873940
      0.866296     0.858653     0.851010     0.843367     0.835724     0.828081     0.820438     0.812795     0.805152     0.797508
      0.789865     0.782222     0.774579     0.766936     0.759293     0.751650     0.744007     0.736364     0.728721     0.721077
      0.713434     0.705791     0.698148     0.690505     0.682862     0.675219     0.667576     0.659933     0.652290     0.644646
      0.637003     0.629360     0.621717     0.614074     0.606431     0.598788     0.591145     0.583502     0.575858     0.568215
      0.560572     0.552929     0.545286     0.537643     0.530000     0.522357     0.514714     0.507071     0.499427     0.491784
      0.484141     0.476498     0.468855     0.461212     0.453569     0.445925     0.438282     0.430639     0.422996     0.415353
      0.407710     0.400067     0.392424     0.384780     0.377137     0.369494     0.361851     0.354208     0.346565     0.338922
      0.331278     0.323635     0.315992     0.308349     0.300706     0.293063     0.285420     0.277777     0.270133     0.262490
      0.254847     0.247204     0.239561     0.231918     0.224275     0.216631     0.208988     0.201345
 NY phased data points follow
  -2.68991E+00 -1.57613E+00 -7.79284E+00 -1.97163E+00 -3.82246E+00 -5.29711E+00 -3.75765E+00 -1.71449E+00 -5.25140E+00 -2.01749E+00
  -2.54310E-01 -7.13077E+00 -3.16751E+00 -2.88609E+00 -1.16264E+00 -4.28736E+00 -2.66554E+00  2.01693E+00 -2.27073E+00 -1.13862E+00
  -6.26301E-01  1.69259E+00 -5.95622E+00 -1.41375E+00 -3.93315E+00  1.74825E+00 -2.38983E+00 -3.51993E-01 -2.70059E+00  1.14413E+00
  -3.92656E+00  1.03551E-01 -5.17926E-01  3.51956E-01 -2.04666E+00 -4.05547E+00 -1.30057E+00 -5.97933E-01 -1.26927E+00  5.85340E-01
  -2.69327E+00  5.98390E-01  9.41672E-01 -1.20655E+00 -3.59758E+00  3.96462E-01 -1.50769E+00 -1.15856E+00 -2.90135E+00  8.64385E-01
  -2.50962E+00 -3.71172E+00  1.54562E-01 -3.49409E+00  3.36328E-01 -3.46851E-01  8.96531E-01  5.88277E-02 -1.22526E+00  2.92048E+00
  -2.95556E+00 -9.11429E-01 -7.69082E-02 -9.44308E-01  1.82726E+00 -5.85905E-01 -2.60208E+00 -1.65368E+00 -3.34717E-01 -1.27114E+00
  -1.82241E-01 -1.36745E+00 -3.30051E+00  2.37857E+00 -4.84372E-01 -3.00442E+00  1.09649E-01 -3.59869E+00 -1.53301E-01  1.00821E+00
  -1.81076E+00 -1.95257E+00  1.33115E+00 -3.20211E+00  2.69310E+00  1.02547E+00  7.66827E-01 -1.91641E+00  1.43507E+00 -4.13183E-01
  -1.44926E+00  2.35937E+00 -1.20066E+00 -8.89061E-01 -1.52201E+00  3.31103E+00  3.26229E+00 -8.56326E-01 -6.32856E-01  1.27706E+00
   4.19389E+00 -1.77683E+00 -1.45802E+00 -1.80219E+00 -1.85245E+00 -9.94207E-01  1.16386E-01  2.81884E+00  1.66474E+00  7.36015E-01
   2.38662E+00 -2.81534E+00  2.37901E+00  3.15490E+00  4.57957E-01  1.79228E-01  1.87088E+00 -2.85974E+00  4.48807E+00  3.49771E-02
  -1.39286E-01  3.02085E+00 -5.34851E-01  4.27154E-01 -5.08556E-01 -1.49283E+00 -9.56257E-01  9.19333E-01 -4.69768E-01 -2.78633E-01
  -7.21963E-01  3.96468E+00  3.19282E-01  2.99891E+00  3.31840E+00  5.14049E-01  1.07767E+00  6.06462E+00  2.56243E+00  7.28862E-01
   1.91449E+00  4.00204E+00  1.78282E+00 -7.71662E-01  4.73718E+00 -4.17876E-01  1.17873E+00  3.80852E-01  8.18375E-01 -1.32171E-01
   1.14858E+00  2.62895E+00  1.17142E+00 -7.33760E-01 -2.10461E+00  1.31923E+00 -9.25699E-01  2.14254E+00 -6.68573E-01  1.08950E+00
   1.34899E+00 -3.37724E-02  3.40193E+00  3.53486E-01  1.61170E+00 -1.45240E-01  2.11164E+00  5.95701E-01  3.44525E-01  4.67508E+00
   3.89856E+00  3.25316E+00  3.41262E+00  1.10556E+00  2.46361E+00  3.02677E+00  1.10285E+00 -1.67561E-02  1.96486E+00  3.78985E+00
  -8.19474E-01  2.91408E-01 -2.31412E+00  2.72910E-01 -7.89286E-01  1.28225E+00 -1.19768E+00 -2.18544E+00  1.02613E+00 -3.24214E-01
  -1.55670E+00  1.69778E+00 -3.83049E+00  1.37184E+00 -6.86497E-01 -1.41338E+00  6.62761E-01  2.33969E-01  2.63336E-01 -1.79374E+00
  -9.45768E-01  4.37611E+00  2.35873E+00 -1.21000E+00  1.16353E+00  2.41151E+00  3.31788E-01 -1.44935E-01  3.22515E+00  3.01401E+00
  -2.38328E+00 -1.59568E+00 -3.81092E-02 -5.11990E-01  9.83295E-01 -1.59680E+00  3.44418E+00  6.11156E-01  1.89195E+00 -9.65401E-01
  -2.13466E-01 -7.16575E-01  3.21220E-01  2.24210E+00  2.76245E+00  1.75006E+00 -3.14816E+00  7.74008E-01  3.24149E+00 -1.43154E-01
  -3.02161E-01  1.88049E+00  2.03250E+00 -5.13397E-01  2.17581E+00 -2.56297E+00 -4.41597E+00  2.49444E+00  1.61938E+00  2.89575E+00
  -3.81405E-01  9.52192E-01 -2.97260E-01 -1.30786E+00  4.48965E+00  1.98416E+00 -7.43466E-01  3.80099E+00  7.20456E-01  2.12888E+00
   2.99897E+00  2.00127E-01  1.98072E-03  8.78443E-01  2.98964E+00 -7.46930E-02 -2.58590E+00 -3.05748E+00 -5.19407E-01  2.05804E+00
   2.31952E+00 -2.79992E+00  2.97722E+00  1.43756E+00  2.99945E+00  4.82550E+00  4.06578E+00  1.77792E+00  5.37760E+00  5.16453E+00
   2.35582E+00  3.32934E-01  2.61257E+00  3.48688E+00 -5.86555E-01  4.23562E+00  3.65448E+00  1.54150E+00  3.60119E+00  4.54028E+00
   1.63274E+00  1.20775E+00 -1.87399E+00  3.49810E+00  1.71426E+00  2.09518E-01  6.19129E-01 -3.97193E-02 -6.03821E-01  2.36986E+00
   4.53466E+00  3.79687E-01  3.36241E-01  1.51895E+00 -2.09938E+00  2.56815E+00  2.09920E+00 -8.66663E-01 -1.38155E-01  1.49491E-01
  -1.55379E+00  6.39901E-01  1.55503E-01  4.30053E+00  2.68588E+00 -9.76551E-01  1.96497E-01 -2.48574E+00  1.38017E+00  4.47861E+00
   5.38398E+00  2.54671E+00  6.66141E+00  3.41481E+00  2.58928E+00  2.72404E+00  6.38090E+00  4.61623E+00  5.67533E+00  3.10643E+00
   5.06850E+00  6.50623E+00  5.28469E+00  8.88254E+00  9.42787E+00  9.95161E+00  7.40562E+00  8.11408E+00  1.02037E+01  1.14882E+01
   1.14833E+01  1.43088E+01  1.20571E+01  1.33534E+01  1.46775E+01  1.52145E+01  9.92862E+00  1.24104E+01  1.50588E+01  1.32443E+01
   1.75325E+01  1.43701E+01  1.66434E+01  1.86907E+01  1.72815E+01  1.80086E+01  1.96614E+01  2.17065E+01  1.94741E+01  1.98699E+01
   1.57554E+01  1.85198E+01  1.91611E+01  1.84910E+01  1.55483E+01  1.44921E+01  1.24541E+01  1.36572E+01  1.08008E+01  1.18431E+01
   1.39018E+01  1.30357E+01  9.39580E+00  8.17111E+00  6.63890E+00  5.98862E+00  5.65825E+00  3.13855E+00  6.82351E+00  7.01604E+00
   5.97160E+00  6.70069E+00  3.94191E+00  3.84159E+00  7.44467E+00  6.23985E+00  5.31042E+00  1.99902E+00  8.15442E+00  5.97563E+00
   2.35753E+00  2.45739E+00  4.53374E+00  6.63345E+00  3.85133E+00  1.55411E+00  3.54020E+00  2.05535E+00  3.68401E+00  2.47907E+00
   3.79881E+00  3.25241E+00  3.89350E+00  2.70412E-01  4.76165E+00  6.23546E+00  6.17498E+00  4.14230E+00  8.28602E+00  6.80092E+00
   3.40539E+00  7.63098E+00  1.99244E+00  5.10209E+00  5.53112E+00  2.59233E+00  7.43998E+00  5.03086E+00  6.39791E+00  4.88037E+00
   5.97193E+00  6.13010E+00  4.70258E+00  4.55140E+00  5.30958E+00  8.19902E+00  6.22650E+00  4.40561E+00  6.72237E+00  3.77201E+00
   5.36318E+00  5.93512E+00  3.61889E+00  4.36598E+00  3.63774E+00  1.46556E+00  3.39119E+00  3.82754E+00  3.24860E+00  3.49288E+00
   4.88752E+00  1.47203E+00  1.96645E-01  2.81264E+00  4.57350E+00  1.80964E+00  1.82435E+00  4.02151E+00 -1.66195E-01  1.67183E+00
   4.93991E+00  2.48006E+00 -3.48453E-01  3.38727E+00  2.40519E+00  6.66255E-01  1.80360E+00  2.32385E+00  5.33765E+00  2.95204E+00
   3.36601E+00 -3.69058E-01  1.45513E+00 -1.81984E-01  3.46746E+00  2.40564E+00  2.37438E+00  2.22322E+00  5.24695E+00  4.72107E+00
   2.22754E+00  3.41013E+00  1.92693E+00  3.07053E+00  5.34136E-01  1.57674E+00  2.72320E+00  1.93330E+00  3.58059E+00  1.43410E+00
   1.48618E+00  2.22000E+00  1.44593E+00  3.22141E+00  2.13335E+00  5.59120E+00  2.28679E+00  2.52639E+00  1.64943E+00  3.24857E+00
  -1.44621E+00  2.85688E+00  4.49891E+00  6.10119E-02  3.43556E+00 -1.57973E+00  4.59490E+00  5.74137E+00 -2.92879E-01  5.04343E+00
   2.51620E+00  1.78706E+00  2.78155E+00  8.85249E-01  2.16636E+00  5.32542E-01  6.30936E-01  8.73066E-02
 NY points of the fit to the data follow
  -2.14427E+00 -1.68087E+00 -2.06963E+00 -1.66799E+00 -1.92576E+00 -1.57667E+00 -1.77995E+00 -1.53428E+00 -1.71661E+00 -1.55710E+00
  -1.73706E+00 -1.60820E+00 -1.76184E+00 -1.55258E+00 -1.69915E+00 -1.42646E+00 -1.57898E+00 -1.25879E+00 -1.44132E+00 -1.09400E+00
  -1.33250E+00 -9.43336E-01 -1.22493E+00 -8.20778E-01 -1.13002E+00 -7.32257E-01 -1.05239E+00 -6.82225E-01 -9.98628E-01 -6.74770E-01
  -9.70927E-01 -7.11190E-01 -9.59268E-01 -7.45263E-01 -9.36747E-01 -7.83542E-01 -9.23225E-01 -8.34791E-01 -9.30220E-01 -9.05220E-01
  -9.64083E-01 -9.77284E-01 -9.86834E-01 -1.02312E+00 -9.88502E-01 -1.03294E+00 -9.71875E-01 -1.02032E+00 -9.83938E-01 -1.05731E+00
  -1.03086E+00 -1.10654E+00 -1.07979E+00 -1.13766E+00 -1.11988E+00 -1.12679E+00 -1.09280E+00 -1.07777E+00 -1.04610E+00 -1.01955E+00
  -9.98107E-01 -9.70446E-01 -9.69380E-01 -9.49331E-01 -9.51121E-01 -9.32950E-01 -9.35027E-01 -9.17319E-01 -9.17547E-01 -8.99711E-01
  -8.98083E-01 -8.81102E-01 -8.77556E-01 -8.61606E-01 -8.56172E-01 -8.40802E-01 -8.34321E-01 -8.20145E-01 -8.12956E-01 -7.99912E-01
  -7.91531E-01 -7.78517E-01 -7.68631E-01 -7.53417E-01 -7.34781E-01 -6.79928E-01 -6.19849E-01 -5.49399E-01 -4.47944E-01 -3.84430E-01
  -2.46121E-01 -2.04968E-01 -3.53572E-02 -2.56357E-02  1.70000E-01  1.44358E-01  3.60605E-01  2.97589E-01  5.28103E-01  4.26557E-01
   6.63367E-01  5.23058E-01  7.56117E-01  5.80477E-01  8.01099E-01  5.96064E-01  7.96361E-01  5.71667E-01  7.51508E-01  5.38250E-01
   6.88661E-01  4.96362E-01  6.10572E-01  4.48421E-01  5.25380E-01  4.01823E-01  4.45529E-01  3.59528E-01  3.68906E-01  3.19355E-01
   2.97269E-01  2.87334E-01  2.47140E-01  2.81084E-01  2.44774E-01  3.21197E-01  3.04576E-01  3.70439E-01  3.54520E-01  4.01787E-01
   3.86239E-01  4.11760E-01  3.97186E-01  3.99825E-01  3.88020E-01  3.69629E-01  3.62680E-01  3.27033E-01  3.26568E-01  2.78718E-01
   2.84986E-01  2.29328E-01  2.41807E-01  1.83338E-01  2.02446E-01  1.48026E-01  1.73701E-01  1.32281E-01  1.63807E-01  1.44748E-01
   1.72792E-01  1.60110E-01  1.81425E-01  1.74775E-01  1.89771E-01  1.88310E-01  1.96740E-01  1.95324E-01  1.93171E-01  1.91903E-01
   1.82766E-01  1.83039E-01  1.72763E-01  1.74143E-01  1.64720E-01  1.65060E-01  1.55323E-01  1.53208E-01  1.42501E-01  1.38352E-01
   1.26825E-01  1.22090E-01  1.12275E-01  1.09680E-01  1.03716E-01  1.03897E-01  1.00585E-01  1.02702E-01  1.00265E-01  1.02176E-01
   9.64595E-02  1.00439E-01  9.36626E-02  1.01687E-01  9.51301E-02  1.07871E-01  1.02045E-01  1.19491E-01  1.14509E-01  1.36242E-01
   1.32230E-01  1.57904E-01  1.55078E-01  1.84032E-01  1.82594E-01  2.14055E-01  2.14039E-01  2.46422E-01  2.48002E-01  2.80718E-01
   2.84834E-01  3.17687E-01  3.25279E-01  3.57934E-01  3.69612E-01  4.01652E-01  4.17603E-01  4.48708E-01  4.68292E-01  4.99765E-01
   5.24012E-01  5.56992E-01  5.86526E-01  6.19731E-01  6.50049E-01  6.82156E-01  7.10848E-01  7.42341E-01  7.69753E-01  8.03776E-01
   8.32409E-01  8.69014E-01  8.98801E-01  9.33995E-01  9.61685E-01  9.92882E-01  1.01681E+00  1.04451E+00  1.06832E+00  1.09415E+00
   1.11994E+00  1.14488E+00  1.17393E+00  1.19844E+00  1.23099E+00  1.25536E+00  1.29174E+00  1.31708E+00  1.35834E+00  1.38610E+00
   1.43235E+00  1.46303E+00  1.51336E+00  1.54667E+00  1.59925E+00  1.63424E+00  1.68655E+00  1.72108E+00  1.76949E+00  1.80034E+00
   1.84066E+00  1.86423E+00  1.89217E+00  1.90586E+00  1.91911E+00  1.92444E+00  1.92580E+00  1.92345E+00  1.91446E+00  1.90458E+00
   1.88616E+00  1.86606E+00  1.83657E+00  1.80884E+00  1.77274E+00  1.74140E+00  1.70325E+00  1.67240E+00  1.63750E+00  1.60918E+00
   1.57779E+00  1.55269E+00  1.52538E+00  1.50421E+00  1.48114E+00  1.46446E+00  1.44634E+00  1.43501E+00  1.42238E+00  1.41662E+00
   1.40954E+00  1.40933E+00  1.40775E+00  1.41304E+00  1.41689E+00  1.42755E+00  1.43670E+00  1.45259E+00  1.46693E+00  1.48795E+00
   1.50747E+00  1.53372E+00  1.55862E+00  1.59061E+00  1.62158E+00  1.66014E+00  1.69830E+00  1.74481E+00  1.79199E+00  1.84878E+00
   1.90791E+00  1.97882E+00  2.05512E+00  2.14721E+00  2.25052E+00  2.37806E+00  2.53049E+00  2.73256E+00  3.01980E+00  3.41273E+00
   3.64022E+00  4.11381E+00  4.18071E+00  4.67349E+00  4.52539E+00  4.97522E+00  4.57498E+00  5.19224E+00  4.70999E+00  5.53027E+00
   5.03015E+00  6.03114E+00  5.54458E+00  6.68783E+00  6.23683E+00  7.48674E+00  7.12277E+00  8.50007E+00  8.39666E+00  1.01463E+01
   1.00564E+01  1.17617E+01  1.15561E+01  1.29628E+01  1.25872E+01  1.35098E+01  1.29724E+01  1.39227E+01  1.34834E+01  1.45939E+01
   1.43139E+01  1.55829E+01  1.54491E+01  1.68226E+01  1.67642E+01  1.81406E+01  1.80364E+01  1.92964E+01  1.89578E+01  1.99273E+01
   1.90498E+01  1.94774E+01  1.81058E+01  1.80426E+01  1.63277E+01  1.59746E+01  1.41747E+01  1.38547E+01  1.22787E+01  1.19856E+01
   1.06811E+01  1.04171E+01  9.41661E+00  9.19098E+00  8.50183E+00  8.35667E+00  7.95468E+00  7.92487E+00  7.71575E+00  7.73289E+00
   7.38480E+00  6.99290E+00  6.55023E+00  5.91706E+00  5.43711E+00  4.78301E+00  4.37017E+00  4.09639E+00  3.89327E+00  3.74327E+00
   3.62708E+00  3.54421E+00  3.48331E+00  3.44825E+00  3.43035E+00  3.43515E+00  3.45503E+00  3.49622E+00  3.55156E+00  3.62749E+00
   3.71684E+00  3.82576E+00  3.94666E+00  4.08508E+00  4.23273E+00  4.39432E+00  4.56069E+00  4.73555E+00  4.90885E+00  5.08353E+00
   5.24894E+00  5.40762E+00  5.54880E+00  5.67519E+00  5.77655E+00  5.85645E+00  5.90584E+00  5.92968E+00  5.92054E+00  5.88508E+00
   5.81764E+00  5.72654E+00  5.60768E+00  5.47069E+00  5.31249E+00  5.14340E+00  4.96076E+00  4.77495E+00  4.58308E+00  4.39504E+00
   4.20723E+00  4.02867E+00  3.85487E+00  3.69387E+00  3.54025E+00  3.40115E+00  3.27033E+00  3.15424E+00  3.04611E+00  2.95191E+00
   2.86455E+00  2.78975E+00  2.72030E+00  2.66185E+00  2.60722E+00  2.56208E+00  2.51934E+00  2.48477E+00  2.45138E+00  2.42507E+00
   2.39899E+00  2.37912E+00  2.35872E+00  2.34385E+00  2.32787E+00  2.31693E+00  2.30444E+00  2.29660E+00  2.28688E+00  2.28151E+00
   2.27402E+00  2.27064E+00  2.26497E+00  2.26324E+00  2.25906E+00  2.25867E+00  2.25572E+00  2.25647E+00  2.25458E+00  2.25628E+00
   2.25526E+00  2.25777E+00  2.25751E+00  2.26072E+00  2.26111E+00  2.26492E+00  2.26587E+00  2.27019E+00  2.27165E+00  2.27643E+00
   2.27832E+00  2.28350E+00  2.28577E+00  2.29131E+00  2.29392E+00  2.29978E+00  2.30270E+00  2.30884E+00  2.31202E+00  2.31842E+00
   2.32186E+00  2.32849E+00  2.33215E+00  2.33900E+00  2.34287E+00  2.34991E+00  2.35398E+00  2.36120E+00  2.36545E+00  2.37284E+00
   2.37727E+00  2.38485E+00  2.38945E+00  2.39720E+00  2.40199E+00  2.40993E+00  2.41494E+00  2.42312E+00
 NY background values follow
    -1.641E+00   -1.633E+00   -1.625E+00   -1.617E+00   -1.609E+00   -1.601E+00   -1.593E+00   -1.585E+00   -1.577E+00   -1.569E+00
    -1.561E+00   -1.553E+00   -1.545E+00   -1.537E+00   -1.528E+00   -1.520E+00   -1.512E+00   -1.504E+00   -1.496E+00   -1.488E+00
    -1.480E+00   -1.472E+00   -1.464E+00   -1.456E+00   -1.448E+00   -1.440E+00   -1.432E+00   -1.424E+00   -1.416E+00   -1.408E+00
    -1.400E+00   -1.392E+00   -1.384E+00   -1.376E+00   -1.368E+00   -1.360E+00   -1.352E+00   -1.344E+00   -1.336E+00   -1.328E+00
    -1.320E+00   -1.312E+00   -1.304E+00   -1.296E+00   -1.288E+00   -1.279E+00   -1.271E+00   -1.263E+00   -1.255E+00   -1.247E+00
    -1.239E+00   -1.231E+00   -1.223E+00   -1.215E+00   -1.207E+00   -1.199E+00   -1.191E+00   -1.183E+00   -1.175E+00   -1.167E+00
    -1.159E+00   -1.151E+00   -1.143E+00   -1.135E+00   -1.127E+00   -1.119E+00   -1.111E+00   -1.103E+00   -1.095E+00   -1.087E+00
    -1.079E+00   -1.071E+00   -1.063E+00   -1.055E+00   -1.047E+00   -1.039E+00   -1.031E+00   -1.023E+00   -1.015E+00   -1.007E+00
    -9.985E-01   -9.905E-01   -9.825E-01   -9.744E-01   -9.664E-01   -9.584E-01   -9.504E-01   -9.423E-01   -9.343E-01   -9.263E-01
    -9.183E-01   -9.103E-01   -9.022E-01   -8.942E-01   -8.862E-01   -8.782E-01   -8.701E-01   -8.621E-01   -8.541E-01   -8.461E-01
    -8.381E-01   -8.301E-01   -8.220E-01   -8.140E-01   -8.060E-01   -7.980E-01   -7.900E-01   -7.819E-01   -7.739E-01   -7.659E-01
    -7.579E-01   -7.499E-01   -7.419E-01   -7.338E-01   -7.258E-01   -7.178E-01   -7.098E-01   -7.018E-01   -6.938E-01   -6.858E-01
    -6.777E-01   -6.697E-01   -6.617E-01   -6.537E-01   -6.457E-01   -6.377E-01   -6.297E-01   -6.217E-01   -6.137E-01   -6.057E-01
    -5.976E-01   -5.896E-01   -5.816E-01   -5.736E-01   -5.656E-01   -5.576E-01   -5.496E-01   -5.416E-01   -5.336E-01   -5.256E-01
    -5.176E-01   -5.096E-01   -5.016E-01   -4.936E-01   -4.856E-01   -4.776E-01   -4.695E-01   -4.615E-01   -4.535E-01   -4.455E-01
    -4.375E-01   -4.295E-01   -4.215E-01   -4.135E-01   -4.055E-01   -3.975E-01   -3.895E-01   -3.815E-01   -3.735E-01   -3.655E-01
    -3.575E-01   -3.495E-01   -3.415E-01   -3.335E-01   -3.255E-01   -3.175E-01   -3.095E-01   -3.016E-01   -2.936E-01   -2.856E-01
    -2.776E-01   -2.696E-01   -2.616E-01   -2.536E-01   -2.456E-01   -2.376E-01   -2.296E-01   -2.216E-01   -2.136E-01   -2.056E-01
    -1.976E-01   -1.896E-01   -1.816E-01   -1.736E-01   -1.657E-01   -1.577E-01   -1.497E-01   -1.417E-01   -1.337E-01   -1.257E-01
    -1.177E-01   -1.097E-01   -1.017E-01   -9.373E-02   -8.575E-02   -7.776E-02   -6.977E-02   -6.178E-02   -5.379E-02   -4.580E-02
    -3.781E-02   -2.982E-02   -2.184E-02   -1.385E-02   -5.863E-03    2.125E-03    1.011E-02    1.810E-02    2.608E-02    3.407E-02
     4.206E-02    5.004E-02    5.803E-02    6.601E-02    7.400E-02    8.198E-02    8.997E-02    9.795E-02    1.059E-01    1.139E-01
     1.219E-01    1.299E-01    1.379E-01    1.459E-01    1.538E-01    1.618E-01    1.698E-01    1.778E-01    1.858E-01    1.938E-01
     2.017E-01    2.097E-01    2.177E-01    2.257E-01    2.337E-01    2.416E-01    2.496E-01    2.576E-01    2.656E-01    2.736E-01
     2.816E-01    2.895E-01    2.975E-01    3.055E-01    3.135E-01    3.215E-01    3.294E-01    3.374E-01    3.454E-01    3.534E-01
     3.614E-01    3.693E-01    3.773E-01    3.853E-01    3.933E-01    4.012E-01    4.092E-01    4.172E-01    4.252E-01    4.332E-01
     4.411E-01    4.491E-01    4.571E-01    4.651E-01    4.730E-01    4.810E-01    4.890E-01    4.970E-01    5.050E-01    5.129E-01
     5.209E-01    5.289E-01    5.369E-01    5.448E-01    5.528E-01    5.608E-01    5.688E-01    5.768E-01    5.847E-01    5.927E-01
     6.007E-01    6.087E-01    6.166E-01    6.246E-01    6.326E-01    6.406E-01    6.485E-01    6.565E-01    6.645E-01    6.725E-01
     6.804E-01    6.884E-01    6.964E-01    7.044E-01    7.123E-01    7.203E-01    7.283E-01    7.363E-01    7.442E-01    7.522E-01
     7.602E-01    7.682E-01    7.761E-01    7.841E-01    7.921E-01    8.001E-01    8.080E-01    8.160E-01    8.240E-01    8.319E-01
     8.399E-01    8.479E-01    8.559E-01    8.638E-01    8.718E-01    8.798E-01    8.878E-01    8.957E-01    9.037E-01    9.117E-01
     9.196E-01    9.276E-01    9.356E-01    9.436E-01    9.515E-01    9.595E-01    9.675E-01    9.755E-01    9.834E-01    9.914E-01
     9.994E-01    1.007E+00    1.015E+00    1.023E+00    1.031E+00    1.039E+00    1.047E+00    1.055E+00    1.063E+00    1.071E+00
     1.079E+00    1.087E+00    1.095E+00    1.103E+00    1.111E+00    1.119E+00    1.127E+00    1.135E+00    1.143E+00    1.151E+00
     1.159E+00    1.167E+00    1.175E+00    1.183E+00    1.191E+00    1.199E+00    1.207E+00    1.215E+00    1.223E+00    1.231E+00
     1.239E+00    1.246E+00    1.254E+00    1.262E+00    1.270E+00    1.278E+00    1.286E+00    1.294E+00    1.302E+00    1.310E+00
     1.318E+00    1.326E+00    1.334E+00    1.342E+00    1.350E+00    1.358E+00    1.366E+00    1.374E+00    1.382E+00    1.390E+00
     1.398E+00    1.406E+00    1.414E+00    1.422E+00    1.430E+00    1.438E+00    1.446E+00    1.454E+00    1.462E+00    1.470E+00
     1.478E+00    1.486E+00    1.494E+00    1.502E+00    1.510E+00    1.517E+00    1.525E+00    1.533E+00    1.541E+00    1.549E+00
     1.557E+00    1.565E+00    1.573E+00    1.581E+00    1.589E+00    1.597E+00    1.605E+00    1.613E+00    1.621E+00    1.629E+00
     1.637E+00    1.645E+00    1.653E+00    1.661E+00    1.669E+00    1.677E+00    1.685E+00    1.693E+00    1.701E+00    1.709E+00
     1.717E+00    1.725E+00    1.733E+00    1.741E+00    1.749E+00    1.757E+00    1.765E+00    1.772E+00    1.780E+00    1.788E+00
     1.796E+00    1.804E+00    1.812E+00    1.820E+00    1.828E+00    1.836E+00    1.844E+00    1.852E+00    1.860E+00    1.868E+00
     1.876E+00    1.884E+00    1.892E+00    1.900E+00    1.908E+00    1.916E+00    1.924E+00    1.932E+00    1.940E+00    1.948E+00
     1.956E+00    1.964E+00    1.972E+00    1.980E+00    1.988E+00    1.996E+00    2.004E+00    2.012E+00    2.020E+00    2.028E+00
     2.035E+00    2.043E+00    2.051E+00    2.059E+00    2.067E+00    2.075E+00    2.083E+00    2.091E+00    2.099E+00    2.107E+00
     2.115E+00    2.123E+00    2.131E+00    2.139E+00    2.147E+00    2.155E+00    2.163E+00    2.171E+00    2.179E+00    2.187E+00
     2.195E+00    2.203E+00    2.211E+00    2.219E+00    2.227E+00    2.235E+00    2.243E+00    2.251E+00    2.259E+00    2.267E+00
     2.275E+00    2.282E+00    2.290E+00    2.298E+00    2.306E+00    2.314E+00    2.322E+00    2.330E+00
 Ala      Conc. = 1.08E+03
