 LCModel (Version 6.3-1L) Copyright: S.W. Provencher.          Ref.: Magn. Reson. Med. 30:672-679 (1993).                
 Slice#2 Row#8 Col#12  K_02_press_1_raw_act
 36 lines in following concentration table = NCONC+1
    Conc.  %SD /Cr+PCr  Metabolite                                         
  111.391  82%   0.237 Ala                                                 
    0.000 999%   0.000 Asp                                                 
  135.338 114%   0.288 Cr                                                  
  334.904  47%   0.712 PCr                                                 
   16.329 670% 3.5E-02 GABA                                                
  132.129  83%   0.281 Glc                                                 
  423.271  43%   0.900 Gln                                                 
 1.51E+03  15%   3.215 Glu                                                 
  140.796  12%   0.299 GPC                                                 
    0.000 999%   0.000 PCh                                                 
  169.139  35%   0.360 GSH                                                 
  671.478  28%   1.428 Ins                                                 
    0.000 999%   0.000 Lac                                                 
 2.65E+03   8%   5.635 NAA                                                 
  197.346 105%   0.420 NAAG                                                
   56.956  36%   0.121 Scyllo                                              
  300.198  49%   0.638 Tau                                                 
  257.296  28%   0.547 -CrCH2                                              
  140.796  12%   0.299 GPC+PCh                                             
 2.85E+03   3%   6.055 NAA+NAAG                                            
  470.242  10%   1.000 Cr+PCr                                              
 1.94E+03  16%   4.115 Glu+Gln                                             
 2.71E+03  27%   5.761 Lip13a                                              
    0.000 999%   0.000 Lip13b                                              
  714.159  28%   1.519 Lip09                                               
 1.12E+03  23%   2.385 MM09                                                
  411.017  27%   0.874 Lip20                                               
 2.61E+03  13%   5.542 MM20                                                
  282.871  70%   0.602 MM12                                                
 4.06E+03  15%   8.634+MM14                                                
 1.10E+03  27%   2.342 MM17                                                
 2.71E+03  27%   5.761 Lip13a+Lip13b                                       
 7.05E+03   6%  14.997 MM14+Lip13a+Lip13b+MM12                             
 1.84E+03   9%   3.903 MM09+Lip09                                          
 3.02E+03  10%   6.416 MM20+Lip20                                          
   6 lines in following misc. output table
  FWHM = 0.046 ppm    S/N =  18                                            
  Data shift =-0.008 ppm                                                   
  Ph: -41 deg     -21.2 deg/ppm                                            
  alphaB,S = 1.9E+01,   5.5E+01                                            
   14 spline knots.   Ns = 7(1)                                            
  (10) 2 infls.   ( 3) 1 extrs.                                            
  498 points on ppm-axis = NY
      4.000000     3.992357     3.984714     3.977070     3.969427     3.961784     3.954141     3.946497     3.938854     3.931211
      3.923568     3.915925     3.908281     3.900638     3.892995     3.885352     3.877708     3.870065     3.862422     3.854779
      3.847136     3.839492     3.831849     3.824206     3.816563     3.808919     3.801276     3.793633     3.785990     3.778347
      3.770703     3.763060     3.755417     3.747774     3.740130     3.732487     3.724844     3.717201     3.709558     3.701914
      3.694271     3.686628     3.678985     3.671341     3.663698     3.656055     3.648412     3.640769     3.633125     3.625482
      3.617839     3.610196     3.602552     3.594909     3.587266     3.579623     3.571980     3.564336     3.556693     3.549050
      3.541407     3.533763     3.526120     3.518477     3.510834     3.503191     3.495547     3.487904     3.480261     3.472618
      3.464974     3.457331     3.449688     3.442045     3.434402     3.426758     3.419115     3.411472     3.403829     3.396185
      3.388542     3.380899     3.373256     3.365613     3.357969     3.350326     3.342683     3.335040     3.327396     3.319753
      3.312110     3.304467     3.296824     3.289180     3.281537     3.273894     3.266251     3.258607     3.250964     3.243321
      3.235678     3.228034     3.220391     3.212748     3.205105     3.197462     3.189818     3.182175     3.174532     3.166889
      3.159245     3.151602     3.143959     3.136316     3.128673     3.121029     3.113386     3.105743     3.098100     3.090456
      3.082813     3.075170     3.067527     3.059884     3.052240     3.044597     3.036954     3.029311     3.021667     3.014024
      3.006381     2.998738     2.991095     2.983451     2.975808     2.968165     2.960522     2.952878     2.945235     2.937592
      2.929949     2.922306     2.914662     2.907019     2.899376     2.891733     2.884089     2.876446     2.868803     2.861160
      2.853517     2.845873     2.838230     2.830587     2.822944     2.815300     2.807657     2.800014     2.792371     2.784728
      2.777084     2.769441     2.761798     2.754155     2.746511     2.738868     2.731225     2.723582     2.715939     2.708295
      2.700652     2.693009     2.685366     2.677722     2.670079     2.662436     2.654793     2.647150     2.639506     2.631863
      2.624220     2.616577     2.608933     2.601290     2.593647     2.586004     2.578361     2.570717     2.563074     2.555431
      2.547788     2.540144     2.532501     2.524858     2.517215     2.509572     2.501928     2.494285     2.486642     2.478999
      2.471355     2.463712     2.456069     2.448426     2.440783     2.433139     2.425496     2.417853     2.410210     2.402566
      2.394923     2.387280     2.379637     2.371994     2.364350     2.356707     2.349064     2.341421     2.333777     2.326134
      2.318491     2.310848     2.303205     2.295561     2.287918     2.280275     2.272632     2.264988     2.257345     2.249702
      2.242059     2.234416     2.226772     2.219129     2.211486     2.203843     2.196199     2.188556     2.180913     2.173270
      2.165627     2.157983     2.150340     2.142697     2.135054     2.127410     2.119767     2.112124     2.104481     2.096838
      2.089194     2.081551     2.073908     2.066265     2.058621     2.050978     2.043335     2.035692     2.028049     2.020405
      2.012762     2.005119     1.997476     1.989833     1.982190     1.974546     1.966903     1.959260     1.951617     1.943974
      1.936331     1.928688     1.921045     1.913402     1.905759     1.898115     1.890472     1.882829     1.875186     1.867543
      1.859900     1.852257     1.844614     1.836971     1.829327     1.821684     1.814041     1.806398     1.798755     1.791112
      1.783469     1.775826     1.768183     1.760540     1.752896     1.745253     1.737610     1.729967     1.722324     1.714681
      1.707038     1.699395     1.691752     1.684108     1.676465     1.668822     1.661179     1.653536     1.645893     1.638250
      1.630607     1.622964     1.615321     1.607677     1.600034     1.592391     1.584748     1.577105     1.569462     1.561819
      1.554176     1.546533     1.538890     1.531246     1.523603     1.515960     1.508317     1.500674     1.493031     1.485388
      1.477745     1.470102     1.462458     1.454815     1.447172     1.439529     1.431886     1.424243     1.416600     1.408957
      1.401314     1.393671     1.386027     1.378384     1.370741     1.363098     1.355455     1.347812     1.340169     1.332526
      1.324883     1.317240     1.309596     1.301953     1.294310     1.286667     1.279024     1.271381     1.263738     1.256095
      1.248452     1.240808     1.233165     1.225522     1.217879     1.210236     1.202593     1.194950     1.187307     1.179664
      1.172021     1.164377     1.156734     1.149091     1.141448     1.133805     1.126162     1.118519     1.110876     1.103233
      1.095590     1.087946     1.080303     1.072660     1.065017     1.057374     1.049731     1.042088     1.034445     1.026802
      1.019158     1.011515     1.003872     0.996229     0.988586     0.980943     0.973300     0.965657     0.958014     0.950371
      0.942727     0.935084     0.927441     0.919798     0.912155     0.904512     0.896869     0.889226     0.881583     0.873940
      0.866296     0.858653     0.851010     0.843367     0.835724     0.828081     0.820438     0.812795     0.805152     0.797508
      0.789865     0.782222     0.774579     0.766936     0.759293     0.751650     0.744007     0.736364     0.728721     0.721077
      0.713434     0.705791     0.698148     0.690505     0.682862     0.675219     0.667576     0.659933     0.652290     0.644646
      0.637003     0.629360     0.621717     0.614074     0.606431     0.598788     0.591145     0.583502     0.575858     0.568215
      0.560572     0.552929     0.545286     0.537643     0.530000     0.522357     0.514714     0.507071     0.499427     0.491784
      0.484141     0.476498     0.468855     0.461212     0.453569     0.445925     0.438282     0.430639     0.422996     0.415353
      0.407710     0.400067     0.392424     0.384780     0.377137     0.369494     0.361851     0.354208     0.346565     0.338922
      0.331278     0.323635     0.315992     0.308349     0.300706     0.293063     0.285420     0.277777     0.270133     0.262490
      0.254847     0.247204     0.239561     0.231918     0.224275     0.216631     0.208988     0.201345
 NY phased data points follow
   6.41965E+00  5.96924E+00  8.60469E+00  6.13678E+00  7.22100E+00  7.94550E+00  9.07879E+00  9.57399E+00  6.99649E+00  1.16556E+01
   8.04645E+00  8.13036E+00  1.03746E+01  8.08567E+00  8.87505E+00  7.29172E+00  8.00592E+00  1.13629E+01  9.63217E+00  6.83247E+00
   9.53757E+00  4.79649E+00  8.24393E+00  8.89142E+00  6.84935E+00  1.27039E+01  9.34329E+00  1.18761E+01  6.58336E+00  9.23408E+00
   8.62005E+00  8.40237E+00  7.11784E+00  1.04649E+01  9.07130E+00  6.28183E+00  8.06819E+00  1.21630E+01  7.96743E+00  7.05721E+00
   6.22185E+00  6.74543E+00  7.50296E+00  1.21169E+01  8.00516E+00  1.13758E+01  9.86796E+00  1.26000E+01  9.58375E+00  9.11093E+00
   7.80407E+00  9.99931E+00  9.79706E+00  6.90093E+00  7.87355E+00  8.56597E+00  6.39766E+00  8.05725E+00  7.45492E+00  7.43205E+00
   1.08287E+01  4.35356E+00  1.05545E+01  8.77627E+00  8.01543E+00  7.33771E+00  9.37578E+00  8.04001E+00  9.29751E+00  5.73512E+00
   7.32929E+00  7.75326E+00  5.71368E+00  5.14483E+00  9.67358E+00  9.04251E+00  5.78971E+00  6.74530E+00  7.30406E+00  1.16275E+01
   7.77651E+00  5.91151E+00  9.78115E+00  7.70714E+00  6.71729E+00  9.49542E+00  5.72650E+00  6.56383E+00  7.24648E+00  7.61184E+00
   1.28760E+01  9.03642E+00  9.27580E+00  8.51422E+00  7.58138E+00  6.62646E+00  1.10086E+01  9.38766E+00  9.79645E+00  7.25020E+00
   1.22221E+01  1.59016E+01  1.72770E+01  2.29039E+01  2.12345E+01  1.72278E+01  1.28316E+01  5.74139E+00  1.02324E+01  6.90128E+00
   4.64233E+00  1.16007E+01  7.19789E+00  7.94629E+00  8.03491E+00  7.00356E+00  9.17992E+00  5.62902E+00  7.03224E+00  4.36856E+00
   1.25518E+01  8.40345E+00  1.05154E+01  8.86819E+00  1.38188E+01  1.90109E+01  2.47072E+01  2.43291E+01  2.48481E+01  1.99135E+01
   1.72082E+01  1.19508E+01  1.30674E+01  1.19764E+01  1.26086E+01  1.08069E+01  5.87976E+00  9.42564E+00  1.14189E+01  7.64122E+00
   1.20726E+01  8.56530E+00  1.02483E+01  8.39048E+00  9.86899E+00  9.28991E+00  7.51953E+00  8.08351E+00  5.04510E+00  8.51153E+00
   5.46587E+00  5.39896E+00  8.79112E+00  6.69178E+00  8.17589E+00  7.98640E+00  7.49583E+00  8.97728E+00  6.10269E+00  7.83217E+00
   8.62688E+00  6.03849E+00  4.35948E+00  4.33542E+00  1.11180E+00  9.78970E+00  4.23086E+00  2.96020E+00  1.42229E+00 -3.79942E-01
  -3.49852E+00 -4.09296E+00 -3.08242E+00 -4.80419E+00 -4.11763E+00 -5.30033E+00 -3.46398E+00 -5.14691E+00 -1.72740E+00 -3.94167E+00
  -5.36018E-01  1.12443E+00  3.30466E-01 -3.17911E+00 -2.09298E+00 -1.46280E+00 -4.44483E-01 -1.30954E+00 -6.55307E-01 -9.90964E-02
   2.44258E+00  2.92077E+00  6.01535E+00  2.07470E+00  3.06693E+00  3.03219E+00 -8.20667E-01 -1.05251E+00 -3.10224E+00 -3.11928E+00
   3.02148E+00  3.77493E+00  3.44802E+00  7.96236E+00  4.32286E+00  6.69723E+00  8.00641E+00  3.49541E+00  1.86183E+00  2.87837E+00
   6.56858E+00  4.78194E+00  6.91795E+00  1.42582E+01  1.69104E+01  1.88025E+01  1.83032E+01  1.82511E+01  1.41316E+01  6.13226E+00
   2.25400E+00  1.48216E-02  1.68882E+00  6.69334E+00  8.39373E+00  5.48520E+00  1.03436E+01  1.08722E+01  1.32829E+01  1.28129E+01
   1.58976E+01  1.52986E+01  1.42714E+01  1.48030E+01  1.11898E+01  1.40416E+01  1.27707E+01  1.60638E+01  1.33365E+01  1.00239E+01
   1.32869E+01  1.22571E+01  8.60120E+00  9.80683E+00  1.21116E+01  1.59846E+01  1.75783E+01  2.06048E+01  1.77652E+01  1.74545E+01
   1.95886E+01  2.04758E+01  2.33902E+01  2.72819E+01  3.72256E+01  4.49087E+01  5.65330E+01  7.64065E+01  9.50099E+01  1.08584E+02
   1.13563E+02  1.06734E+02  8.88326E+01  6.70647E+01  5.23350E+01  3.77750E+01  3.14290E+01  1.92757E+01  1.46202E+01  1.22069E+01
   1.00964E+01  1.20601E+01  9.80863E+00  9.34028E+00  1.27754E+01  9.68465E+00  8.85469E+00  7.33665E+00  4.86044E+00  4.41992E+00
   9.30696E+00  7.41840E+00  5.23140E+00  7.84413E+00  7.32414E+00  4.83783E+00  4.44564E+00  5.27332E+00  9.53786E+00  9.79470E+00
   1.05559E+01  9.91660E+00  7.74100E+00  9.61668E+00  1.02871E+01  1.17164E+01  7.87284E+00  6.27149E+00  8.01023E+00  6.77592E+00
   1.16042E+01  1.12802E+01  1.56747E+01  1.05044E+01  9.44765E+00  1.31391E+01  1.18161E+01  1.42654E+01  1.09075E+01  1.39584E+01
   1.28940E+01  1.59916E+01  1.43617E+01  1.41799E+01  1.13426E+01  1.29879E+01  1.25140E+01  1.63770E+01  1.74272E+01  1.75694E+01
   2.08503E+01  1.97958E+01  2.17055E+01  1.90360E+01  2.39667E+01  2.62593E+01  2.76535E+01  2.70971E+01  2.43983E+01  2.95385E+01
   3.20711E+01  3.20470E+01  3.16301E+01  3.11443E+01  3.44080E+01  3.21294E+01  3.65540E+01  3.49143E+01  3.69219E+01  3.58163E+01
   3.56223E+01  3.91011E+01  4.11365E+01  4.01234E+01  4.53318E+01  4.24518E+01  3.91128E+01  3.69596E+01  3.47136E+01  3.30556E+01
   3.25878E+01  3.09303E+01  3.27910E+01  2.82650E+01  2.81911E+01  2.49547E+01  1.95052E+01  1.89454E+01  2.28272E+01  1.80521E+01
   1.61113E+01  1.43181E+01  1.85278E+01  1.80492E+01  1.61462E+01  1.77960E+01  1.67254E+01  1.31628E+01  1.41567E+01  1.62793E+01
   1.22441E+01  1.39015E+01  1.26546E+01  1.17182E+01  1.71464E+01  1.04618E+01  1.09878E+01  1.04633E+01  7.73912E+00  1.30943E+01
   8.68693E+00  7.59234E+00  9.00584E+00  9.39144E+00  1.01386E+01  3.11395E+00  7.41223E+00  1.13496E+01  9.88804E+00  1.41427E+01
   9.40412E+00  1.14579E+01  1.17633E+01  1.09190E+01  1.09497E+01  1.49747E+01  1.81109E+01  1.46813E+01  1.69273E+01  1.42977E+01
   1.25121E+01  1.37384E+01  1.69660E+01  1.87256E+01  1.52811E+01  1.86575E+01  1.80194E+01  1.75751E+01  1.45405E+01  1.77177E+01
   1.66026E+01  1.83112E+01  1.58531E+01  1.77181E+01  1.35645E+01  1.47319E+01  1.61241E+01  1.31298E+01  1.28088E+01  1.16186E+01
   8.79301E+00  9.01073E+00  1.07733E+01  1.00765E+01  7.57470E+00  1.11504E+01  1.16429E+01  9.90705E+00  3.46289E+00  9.07213E+00
   5.86298E+00  6.92529E+00  7.49658E+00  7.71937E+00  9.10642E+00  7.00871E+00  9.98833E+00  5.55766E+00  2.48087E+00  7.37710E+00
   7.77622E+00  3.39360E+00  7.34082E+00  5.93865E+00  6.57600E+00  4.37788E+00  5.70310E+00  5.04981E+00  7.43662E+00  6.73822E+00
   5.13537E+00  6.92980E+00  6.61603E+00  6.30532E+00  2.54572E+00  4.94297E+00  6.53207E+00  8.31572E+00  4.98950E+00  6.78549E+00
   6.44826E+00  7.48473E+00  5.71942E+00  4.92013E+00  8.86783E+00  2.58413E+00  7.80330E+00  7.19039E+00  5.65078E+00  6.75767E+00
   2.99419E+00  5.80840E+00  5.32127E+00  4.04036E+00  8.92186E+00  4.64866E+00  5.77954E+00  3.05866E+00  4.25999E+00  4.22388E+00
   3.70407E+00  3.38007E+00  5.84275E+00  6.44444E+00  5.00542E+00  6.18805E+00  8.42900E+00  3.64825E+00  8.06520E+00  4.28856E+00
   7.09120E+00  4.20756E+00  5.27746E+00  3.28409E+00  6.74124E+00  6.94107E+00  8.57895E+00  4.95124E+00
 NY points of the fit to the data follow
   6.37012E+00  6.19952E+00  6.21332E+00  6.36303E+00  6.68811E+00  7.24293E+00  7.92456E+00  8.66622E+00  9.46179E+00  1.01820E+01
   1.06117E+01  1.06213E+01  1.02290E+01  9.54628E+00  8.75842E+00  8.05503E+00  7.54624E+00  7.25131E+00  7.13065E+00  7.14135E+00
   7.30183E+00  7.48170E+00  7.67436E+00  7.89505E+00  7.94555E+00  7.86313E+00  7.90557E+00  8.23921E+00  8.90118E+00  9.87721E+00
   1.10747E+01  1.21258E+01  1.25723E+01  1.22567E+01  1.12348E+01  9.68323E+00  7.93983E+00  6.50489E+00  5.75506E+00  5.69815E+00
   6.16452E+00  6.88386E+00  7.63528E+00  8.47383E+00  9.50016E+00  1.05958E+01  1.14475E+01  1.17118E+01  1.12419E+01  1.01622E+01
   8.80994E+00  7.60239E+00  6.81108E+00  6.39865E+00  6.20438E+00  6.20498E+00  6.44650E+00  6.87808E+00  7.35698E+00  7.74141E+00
   7.91629E+00  7.80394E+00  7.48571E+00  7.11086E+00  6.83736E+00  6.76258E+00  6.82262E+00  6.91500E+00  7.06130E+00  7.29512E+00
   7.55098E+00  7.82602E+00  8.17039E+00  8.50345E+00  8.67850E+00  8.63024E+00  8.32165E+00  7.78503E+00  7.19609E+00  6.82033E+00
   6.79076E+00  6.98516E+00  7.33635E+00  7.84061E+00  8.35846E+00  8.65314E+00  8.58553E+00  8.15857E+00  7.49377E+00  6.82597E+00
   6.34147E+00  6.06239E+00  5.89592E+00  5.70963E+00  5.59291E+00  5.83500E+00  6.70632E+00  7.89237E+00  9.18702E+00  1.10818E+01
   1.38081E+01  1.67553E+01  1.89888E+01  1.98161E+01  1.89112E+01  1.65704E+01  1.37624E+01  1.14213E+01  9.79907E+00  8.58528E+00
   7.51058E+00  6.73979E+00  6.40249E+00  6.30521E+00  6.27852E+00  6.27415E+00  6.28817E+00  6.33367E+00  6.43439E+00  6.70281E+00
   7.48035E+00  8.67627E+00  1.01602E+01  1.24756E+01  1.58824E+01  1.96104E+01  2.25021E+01  2.37034E+01  2.28233E+01  2.02361E+01
   1.70449E+01  1.42482E+01  1.21329E+01  1.03846E+01  8.73200E+00  7.42546E+00  6.76103E+00  6.61826E+00  6.76405E+00  7.02161E+00
   7.24565E+00  7.36668E+00  7.36919E+00  7.26203E+00  7.09758E+00  6.92826E+00  6.76963E+00  6.61773E+00  6.46969E+00  6.33716E+00
   6.21964E+00  6.11149E+00  6.02763E+00  5.95136E+00  5.82839E+00  5.72718E+00  5.61633E+00  5.34625E+00  4.88278E+00  4.29627E+00
   3.85447E+00  3.83357E+00  4.22221E+00  4.69369E+00  4.88236E+00  4.59408E+00  3.87846E+00  3.03532E+00  2.34685E+00  1.79792E+00
   1.34502E+00  9.22837E-01  3.84744E-01 -2.08844E-01 -6.64255E-01 -7.47820E-01 -4.43831E-01  2.31501E-02  3.82794E-01  4.76762E-01
   3.32387E-01  2.65704E-01  4.56784E-01  7.77595E-01  1.08547E+00  1.51313E+00  2.29803E+00  3.53446E+00  5.08311E+00  6.53751E+00
   7.50543E+00  7.85057E+00  7.80367E+00  7.65066E+00  7.46927E+00  7.19518E+00  6.94059E+00  6.87432E+00  7.01256E+00  7.45628E+00
   8.29618E+00  9.34870E+00  1.02477E+01  1.05885E+01  1.02267E+01  9.07144E+00  7.12966E+00  4.91291E+00  3.03235E+00  1.92016E+00
   1.72361E+00  2.54548E+00  4.59305E+00  7.60118E+00  1.07165E+01  1.28687E+01  1.33280E+01  1.19875E+01  9.15577E+00  5.52879E+00
   2.17877E+00  1.99673E-02 -5.05405E-01  6.21970E-01  3.12626E+00  6.30950E+00  9.18050E+00  1.11000E+01  1.20586E+01  1.24117E+01
   1.24811E+01  1.23266E+01  1.21150E+01  1.21635E+01  1.25356E+01  1.30497E+01  1.35198E+01  1.38830E+01  1.40295E+01  1.38104E+01
   1.32979E+01  1.28856E+01  1.29201E+01  1.34539E+01  1.43689E+01  1.54887E+01  1.65450E+01  1.72940E+01  1.77735E+01  1.83279E+01
   1.91009E+01  2.02383E+01  2.26405E+01  2.85076E+01  3.63989E+01  4.48738E+01  5.72869E+01  7.53619E+01  9.46466E+01  1.08735E+02
   1.13245E+02  1.05985E+02  8.88087E+01  6.83500E+01  5.11147E+01  3.90109E+01  2.99821E+01  2.20354E+01  1.62034E+01  1.33740E+01
   1.21874E+01  1.15103E+01  1.11154E+01  1.08930E+01  1.07069E+01  1.04754E+01  1.01754E+01  9.81409E+00  9.43218E+00  9.07836E+00
   8.76972E+00  8.50612E+00  8.29919E+00  8.15401E+00  8.04979E+00  7.96232E+00  7.88425E+00  7.82424E+00  7.79386E+00  7.79760E+00
   7.83811E+00  7.91793E+00  8.03446E+00  8.18167E+00  8.35409E+00  8.54886E+00  8.76729E+00  9.01327E+00  9.28947E+00  9.59635E+00
   9.93418E+00  1.02996E+01  1.06839E+01  1.10776E+01  1.14728E+01  1.18636E+01  1.22448E+01  1.26115E+01  1.29606E+01  1.32919E+01
   1.36064E+01  1.39067E+01  1.41984E+01  1.44894E+01  1.47908E+01  1.51163E+01  1.54816E+01  1.59042E+01  1.64034E+01  1.70026E+01
   1.77344E+01  1.86087E+01  1.95874E+01  2.07050E+01  2.19720E+01  2.32778E+01  2.44811E+01  2.55244E+01  2.64436E+01  2.73682E+01
   2.83959E+01  2.95999E+01  3.10364E+01  3.26811E+01  3.44093E+01  3.60885E+01  3.75871E+01  3.87277E+01  3.94110E+01  3.96973E+01
   3.97044E+01  3.95083E+01  3.91157E+01  3.85211E+01  3.77743E+01  3.69241E+01  3.59827E+01  3.49595E+01  3.38709E+01  3.27344E+01
   3.15664E+01  3.03812E+01  2.91912E+01  2.80066E+01  2.68359E+01  2.56852E+01  2.45593E+01  2.34616E+01  2.23951E+01  2.13623E+01
   2.03656E+01  1.94069E+01  1.84880E+01  1.76106E+01  1.67766E+01  1.59878E+01  1.52457E+01  1.45514E+01  1.39054E+01  1.33083E+01
   1.27604E+01  1.22615E+01  1.18114E+01  1.14090E+01  1.10535E+01  1.07440E+01  1.04797E+01  1.02600E+01  1.00840E+01  9.95106E+00
   9.86076E+00  9.81310E+00  9.80842E+00  9.84699E+00  9.92924E+00  1.00555E+01  1.02265E+01  1.04425E+01  1.07037E+01  1.10096E+01
   1.13590E+01  1.17495E+01  1.21783E+01  1.26410E+01  1.31321E+01  1.36444E+01  1.41692E+01  1.46967E+01  1.52165E+01  1.57168E+01
   1.61857E+01  1.66109E+01  1.69810E+01  1.72852E+01  1.75149E+01  1.76627E+01  1.77236E+01  1.76951E+01  1.75772E+01  1.73727E+01
   1.70868E+01  1.67266E+01  1.63011E+01  1.58204E+01  1.52957E+01  1.47385E+01  1.41603E+01  1.35718E+01  1.29828E+01  1.24020E+01
   1.18370E+01  1.12939E+01  1.07776E+01  1.02911E+01  9.83657E+00  9.41491E+00  9.02639E+00  8.67035E+00  8.34556E+00  8.05019E+00
   7.78233E+00  7.53988E+00  7.32088E+00  7.12315E+00  6.94459E+00  6.78312E+00  6.63699E+00  6.50459E+00  6.38456E+00  6.27546E+00
   6.17605E+00  6.08515E+00  6.00193E+00  5.92561E+00  5.85554E+00  5.79094E+00  5.73122E+00  5.67580E+00  5.62440E+00  5.57665E+00
   5.53226E+00  5.49077E+00  5.45190E+00  5.41541E+00  5.38124E+00  5.34918E+00  5.31907E+00  5.29059E+00  5.26365E+00  5.23814E+00
   5.21410E+00  5.19135E+00  5.16979E+00  5.14920E+00  5.12959E+00  5.11094E+00  5.09327E+00  5.07643E+00  5.06033E+00  5.04484E+00
   5.03003E+00  5.01590E+00  5.00247E+00  4.98958E+00  4.97717E+00  4.96517E+00  4.95369E+00  4.94273E+00  4.93226E+00  4.92211E+00
   4.91230E+00  4.90279E+00  4.89372E+00  4.88502E+00  4.87667E+00  4.86853E+00  4.86064E+00  4.85300E+00  4.84574E+00  4.83876E+00
   4.83202E+00  4.82541E+00  4.81902E+00  4.81288E+00  4.80706E+00  4.80146E+00  4.79603E+00  4.79072E+00
 NY background values follow
     4.463E+00    4.462E+00    4.462E+00    4.461E+00    4.461E+00    4.460E+00    4.460E+00    4.459E+00    4.459E+00    4.458E+00
     4.458E+00    4.457E+00    4.457E+00    4.456E+00    4.456E+00    4.455E+00    4.455E+00    4.454E+00    4.454E+00    4.453E+00
     4.453E+00    4.452E+00    4.452E+00    4.451E+00    4.451E+00    4.450E+00    4.450E+00    4.449E+00    4.449E+00    4.448E+00
     4.448E+00    4.447E+00    4.447E+00    4.446E+00    4.446E+00    4.445E+00    4.445E+00    4.444E+00    4.444E+00    4.443E+00
     4.443E+00    4.442E+00    4.442E+00    4.441E+00    4.441E+00    4.440E+00    4.440E+00    4.439E+00    4.439E+00    4.438E+00
     4.438E+00    4.437E+00    4.437E+00    4.436E+00    4.436E+00    4.435E+00    4.435E+00    4.434E+00    4.434E+00    4.433E+00
     4.433E+00    4.432E+00    4.432E+00    4.431E+00    4.431E+00    4.430E+00    4.430E+00    4.429E+00    4.429E+00    4.428E+00
     4.428E+00    4.427E+00    4.427E+00    4.426E+00    4.426E+00    4.425E+00    4.425E+00    4.424E+00    4.424E+00    4.423E+00
     4.423E+00    4.422E+00    4.422E+00    4.421E+00    4.421E+00    4.420E+00    4.420E+00    4.419E+00    4.419E+00    4.418E+00
     4.418E+00    4.417E+00    4.417E+00    4.416E+00    4.416E+00    4.415E+00    4.415E+00    4.414E+00    4.414E+00    4.413E+00
     4.413E+00    4.412E+00    4.412E+00    4.411E+00    4.411E+00    4.410E+00    4.410E+00    4.409E+00    4.409E+00    4.408E+00
     4.408E+00    4.407E+00    4.407E+00    4.406E+00    4.406E+00    4.406E+00    4.405E+00    4.405E+00    4.404E+00    4.404E+00
     4.403E+00    4.403E+00    4.402E+00    4.402E+00    4.401E+00    4.401E+00    4.400E+00    4.400E+00    4.400E+00    4.399E+00
     4.399E+00    4.398E+00    4.398E+00    4.397E+00    4.397E+00    4.396E+00    4.396E+00    4.395E+00    4.395E+00    4.395E+00
     4.394E+00    4.394E+00    4.393E+00    4.393E+00    4.392E+00    4.392E+00    4.392E+00    4.391E+00    4.391E+00    4.390E+00
     4.390E+00    4.389E+00    4.389E+00    4.389E+00    4.388E+00    4.388E+00    4.387E+00    4.387E+00    4.387E+00    4.386E+00
     4.386E+00    4.385E+00    4.385E+00    4.385E+00    4.384E+00    4.384E+00    4.383E+00    4.383E+00    4.383E+00    4.382E+00
     4.382E+00    4.382E+00    4.381E+00    4.381E+00    4.381E+00    4.380E+00    4.380E+00    4.380E+00    4.379E+00    4.379E+00
     4.379E+00    4.378E+00    4.378E+00    4.378E+00    4.377E+00    4.377E+00    4.377E+00    4.377E+00    4.376E+00    4.376E+00
     4.376E+00    4.375E+00    4.375E+00    4.375E+00    4.375E+00    4.374E+00    4.374E+00    4.374E+00    4.374E+00    4.373E+00
     4.373E+00    4.373E+00    4.373E+00    4.372E+00    4.372E+00    4.372E+00    4.372E+00    4.372E+00    4.371E+00    4.371E+00
     4.371E+00    4.371E+00    4.371E+00    4.370E+00    4.370E+00    4.370E+00    4.370E+00    4.370E+00    4.370E+00    4.369E+00
     4.369E+00    4.369E+00    4.369E+00    4.369E+00    4.369E+00    4.369E+00    4.368E+00    4.368E+00    4.368E+00    4.368E+00
     4.368E+00    4.368E+00    4.368E+00    4.368E+00    4.367E+00    4.367E+00    4.367E+00    4.367E+00    4.367E+00    4.367E+00
     4.367E+00    4.367E+00    4.367E+00    4.367E+00    4.367E+00    4.366E+00    4.366E+00    4.366E+00    4.366E+00    4.366E+00
     4.366E+00    4.366E+00    4.366E+00    4.366E+00    4.366E+00    4.366E+00    4.366E+00    4.366E+00    4.366E+00    4.366E+00
     4.366E+00    4.366E+00    4.366E+00    4.366E+00    4.366E+00    4.366E+00    4.366E+00    4.366E+00    4.366E+00    4.366E+00
     4.366E+00    4.366E+00    4.366E+00    4.366E+00    4.366E+00    4.366E+00    4.366E+00    4.366E+00    4.366E+00    4.366E+00
     4.366E+00    4.366E+00    4.366E+00    4.367E+00    4.367E+00    4.367E+00    4.367E+00    4.367E+00    4.367E+00    4.367E+00
     4.367E+00    4.367E+00    4.367E+00    4.367E+00    4.367E+00    4.368E+00    4.368E+00    4.368E+00    4.368E+00    4.368E+00
     4.368E+00    4.368E+00    4.368E+00    4.368E+00    4.369E+00    4.369E+00    4.369E+00    4.369E+00    4.369E+00    4.369E+00
     4.369E+00    4.370E+00    4.370E+00    4.370E+00    4.370E+00    4.370E+00    4.370E+00    4.371E+00    4.371E+00    4.371E+00
     4.371E+00    4.371E+00    4.371E+00    4.372E+00    4.372E+00    4.372E+00    4.372E+00    4.372E+00    4.373E+00    4.373E+00
     4.373E+00    4.373E+00    4.373E+00    4.374E+00    4.374E+00    4.374E+00    4.374E+00    4.374E+00    4.375E+00    4.375E+00
     4.375E+00    4.375E+00    4.376E+00    4.376E+00    4.376E+00    4.376E+00    4.376E+00    4.377E+00    4.377E+00    4.377E+00
     4.377E+00    4.378E+00    4.378E+00    4.378E+00    4.378E+00    4.379E+00    4.379E+00    4.379E+00    4.380E+00    4.380E+00
     4.380E+00    4.380E+00    4.381E+00    4.381E+00    4.381E+00    4.381E+00    4.382E+00    4.382E+00    4.382E+00    4.383E+00
     4.383E+00    4.383E+00    4.383E+00    4.384E+00    4.384E+00    4.384E+00    4.385E+00    4.385E+00    4.385E+00    4.386E+00
     4.386E+00    4.386E+00    4.386E+00    4.387E+00    4.387E+00    4.387E+00    4.388E+00    4.388E+00    4.388E+00    4.389E+00
     4.389E+00    4.389E+00    4.390E+00    4.390E+00    4.390E+00    4.391E+00    4.391E+00    4.391E+00    4.392E+00    4.392E+00
     4.392E+00    4.393E+00    4.393E+00    4.393E+00    4.394E+00    4.394E+00    4.395E+00    4.395E+00    4.395E+00    4.396E+00
     4.396E+00    4.396E+00    4.397E+00    4.397E+00    4.397E+00    4.398E+00    4.398E+00    4.399E+00    4.399E+00    4.399E+00
     4.400E+00    4.400E+00    4.400E+00    4.401E+00    4.401E+00    4.402E+00    4.402E+00    4.402E+00    4.403E+00    4.403E+00
     4.404E+00    4.404E+00    4.404E+00    4.405E+00    4.405E+00    4.405E+00    4.406E+00    4.406E+00    4.407E+00    4.407E+00
     4.407E+00    4.408E+00    4.408E+00    4.409E+00    4.409E+00    4.409E+00    4.410E+00    4.410E+00    4.411E+00    4.411E+00
     4.411E+00    4.412E+00    4.412E+00    4.413E+00    4.413E+00    4.413E+00    4.414E+00    4.414E+00    4.415E+00    4.415E+00
     4.415E+00    4.416E+00    4.416E+00    4.417E+00    4.417E+00    4.418E+00    4.418E+00    4.418E+00    4.419E+00    4.419E+00
     4.420E+00    4.420E+00    4.420E+00    4.421E+00    4.421E+00    4.422E+00    4.422E+00    4.422E+00    4.423E+00    4.423E+00
     4.424E+00    4.424E+00    4.425E+00    4.425E+00    4.425E+00    4.426E+00    4.426E+00    4.427E+00    4.427E+00    4.427E+00
     4.428E+00    4.428E+00    4.429E+00    4.429E+00    4.430E+00    4.430E+00    4.430E+00    4.431E+00
 Ala      Conc. = 1.11E+02
