 LCModel (Version 6.3-1L) Copyright: S.W. Provencher.          Ref.: Magn. Reson. Med. 30:672-679 (1993).                
 Slice#2 Row#4 Col#1  K_02_press_1_raw_act
 36 lines in following concentration table = NCONC+1
    Conc.  %SD /Cr+PCr  Metabolite                                         
  327.066 127%   6.336 Ala                                                 
    2.722 186% 5.3E-02 Asp                                                 
    0.000 999%   0.000 Cr                                                  
   51.621 112%   1.000 PCr                                                 
    1.419 214% 2.7E-02 GABA                                                
    1.531 199% 3.0E-02 Glc                                                 
    0.000 999%   0.000 Gln                                                 
 3.53E+03  21%  68.313 Glu                                                 
    0.000 999%   0.000 GPC                                                 
    0.000 999%   0.000 PCh                                                 
    0.000 999%   0.000 GSH                                                 
   67.756 378%   1.313 Ins                                                 
 1.67E+03  23%  32.388 Lac                                                 
    0.000 999%   0.000 NAA                                                 
    0.000 999%   0.000 NAAG                                                
    0.513 198% 9.9E-03 Scyllo                                              
    2.512 203% 4.9E-02 Tau                                                 
    0.000 999%   0.000 -CrCH2                                              
    0.000 999%   0.000 GPC+PCh                                             
    0.000 999%   0.000 NAA+NAAG                                            
   51.621 112%   1.000 Cr+PCr                                              
 3.53E+03  21%  68.313 Glu+Gln                                             
    0.000 999%   0.000 Lip13a                                              
    0.000 999%   0.000 Lip13b                                              
    0.000 999%   0.000 Lip09                                               
   37.379 134%   0.724 MM09                                                
    0.000 999%   0.000 Lip20                                               
    0.000 999%   0.000 MM20                                                
    9.227 288%   0.179 MM12                                                
   38.076 262%   0.738 MM14                                                
  188.466  32%   3.651 MM17                                                
    0.000 999%   0.000 Lip13a+Lip13b                                       
   47.303 230%   0.916 MM14+Lip13a+Lip13b+MM12                             
   37.379 134%   0.724 MM09+Lip09                                          
    0.000 999%   0.000 MM20+Lip20                                          
   6 lines in following misc. output table
  FWHM = 0.168 ppm    S/N =   1                                            
  Data shift = 0.015 ppm                                                   
  Ph: 179 deg      87.6 deg/ppm                                            
  alphaB,S = 4.4E-01,   2.0E+02                                            
    9 spline knots.   Ns = 9(2)                                            
  ( 5) 2 infls.   ( 1) 1 extrs.                                            
  498 points on ppm-axis = NY
      4.000000     3.992357     3.984714     3.977070     3.969427     3.961784     3.954141     3.946497     3.938854     3.931211
      3.923568     3.915925     3.908281     3.900638     3.892995     3.885352     3.877708     3.870065     3.862422     3.854779
      3.847136     3.839492     3.831849     3.824206     3.816563     3.808919     3.801276     3.793633     3.785990     3.778347
      3.770703     3.763060     3.755417     3.747774     3.740130     3.732487     3.724844     3.717201     3.709558     3.701914
      3.694271     3.686628     3.678985     3.671341     3.663698     3.656055     3.648412     3.640769     3.633125     3.625482
      3.617839     3.610196     3.602552     3.594909     3.587266     3.579623     3.571980     3.564336     3.556693     3.549050
      3.541407     3.533763     3.526120     3.518477     3.510834     3.503191     3.495547     3.487904     3.480261     3.472618
      3.464974     3.457331     3.449688     3.442045     3.434402     3.426758     3.419115     3.411472     3.403829     3.396185
      3.388542     3.380899     3.373256     3.365613     3.357969     3.350326     3.342683     3.335040     3.327396     3.319753
      3.312110     3.304467     3.296824     3.289180     3.281537     3.273894     3.266251     3.258607     3.250964     3.243321
      3.235678     3.228034     3.220391     3.212748     3.205105     3.197462     3.189818     3.182175     3.174532     3.166889
      3.159245     3.151602     3.143959     3.136316     3.128673     3.121029     3.113386     3.105743     3.098100     3.090456
      3.082813     3.075170     3.067527     3.059884     3.052240     3.044597     3.036954     3.029311     3.021667     3.014024
      3.006381     2.998738     2.991095     2.983451     2.975808     2.968165     2.960522     2.952878     2.945235     2.937592
      2.929949     2.922306     2.914662     2.907019     2.899376     2.891733     2.884089     2.876446     2.868803     2.861160
      2.853517     2.845873     2.838230     2.830587     2.822944     2.815300     2.807657     2.800014     2.792371     2.784728
      2.777084     2.769441     2.761798     2.754155     2.746511     2.738868     2.731225     2.723582     2.715939     2.708295
      2.700652     2.693009     2.685366     2.677722     2.670079     2.662436     2.654793     2.647150     2.639506     2.631863
      2.624220     2.616577     2.608933     2.601290     2.593647     2.586004     2.578361     2.570717     2.563074     2.555431
      2.547788     2.540144     2.532501     2.524858     2.517215     2.509572     2.501928     2.494285     2.486642     2.478999
      2.471355     2.463712     2.456069     2.448426     2.440783     2.433139     2.425496     2.417853     2.410210     2.402566
      2.394923     2.387280     2.379637     2.371994     2.364350     2.356707     2.349064     2.341421     2.333777     2.326134
      2.318491     2.310848     2.303205     2.295561     2.287918     2.280275     2.272632     2.264988     2.257345     2.249702
      2.242059     2.234416     2.226772     2.219129     2.211486     2.203843     2.196199     2.188556     2.180913     2.173270
      2.165627     2.157983     2.150340     2.142697     2.135054     2.127410     2.119767     2.112124     2.104481     2.096838
      2.089194     2.081551     2.073908     2.066265     2.058621     2.050978     2.043335     2.035692     2.028049     2.020405
      2.012762     2.005119     1.997476     1.989833     1.982190     1.974546     1.966903     1.959260     1.951617     1.943974
      1.936331     1.928688     1.921045     1.913402     1.905759     1.898115     1.890472     1.882829     1.875186     1.867543
      1.859900     1.852257     1.844614     1.836971     1.829327     1.821684     1.814041     1.806398     1.798755     1.791112
      1.783469     1.775826     1.768183     1.760540     1.752896     1.745253     1.737610     1.729967     1.722324     1.714681
      1.707038     1.699395     1.691752     1.684108     1.676465     1.668822     1.661179     1.653536     1.645893     1.638250
      1.630607     1.622964     1.615321     1.607677     1.600034     1.592391     1.584748     1.577105     1.569462     1.561819
      1.554176     1.546533     1.538890     1.531246     1.523603     1.515960     1.508317     1.500674     1.493031     1.485388
      1.477745     1.470102     1.462458     1.454815     1.447172     1.439529     1.431886     1.424243     1.416600     1.408957
      1.401314     1.393671     1.386027     1.378384     1.370741     1.363098     1.355455     1.347812     1.340169     1.332526
      1.324883     1.317240     1.309596     1.301953     1.294310     1.286667     1.279024     1.271381     1.263738     1.256095
      1.248452     1.240808     1.233165     1.225522     1.217879     1.210236     1.202593     1.194950     1.187307     1.179664
      1.172021     1.164377     1.156734     1.149091     1.141448     1.133805     1.126162     1.118519     1.110876     1.103233
      1.095590     1.087946     1.080303     1.072660     1.065017     1.057374     1.049731     1.042088     1.034445     1.026802
      1.019158     1.011515     1.003872     0.996229     0.988586     0.980943     0.973300     0.965657     0.958014     0.950371
      0.942727     0.935084     0.927441     0.919798     0.912155     0.904512     0.896869     0.889226     0.881583     0.873940
      0.866296     0.858653     0.851010     0.843367     0.835724     0.828081     0.820438     0.812795     0.805152     0.797508
      0.789865     0.782222     0.774579     0.766936     0.759293     0.751650     0.744007     0.736364     0.728721     0.721077
      0.713434     0.705791     0.698148     0.690505     0.682862     0.675219     0.667576     0.659933     0.652290     0.644646
      0.637003     0.629360     0.621717     0.614074     0.606431     0.598788     0.591145     0.583502     0.575858     0.568215
      0.560572     0.552929     0.545286     0.537643     0.530000     0.522357     0.514714     0.507071     0.499427     0.491784
      0.484141     0.476498     0.468855     0.461212     0.453569     0.445925     0.438282     0.430639     0.422996     0.415353
      0.407710     0.400067     0.392424     0.384780     0.377137     0.369494     0.361851     0.354208     0.346565     0.338922
      0.331278     0.323635     0.315992     0.308349     0.300706     0.293063     0.285420     0.277777     0.270133     0.262490
      0.254847     0.247204     0.239561     0.231918     0.224275     0.216631     0.208988     0.201345
 NY phased data points follow
   3.37875E+01  3.29243E+01  2.73965E+01  3.12739E+01  3.05196E+01  2.95255E+01  2.84800E+01  2.89127E+01  2.81488E+01  2.90270E+01
   2.95033E+01  2.86386E+01  2.87813E+01  3.19643E+01  2.54935E+01  2.61060E+01  2.33670E+01  2.22676E+01  2.52533E+01  2.47659E+01
   2.72092E+01  2.48480E+01  2.26186E+01  2.43866E+01  2.34672E+01  2.23805E+01  2.22137E+01  2.18987E+01  2.06081E+01  2.31517E+01
   1.91134E+01  2.27726E+01  1.81419E+01  1.76238E+01  1.89665E+01  2.12186E+01  1.71389E+01  1.65025E+01  2.06394E+01  1.72760E+01
   1.81100E+01  1.64360E+01  1.58476E+01  1.62241E+01  1.53881E+01  1.63539E+01  1.65422E+01  1.79244E+01  1.45356E+01  1.38312E+01
   1.23674E+01  1.16623E+01  1.25241E+01  1.36364E+01  1.25150E+01  1.54827E+01  1.03894E+01  1.10447E+01  1.00556E+01  1.27658E+01
   1.18954E+01  1.15311E+01  8.28357E+00  1.16172E+01  5.30431E+00  9.80272E+00  8.82948E+00  1.08726E+01  8.64052E+00  9.44885E+00
   9.46029E+00  1.09218E+01  1.00291E+01  7.42786E+00  5.91792E+00  6.73027E+00  5.07245E+00  6.17592E+00  8.53351E+00  8.26327E+00
   5.22907E+00  9.82396E+00  3.82191E+00  5.52950E+00  4.12686E-01  7.28711E+00  6.75528E+00  6.40141E+00  5.16915E+00  7.41004E+00
   3.49975E+00  3.95568E+00  1.89527E+00  3.47474E+00  4.46877E+00  4.97283E+00  3.33344E+00  2.39960E+00  6.45624E+00  9.39355E+00
   4.27198E+00  4.96074E+00  1.82840E+00  3.02769E+00  1.60025E+00 -2.10771E-01  3.62630E+00  3.36254E+00  2.45231E+00  2.71248E+00
   1.71956E+00  2.22372E+00  3.82047E+00  2.65905E+00  5.72985E-01  3.93815E+00  4.24793E+00  5.32108E+00  1.19908E+00  4.96628E+00
   3.49210E-01  5.21777E+00  1.36352E+00  3.59102E+00  6.15751E+00  7.30096E+00  2.23511E+00  2.44966E+00  6.97080E-01  3.00027E+00
   2.54042E+00  4.50336E+00  9.50657E-01  1.79981E+00  2.56573E-01  3.28723E+00  4.78274E+00 -1.12746E+00  1.45787E+00  1.06115E+00
   1.08193E+00  5.76698E-01  2.35353E+00  2.21658E+00  4.28751E+00  3.59151E+00 -1.00505E+00  1.08899E+00 -1.76999E+00 -5.91232E-01
  -7.18241E-04 -2.02626E+00 -3.07398E+00  9.04306E-01  1.99546E+00 -2.15068E-01 -5.92412E-02  1.01586E+00 -3.98921E-01 -2.14273E+00
   1.34150E+00  1.60130E+00 -7.73699E-01 -8.58352E-01  2.43338E+00  1.17887E+00 -8.18220E-01  2.59020E+00 -8.81917E-01  8.26969E-01
  -1.26114E+00  1.54433E+00 -8.00423E-01  2.12167E-01  1.25617E+00  3.04482E+00  1.40176E+00  3.66065E-01  2.58583E+00  1.34570E-01
   1.79422E+00  3.60624E+00  2.89466E+00  5.20098E+00  1.62707E+00  1.68404E+00  3.66976E+00  5.55109E-01  1.00802E+00  1.45296E+00
   4.17088E+00  1.30939E-01  5.70026E+00  5.58783E-01  4.03206E+00 -1.75690E+00  2.95781E+00  8.26056E-02  2.92147E+00 -2.54123E+00
  -8.31706E-01  6.96346E-01 -2.62309E+00 -5.75390E+00 -2.22878E+00  5.39781E-01 -6.34639E+00 -4.66370E+00 -4.06341E+00 -5.01064E+00
  -6.88643E+00 -4.76594E+00 -4.71744E+00 -5.37795E+00 -5.91002E+00 -8.21667E+00 -7.96083E+00 -7.61274E+00 -9.51104E+00 -1.02933E+01
  -1.37951E+01 -1.05455E+01 -1.12457E+01 -1.17037E+01 -1.35491E+01 -1.04467E+01 -1.57803E+01 -1.63975E+01 -1.55821E+01 -1.48750E+01
  -1.51846E+01 -1.54705E+01 -1.56899E+01 -1.35470E+01 -1.24833E+01 -1.39686E+01 -1.59738E+01 -1.62615E+01 -1.71625E+01 -1.67503E+01
  -1.49525E+01 -1.73854E+01 -1.35212E+01 -1.62886E+01 -1.53102E+01 -1.80921E+01 -1.58587E+01 -1.36930E+01 -1.85124E+01 -1.73712E+01
  -1.95096E+01 -1.64661E+01 -1.82671E+01 -1.77337E+01 -1.58612E+01 -1.31823E+01 -1.72360E+01 -1.55312E+01 -1.94466E+01 -1.77105E+01
  -2.24762E+01 -1.82105E+01 -1.84116E+01 -1.55629E+01 -1.43559E+01 -1.34995E+01 -1.29470E+01 -1.27192E+01 -1.78143E+01 -1.31610E+01
  -1.18798E+01 -1.41360E+01 -1.21615E+01 -1.33007E+01 -1.17340E+01 -1.12940E+01 -1.08978E+01 -1.23853E+01 -1.46219E+01 -1.30528E+01
  -8.31226E+00 -9.28679E+00 -1.00038E+01 -1.03283E+01 -7.99144E+00 -9.45897E+00 -1.14435E+01 -1.29453E+01 -1.23687E+01 -5.86194E+00
  -7.11325E+00 -1.01749E+01 -8.86270E+00 -1.01050E+01 -6.16239E+00 -9.93465E+00 -7.09430E+00 -1.05564E+01 -7.02724E+00 -6.70115E+00
  -9.09921E+00 -5.39122E+00 -7.71308E+00 -5.48004E+00 -8.20271E+00 -7.59981E+00 -8.59989E+00 -7.98974E+00 -5.50659E+00 -8.05036E+00
  -6.40631E+00 -1.12172E+01 -6.07697E+00 -8.45648E+00 -6.32382E+00 -8.94703E+00 -7.82806E+00 -9.77419E+00 -6.25917E+00 -9.12341E+00
  -7.40667E+00 -8.98786E+00 -7.90834E+00 -5.72393E+00 -6.46227E+00 -5.02163E+00 -6.85177E+00 -5.46660E+00 -5.38593E+00 -6.55975E+00
  -6.23827E+00 -2.62670E+00 -3.15990E+00 -2.35942E+00 -1.98121E+00  1.45209E+00 -5.27082E+00 -1.31155E+00 -3.42279E+00 -1.60052E+00
  -2.61279E-01 -4.55599E-01 -3.36259E+00 -5.66052E+00 -6.00011E+00 -4.53206E+00 -4.75822E+00 -2.50531E+00 -1.88235E+00 -7.96146E-01
  -2.63021E+00 -2.98966E+00 -4.97609E+00 -1.57857E+00 -4.27829E+00 -2.36368E+00 -4.72622E+00 -2.29378E+00  4.98534E-01  1.60327E+00
  -4.60431E+00 -1.95330E+00 -2.27327E+00  1.59062E+00 -1.72980E+00  1.29122E+00  1.67715E+00  1.28308E+00  2.71587E+00  1.89020E+00
  -1.34698E+00 -8.05336E-02  8.87658E-01 -2.44213E+00 -5.35252E-01 -3.12825E+00 -2.77176E+00 -2.60718E+00 -5.17874E-01 -3.22356E+00
  -2.67841E+00 -1.72018E+00  1.27081E+00 -4.25056E+00  5.82313E-01 -4.66672E+00  1.47638E-01 -1.44837E+00  1.42834E-01  1.31162E-01
   3.13004E-01 -1.23607E+00 -2.28749E+00  1.69579E+00  1.10519E+00  2.68015E-01  2.78290E+00 -1.37178E-01 -2.80243E-01  6.83464E-01
   1.52920E+00 -8.44746E-01  8.75384E-01 -1.26867E+00  6.77852E-01 -1.10247E+00  1.25598E+00  1.02070E+00  6.49297E-01  2.73632E+00
   5.98065E-01  9.97088E-02  3.00004E+00  5.09366E-02 -5.48558E-01  4.84636E-01  3.17900E+00  4.41862E+00  1.69167E+00  1.49400E+00
   1.09338E+00  2.60606E+00  5.65732E+00  8.38583E-01  2.55993E+00  3.90342E+00  1.18026E+00  1.40053E+00  2.34036E+00  9.25987E-01
   3.47806E+00  4.51876E+00  3.71187E+00  3.57031E+00  4.83868E+00  1.67742E+00  4.27906E+00  1.59565E+00  1.78153E+00  2.54358E+00
   5.84144E+00  2.56293E+00  1.06838E+00  2.84538E+00  7.10414E+00  8.70616E+00  3.61547E+00  3.15322E+00  5.10173E+00  3.69396E+00
   6.01372E+00  5.42483E+00  5.19335E+00  3.10546E+00  5.56625E+00  2.37543E+00  5.98135E+00  5.16943E+00  7.41439E+00  1.61416E+00
   5.96546E+00  3.54210E+00  1.34097E+00  3.97066E+00  6.67638E+00  3.09126E+00  5.02952E+00  3.60413E+00  4.97605E+00  3.93058E+00
   3.61196E+00  2.63369E+00  6.02597E+00  7.00799E+00  7.18479E+00  2.26586E+00  5.61725E+00  3.18332E+00  5.91251E+00  1.69538E+00
   4.89767E+00  6.98659E+00  2.99999E+00  1.69743E+00  4.20806E+00  3.67273E+00  5.12085E+00  2.80304E+00  2.37272E+00  1.87816E+00
   4.42555E+00  1.85365E+00  2.35131E+00  4.05184E+00  4.87071E+00  7.50438E+00  3.55610E+00  3.84403E+00
 NY points of the fit to the data follow
   3.00920E+01  2.97164E+01  2.95036E+01  2.91715E+01  2.89247E+01  2.86004E+01  2.82900E+01  2.80141E+01  2.76943E+01  2.74860E+01
   2.71222E+01  2.69770E+01  2.65390E+01  2.64567E+01  2.58967E+01  2.59062E+01  2.52889E+01  2.54587E+01  2.47783E+01  2.50778E+01
   2.42228E+01  2.46029E+01  2.35531E+01  2.40029E+01  2.28739E+01  2.34425E+01  2.22985E+01  2.29575E+01  2.17500E+01  2.23995E+01
   2.11014E+01  2.16936E+01  2.04073E+01  2.09494E+01  1.97775E+01  2.02678E+01  1.92067E+01  1.95834E+01  1.86200E+01  1.88301E+01
   1.79612E+01  1.80098E+01  1.72855E+01  1.71916E+01  1.65964E+01  1.63909E+01  1.58991E+01  1.55981E+01  1.51817E+01  1.48176E+01
   1.43963E+01  1.39917E+01  1.36174E+01  1.32270E+01  1.29079E+01  1.25807E+01  1.22991E+01  1.19806E+01  1.16581E+01  1.13240E+01
   1.09738E+01  1.06332E+01  1.03328E+01  1.00322E+01  9.76578E+00  9.48932E+00  9.24592E+00  8.98707E+00  8.76190E+00  8.51843E+00
   8.30811E+00  8.07405E+00  7.87279E+00  7.64617E+00  7.45398E+00  7.23594E+00  7.05351E+00  6.84608E+00  6.67469E+00  6.47846E+00
   6.31787E+00  6.13369E+00  5.98411E+00  5.81242E+00  5.67361E+00  5.51415E+00  5.38517E+00  5.23804E+00  5.11873E+00  4.98377E+00
   4.87380E+00  4.75077E+00  4.65007E+00  4.53898E+00  4.44806E+00  4.34803E+00  4.26596E+00  4.17669E+00  4.10306E+00  4.02340E+00
   3.95674E+00  3.88575E+00  3.82530E+00  3.76207E+00  3.70732E+00  3.65098E+00  3.60180E+00  3.55267E+00  3.51485E+00  3.48283E+00
   3.45734E+00  3.45364E+00  3.43251E+00  3.45830E+00  3.43152E+00  3.48268E+00  3.44496E+00  3.51972E+00  3.46948E+00  3.56891E+00
   3.49830E+00  3.61398E+00  3.51691E+00  3.63603E+00  3.51559E+00  3.63178E+00  3.49408E+00  3.60440E+00  3.45430E+00  3.55449E+00
   3.39290E+00  3.47350E+00  3.30400E+00  3.35738E+00  3.18857E+00  3.21389E+00  3.05153E+00  3.04726E+00  2.89996E+00  2.87219E+00
   2.74220E+00  2.69369E+00  2.58453E+00  2.52377E+00  2.43445E+00  2.36788E+00  2.29401E+00  2.22607E+00  2.16642E+00  2.10655E+00
   2.04440E+00  1.98009E+00  1.91262E+00  1.84271E+00  1.76909E+00  1.69286E+00  1.61243E+00  1.52946E+00  1.44175E+00  1.35165E+00
   1.25615E+00  1.15835E+00  1.05446E+00  9.48047E-01  8.35164E-01  7.19378E-01  5.97242E-01  4.71833E-01  3.40568E-01  2.05644E-01
   6.59677E-02 -7.81291E-02 -2.25174E-01 -3.77742E-01 -5.31008E-01 -6.90932E-01 -8.49294E-01 -1.01523E+00 -1.17767E+00 -1.34807E+00
  -1.51268E+00 -1.68442E+00 -1.84893E+00 -2.01835E+00 -2.18048E+00 -2.34330E+00 -2.49783E+00 -2.64469E+00 -2.77876E+00 -2.91113E+00
  -3.02878E+00 -3.14961E+00 -3.31143E+00 -3.41837E+00 -3.69450E+00 -3.76962E+00 -4.15321E+00 -4.12948E+00 -4.47492E+00 -4.29311E+00
  -4.53928E+00 -4.21654E+00 -4.48562E+00 -4.12341E+00 -4.59185E+00 -4.33035E+00 -5.02111E+00 -4.86822E+00 -5.67410E+00 -5.55293E+00
  -6.48416E+00 -6.36606E+00 -7.48078E+00 -7.38839E+00 -8.63879E+00 -8.56217E+00 -9.78739E+00 -9.61176E+00 -1.06911E+01 -1.03791E+01
  -1.13593E+01 -1.09789E+01 -1.19350E+01 -1.15653E+01 -1.24809E+01 -1.21526E+01 -1.29514E+01 -1.26019E+01 -1.31406E+01 -1.27715E+01
  -1.30675E+01 -1.27197E+01 -1.27698E+01 -1.25358E+01 -1.23861E+01 -1.23534E+01 -1.19849E+01 -1.21047E+01 -1.15279E+01 -1.18663E+01
  -1.13542E+01 -1.19519E+01 -1.15657E+01 -1.23860E+01 -1.21424E+01 -1.30578E+01 -1.27344E+01 -1.34759E+01 -1.30826E+01 -1.36376E+01
  -1.32623E+01 -1.36428E+01 -1.33620E+01 -1.35700E+01 -1.34168E+01 -1.34385E+01 -1.34051E+01 -1.32403E+01 -1.33392E+01 -1.30310E+01
  -1.32551E+01 -1.28353E+01 -1.31497E+01 -1.26902E+01 -1.30333E+01 -1.25688E+01 -1.28961E+01 -1.24201E+01 -1.27255E+01 -1.22846E+01
  -1.25788E+01 -1.21947E+01 -1.24870E+01 -1.21900E+01 -1.24590E+01 -1.22096E+01 -1.24048E+01 -1.22024E+01 -1.23254E+01 -1.21670E+01
  -1.22349E+01 -1.21228E+01 -1.21026E+01 -1.20021E+01 -1.19118E+01 -1.18175E+01 -1.16680E+01 -1.15724E+01 -1.14105E+01 -1.12958E+01
  -1.11216E+01 -1.09911E+01 -1.08114E+01 -1.06689E+01 -1.04934E+01 -1.03399E+01 -1.01643E+01 -1.00098E+01 -9.85155E+00 -9.71315E+00
  -9.58244E+00 -9.46960E+00 -9.37068E+00 -9.28758E+00 -9.21347E+00 -9.14951E+00 -9.08747E+00 -9.02550E+00 -8.94867E+00 -8.85503E+00
  -8.76630E+00 -8.62542E+00 -8.55899E+00 -8.38173E+00 -8.36510E+00 -8.16844E+00 -8.21328E+00 -7.97203E+00 -8.06622E+00 -7.73954E+00
  -7.87963E+00 -7.47373E+00 -7.65184E+00 -7.18666E+00 -7.37023E+00 -6.83345E+00 -6.97206E+00 -6.29476E+00 -6.24411E+00 -5.40408E+00
  -5.21614E+00 -4.29909E+00 -4.23064E+00 -3.32747E+00 -3.57979E+00 -2.74924E+00 -3.26412E+00 -2.40425E+00 -3.02197E+00 -1.99442E+00
  -2.85098E+00 -1.64973E+00 -2.87299E+00 -1.50575E+00 -3.00537E+00 -1.46946E+00 -3.07987E+00 -1.29129E+00 -2.98274E+00 -9.94769E-01
  -2.93748E+00 -9.32276E-01 -3.04287E+00 -1.07558E+00 -3.12627E+00 -1.21074E+00 -3.05761E+00 -1.14131E+00 -2.64087E+00 -8.39311E-01
  -2.07229E+00 -5.02378E-01 -1.40657E+00 -1.04745E-01 -7.65758E-01  1.93093E-01 -2.60081E-01  4.08993E-01  1.26793E-01  4.47234E-01
   5.35059E-02  9.20740E-02 -2.87195E-01 -4.04870E-01 -7.23510E-01 -9.16727E-01 -1.01224E+00 -1.05776E+00 -1.07224E+00 -1.06523E+00
  -1.04235E+00 -1.00722E+00 -9.62315E-01 -9.09418E-01 -8.49841E-01 -7.84595E-01 -7.14442E-01 -6.39988E-01 -5.61720E-01 -4.80073E-01
  -3.95434E-01 -3.08176E-01 -2.18653E-01 -1.27227E-01 -3.42785E-02  5.97784E-02  1.54503E-01  2.49435E-01  3.44109E-01  4.38058E-01
   5.30819E-01  6.21954E-01  7.11063E-01  7.97810E-01  8.81934E-01  9.63254E-01  1.04167E+00  1.11718E+00  1.18985E+00  1.25983E+00
   1.32735E+00  1.39269E+00  1.45615E+00  1.51804E+00  1.57868E+00  1.63840E+00  1.69748E+00  1.75617E+00  1.81467E+00  1.87315E+00
   1.93173E+00  1.99049E+00  2.04946E+00  2.10865E+00  2.16803E+00  2.22756E+00  2.28718E+00  2.34683E+00  2.40641E+00  2.46588E+00
   2.52513E+00  2.58410E+00  2.64272E+00  2.70094E+00  2.75869E+00  2.81592E+00  2.87258E+00  2.92865E+00  2.98407E+00  3.03883E+00
   3.09288E+00  3.14622E+00  3.19880E+00  3.25063E+00  3.30166E+00  3.35192E+00  3.40135E+00  3.44997E+00  3.49774E+00  3.54469E+00
   3.59076E+00  3.63598E+00  3.68032E+00  3.72379E+00  3.76636E+00  3.80804E+00  3.84881E+00  3.88868E+00  3.92763E+00  3.96566E+00
   4.00275E+00  4.03892E+00  4.07414E+00  4.10843E+00  4.14175E+00  4.17413E+00  4.20554E+00  4.23599E+00  4.26547E+00  4.29398E+00
   4.32150E+00  4.34804E+00  4.37359E+00  4.39815E+00  4.42171E+00  4.44426E+00  4.46580E+00  4.48634E+00  4.50585E+00  4.52434E+00
   4.54180E+00  4.55822E+00  4.57361E+00  4.58795E+00  4.60123E+00  4.61346E+00  4.62462E+00  4.63472E+00  4.64372E+00  4.65165E+00
   4.65847E+00  4.66419E+00  4.66879E+00  4.67226E+00  4.67459E+00  4.67577E+00  4.67578E+00  4.67461E+00
 NY background values follow
     2.945E+01    2.910E+01    2.875E+01    2.840E+01    2.805E+01    2.770E+01    2.735E+01    2.700E+01    2.665E+01    2.630E+01
     2.595E+01    2.560E+01    2.525E+01    2.490E+01    2.455E+01    2.421E+01    2.386E+01    2.351E+01    2.317E+01    2.283E+01
     2.248E+01    2.214E+01    2.180E+01    2.146E+01    2.112E+01    2.079E+01    2.045E+01    2.012E+01    1.979E+01    1.945E+01
     1.913E+01    1.880E+01    1.847E+01    1.815E+01    1.783E+01    1.751E+01    1.719E+01    1.688E+01    1.656E+01    1.625E+01
     1.594E+01    1.564E+01    1.533E+01    1.503E+01    1.474E+01    1.444E+01    1.415E+01    1.386E+01    1.357E+01    1.329E+01
     1.301E+01    1.273E+01    1.245E+01    1.218E+01    1.191E+01    1.165E+01    1.139E+01    1.113E+01    1.088E+01    1.063E+01
     1.038E+01    1.014E+01    9.900E+00    9.665E+00    9.434E+00    9.208E+00    8.985E+00    8.767E+00    8.553E+00    8.344E+00
     8.138E+00    7.938E+00    7.742E+00    7.550E+00    7.364E+00    7.182E+00    7.005E+00    6.833E+00    6.665E+00    6.503E+00
     6.346E+00    6.195E+00    6.048E+00    5.907E+00    5.771E+00    5.640E+00    5.515E+00    5.395E+00    5.279E+00    5.168E+00
     5.062E+00    4.960E+00    4.863E+00    4.770E+00    4.681E+00    4.596E+00    4.515E+00    4.437E+00    4.363E+00    4.293E+00
     4.226E+00    4.163E+00    4.102E+00    4.045E+00    3.990E+00    3.938E+00    3.889E+00    3.842E+00    3.798E+00    3.756E+00
     3.716E+00    3.678E+00    3.642E+00    3.607E+00    3.575E+00    3.544E+00    3.514E+00    3.485E+00    3.458E+00    3.431E+00
     3.406E+00    3.381E+00    3.357E+00    3.333E+00    3.310E+00    3.287E+00    3.264E+00    3.241E+00    3.218E+00    3.195E+00
     3.172E+00    3.148E+00    3.123E+00    3.098E+00    3.072E+00    3.044E+00    3.016E+00    2.986E+00    2.956E+00    2.923E+00
     2.889E+00    2.853E+00    2.816E+00    2.776E+00    2.735E+00    2.691E+00    2.644E+00    2.596E+00    2.544E+00    2.490E+00
     2.434E+00    2.374E+00    2.311E+00    2.245E+00    2.175E+00    2.102E+00    2.025E+00    1.945E+00    1.861E+00    1.773E+00
     1.681E+00    1.584E+00    1.483E+00    1.378E+00    1.268E+00    1.154E+00    1.034E+00    9.101E-01    7.811E-01    6.475E-01
     5.094E-01    3.670E-01    2.203E-01    6.945E-02   -8.534E-02   -2.440E-01   -4.063E-01   -5.723E-01   -7.417E-01   -9.144E-01
    -1.090E+00   -1.269E+00   -1.451E+00   -1.636E+00   -1.824E+00   -2.014E+00   -2.206E+00   -2.401E+00   -2.598E+00   -2.797E+00
    -2.998E+00   -3.201E+00   -3.405E+00   -3.611E+00   -3.819E+00   -4.027E+00   -4.237E+00   -4.448E+00   -4.659E+00   -4.872E+00
    -5.085E+00   -5.299E+00   -5.513E+00   -5.727E+00   -5.941E+00   -6.156E+00   -6.370E+00   -6.584E+00   -6.798E+00   -7.011E+00
    -7.223E+00   -7.435E+00   -7.646E+00   -7.855E+00   -8.064E+00   -8.271E+00   -8.477E+00   -8.681E+00   -8.884E+00   -9.085E+00
    -9.284E+00   -9.481E+00   -9.676E+00   -9.868E+00   -1.006E+01   -1.025E+01   -1.043E+01   -1.061E+01   -1.079E+01   -1.097E+01
    -1.114E+01   -1.131E+01   -1.147E+01   -1.164E+01   -1.180E+01   -1.195E+01   -1.210E+01   -1.225E+01   -1.239E+01   -1.253E+01
    -1.266E+01   -1.279E+01   -1.291E+01   -1.303E+01   -1.315E+01   -1.326E+01   -1.336E+01   -1.346E+01   -1.355E+01   -1.364E+01
    -1.372E+01   -1.380E+01   -1.387E+01   -1.393E+01   -1.399E+01   -1.405E+01   -1.410E+01   -1.414E+01   -1.418E+01   -1.422E+01
    -1.424E+01   -1.427E+01   -1.429E+01   -1.430E+01   -1.431E+01   -1.432E+01   -1.432E+01   -1.432E+01   -1.431E+01   -1.430E+01
    -1.428E+01   -1.426E+01   -1.424E+01   -1.421E+01   -1.418E+01   -1.414E+01   -1.410E+01   -1.406E+01   -1.401E+01   -1.396E+01
    -1.391E+01   -1.385E+01   -1.379E+01   -1.372E+01   -1.366E+01   -1.359E+01   -1.351E+01   -1.344E+01   -1.336E+01   -1.328E+01
    -1.319E+01   -1.310E+01   -1.302E+01   -1.292E+01   -1.283E+01   -1.273E+01   -1.263E+01   -1.253E+01   -1.243E+01   -1.232E+01
    -1.221E+01   -1.210E+01   -1.199E+01   -1.188E+01   -1.176E+01   -1.165E+01   -1.153E+01   -1.141E+01   -1.129E+01   -1.116E+01
    -1.104E+01   -1.092E+01   -1.079E+01   -1.066E+01   -1.054E+01   -1.041E+01   -1.028E+01   -1.015E+01   -1.001E+01   -9.883E+00
    -9.751E+00   -9.618E+00   -9.485E+00   -9.351E+00   -9.217E+00   -9.083E+00   -8.949E+00   -8.815E+00   -8.681E+00   -8.548E+00
    -8.414E+00   -8.281E+00   -8.148E+00   -8.015E+00   -7.883E+00   -7.751E+00   -7.619E+00   -7.488E+00   -7.357E+00   -7.227E+00
    -7.097E+00   -6.968E+00   -6.839E+00   -6.710E+00   -6.582E+00   -6.454E+00   -6.327E+00   -6.200E+00   -6.074E+00   -5.948E+00
    -5.822E+00   -5.698E+00   -5.573E+00   -5.449E+00   -5.326E+00   -5.203E+00   -5.080E+00   -4.958E+00   -4.837E+00   -4.716E+00
    -4.596E+00   -4.476E+00   -4.357E+00   -4.238E+00   -4.120E+00   -4.002E+00   -3.885E+00   -3.769E+00   -3.653E+00   -3.538E+00
    -3.423E+00   -3.309E+00   -3.196E+00   -3.083E+00   -2.971E+00   -2.859E+00   -2.748E+00   -2.638E+00   -2.528E+00   -2.419E+00
    -2.311E+00   -2.203E+00   -2.096E+00   -1.990E+00   -1.884E+00   -1.779E+00   -1.674E+00   -1.571E+00   -1.468E+00   -1.366E+00
    -1.264E+00   -1.163E+00   -1.063E+00   -9.641E-01   -8.656E-01   -7.677E-01   -6.707E-01   -5.744E-01   -4.788E-01   -3.840E-01
    -2.900E-01   -1.968E-01   -1.043E-01   -1.268E-02    7.817E-02    1.682E-01    2.574E-01    3.459E-01    4.335E-01    5.202E-01
     6.062E-01    6.913E-01    7.755E-01    8.589E-01    9.414E-01    1.023E+00    1.104E+00    1.184E+00    1.263E+00    1.341E+00
     1.418E+00    1.495E+00    1.570E+00    1.645E+00    1.719E+00    1.792E+00    1.864E+00    1.935E+00    2.005E+00    2.074E+00
     2.143E+00    2.210E+00    2.277E+00    2.342E+00    2.407E+00    2.471E+00    2.534E+00    2.596E+00    2.657E+00    2.717E+00
     2.776E+00    2.834E+00    2.892E+00    2.948E+00    3.004E+00    3.058E+00    3.112E+00    3.164E+00    3.216E+00    3.267E+00
     3.317E+00    3.365E+00    3.413E+00    3.460E+00    3.506E+00    3.551E+00    3.595E+00    3.638E+00    3.680E+00    3.721E+00
     3.761E+00    3.801E+00    3.839E+00    3.876E+00    3.912E+00    3.947E+00    3.981E+00    4.014E+00    4.047E+00    4.078E+00
     4.108E+00    4.137E+00    4.165E+00    4.192E+00    4.218E+00    4.244E+00    4.268E+00    4.291E+00    4.313E+00    4.334E+00
     4.354E+00    4.373E+00    4.391E+00    4.407E+00    4.423E+00    4.438E+00    4.452E+00    4.464E+00    4.476E+00    4.487E+00
     4.496E+00    4.505E+00    4.512E+00    4.518E+00    4.524E+00    4.528E+00    4.531E+00    4.533E+00
 Ala      Conc. = 3.27E+02
