 LCModel (Version 6.3-1L) Copyright: S.W. Provencher.          Ref.: Magn. Reson. Med. 30:672-679 (1993).                
 Slice#3 Row#11 Col#10  K_02_press_1_raw_act
 36 lines in following concentration table = NCONC+1
    Conc.  %SD /Cr+PCr  Metabolite                                         
  243.843  54%   0.120 Ala                                                 
    0.000 999%   0.000 Asp                                                 
    0.000 999%   0.000 Cr                                                  
 2.03E+03   3%   1.000 PCr                                                 
    0.000 999%   0.000 GABA                                                
    0.000 999%   0.000 Glc                                                 
 1.35E+03  21%   0.665 Gln                                                 
 2.02E+03  16%   0.997 Glu                                                 
  646.285   4%   0.319 GPC                                                 
    0.000 999%   0.000 PCh                                                 
  519.201  15%   0.256 GSH                                                 
  870.568  33%   0.430 Ins                                                 
    0.000 999%   0.000 Lac                                                 
 2.60E+03   3%   1.283 NAA                                                 
    0.000 999%   0.000 NAAG                                                
   44.606  67% 2.2E-02 Scyllo                                              
    0.000 999%   0.000 Tau                                                 
  100.617 113% 5.0E-02 -CrCH2                                              
  646.285   4%   0.319 GPC+PCh                                             
 2.60E+03   3%   1.283 NAA+NAAG                                            
 2.03E+03   3%   1.000 Cr+PCr                                              
 3.37E+03  14%   1.662 Glu+Gln                                             
 2.14E+03  28%   1.059 Lip13a                                              
    0.000 999%   0.000 Lip13b                                              
  720.309  46%   0.356 Lip09                                               
 1.81E+03  20%   0.894 MM09                                                
  310.033  74%   0.153 Lip20                                               
 4.38E+03  10%   2.163 MM20                                                
 1.07E+03  34%   0.529 MM12                                                
    0.000 999%   0.000 MM14                                                
  851.226  17%   0.420 MM17                                                
 2.14E+03  28%   1.059 Lip13a+Lip13b                                       
 3.22E+03  15%   1.588 MM14+Lip13a+Lip13b+MM12                             
 2.53E+03  11%   1.250 MM09+Lip09                                          
 4.69E+03   9%   2.316 MM20+Lip20                                          
   6 lines in following misc. output table
  FWHM = 0.069 ppm    S/N =  14                                            
  Data shift = 0.046 ppm                                                   
  Ph: -19 deg      -8.3 deg/ppm                                            
  alphaB,S = 6.4E-01,   1.6E+02                                            
   14 spline knots.   Ns = 8(1)                                            
  (14) 2 infls.   ( 9) 1 extrs.                                            
  498 points on ppm-axis = NY
      4.000000     3.992357     3.984714     3.977070     3.969427     3.961784     3.954141     3.946497     3.938854     3.931211
      3.923568     3.915925     3.908281     3.900638     3.892995     3.885352     3.877708     3.870065     3.862422     3.854779
      3.847136     3.839492     3.831849     3.824206     3.816563     3.808919     3.801276     3.793633     3.785990     3.778347
      3.770703     3.763060     3.755417     3.747774     3.740130     3.732487     3.724844     3.717201     3.709558     3.701914
      3.694271     3.686628     3.678985     3.671341     3.663698     3.656055     3.648412     3.640769     3.633125     3.625482
      3.617839     3.610196     3.602552     3.594909     3.587266     3.579623     3.571980     3.564336     3.556693     3.549050
      3.541407     3.533763     3.526120     3.518477     3.510834     3.503191     3.495547     3.487904     3.480261     3.472618
      3.464974     3.457331     3.449688     3.442045     3.434402     3.426758     3.419115     3.411472     3.403829     3.396185
      3.388542     3.380899     3.373256     3.365613     3.357969     3.350326     3.342683     3.335040     3.327396     3.319753
      3.312110     3.304467     3.296824     3.289180     3.281537     3.273894     3.266251     3.258607     3.250964     3.243321
      3.235678     3.228034     3.220391     3.212748     3.205105     3.197462     3.189818     3.182175     3.174532     3.166889
      3.159245     3.151602     3.143959     3.136316     3.128673     3.121029     3.113386     3.105743     3.098100     3.090456
      3.082813     3.075170     3.067527     3.059884     3.052240     3.044597     3.036954     3.029311     3.021667     3.014024
      3.006381     2.998738     2.991095     2.983451     2.975808     2.968165     2.960522     2.952878     2.945235     2.937592
      2.929949     2.922306     2.914662     2.907019     2.899376     2.891733     2.884089     2.876446     2.868803     2.861160
      2.853517     2.845873     2.838230     2.830587     2.822944     2.815300     2.807657     2.800014     2.792371     2.784728
      2.777084     2.769441     2.761798     2.754155     2.746511     2.738868     2.731225     2.723582     2.715939     2.708295
      2.700652     2.693009     2.685366     2.677722     2.670079     2.662436     2.654793     2.647150     2.639506     2.631863
      2.624220     2.616577     2.608933     2.601290     2.593647     2.586004     2.578361     2.570717     2.563074     2.555431
      2.547788     2.540144     2.532501     2.524858     2.517215     2.509572     2.501928     2.494285     2.486642     2.478999
      2.471355     2.463712     2.456069     2.448426     2.440783     2.433139     2.425496     2.417853     2.410210     2.402566
      2.394923     2.387280     2.379637     2.371994     2.364350     2.356707     2.349064     2.341421     2.333777     2.326134
      2.318491     2.310848     2.303205     2.295561     2.287918     2.280275     2.272632     2.264988     2.257345     2.249702
      2.242059     2.234416     2.226772     2.219129     2.211486     2.203843     2.196199     2.188556     2.180913     2.173270
      2.165627     2.157983     2.150340     2.142697     2.135054     2.127410     2.119767     2.112124     2.104481     2.096838
      2.089194     2.081551     2.073908     2.066265     2.058621     2.050978     2.043335     2.035692     2.028049     2.020405
      2.012762     2.005119     1.997476     1.989833     1.982190     1.974546     1.966903     1.959260     1.951617     1.943974
      1.936331     1.928688     1.921045     1.913402     1.905759     1.898115     1.890472     1.882829     1.875186     1.867543
      1.859900     1.852257     1.844614     1.836971     1.829327     1.821684     1.814041     1.806398     1.798755     1.791112
      1.783469     1.775826     1.768183     1.760540     1.752896     1.745253     1.737610     1.729967     1.722324     1.714681
      1.707038     1.699395     1.691752     1.684108     1.676465     1.668822     1.661179     1.653536     1.645893     1.638250
      1.630607     1.622964     1.615321     1.607677     1.600034     1.592391     1.584748     1.577105     1.569462     1.561819
      1.554176     1.546533     1.538890     1.531246     1.523603     1.515960     1.508317     1.500674     1.493031     1.485388
      1.477745     1.470102     1.462458     1.454815     1.447172     1.439529     1.431886     1.424243     1.416600     1.408957
      1.401314     1.393671     1.386027     1.378384     1.370741     1.363098     1.355455     1.347812     1.340169     1.332526
      1.324883     1.317240     1.309596     1.301953     1.294310     1.286667     1.279024     1.271381     1.263738     1.256095
      1.248452     1.240808     1.233165     1.225522     1.217879     1.210236     1.202593     1.194950     1.187307     1.179664
      1.172021     1.164377     1.156734     1.149091     1.141448     1.133805     1.126162     1.118519     1.110876     1.103233
      1.095590     1.087946     1.080303     1.072660     1.065017     1.057374     1.049731     1.042088     1.034445     1.026802
      1.019158     1.011515     1.003872     0.996229     0.988586     0.980943     0.973300     0.965657     0.958014     0.950371
      0.942727     0.935084     0.927441     0.919798     0.912155     0.904512     0.896869     0.889226     0.881583     0.873940
      0.866296     0.858653     0.851010     0.843367     0.835724     0.828081     0.820438     0.812795     0.805152     0.797508
      0.789865     0.782222     0.774579     0.766936     0.759293     0.751650     0.744007     0.736364     0.728721     0.721077
      0.713434     0.705791     0.698148     0.690505     0.682862     0.675219     0.667576     0.659933     0.652290     0.644646
      0.637003     0.629360     0.621717     0.614074     0.606431     0.598788     0.591145     0.583502     0.575858     0.568215
      0.560572     0.552929     0.545286     0.537643     0.530000     0.522357     0.514714     0.507071     0.499427     0.491784
      0.484141     0.476498     0.468855     0.461212     0.453569     0.445925     0.438282     0.430639     0.422996     0.415353
      0.407710     0.400067     0.392424     0.384780     0.377137     0.369494     0.361851     0.354208     0.346565     0.338922
      0.331278     0.323635     0.315992     0.308349     0.300706     0.293063     0.285420     0.277777     0.270133     0.262490
      0.254847     0.247204     0.239561     0.231918     0.224275     0.216631     0.208988     0.201345
 NY phased data points follow
   5.29288E+00  6.34768E+00  7.20604E+00  1.00586E+01  1.59407E+01  1.97663E+01  2.75767E+01  3.09712E+01  3.71506E+01  3.55199E+01
   3.62547E+01  3.22035E+01  3.10405E+01  2.75473E+01  1.97736E+01  1.93668E+01  1.46486E+01  6.42346E+00  4.95548E+00  5.54593E+00
   3.38894E+00  4.37399E+00  1.40174E+00  1.67328E+00  2.76170E+00  1.57704E+00  5.53565E+00  5.36993E+00  9.47630E+00  9.74416E+00
   4.74070E+00  7.89613E+00  4.48924E+00  1.27334E+01  9.41145E+00  5.35859E+00  7.47850E+00  7.13281E+00  9.96462E-01  3.27247E+00
   4.21057E+00  6.58712E+00  2.94569E+00  1.04100E+01  8.89067E+00  1.14883E+01  6.63252E+00  7.44439E+00  8.87750E+00  5.47848E+00
   5.63839E+00  5.28558E+00  1.84439E+00  3.68839E+00 -1.27757E+00  2.58359E+00 -1.36573E-02  1.56942E+00 -2.30604E+00 -5.93275E+00
  -4.87165E+00 -6.31443E+00 -8.80843E+00 -1.12691E+01 -1.00777E+01 -1.26634E+01 -1.03546E+01 -7.26624E+00 -1.09282E+01 -9.84890E+00
  -8.82417E+00 -9.01080E+00 -9.43159E+00 -8.53089E+00 -8.64680E+00 -7.41868E+00 -6.63967E+00 -6.14653E+00 -9.28162E+00 -9.20757E+00
  -8.00682E+00 -6.56071E+00 -7.11289E+00 -4.69447E+00 -8.31661E+00 -7.00520E+00 -5.81618E+00 -8.18001E+00 -5.72200E+00 -6.01561E+00
  -3.80955E+00 -1.13082E+00 -4.10020E+00 -1.14921E+00  3.06520E+00  2.97840E+00  3.82616E+00  9.24349E+00  1.45266E+01  3.07299E+01
   3.93752E+01  4.05776E+01  3.95085E+01  3.41424E+01  3.42210E+01  2.80454E+01  2.30416E+01  2.11220E+01  1.73925E+01  8.89943E+00
   3.86028E+00 -3.60841E-01 -1.19485E+00  4.06862E-01 -4.50605E+00 -4.55850E+00 -5.04798E+00 -1.13662E+00 -8.51799E-01 -1.96302E+00
  -2.59261E+00  7.08753E+00  1.41428E+01  2.43651E+01  3.32558E+01  4.07930E+01  4.17976E+01  4.91180E+01  4.66900E+01  4.16348E+01
   3.37681E+01  2.91032E+01  2.37815E+01  1.69158E+01  1.04268E+01  3.50346E+00  2.78522E+00 -3.03742E-01 -3.62175E+00 -2.97700E+00
  -2.86808E+00 -5.52725E+00 -2.96238E+00 -8.37799E+00 -8.20325E+00 -9.26646E+00 -5.10400E+00 -6.14271E+00 -6.66365E+00 -9.22897E+00
  -7.65037E+00 -8.67597E+00 -8.49504E+00 -1.00840E+01 -1.05151E+01 -8.70347E+00 -9.96343E+00 -7.43938E+00 -8.45092E+00 -1.07717E+01
  -1.21526E+01 -9.35925E+00 -1.14169E+01 -8.99935E+00 -1.14811E+01 -1.13926E+01 -1.25656E+01 -1.40284E+01 -1.21163E+01 -1.49456E+01
  -1.78097E+01 -1.98987E+01 -2.06363E+01 -2.25359E+01 -2.36463E+01 -2.38271E+01 -2.15637E+01 -2.15268E+01 -1.96806E+01 -1.77546E+01
  -2.21841E+01 -2.17685E+01 -2.02079E+01 -1.95219E+01 -2.10988E+01 -1.93551E+01 -1.49329E+01 -1.68280E+01 -1.18254E+01 -9.79267E+00
  -1.31278E+01 -1.00790E+01 -6.89404E+00 -9.67895E+00 -7.43137E+00 -6.58294E+00 -9.41448E+00 -6.87618E+00 -1.01733E+01 -8.16264E+00
  -8.55613E+00 -7.01937E+00 -7.01931E+00 -4.96366E+00 -8.83507E+00 -7.05248E+00 -8.89187E+00 -1.13694E+01 -1.62180E+01 -1.32856E+01
  -7.78416E+00 -5.46491E+00 -7.60925E+00 -3.69112E+00 -1.95011E-02  1.73004E+00  2.74998E+00 -2.16633E+00 -2.22792E+00 -5.81533E+00
  -7.06449E+00 -7.76169E+00 -9.49958E+00 -1.19116E+01 -7.46596E+00 -5.42042E+00 -3.63586E+00 -1.60216E+00 -5.73589E+00  3.37515E+00
   2.50958E-01 -7.46561E-02  9.47030E-03 -1.38677E+00 -2.42481E+00  2.95862E+00  7.17034E-01  5.71018E-01 -3.27050E+00 -2.95436E+00
  -5.22183E+00 -7.45786E+00 -9.89136E-01 -3.52635E+00 -1.02125E+00  2.76941E-01  1.11020E+00  2.30019E+00  7.05714E+00  7.52762E+00
   8.54552E+00  1.00414E+01  1.14436E+01  1.61198E+01  2.26897E+01  2.89501E+01  4.09486E+01  5.49282E+01  6.14019E+01  7.22133E+01
   7.67926E+01  7.47034E+01  6.86750E+01  5.51610E+01  4.64381E+01  3.23981E+01  2.30533E+01  1.26968E+01  9.96469E+00  1.83751E+00
   7.50150E-01  2.85913E+00  6.57685E-02 -2.49754E+00 -4.07664E+00  8.87402E-01 -2.40461E+00 -2.00796E-01 -4.83703E+00 -1.34529E+00
  -7.53744E+00 -6.11992E+00 -9.86952E+00 -7.04232E+00 -4.84942E+00 -9.47457E+00 -5.47374E+00 -8.61800E+00 -6.16228E+00 -4.95136E+00
  -7.52945E+00 -6.59447E+00 -6.25388E+00 -9.26769E+00 -5.74523E+00 -6.31175E+00 -8.75396E+00 -9.28371E+00 -1.18215E+01 -1.06920E+01
  -9.12593E+00 -8.13538E+00 -1.13491E+01 -1.12475E+01 -1.23772E+01 -5.45823E+00 -6.24601E+00 -8.41781E+00 -2.02072E+00 -2.08078E+00
   2.02539E+00  5.06165E-01  2.39483E+00  1.03362E+00  4.00979E-02  7.86092E-01  4.47642E+00 -2.73996E-02  1.11357E+00  7.81440E-01
   8.71076E-01  2.11042E+00 -9.43589E-01  5.18661E-01 -1.15052E+00 -2.04153E+00 -3.07342E+00 -5.12487E+00 -6.03878E+00 -5.54750E+00
  -5.03100E+00 -4.79883E+00 -5.87803E+00 -5.76608E+00 -4.52310E+00 -7.47681E+00 -5.15419E+00 -2.19488E+00 -6.35024E+00  1.06415E+00
  -6.77526E-01 -1.51750E+00 -5.37557E-01  2.94248E+00  2.12229E+00  3.01024E+00  1.33657E+00  2.84684E+00  4.18691E+00  3.29315E+00
   5.59302E+00  5.98394E+00  5.47136E+00  5.69408E+00  9.32736E+00  8.34790E+00  6.85493E+00  8.94988E+00  7.93636E+00  8.98297E+00
   9.84541E+00  9.54270E+00  7.88316E+00  1.25946E+01  1.21921E+01  8.79306E+00  1.33625E+01  1.18415E+01  9.97751E+00  9.95466E+00
   1.05240E+01  6.90231E+00  1.00317E+01  6.77477E+00  8.32249E+00  9.36651E+00  5.73762E+00  6.73901E+00  3.32404E+00  6.35222E+00
   4.24701E+00  9.76747E+00  9.34947E+00  1.21105E+01  1.00021E+01  9.76448E+00  9.01421E+00  1.19614E+01  1.01809E+01  9.88029E+00
   9.54952E+00  1.19920E+01  1.04066E+01  1.06371E+01  1.11780E+01  8.68837E+00  1.37411E+01  1.03653E+01  1.09925E+01  1.26598E+01
   1.18968E+01  1.39282E+01  1.23391E+01  1.22247E+01  1.32285E+01  1.12522E+01  1.48008E+01  1.47768E+01  1.48227E+01  1.49674E+01
   1.41401E+01  1.39539E+01  1.53343E+01  1.39849E+01  1.44826E+01  1.11246E+01  1.03324E+01  1.21768E+01  8.96964E+00  7.65491E+00
   1.20244E+01  9.46885E+00  9.40991E+00  8.09750E+00  9.54180E+00  9.54870E+00  9.73887E+00  1.11678E+01  9.60924E+00  8.61802E+00
   8.04925E+00  1.13626E+01  1.07848E+01  6.24623E+00  6.61366E+00  4.84236E+00  6.18568E+00  8.90007E+00  8.41010E+00  6.71969E+00
   7.66801E+00  7.26731E+00  6.75663E+00  1.10330E+01  7.53277E+00  8.70899E+00  7.57469E+00  8.31325E+00  5.95668E+00  6.63532E+00
   6.17632E+00  4.76792E+00  4.93271E+00  7.25269E+00  8.45408E+00  6.62742E+00  6.91827E+00  8.96864E+00  8.09161E+00  7.77166E+00
   7.77643E+00  5.09895E+00  7.57028E+00  4.91682E+00  7.89867E+00  7.02481E+00  3.90471E+00  6.20134E+00  2.59102E+00  6.24616E+00
   7.46488E+00  3.63031E+00  8.31112E+00  4.32188E+00  2.89840E+00  6.74599E+00  2.03117E+00  3.20228E+00  6.47356E+00  9.10395E+00
   6.51065E+00  8.39254E+00  6.15873E+00  5.06238E+00  6.91979E+00  4.95177E+00  7.63823E+00  3.78038E+00  6.40814E+00  5.36173E+00
   4.78373E+00  4.65588E+00  4.71957E+00  5.07117E+00  6.30597E+00  3.35886E+00  4.02807E+00  3.05942E+00
 NY points of the fit to the data follow
   3.52004E+00  4.54242E+00  7.08736E+00  1.07445E+01  1.52877E+01  2.07620E+01  2.66601E+01  3.18897E+01  3.55182E+01  3.70426E+01
   3.63327E+01  3.37435E+01  2.99631E+01  2.56877E+01  2.13397E+01  1.71122E+01  1.31406E+01  9.58810E+00  6.62151E+00  4.50057E+00
   3.34277E+00  2.52268E+00  2.03069E+00  1.96521E+00  2.21372E+00  3.01817E+00  4.58499E+00  6.67754E+00  8.73622E+00  1.03946E+01
   1.14084E+01  1.15065E+01  1.07167E+01  9.33475E+00  7.68769E+00  5.96453E+00  4.29019E+00  2.85795E+00  1.79963E+00  1.21112E+00
   1.23284E+00  1.79548E+00  2.62794E+00  3.56684E+00  4.43797E+00  5.03938E+00  5.17399E+00  4.82488E+00  4.09389E+00  3.07137E+00
   1.93583E+00  8.54658E-01 -8.93235E-02 -8.54025E-01 -1.45795E+00 -1.90222E+00 -2.16381E+00 -2.27988E+00 -2.36429E+00 -2.52162E+00
  -2.79000E+00 -3.15433E+00 -3.56389E+00 -3.94183E+00 -4.22700E+00 -4.41228E+00 -4.50740E+00 -4.53358E+00 -4.51432E+00 -4.46376E+00
  -4.41433E+00 -4.39511E+00 -4.42907E+00 -4.52833E+00 -4.67943E+00 -4.86129E+00 -5.05327E+00 -5.23026E+00 -5.35912E+00 -5.41759E+00
  -5.46077E+00 -5.48378E+00 -5.47592E+00 -5.48714E+00 -5.56906E+00 -5.72483E+00 -5.92112E+00 -6.11960E+00 -6.26091E+00 -6.31377E+00
  -6.27154E+00 -6.13694E+00 -5.88881E+00 -5.36467E+00 -3.76598E+00 -1.65705E-01  4.86021E+00  1.12084E+01  1.89546E+01  2.73044E+01
   3.46677E+01  3.96988E+01  4.16687E+01  4.04298E+01  3.65237E+01  3.09588E+01  2.47476E+01  1.84594E+01  1.23264E+01  6.57622E+00
   1.54540E+00 -2.50059E+00 -5.11958E+00 -6.03903E+00 -6.22680E+00 -6.19375E+00 -6.02669E+00 -5.68926E+00 -4.96926E+00 -2.94466E+00
   1.27239E+00  6.99127E+00  1.41287E+01  2.27532E+01  3.19331E+01  3.99687E+01  4.54954E+01  4.77241E+01  4.64896E+01  4.23910E+01
   3.64496E+01  2.96401E+01  2.25458E+01  1.54446E+01  8.70357E+00  2.78730E+00 -1.92330E+00 -4.86532E+00 -5.85918E+00 -6.06687E+00
  -6.08899E+00 -6.09065E+00 -6.13535E+00 -6.22827E+00 -6.35276E+00 -6.54818E+00 -6.84387E+00 -7.22466E+00 -7.66335E+00 -8.11141E+00
  -8.51487E+00 -8.85374E+00 -9.11171E+00 -9.37830E+00 -9.67142E+00 -9.98058E+00 -1.03144E+01 -1.06361E+01 -1.09437E+01 -1.12005E+01
  -1.13488E+01 -1.13967E+01 -1.14216E+01 -1.15054E+01 -1.16979E+01 -1.20104E+01 -1.24076E+01 -1.28463E+01 -1.33346E+01 -1.38620E+01
  -1.43696E+01 -1.49094E+01 -1.54508E+01 -1.59301E+01 -1.62497E+01 -1.63494E+01 -1.63312E+01 -1.63024E+01 -1.63012E+01 -1.63610E+01
  -1.64280E+01 -1.64189E+01 -1.63049E+01 -1.60419E+01 -1.55753E+01 -1.48942E+01 -1.40345E+01 -1.30764E+01 -1.20919E+01 -1.12408E+01
  -1.07434E+01 -1.06279E+01 -1.07069E+01 -1.08148E+01 -1.08705E+01 -1.07411E+01 -1.02333E+01 -9.41282E+00 -8.35566E+00 -7.16805E+00
  -6.14008E+00 -5.60272E+00 -5.69272E+00 -6.43955E+00 -7.85598E+00 -9.80763E+00 -1.18195E+01 -1.33870E+01 -1.41499E+01 -1.39299E+01
  -1.28002E+01 -1.08676E+01 -8.43203E+00 -5.97437E+00 -4.02188E+00 -3.06927E+00 -3.24265E+00 -4.40825E+00 -6.38045E+00 -8.69867E+00
  -1.06813E+01 -1.18515E+01 -1.20977E+01 -1.15410E+01 -1.03502E+01 -8.75763E+00 -7.03336E+00 -5.51693E+00 -4.35282E+00 -3.44786E+00
  -2.73184E+00 -2.11688E+00 -1.47244E+00 -7.91732E-01 -4.05554E-02  7.49456E-01  1.34730E+00  1.55935E+00  1.35440E+00  7.98588E-01
   1.24536E-01 -3.82972E-01 -5.58081E-01 -3.46283E-01  1.87792E-01  9.35181E-01  1.85185E+00  2.87230E+00  3.93843E+00  5.01380E+00
   6.04708E+00  7.23676E+00  1.02384E+01  1.59294E+01  2.31642E+01  3.22915E+01  4.35815E+01  5.55121E+01  6.55843E+01  7.20566E+01
   7.39878E+01  7.12358E+01  6.47345E+01  5.60897E+01  4.66850E+01  3.71687E+01  2.78099E+01  1.90064E+01  1.12287E+01  4.85952E+00
   9.01569E-01 -6.65161E-01 -1.49793E+00 -2.10148E+00 -2.58612E+00 -3.01321E+00 -3.44694E+00 -3.87954E+00 -4.30358E+00 -4.71762E+00
  -5.11908E+00 -5.50219E+00 -5.86576E+00 -6.20089E+00 -6.49527E+00 -6.74744E+00 -6.96367E+00 -7.14858E+00 -7.30534E+00 -7.43574E+00
  -7.54191E+00 -7.62743E+00 -7.68812E+00 -7.71946E+00 -7.71853E+00 -7.68223E+00 -7.60694E+00 -7.48879E+00 -7.32414E+00 -7.10981E+00
  -6.84247E+00 -6.52000E+00 -6.14236E+00 -5.71109E+00 -5.22980E+00 -4.70468E+00 -4.14460E+00 -3.56077E+00 -2.96671E+00 -2.37777E+00
  -1.81050E+00 -1.28151E+00 -8.06454E-01 -3.98609E-01 -6.78494E-02  1.80255E-01  3.46167E-01  4.39460E-01  4.87237E-01  5.40745E-01
   5.65900E-01  5.02636E-01  3.61851E-01  1.13693E-01 -3.22862E-01 -1.00378E+00 -1.91958E+00 -2.95043E+00 -3.92094E+00 -4.73813E+00
  -5.29573E+00 -5.49912E+00 -5.33877E+00 -4.88697E+00 -4.23266E+00 -3.46806E+00 -2.68145E+00 -1.91553E+00 -1.22791E+00 -6.50714E-01
  -1.49615E-01  2.95427E-01  6.99102E-01  1.08199E+00  1.45890E+00  1.88438E+00  2.41345E+00  3.01079E+00  3.64816E+00  4.30906E+00
   4.98064E+00  5.65150E+00  6.31082E+00  6.94823E+00  7.55373E+00  8.11792E+00  8.63214E+00  9.08882E+00  9.48164E+00  9.80570E+00
   1.00576E+01  1.02358E+01  1.03402E+01  1.03727E+01  1.03368E+01  1.02374E+01  1.00809E+01  9.87471E+00  9.62724E+00  9.34758E+00
   9.04523E+00  8.72985E+00  8.41097E+00  8.09790E+00  7.79950E+00  7.52404E+00  7.27902E+00  7.07115E+00  6.90619E+00  6.78907E+00
   6.72377E+00  6.71336E+00  6.75992E+00  6.86462E+00  7.02765E+00  7.24833E+00  7.52498E+00  7.85499E+00  8.23468E+00  8.65939E+00
   9.12345E+00  9.62026E+00  1.01423E+01  1.06811E+01  1.12277E+01  1.17723E+01  1.23051E+01  1.28161E+01  1.32955E+01  1.37339E+01
   1.41230E+01  1.44551E+01  1.47241E+01  1.49254E+01  1.50558E+01  1.51141E+01  1.51005E+01  1.50170E+01  1.48670E+01  1.46555E+01
   1.43883E+01  1.40722E+01  1.37145E+01  1.33230E+01  1.29055E+01  1.24695E+01  1.20223E+01  1.15706E+01  1.11206E+01  1.06775E+01
   1.02459E+01  9.82973E+00  9.43189E+00  9.05471E+00  8.69977E+00  8.36813E+00  8.06025E+00  7.77616E+00  7.51547E+00  7.27756E+00
   7.06152E+00  6.86636E+00  6.69088E+00  6.53385E+00  6.39397E+00  6.27000E+00  6.16069E+00  6.06489E+00  5.98141E+00  5.90919E+00
   5.84718E+00  5.79448E+00  5.75022E+00  5.71363E+00  5.68394E+00  5.66048E+00  5.64264E+00  5.62989E+00  5.62173E+00  5.61770E+00
   5.61737E+00  5.62037E+00  5.62635E+00  5.63504E+00  5.64618E+00  5.65954E+00  5.67489E+00  5.69207E+00  5.71090E+00  5.73127E+00
   5.75302E+00  5.77603E+00  5.80017E+00  5.82537E+00  5.85152E+00  5.87859E+00  5.90645E+00  5.93507E+00  5.96434E+00  5.99427E+00
   6.02479E+00  6.05588E+00  6.08747E+00  6.11954E+00  6.15205E+00  6.18500E+00  6.21836E+00  6.25213E+00  6.28623E+00  6.32069E+00
   6.35548E+00  6.39061E+00  6.42607E+00  6.46185E+00  6.49791E+00  6.53428E+00  6.57094E+00  6.60793E+00  6.64521E+00  6.68279E+00
   6.72065E+00  6.75881E+00  6.79728E+00  6.83607E+00  6.87516E+00  6.91457E+00  6.95426E+00  6.99430E+00
 NY background values follow
    -2.303E+00   -2.380E+00   -2.456E+00   -2.533E+00   -2.609E+00   -2.686E+00   -2.763E+00   -2.839E+00   -2.916E+00   -2.993E+00
    -3.070E+00   -3.147E+00   -3.224E+00   -3.301E+00   -3.378E+00   -3.454E+00   -3.531E+00   -3.608E+00   -3.685E+00   -3.761E+00
    -3.838E+00   -3.915E+00   -3.991E+00   -4.067E+00   -4.144E+00   -4.220E+00   -4.296E+00   -4.372E+00   -4.448E+00   -4.524E+00
    -4.599E+00   -4.675E+00   -4.750E+00   -4.825E+00   -4.900E+00   -4.975E+00   -5.050E+00   -5.124E+00   -5.198E+00   -5.272E+00
    -5.346E+00   -5.420E+00   -5.493E+00   -5.566E+00   -5.639E+00   -5.712E+00   -5.784E+00   -5.856E+00   -5.928E+00   -6.000E+00
    -6.071E+00   -6.142E+00   -6.212E+00   -6.283E+00   -6.353E+00   -6.423E+00   -6.492E+00   -6.561E+00   -6.630E+00   -6.698E+00
    -6.767E+00   -6.834E+00   -6.902E+00   -6.969E+00   -7.035E+00   -7.102E+00   -7.168E+00   -7.233E+00   -7.298E+00   -7.363E+00
    -7.427E+00   -7.491E+00   -7.555E+00   -7.618E+00   -7.681E+00   -7.743E+00   -7.805E+00   -7.866E+00   -7.927E+00   -7.987E+00
    -8.047E+00   -8.107E+00   -8.166E+00   -8.225E+00   -8.283E+00   -8.340E+00   -8.397E+00   -8.454E+00   -8.510E+00   -8.566E+00
    -8.621E+00   -8.675E+00   -8.729E+00   -8.783E+00   -8.836E+00   -8.888E+00   -8.940E+00   -8.992E+00   -9.043E+00   -9.094E+00
    -9.144E+00   -9.194E+00   -9.243E+00   -9.292E+00   -9.341E+00   -9.389E+00   -9.437E+00   -9.485E+00   -9.532E+00   -9.579E+00
    -9.625E+00   -9.672E+00   -9.717E+00   -9.763E+00   -9.808E+00   -9.854E+00   -9.898E+00   -9.943E+00   -9.987E+00   -1.003E+01
    -1.008E+01   -1.012E+01   -1.016E+01   -1.021E+01   -1.025E+01   -1.029E+01   -1.034E+01   -1.038E+01   -1.042E+01   -1.046E+01
    -1.051E+01   -1.055E+01   -1.059E+01   -1.063E+01   -1.067E+01   -1.072E+01   -1.076E+01   -1.080E+01   -1.084E+01   -1.088E+01
    -1.093E+01   -1.097E+01   -1.101E+01   -1.105E+01   -1.109E+01   -1.113E+01   -1.117E+01   -1.121E+01   -1.125E+01   -1.129E+01
    -1.133E+01   -1.137E+01   -1.141E+01   -1.145E+01   -1.149E+01   -1.153E+01   -1.156E+01   -1.160E+01   -1.164E+01   -1.167E+01
    -1.171E+01   -1.174E+01   -1.178E+01   -1.181E+01   -1.185E+01   -1.188E+01   -1.191E+01   -1.194E+01   -1.197E+01   -1.200E+01
    -1.203E+01   -1.206E+01   -1.209E+01   -1.211E+01   -1.214E+01   -1.217E+01   -1.219E+01   -1.221E+01   -1.224E+01   -1.226E+01
    -1.228E+01   -1.230E+01   -1.232E+01   -1.234E+01   -1.235E+01   -1.237E+01   -1.239E+01   -1.240E+01   -1.241E+01   -1.243E+01
    -1.244E+01   -1.245E+01   -1.246E+01   -1.247E+01   -1.248E+01   -1.249E+01   -1.250E+01   -1.251E+01   -1.251E+01   -1.252E+01
    -1.252E+01   -1.253E+01   -1.253E+01   -1.254E+01   -1.254E+01   -1.254E+01   -1.254E+01   -1.255E+01   -1.255E+01   -1.255E+01
    -1.255E+01   -1.255E+01   -1.255E+01   -1.255E+01   -1.255E+01   -1.255E+01   -1.255E+01   -1.254E+01   -1.254E+01   -1.254E+01
    -1.254E+01   -1.254E+01   -1.253E+01   -1.253E+01   -1.253E+01   -1.253E+01   -1.252E+01   -1.252E+01   -1.252E+01   -1.251E+01
    -1.251E+01   -1.251E+01   -1.250E+01   -1.250E+01   -1.250E+01   -1.249E+01   -1.249E+01   -1.248E+01   -1.248E+01   -1.247E+01
    -1.247E+01   -1.246E+01   -1.246E+01   -1.245E+01   -1.244E+01   -1.243E+01   -1.243E+01   -1.242E+01   -1.241E+01   -1.240E+01
    -1.239E+01   -1.238E+01   -1.237E+01   -1.235E+01   -1.234E+01   -1.233E+01   -1.232E+01   -1.230E+01   -1.229E+01   -1.227E+01
    -1.225E+01   -1.223E+01   -1.222E+01   -1.220E+01   -1.218E+01   -1.216E+01   -1.213E+01   -1.211E+01   -1.209E+01   -1.206E+01
    -1.204E+01   -1.201E+01   -1.198E+01   -1.195E+01   -1.192E+01   -1.189E+01   -1.186E+01   -1.183E+01   -1.179E+01   -1.176E+01
    -1.172E+01   -1.168E+01   -1.164E+01   -1.161E+01   -1.157E+01   -1.152E+01   -1.148E+01   -1.144E+01   -1.139E+01   -1.135E+01
    -1.130E+01   -1.125E+01   -1.120E+01   -1.115E+01   -1.110E+01   -1.105E+01   -1.100E+01   -1.094E+01   -1.089E+01   -1.083E+01
    -1.078E+01   -1.072E+01   -1.066E+01   -1.060E+01   -1.053E+01   -1.047E+01   -1.041E+01   -1.034E+01   -1.028E+01   -1.021E+01
    -1.014E+01   -1.007E+01   -1.000E+01   -9.932E+00   -9.860E+00   -9.786E+00   -9.712E+00   -9.636E+00   -9.560E+00   -9.482E+00
    -9.403E+00   -9.323E+00   -9.243E+00   -9.161E+00   -9.078E+00   -8.995E+00   -8.910E+00   -8.824E+00   -8.738E+00   -8.651E+00
    -8.563E+00   -8.474E+00   -8.384E+00   -8.293E+00   -8.202E+00   -8.110E+00   -8.017E+00   -7.924E+00   -7.829E+00   -7.734E+00
    -7.639E+00   -7.542E+00   -7.445E+00   -7.348E+00   -7.250E+00   -7.151E+00   -7.051E+00   -6.952E+00   -6.851E+00   -6.750E+00
    -6.649E+00   -6.547E+00   -6.444E+00   -6.342E+00   -6.238E+00   -6.135E+00   -6.031E+00   -5.926E+00   -5.821E+00   -5.716E+00
    -5.611E+00   -5.505E+00   -5.399E+00   -5.293E+00   -5.186E+00   -5.079E+00   -4.972E+00   -4.865E+00   -4.758E+00   -4.650E+00
    -4.543E+00   -4.435E+00   -4.327E+00   -4.219E+00   -4.111E+00   -4.002E+00   -3.894E+00   -3.786E+00   -3.678E+00   -3.569E+00
    -3.461E+00   -3.353E+00   -3.245E+00   -3.137E+00   -3.029E+00   -2.921E+00   -2.813E+00   -2.705E+00   -2.598E+00   -2.490E+00
    -2.383E+00   -2.276E+00   -2.170E+00   -2.063E+00   -1.957E+00   -1.851E+00   -1.745E+00   -1.640E+00   -1.535E+00   -1.430E+00
    -1.326E+00   -1.222E+00   -1.118E+00   -1.015E+00   -9.122E-01   -8.099E-01   -7.080E-01   -6.066E-01   -5.057E-01   -4.053E-01
    -3.053E-01   -2.059E-01   -1.071E-01   -8.710E-03    8.910E-02    1.864E-01    2.831E-01    3.792E-01    4.748E-01    5.698E-01
     6.641E-01    7.579E-01    8.511E-01    9.436E-01    1.036E+00    1.127E+00    1.218E+00    1.307E+00    1.397E+00    1.485E+00
     1.573E+00    1.661E+00    1.747E+00    1.833E+00    1.918E+00    2.003E+00    2.086E+00    2.169E+00    2.252E+00    2.333E+00
     2.414E+00    2.494E+00    2.573E+00    2.651E+00    2.728E+00    2.805E+00    2.881E+00    2.956E+00    3.030E+00    3.104E+00
     3.176E+00    3.248E+00    3.318E+00    3.388E+00    3.457E+00    3.525E+00    3.593E+00    3.659E+00    3.725E+00    3.790E+00
     3.854E+00    3.918E+00    3.981E+00    4.043E+00    4.105E+00    4.166E+00    4.226E+00    4.286E+00    4.345E+00    4.404E+00
     4.463E+00    4.520E+00    4.578E+00    4.635E+00    4.691E+00    4.747E+00    4.803E+00    4.859E+00    4.914E+00    4.969E+00
     5.023E+00    5.077E+00    5.132E+00    5.185E+00    5.239E+00    5.293E+00    5.346E+00    5.399E+00    5.452E+00    5.505E+00
     5.558E+00    5.611E+00    5.664E+00    5.717E+00    5.770E+00    5.823E+00    5.876E+00    5.930E+00
 Ala      Conc. = 2.44E+02
