 LCModel (Version 6.3-1L) Copyright: S.W. Provencher.          Ref.: Magn. Reson. Med. 30:672-679 (1993).                
 Slice#2 Row#8 Col#7  K_02_press_1_raw_act
 36 lines in following concentration table = NCONC+1
    Conc.  %SD /Cr+PCr  Metabolite                                         
   14.935 999% 6.4E-03 Ala                                                 
    0.000 999%   0.000 Asp                                                 
  653.496  49%   0.279 Cr                                                  
 1.69E+03  20%   0.721 PCr                                                 
    0.000 999%   0.000 GABA                                                
    0.000 999%   0.000 Glc                                                 
  899.557  36%   0.384 Gln                                                 
 2.13E+03  17%   0.908 Glu                                                 
  729.140   5%   0.311 GPC                                                 
    0.000 999%   0.000 PCh                                                 
  592.048  20%   0.253 GSH                                                 
 2.44E+03  17%   1.041 Ins                                                 
    4.638 999% 2.0E-03 Lac                                                 
 3.37E+03   5%   1.439 NAA                                                 
  431.269  37%   0.184 NAAG                                                
   45.755  95% 2.0E-02 Scyllo                                              
  404.583  79%   0.173 Tau                                                 
  361.829  52%   0.154 -CrCH2                                              
  729.140   5%   0.311 GPC+PCh                                             
 3.80E+03   4%   1.623 NAA+NAAG                                            
 2.34E+03   4%   1.000 Cr+PCr                                              
 3.03E+03  17%   1.292 Glu+Gln                                             
  673.084 200%   0.287 Lip13a                                              
  331.960 183%   0.142 Lip13b                                              
  124.531 271% 5.3E-02 Lip09                                               
 2.22E+03  21%   0.945 MM09                                                
  171.137 125% 7.3E-02 Lip20                                               
 4.69E+03  15%   2.002 MM20                                                
  822.372  38%   0.351 MM12                                                
 1.49E+03  40%   0.637 MM14                                                
  998.992  43%   0.426 MM17                                                
 1.01E+03  90%   0.429 Lip13a+Lip13b                                       
 3.32E+03  27%   1.416 MM14+Lip13a+Lip13b+MM12                             
 2.34E+03  18%   0.998 MM09+Lip09                                          
 4.86E+03  15%   2.075 MM20+Lip20                                          
   6 lines in following misc. output table
  FWHM = 0.038 ppm    S/N =  12                                            
  Data shift = 0.008 ppm                                                   
  Ph: -47 deg     -12.0 deg/ppm                                            
  alphaB,S = 1.1E+00,   5.3E+01                                            
   14 spline knots.   Ns = 6(1)                                            
  (11) 4 infls.   ( 5) 1 extrs.                                            
  498 points on ppm-axis = NY
      4.000000     3.992357     3.984714     3.977070     3.969427     3.961784     3.954141     3.946497     3.938854     3.931211
      3.923568     3.915925     3.908281     3.900638     3.892995     3.885352     3.877708     3.870065     3.862422     3.854779
      3.847136     3.839492     3.831849     3.824206     3.816563     3.808919     3.801276     3.793633     3.785990     3.778347
      3.770703     3.763060     3.755417     3.747774     3.740130     3.732487     3.724844     3.717201     3.709558     3.701914
      3.694271     3.686628     3.678985     3.671341     3.663698     3.656055     3.648412     3.640769     3.633125     3.625482
      3.617839     3.610196     3.602552     3.594909     3.587266     3.579623     3.571980     3.564336     3.556693     3.549050
      3.541407     3.533763     3.526120     3.518477     3.510834     3.503191     3.495547     3.487904     3.480261     3.472618
      3.464974     3.457331     3.449688     3.442045     3.434402     3.426758     3.419115     3.411472     3.403829     3.396185
      3.388542     3.380899     3.373256     3.365613     3.357969     3.350326     3.342683     3.335040     3.327396     3.319753
      3.312110     3.304467     3.296824     3.289180     3.281537     3.273894     3.266251     3.258607     3.250964     3.243321
      3.235678     3.228034     3.220391     3.212748     3.205105     3.197462     3.189818     3.182175     3.174532     3.166889
      3.159245     3.151602     3.143959     3.136316     3.128673     3.121029     3.113386     3.105743     3.098100     3.090456
      3.082813     3.075170     3.067527     3.059884     3.052240     3.044597     3.036954     3.029311     3.021667     3.014024
      3.006381     2.998738     2.991095     2.983451     2.975808     2.968165     2.960522     2.952878     2.945235     2.937592
      2.929949     2.922306     2.914662     2.907019     2.899376     2.891733     2.884089     2.876446     2.868803     2.861160
      2.853517     2.845873     2.838230     2.830587     2.822944     2.815300     2.807657     2.800014     2.792371     2.784728
      2.777084     2.769441     2.761798     2.754155     2.746511     2.738868     2.731225     2.723582     2.715939     2.708295
      2.700652     2.693009     2.685366     2.677722     2.670079     2.662436     2.654793     2.647150     2.639506     2.631863
      2.624220     2.616577     2.608933     2.601290     2.593647     2.586004     2.578361     2.570717     2.563074     2.555431
      2.547788     2.540144     2.532501     2.524858     2.517215     2.509572     2.501928     2.494285     2.486642     2.478999
      2.471355     2.463712     2.456069     2.448426     2.440783     2.433139     2.425496     2.417853     2.410210     2.402566
      2.394923     2.387280     2.379637     2.371994     2.364350     2.356707     2.349064     2.341421     2.333777     2.326134
      2.318491     2.310848     2.303205     2.295561     2.287918     2.280275     2.272632     2.264988     2.257345     2.249702
      2.242059     2.234416     2.226772     2.219129     2.211486     2.203843     2.196199     2.188556     2.180913     2.173270
      2.165627     2.157983     2.150340     2.142697     2.135054     2.127410     2.119767     2.112124     2.104481     2.096838
      2.089194     2.081551     2.073908     2.066265     2.058621     2.050978     2.043335     2.035692     2.028049     2.020405
      2.012762     2.005119     1.997476     1.989833     1.982190     1.974546     1.966903     1.959260     1.951617     1.943974
      1.936331     1.928688     1.921045     1.913402     1.905759     1.898115     1.890472     1.882829     1.875186     1.867543
      1.859900     1.852257     1.844614     1.836971     1.829327     1.821684     1.814041     1.806398     1.798755     1.791112
      1.783469     1.775826     1.768183     1.760540     1.752896     1.745253     1.737610     1.729967     1.722324     1.714681
      1.707038     1.699395     1.691752     1.684108     1.676465     1.668822     1.661179     1.653536     1.645893     1.638250
      1.630607     1.622964     1.615321     1.607677     1.600034     1.592391     1.584748     1.577105     1.569462     1.561819
      1.554176     1.546533     1.538890     1.531246     1.523603     1.515960     1.508317     1.500674     1.493031     1.485388
      1.477745     1.470102     1.462458     1.454815     1.447172     1.439529     1.431886     1.424243     1.416600     1.408957
      1.401314     1.393671     1.386027     1.378384     1.370741     1.363098     1.355455     1.347812     1.340169     1.332526
      1.324883     1.317240     1.309596     1.301953     1.294310     1.286667     1.279024     1.271381     1.263738     1.256095
      1.248452     1.240808     1.233165     1.225522     1.217879     1.210236     1.202593     1.194950     1.187307     1.179664
      1.172021     1.164377     1.156734     1.149091     1.141448     1.133805     1.126162     1.118519     1.110876     1.103233
      1.095590     1.087946     1.080303     1.072660     1.065017     1.057374     1.049731     1.042088     1.034445     1.026802
      1.019158     1.011515     1.003872     0.996229     0.988586     0.980943     0.973300     0.965657     0.958014     0.950371
      0.942727     0.935084     0.927441     0.919798     0.912155     0.904512     0.896869     0.889226     0.881583     0.873940
      0.866296     0.858653     0.851010     0.843367     0.835724     0.828081     0.820438     0.812795     0.805152     0.797508
      0.789865     0.782222     0.774579     0.766936     0.759293     0.751650     0.744007     0.736364     0.728721     0.721077
      0.713434     0.705791     0.698148     0.690505     0.682862     0.675219     0.667576     0.659933     0.652290     0.644646
      0.637003     0.629360     0.621717     0.614074     0.606431     0.598788     0.591145     0.583502     0.575858     0.568215
      0.560572     0.552929     0.545286     0.537643     0.530000     0.522357     0.514714     0.507071     0.499427     0.491784
      0.484141     0.476498     0.468855     0.461212     0.453569     0.445925     0.438282     0.430639     0.422996     0.415353
      0.407710     0.400067     0.392424     0.384780     0.377137     0.369494     0.361851     0.354208     0.346565     0.338922
      0.331278     0.323635     0.315992     0.308349     0.300706     0.293063     0.285420     0.277777     0.270133     0.262490
      0.254847     0.247204     0.239561     0.231918     0.224275     0.216631     0.208988     0.201345
 NY phased data points follow
  -8.92270E+01 -8.57924E+01 -8.86721E+01 -7.52081E+01 -6.88405E+01 -7.23137E+01 -5.90151E+01 -3.76680E+01 -2.77986E+01 -1.53391E+01
  -1.61944E+01 -1.52856E+01 -3.14956E+01 -3.78905E+01 -3.93768E+01 -5.97464E+01 -5.27162E+01 -6.23611E+01 -6.62003E+01 -5.59593E+01
  -6.16336E+01 -6.75696E+01 -6.31454E+01 -7.05208E+01 -5.40269E+01 -5.41285E+01 -5.17095E+01 -5.89134E+01 -5.13589E+01 -4.05776E+01
  -3.99271E+01 -3.76372E+01 -3.21771E+01 -3.73924E+01 -3.94170E+01 -5.35333E+01 -4.91561E+01 -4.50237E+01 -3.98810E+01 -3.68181E+01
  -3.92682E+01 -3.82298E+01 -3.48314E+01 -3.57831E+01 -3.12803E+01 -2.81018E+01 -1.49037E+01 -1.52265E+01 -2.02331E+01 -3.05630E+01
  -3.23136E+01 -3.67816E+01 -3.71832E+01 -3.73339E+01 -3.45569E+01 -3.74371E+01 -2.22515E+01 -3.33101E+01 -2.59656E+01 -3.33119E+01
  -3.82986E+01 -3.66410E+01 -3.31734E+01 -4.65311E+01 -4.62743E+01 -4.75309E+01 -4.06962E+01 -4.49375E+01 -3.78450E+01 -3.02856E+01
  -3.25147E+01 -4.10455E+01 -2.92056E+01 -3.92227E+01 -2.73572E+01 -3.09778E+01 -2.53256E+01 -2.86524E+01 -3.11077E+01 -3.48293E+01
  -3.58377E+01 -2.67791E+01 -2.61695E+01 -1.71316E+01 -3.34455E+01 -3.29137E+01 -2.98740E+01 -3.50978E+01 -2.87638E+01 -3.10261E+01
  -1.72685E+01 -2.23272E+01 -1.96901E+01 -6.30575E+00 -1.60274E+01 -1.08715E+01 -5.24725E+00 -7.60343E+00 -5.55926E+00  2.37899E+00
   1.81502E+01  3.76918E+01  5.83867E+01  4.89878E+01  3.92551E+01  3.19439E+01  2.27986E+01  1.10080E+01  8.29604E+00  4.71032E-02
  -3.20665E+00 -1.30795E+01 -8.17432E+00  2.40862E+00 -1.66791E+01 -1.88496E+01 -1.23601E+01 -1.31020E+01 -3.88757E+00 -4.27741E+00
  -4.11946E-01 -6.90077E+00 -9.09745E+00  6.55472E+00  3.09509E+01  4.60730E+01  7.87423E+01  8.56945E+01  6.84458E+01  5.69645E+01
   3.96230E+01  2.51298E+01  6.86597E+00  8.65574E-01  2.00691E-01 -2.78354E+00 -7.49544E+00 -2.04580E+01 -5.70537E+00 -9.56615E+00
   4.05075E+00 -6.02592E+00 -1.01007E+01 -9.31062E-01 -8.96026E+00 -1.41250E+01 -1.55790E+01 -1.14435E+01 -6.86188E+00 -9.91306E+00
  -9.11327E+00  3.51868E-01 -5.37456E+00 -2.60721E+00 -1.22513E+01 -1.27182E+01 -8.64064E+00 -4.76201E+00 -4.58435E+00 -1.02182E+01
  -3.08340E+00 -1.98996E+00 -1.22569E+01 -8.50461E+00 -1.12566E+01 -5.72949E+00 -1.04073E+01 -4.08869E+00 -9.20111E+00 -9.26696E+00
  -1.19732E+01 -5.90685E+00 -7.10254E+00 -2.01045E+01 -3.19365E+01 -2.77110E+01 -3.45705E+01 -3.08761E+01 -2.01326E+01 -2.76500E+01
  -2.10381E+01 -1.99789E+01 -2.03042E+01 -1.54416E+01 -1.74467E+01 -1.45810E+01 -1.66864E+01 -1.83603E+01 -5.75046E+00 -5.49757E-01
   1.21106E+00  4.87536E+00  1.27761E+00  2.66449E+00  9.95392E+00 -6.37689E-01 -8.10975E-01 -9.63362E+00 -3.78323E+00 -5.62375E+00
  -3.77978E+00 -3.84310E+00  8.10262E+00  1.26274E+01  6.91979E+00  4.00217E+00  9.33671E+00  3.50128E+00 -5.60644E+00 -6.52968E+00
  -5.61442E+00 -2.50048E+00 -1.57296E+00  3.48422E+00  1.27595E+01  1.80808E+01  2.55675E+01  1.07532E+01  1.07831E+01  8.70967E-01
  -1.61098E+00 -2.34983E+00 -2.77510E+00 -2.60250E+00 -2.13688E+00  3.74750E+00  9.53622E+00  1.90315E+01  9.30798E+00  2.32547E+01
   1.73052E+01  2.27335E+01  1.50343E+01  4.93058E+00  1.63892E+01  1.24946E+01  1.61977E+01  2.42051E+01  1.04386E+01  2.12423E+01
   1.63578E+01  1.04395E+01  6.28653E+00  1.78528E+01  1.75184E+01  1.88354E+01  1.42355E+01  2.46199E+01  1.39613E+01  3.41863E+01
   2.32308E+01  2.39561E+01  2.68124E+01  4.80758E+01  4.85895E+01  5.79047E+01  4.78993E+01  5.98996E+01  9.81147E+01  1.39092E+02
   1.69529E+02  1.53713E+02  1.31744E+02  1.04752E+02  8.75484E+01  6.12477E+01  4.78658E+01  3.82592E+01  2.62276E+01  2.94895E+01
   2.18345E+01  1.99473E+01  2.47290E+01  1.14495E+01  1.58894E+01  1.29297E+01  1.66856E+01  1.80692E+01  1.19271E+01  5.95017E+00
   1.36223E+01  1.60637E+01  8.30918E+00  1.31636E+01  1.28110E+01  8.33066E+00  1.49787E+01  1.91518E+01  2.60480E-02  1.32401E+01
   6.28373E+00  6.22296E-01  7.37448E+00  1.79164E+01  2.03195E+01  6.73821E+00  1.64647E+01  1.77368E+01  1.14710E+01  1.83892E+01
   1.95390E+01  1.64016E+01  1.75149E+01  1.66845E+01  1.64147E+01  2.09248E+01  1.69959E+01  2.45768E+01  1.69485E+01  1.66547E+01
   1.18213E+01  1.17267E+01  2.75431E+01  2.50904E+01  1.88264E+01  2.69554E+01  2.38632E+01  1.56486E+01  1.94399E+01  1.59041E+01
   1.02704E+01  1.82747E+01  2.05555E+01  2.08468E+01  1.97017E+01  2.95215E+01  2.57009E+01  1.41033E+01  2.03273E+01  1.31663E+01
   1.87889E+01  1.64830E+01  2.43614E+01  2.96682E+01  2.41972E+01  3.35166E+01  2.87618E+01  2.20083E+01  2.39756E+01  1.66493E+01
   1.81795E+01  2.60690E+01  1.80812E+01  1.18648E+01  2.16906E+01  2.35300E+01  2.20867E+01  1.45249E+01  3.53937E+01  2.47600E+01
   2.01270E+01  2.47534E+01  2.72588E+01  1.86857E+01  2.51193E+01  3.04830E+01  3.09197E+01  2.54751E+01  3.02550E+01  2.68217E+01
   2.75940E+01  2.00343E+01  2.14755E+01  3.23831E+01  3.48486E+01  3.55526E+01  2.53868E+01  2.34981E+01  2.46474E+01  2.49023E+01
   2.33966E+01  2.05096E+01  2.32541E+01  1.85671E+01  2.50104E+01  2.09945E+01  2.37343E+01  2.57117E+01  2.35977E+01  2.77789E+01
   2.91141E+01  2.17368E+01  2.35556E+01  2.45623E+01  2.79595E+01  2.98752E+01  2.30473E+01  1.97559E+01  1.16655E+01  1.92498E+01
   2.79923E+01  2.77515E+01  2.41129E+01  2.02693E+01  2.83655E+01  2.16493E+01  3.51400E+01  3.14644E+01  2.98772E+01  3.40373E+01
   2.30170E+01  1.95701E+01  3.05076E+01  2.84383E+01  3.56922E+01  3.82845E+01  3.64315E+01  4.06181E+01  4.04036E+01  3.48376E+01
   4.49434E+01  3.18174E+01  3.79270E+01  3.10984E+01  3.29634E+01  3.64860E+01  2.71552E+01  2.69480E+01  2.91932E+01  2.25799E+01
   3.12779E+01  2.19241E+01  2.61010E+01  2.68566E+01  2.94614E+01  2.99817E+01  3.04387E+01  2.76657E+01  2.33342E+01  2.58714E+01
   2.11397E+01  2.98540E+01  2.72821E+01  2.90480E+01  1.80148E+01  2.07010E+01  2.55678E+01  1.71254E+01  2.14157E+01  2.10542E+01
   2.42641E+01  2.36491E+01  2.85708E+01  2.24581E+01  2.22116E+01  1.90882E+01  2.19238E+01  1.69338E+01  2.95667E+01  1.62023E+01
   2.74095E+01  2.29686E+01  1.75405E+01  2.50427E+01  1.92012E+01  2.39399E+01  1.86811E+01  2.67050E+01  2.66641E+01  2.43010E+01
   1.73646E+01  2.82675E+01  2.16472E+01  2.79033E+01  2.52651E+01  1.23170E+01  1.68329E+01  1.97302E+01  2.43356E+01  1.99178E+01
   2.70928E+01  2.07197E+01  2.43323E+01  1.79639E+01  2.25505E+01  2.17980E+01  2.17514E+01  1.95768E+01  1.74694E+01  2.67527E+01
   2.69301E+01  1.78270E+01  2.21856E+01  2.20072E+01  2.20769E+01  1.68354E+01  2.84404E+01  2.65896E+01  2.31851E+01  2.38139E+01
   1.46733E+01  3.25748E+01  2.60380E+01  1.80361E+01  2.26498E+01  2.21127E+01  2.22118E+01  1.33162E+01
 NY points of the fit to the data follow
  -7.34105E+01 -7.31153E+01 -7.23915E+01 -7.03362E+01 -6.72044E+01 -6.32190E+01 -5.53275E+01 -4.22588E+01 -2.73343E+01 -1.71476E+01
  -1.57314E+01 -2.12165E+01 -2.94796E+01 -3.76424E+01 -4.44265E+01 -4.95195E+01 -5.38552E+01 -5.72895E+01 -5.89305E+01 -5.93034E+01
  -5.89891E+01 -5.86143E+01 -5.83754E+01 -5.80472E+01 -5.76531E+01 -5.79798E+01 -5.78057E+01 -5.49734E+01 -4.91973E+01 -4.24622E+01
  -3.73334E+01 -3.45836E+01 -3.42809E+01 -3.61796E+01 -3.94253E+01 -4.31744E+01 -4.67406E+01 -4.96312E+01 -5.09263E+01 -5.05489E+01
  -4.89213E+01 -4.66297E+01 -4.40775E+01 -4.02415E+01 -3.41617E+01 -2.72018E+01 -2.28666E+01 -2.33285E+01 -2.71528E+01 -3.18748E+01
  -3.61132E+01 -3.93456E+01 -4.12860E+01 -4.21913E+01 -4.24030E+01 -4.14343E+01 -3.92279E+01 -3.62746E+01 -3.34132E+01 -3.16995E+01
  -3.15306E+01 -3.26176E+01 -3.42867E+01 -3.55855E+01 -3.60249E+01 -3.55617E+01 -3.46182E+01 -3.34505E+01 -3.21053E+01 -3.05003E+01
  -2.89754E+01 -2.80239E+01 -2.74936E+01 -2.70617E+01 -2.66979E+01 -2.66649E+01 -2.71643E+01 -2.78876E+01 -2.85592E+01 -2.88169E+01
  -2.85395E+01 -2.79417E+01 -2.74639E+01 -2.72214E+01 -2.74093E+01 -2.82728E+01 -2.94860E+01 -3.03287E+01 -3.02477E+01 -2.92041E+01
  -2.75639E+01 -2.59238E+01 -2.44628E+01 -2.32375E+01 -2.23121E+01 -2.13327E+01 -1.94091E+01 -1.56315E+01 -1.11765E+01 -1.14068E+00
   1.81133E+01  4.08943E+01  5.59815E+01  5.63548E+01  4.59605E+01  3.23969E+01  1.95468E+01  8.52124E+00 -7.52046E-02 -7.01480E+00
  -1.29152E+01 -1.55710E+01 -1.61538E+01 -1.61756E+01 -1.60010E+01 -1.57361E+01 -1.53830E+01 -1.49691E+01 -1.44538E+01 -1.36687E+01
  -1.19539E+01 -7.73058E+00 -2.90503E+00  6.19526E+00  2.65980E+01  5.43971E+01  7.64349E+01  8.14242E+01  7.08622E+01  5.46598E+01
   3.93881E+01  2.64049E+01  1.58895E+01  6.93543E+00 -2.20311E+00 -8.50396E+00 -1.09006E+01 -1.16259E+01 -1.11510E+01 -9.85017E+00
  -8.41698E+00 -7.37326E+00 -6.82494E+00 -6.73166E+00 -6.94600E+00 -7.25990E+00 -7.59883E+00 -7.92327E+00 -8.21148E+00 -8.52172E+00
  -8.76410E+00 -9.01028E+00 -9.26242E+00 -9.40723E+00 -9.33154E+00 -9.08324E+00 -8.75116E+00 -8.50198E+00 -8.84211E+00 -9.82646E+00
  -1.09818E+01 -1.14928E+01 -1.07565E+01 -9.39696E+00 -8.45543E+00 -8.48200E+00 -9.31574E+00 -1.03098E+01 -1.09799E+01 -1.13480E+01
  -1.16132E+01 -1.18724E+01 -1.22644E+01 -1.30938E+01 -1.41460E+01 -1.48237E+01 -1.44590E+01 -1.31519E+01 -1.21409E+01 -1.21077E+01
  -1.24799E+01 -1.24674E+01 -1.18670E+01 -1.10961E+01 -1.08820E+01 -1.10284E+01 -1.03909E+01 -8.33139E+00 -5.10245E+00 -1.70638E+00
   7.09315E-01  1.81761E+00  1.66382E+00  7.45535E-01 -3.32044E-01 -1.45009E+00 -2.49938E+00 -2.90636E+00 -2.21643E+00 -5.94960E-01
   1.57598E+00  4.09036E+00  6.69505E+00  8.69415E+00  8.98820E+00  7.61893E+00  4.59314E+00  1.41490E-01 -4.29934E+00 -7.06033E+00
  -7.27838E+00 -5.76272E+00 -2.43831E+00  3.16435E+00  9.61083E+00  1.39817E+01  1.44996E+01  1.21381E+01  7.99940E+00  2.46387E+00
  -3.45919E+00 -7.49399E+00 -7.93351E+00 -4.98628E+00 -7.13488E-02  4.87941E+00  8.98827E+00  1.20178E+01  1.35748E+01  1.37421E+01
   1.30282E+01  1.23717E+01  1.23660E+01  1.28739E+01  1.37581E+01  1.52710E+01  1.70688E+01  1.81949E+01  1.84963E+01  1.79124E+01
   1.65394E+01  1.49552E+01  1.42461E+01  1.50570E+01  1.67977E+01  1.87392E+01  2.05128E+01  2.18546E+01  2.25443E+01  2.31561E+01
   2.44764E+01  2.62259E+01  2.96224E+01  3.53729E+01  4.33240E+01  5.18869E+01  5.66832E+01  7.04851E+01  1.01778E+02  1.39136E+02
   1.61424E+02  1.57076E+02  1.34848E+02  1.08750E+02  8.51282E+01  6.49728E+01  4.93919E+01  3.64617E+01  2.48846E+01  1.97427E+01
   1.79396E+01  1.70214E+01  1.66499E+01  1.65140E+01  1.62596E+01  1.58603E+01  1.53960E+01  1.49142E+01  1.44179E+01  1.39547E+01
   1.35781E+01  1.33162E+01  1.31533E+01  1.30471E+01  1.29639E+01  1.28891E+01  1.28217E+01  1.27691E+01  1.27589E+01  1.28147E+01
   1.29551E+01  1.31736E+01  1.34368E+01  1.37190E+01  1.40219E+01  1.43362E+01  1.46523E+01  1.49774E+01  1.53227E+01  1.56943E+01
   1.60920E+01  1.65009E+01  1.69053E+01  1.72893E+01  1.76404E+01  1.79543E+01  1.82293E+01  1.84580E+01  1.86417E+01  1.87821E+01
   1.88816E+01  1.89458E+01  1.89815E+01  1.89953E+01  1.89946E+01  1.89870E+01  1.89814E+01  1.89865E+01  1.90103E+01  1.90585E+01
   1.91366E+01  1.92491E+01  1.93918E+01  1.95754E+01  1.98029E+01  2.00391E+01  2.02431E+01  2.04047E+01  2.05538E+01  2.07276E+01
   2.09231E+01  2.11249E+01  2.13545E+01  2.16278E+01  2.19251E+01  2.22073E+01  2.24339E+01  2.25983E+01  2.27194E+01  2.28112E+01
   2.28866E+01  2.29586E+01  2.30291E+01  2.31136E+01  2.32363E+01  2.33974E+01  2.35942E+01  2.38307E+01  2.41214E+01  2.44801E+01
   2.49005E+01  2.53656E+01  2.58582E+01  2.63488E+01  2.67933E+01  2.71455E+01  2.73705E+01  2.74511E+01  2.73890E+01  2.71961E+01
   2.68962E+01  2.65192E+01  2.60951E+01  2.56553E+01  2.52248E+01  2.48187E+01  2.44459E+01  2.41096E+01  2.38091E+01  2.35401E+01
   2.32979E+01  2.30783E+01  2.28787E+01  2.26982E+01  2.25372E+01  2.23964E+01  2.22777E+01  2.21839E+01  2.21187E+01  2.20854E+01
   2.20876E+01  2.21282E+01  2.22104E+01  2.23378E+01  2.25140E+01  2.27424E+01  2.30256E+01  2.33659E+01  2.37654E+01  2.42261E+01
   2.47488E+01  2.53331E+01  2.59767E+01  2.66756E+01  2.74247E+01  2.82165E+01  2.90416E+01  2.98875E+01  3.07400E+01  3.15829E+01
   3.23995E+01  3.31719E+01  3.38821E+01  3.45122E+01  3.50458E+01  3.54691E+01  3.57712E+01  3.59447E+01  3.59855E+01  3.58932E+01
   3.56719E+01  3.53295E+01  3.48773E+01  3.43293E+01  3.37011E+01  3.30092E+01  3.22715E+01  3.15054E+01  3.07275E+01  2.99526E+01
   2.91934E+01  2.84607E+01  2.77635E+01  2.71084E+01  2.65001E+01  2.59406E+01  2.54307E+01  2.49696E+01  2.45561E+01  2.41880E+01
   2.38621E+01  2.35750E+01  2.33230E+01  2.31027E+01  2.29112E+01  2.27452E+01  2.26018E+01  2.24779E+01  2.23712E+01  2.22797E+01
   2.22018E+01  2.21357E+01  2.20799E+01  2.20328E+01  2.19934E+01  2.19611E+01  2.19352E+01  2.19147E+01  2.18989E+01  2.18870E+01
   2.18789E+01  2.18743E+01  2.18729E+01  2.18741E+01  2.18775E+01  2.18829E+01  2.18904E+01  2.18997E+01  2.19109E+01  2.19233E+01
   2.19368E+01  2.19514E+01  2.19672E+01  2.19843E+01  2.20023E+01  2.20209E+01  2.20401E+01  2.20600E+01  2.20808E+01  2.21023E+01
   2.21243E+01  2.21465E+01  2.21692E+01  2.21924E+01  2.22162E+01  2.22405E+01  2.22650E+01  2.22896E+01  2.23145E+01  2.23400E+01
   2.23659E+01  2.23920E+01  2.24181E+01  2.24444E+01  2.24710E+01  2.24981E+01  2.25255E+01  2.25529E+01  2.25804E+01  2.26081E+01
   2.26361E+01  2.26646E+01  2.26932E+01  2.27218E+01  2.27505E+01  2.27795E+01  2.28089E+01  2.28386E+01
 NY background values follow
    -8.011E+01   -7.947E+01   -7.882E+01   -7.818E+01   -7.754E+01   -7.689E+01   -7.625E+01   -7.561E+01   -7.497E+01   -7.432E+01
    -7.368E+01   -7.304E+01   -7.240E+01   -7.176E+01   -7.112E+01   -7.049E+01   -6.985E+01   -6.921E+01   -6.858E+01   -6.794E+01
    -6.731E+01   -6.668E+01   -6.605E+01   -6.542E+01   -6.479E+01   -6.416E+01   -6.354E+01   -6.291E+01   -6.229E+01   -6.167E+01
    -6.105E+01   -6.043E+01   -5.982E+01   -5.920E+01   -5.859E+01   -5.798E+01   -5.737E+01   -5.677E+01   -5.617E+01   -5.556E+01
    -5.497E+01   -5.437E+01   -5.378E+01   -5.318E+01   -5.260E+01   -5.201E+01   -5.143E+01   -5.085E+01   -5.027E+01   -4.969E+01
    -4.912E+01   -4.855E+01   -4.799E+01   -4.743E+01   -4.687E+01   -4.631E+01   -4.575E+01   -4.520E+01   -4.466E+01   -4.411E+01
    -4.357E+01   -4.303E+01   -4.250E+01   -4.197E+01   -4.144E+01   -4.092E+01   -4.040E+01   -3.988E+01   -3.937E+01   -3.886E+01
    -3.835E+01   -3.785E+01   -3.735E+01   -3.686E+01   -3.636E+01   -3.588E+01   -3.539E+01   -3.491E+01   -3.444E+01   -3.397E+01
    -3.350E+01   -3.304E+01   -3.258E+01   -3.212E+01   -3.167E+01   -3.123E+01   -3.078E+01   -3.035E+01   -2.991E+01   -2.948E+01
    -2.906E+01   -2.864E+01   -2.822E+01   -2.781E+01   -2.741E+01   -2.700E+01   -2.661E+01   -2.621E+01   -2.582E+01   -2.544E+01
    -2.506E+01   -2.468E+01   -2.431E+01   -2.394E+01   -2.358E+01   -2.322E+01   -2.287E+01   -2.252E+01   -2.217E+01   -2.183E+01
    -2.149E+01   -2.116E+01   -2.083E+01   -2.051E+01   -2.019E+01   -1.987E+01   -1.956E+01   -1.925E+01   -1.894E+01   -1.864E+01
    -1.835E+01   -1.806E+01   -1.777E+01   -1.748E+01   -1.720E+01   -1.693E+01   -1.666E+01   -1.639E+01   -1.612E+01   -1.586E+01
    -1.561E+01   -1.536E+01   -1.511E+01   -1.486E+01   -1.462E+01   -1.439E+01   -1.415E+01   -1.392E+01   -1.370E+01   -1.348E+01
    -1.326E+01   -1.304E+01   -1.283E+01   -1.263E+01   -1.242E+01   -1.222E+01   -1.202E+01   -1.182E+01   -1.163E+01   -1.144E+01
    -1.125E+01   -1.107E+01   -1.088E+01   -1.070E+01   -1.052E+01   -1.035E+01   -1.017E+01   -1.000E+01   -9.830E+00   -9.662E+00
    -9.495E+00   -9.330E+00   -9.166E+00   -9.004E+00   -8.843E+00   -8.684E+00   -8.525E+00   -8.368E+00   -8.211E+00   -8.056E+00
    -7.901E+00   -7.748E+00   -7.594E+00   -7.441E+00   -7.289E+00   -7.137E+00   -6.986E+00   -6.834E+00   -6.683E+00   -6.531E+00
    -6.380E+00   -6.228E+00   -6.076E+00   -5.924E+00   -5.772E+00   -5.619E+00   -5.467E+00   -5.314E+00   -5.161E+00   -5.008E+00
    -4.856E+00   -4.703E+00   -4.550E+00   -4.397E+00   -4.245E+00   -4.092E+00   -3.940E+00   -3.788E+00   -3.636E+00   -3.484E+00
    -3.333E+00   -3.181E+00   -3.031E+00   -2.880E+00   -2.730E+00   -2.580E+00   -2.431E+00   -2.282E+00   -2.134E+00   -1.986E+00
    -1.839E+00   -1.692E+00   -1.546E+00   -1.400E+00   -1.255E+00   -1.111E+00   -9.677E-01   -8.250E-01   -6.830E-01   -5.418E-01
    -4.015E-01   -2.620E-01   -1.234E-01    1.437E-02    1.512E-01    2.870E-01    4.218E-01    5.557E-01    6.885E-01    8.204E-01
     9.513E-01    1.081E+00    1.210E+00    1.339E+00    1.466E+00    1.592E+00    1.718E+00    1.843E+00    1.967E+00    2.090E+00
     2.212E+00    2.334E+00    2.455E+00    2.575E+00    2.694E+00    2.813E+00    2.932E+00    3.049E+00    3.166E+00    3.283E+00
     3.398E+00    3.514E+00    3.628E+00    3.743E+00    3.856E+00    3.969E+00    4.082E+00    4.195E+00    4.306E+00    4.418E+00
     4.529E+00    4.640E+00    4.750E+00    4.860E+00    4.970E+00    5.079E+00    5.189E+00    5.298E+00    5.406E+00    5.515E+00
     5.623E+00    5.731E+00    5.839E+00    5.947E+00    6.055E+00    6.162E+00    6.269E+00    6.377E+00    6.484E+00    6.591E+00
     6.697E+00    6.804E+00    6.910E+00    7.016E+00    7.122E+00    7.228E+00    7.334E+00    7.439E+00    7.544E+00    7.650E+00
     7.755E+00    7.859E+00    7.964E+00    8.068E+00    8.172E+00    8.276E+00    8.380E+00    8.484E+00    8.587E+00    8.691E+00
     8.794E+00    8.897E+00    8.999E+00    9.102E+00    9.204E+00    9.306E+00    9.408E+00    9.509E+00    9.611E+00    9.712E+00
     9.813E+00    9.914E+00    1.001E+01    1.011E+01    1.022E+01    1.032E+01    1.041E+01    1.051E+01    1.061E+01    1.071E+01
     1.081E+01    1.091E+01    1.101E+01    1.111E+01    1.120E+01    1.130E+01    1.140E+01    1.150E+01    1.159E+01    1.169E+01
     1.178E+01    1.188E+01    1.198E+01    1.207E+01    1.217E+01    1.226E+01    1.235E+01    1.245E+01    1.254E+01    1.263E+01
     1.272E+01    1.282E+01    1.291E+01    1.300E+01    1.309E+01    1.318E+01    1.327E+01    1.336E+01    1.345E+01    1.354E+01
     1.362E+01    1.371E+01    1.380E+01    1.388E+01    1.397E+01    1.406E+01    1.414E+01    1.422E+01    1.431E+01    1.439E+01
     1.447E+01    1.456E+01    1.464E+01    1.472E+01    1.480E+01    1.488E+01    1.496E+01    1.504E+01    1.511E+01    1.519E+01
     1.527E+01    1.535E+01    1.542E+01    1.550E+01    1.557E+01    1.565E+01    1.572E+01    1.579E+01    1.587E+01    1.594E+01
     1.601E+01    1.608E+01    1.615E+01    1.622E+01    1.630E+01    1.637E+01    1.643E+01    1.650E+01    1.657E+01    1.664E+01
     1.671E+01    1.678E+01    1.684E+01    1.691E+01    1.698E+01    1.704E+01    1.711E+01    1.717E+01    1.724E+01    1.730E+01
     1.737E+01    1.743E+01    1.750E+01    1.756E+01    1.762E+01    1.769E+01    1.775E+01    1.781E+01    1.788E+01    1.794E+01
     1.800E+01    1.806E+01    1.812E+01    1.818E+01    1.824E+01    1.831E+01    1.837E+01    1.843E+01    1.849E+01    1.854E+01
     1.860E+01    1.866E+01    1.872E+01    1.878E+01    1.884E+01    1.889E+01    1.895E+01    1.901E+01    1.906E+01    1.912E+01
     1.918E+01    1.923E+01    1.929E+01    1.934E+01    1.940E+01    1.945E+01    1.950E+01    1.956E+01    1.961E+01    1.966E+01
     1.971E+01    1.977E+01    1.982E+01    1.987E+01    1.992E+01    1.997E+01    2.002E+01    2.007E+01    2.012E+01    2.017E+01
     2.021E+01    2.026E+01    2.031E+01    2.036E+01    2.040E+01    2.045E+01    2.049E+01    2.054E+01    2.058E+01    2.063E+01
     2.067E+01    2.071E+01    2.076E+01    2.080E+01    2.084E+01    2.089E+01    2.093E+01    2.097E+01    2.101E+01    2.105E+01
     2.109E+01    2.113E+01    2.117E+01    2.121E+01    2.125E+01    2.129E+01    2.133E+01    2.137E+01    2.141E+01    2.145E+01
     2.149E+01    2.153E+01    2.157E+01    2.161E+01    2.164E+01    2.168E+01    2.172E+01    2.176E+01    2.180E+01    2.183E+01
     2.187E+01    2.191E+01    2.195E+01    2.199E+01    2.202E+01    2.206E+01    2.210E+01    2.214E+01
 Ala      Conc. = 1.49E+01
