 LCModel (Version 6.3-1L) Copyright: S.W. Provencher.          Ref.: Magn. Reson. Med. 30:672-679 (1993).                
 Slice#1 Row#14 Col#14  K_02_press_1_raw_act
 36 lines in following concentration table = NCONC+1
    Conc.  %SD /Cr+PCr  Metabolite                                         
   19.419  56%   1.630 Ala                                                 
    1.294 159%   0.109 Asp                                                 
    0.000 999%   0.000 Cr                                                  
   11.910  55%   1.000 PCr                                                 
    0.809 152% 6.8E-02 GABA                                                
    0.869 142% 7.3E-02 Glc                                                 
   12.442 114%   1.045 Gln                                                 
    8.953 167%   0.752 Glu                                                 
    0.000 999%   0.000 GPC                                                 
    0.000 999%   0.000 PCh                                                 
    2.811 202%   0.236 GSH                                                 
   41.981  58%   3.525 Ins                                                 
   11.946  73%   1.003 Lac                                                 
    0.000 999%   0.000 NAA                                                 
   16.465  50%   1.382 NAAG                                                
    0.347 118% 2.9E-02 Scyllo                                              
    1.477 139%   0.124 Tau                                                 
    0.563 581% 4.7E-02 -CrCH2                                              
    0.000 999%   0.000 GPC+PCh                                             
   16.465  50%   1.382 NAA+NAAG                                            
   11.910  55%   1.000 Cr+PCr                                              
   21.395  89%   1.796 Glu+Gln                                             
 1.67E+03   9% 139.996 Lip13a                                              
    0.000 999%   0.000 Lip13b                                              
  667.547   8%  56.049 Lip09                                               
 1.45E-02 999% 1.2E-03 MM09                                                
   65.831  71%   5.527 Lip20                                               
    0.000 999%   0.000 MM20                                                
 4.32E-03 999% 3.6E-04 MM12                                                
 3.13E-02 999% 2.6E-03 MM14                                                
    0.000 999%   0.000 MM17                                                
 1.67E+03   9% 139.996 Lip13a+Lip13b                                       
 1.67E+03   9% 139.999 MM14+Lip13a+Lip13b+MM12                             
  667.562   8%  56.051 MM09+Lip09                                          
   65.831  71%   5.527 MM20+Lip20                                          
   6 lines in following misc. output table
  FWHM = 0.031 ppm    S/N =   3                                            
  Data shift = 0.015 ppm                                                   
  Ph: -17 deg      31.6 deg/ppm                                            
  alphaB,S = 8.5E+01,   5.1E+00                                            
   14 spline knots.   Ns = 5(1)                                            
   2 inflections.     2 extrema                                            
  498 points on ppm-axis = NY
      4.000000     3.992357     3.984714     3.977070     3.969427     3.961784     3.954141     3.946497     3.938854     3.931211
      3.923568     3.915925     3.908281     3.900638     3.892995     3.885352     3.877708     3.870065     3.862422     3.854779
      3.847136     3.839492     3.831849     3.824206     3.816563     3.808919     3.801276     3.793633     3.785990     3.778347
      3.770703     3.763060     3.755417     3.747774     3.740130     3.732487     3.724844     3.717201     3.709558     3.701914
      3.694271     3.686628     3.678985     3.671341     3.663698     3.656055     3.648412     3.640769     3.633125     3.625482
      3.617839     3.610196     3.602552     3.594909     3.587266     3.579623     3.571980     3.564336     3.556693     3.549050
      3.541407     3.533763     3.526120     3.518477     3.510834     3.503191     3.495547     3.487904     3.480261     3.472618
      3.464974     3.457331     3.449688     3.442045     3.434402     3.426758     3.419115     3.411472     3.403829     3.396185
      3.388542     3.380899     3.373256     3.365613     3.357969     3.350326     3.342683     3.335040     3.327396     3.319753
      3.312110     3.304467     3.296824     3.289180     3.281537     3.273894     3.266251     3.258607     3.250964     3.243321
      3.235678     3.228034     3.220391     3.212748     3.205105     3.197462     3.189818     3.182175     3.174532     3.166889
      3.159245     3.151602     3.143959     3.136316     3.128673     3.121029     3.113386     3.105743     3.098100     3.090456
      3.082813     3.075170     3.067527     3.059884     3.052240     3.044597     3.036954     3.029311     3.021667     3.014024
      3.006381     2.998738     2.991095     2.983451     2.975808     2.968165     2.960522     2.952878     2.945235     2.937592
      2.929949     2.922306     2.914662     2.907019     2.899376     2.891733     2.884089     2.876446     2.868803     2.861160
      2.853517     2.845873     2.838230     2.830587     2.822944     2.815300     2.807657     2.800014     2.792371     2.784728
      2.777084     2.769441     2.761798     2.754155     2.746511     2.738868     2.731225     2.723582     2.715939     2.708295
      2.700652     2.693009     2.685366     2.677722     2.670079     2.662436     2.654793     2.647150     2.639506     2.631863
      2.624220     2.616577     2.608933     2.601290     2.593647     2.586004     2.578361     2.570717     2.563074     2.555431
      2.547788     2.540144     2.532501     2.524858     2.517215     2.509572     2.501928     2.494285     2.486642     2.478999
      2.471355     2.463712     2.456069     2.448426     2.440783     2.433139     2.425496     2.417853     2.410210     2.402566
      2.394923     2.387280     2.379637     2.371994     2.364350     2.356707     2.349064     2.341421     2.333777     2.326134
      2.318491     2.310848     2.303205     2.295561     2.287918     2.280275     2.272632     2.264988     2.257345     2.249702
      2.242059     2.234416     2.226772     2.219129     2.211486     2.203843     2.196199     2.188556     2.180913     2.173270
      2.165627     2.157983     2.150340     2.142697     2.135054     2.127410     2.119767     2.112124     2.104481     2.096838
      2.089194     2.081551     2.073908     2.066265     2.058621     2.050978     2.043335     2.035692     2.028049     2.020405
      2.012762     2.005119     1.997476     1.989833     1.982190     1.974546     1.966903     1.959260     1.951617     1.943974
      1.936331     1.928688     1.921045     1.913402     1.905759     1.898115     1.890472     1.882829     1.875186     1.867543
      1.859900     1.852257     1.844614     1.836971     1.829327     1.821684     1.814041     1.806398     1.798755     1.791112
      1.783469     1.775826     1.768183     1.760540     1.752896     1.745253     1.737610     1.729967     1.722324     1.714681
      1.707038     1.699395     1.691752     1.684108     1.676465     1.668822     1.661179     1.653536     1.645893     1.638250
      1.630607     1.622964     1.615321     1.607677     1.600034     1.592391     1.584748     1.577105     1.569462     1.561819
      1.554176     1.546533     1.538890     1.531246     1.523603     1.515960     1.508317     1.500674     1.493031     1.485388
      1.477745     1.470102     1.462458     1.454815     1.447172     1.439529     1.431886     1.424243     1.416600     1.408957
      1.401314     1.393671     1.386027     1.378384     1.370741     1.363098     1.355455     1.347812     1.340169     1.332526
      1.324883     1.317240     1.309596     1.301953     1.294310     1.286667     1.279024     1.271381     1.263738     1.256095
      1.248452     1.240808     1.233165     1.225522     1.217879     1.210236     1.202593     1.194950     1.187307     1.179664
      1.172021     1.164377     1.156734     1.149091     1.141448     1.133805     1.126162     1.118519     1.110876     1.103233
      1.095590     1.087946     1.080303     1.072660     1.065017     1.057374     1.049731     1.042088     1.034445     1.026802
      1.019158     1.011515     1.003872     0.996229     0.988586     0.980943     0.973300     0.965657     0.958014     0.950371
      0.942727     0.935084     0.927441     0.919798     0.912155     0.904512     0.896869     0.889226     0.881583     0.873940
      0.866296     0.858653     0.851010     0.843367     0.835724     0.828081     0.820438     0.812795     0.805152     0.797508
      0.789865     0.782222     0.774579     0.766936     0.759293     0.751650     0.744007     0.736364     0.728721     0.721077
      0.713434     0.705791     0.698148     0.690505     0.682862     0.675219     0.667576     0.659933     0.652290     0.644646
      0.637003     0.629360     0.621717     0.614074     0.606431     0.598788     0.591145     0.583502     0.575858     0.568215
      0.560572     0.552929     0.545286     0.537643     0.530000     0.522357     0.514714     0.507071     0.499427     0.491784
      0.484141     0.476498     0.468855     0.461212     0.453569     0.445925     0.438282     0.430639     0.422996     0.415353
      0.407710     0.400067     0.392424     0.384780     0.377137     0.369494     0.361851     0.354208     0.346565     0.338922
      0.331278     0.323635     0.315992     0.308349     0.300706     0.293063     0.285420     0.277777     0.270133     0.262490
      0.254847     0.247204     0.239561     0.231918     0.224275     0.216631     0.208988     0.201345
 NY phased data points follow
  -3.91441E-01 -4.07221E-01 -4.41006E-01 -7.37114E-01 -4.57829E-01  2.05305E+00 -4.64803E-01 -3.49249E-01 -9.68011E-01 -8.61134E-01
  -1.51252E+00  3.52855E-02 -1.87052E+00  1.31015E-01 -1.80629E+00 -3.05473E-02  2.21720E-01 -2.89405E-01 -1.30517E+00 -7.70224E-01
  -7.28425E-01  7.32979E-01  5.33201E-01 -5.09598E-01 -8.45143E-01 -9.57382E-01 -1.46754E-01 -7.77806E-01 -5.70290E-01  9.34179E-03
   1.02512E+00 -1.15799E-01 -2.09623E-01  3.66210E-01 -1.13955E+00  2.20435E-01 -1.48193E+00 -7.02401E-01 -9.16483E-01 -9.79454E-01
  -2.01658E-01 -1.23997E+00  6.10970E-01 -5.97020E-03  7.46339E-01  2.21118E-01 -5.76455E-01 -1.47450E+00 -1.91842E+00 -1.17665E-01
  -2.94906E-01 -5.34192E-01 -6.02331E-01  3.11749E-01  5.40790E-01 -5.90670E-01 -1.32386E+00  4.88810E-01  6.09404E-01 -6.87906E-01
  -8.16415E-01 -2.32009E-01 -9.08783E-01 -8.47991E-01  3.07651E-01 -6.86507E-01  4.94320E-01 -1.48625E+00 -1.48358E+00  2.77491E-01
   5.06888E-01  2.08823E-01 -1.92295E+00 -5.87430E-01 -6.21229E-01 -1.98721E+00  1.15976E+00 -1.43090E+00 -1.51789E+00 -3.61704E-01
  -5.84771E-01 -9.85710E-01  2.17280E-01  1.42615E+00 -1.40635E+00  1.41231E-01 -1.00316E+00 -8.77340E-01  1.03706E+00 -2.69463E-01
  -6.98543E-01  1.31602E+00  3.90241E-01 -1.76631E+00 -1.16054E+00 -1.05733E+00 -2.48410E-01 -7.44989E-01  3.90843E-01 -5.13386E-01
  -1.87029E+00 -9.32418E-01 -4.92150E-01 -9.50180E-01 -1.11764E+00 -1.33317E-01 -2.51117E+00 -1.49574E-01 -7.91620E-01 -1.67005E+00
  -9.45296E-01  1.54133E-01 -1.15418E-02 -9.13589E-01 -5.23794E-01 -1.63206E+00 -6.95416E-01 -5.95972E-02 -1.49183E-01 -9.58824E-01
   1.74364E+00  1.31797E-01 -8.60641E-01  1.17482E+00 -6.07721E-01  7.26365E-02 -1.25312E+00 -1.91821E+00 -1.94717E+00 -1.21410E-01
  -2.33925E+00 -1.27942E+00 -7.13706E-01 -1.45020E-01 -4.41094E-02 -1.63808E+00 -1.02092E+00  2.92609E-02 -7.18406E-01  1.82050E+00
  -4.02252E-01 -9.82185E-02 -1.63517E+00 -6.68629E-01 -6.56965E-01 -1.04499E+00  4.65238E-01 -3.54697E-01 -8.65799E-01 -7.88865E-01
   1.70946E-01  1.04569E-02 -9.54088E-01  7.48044E-01  4.48534E-01 -1.62261E+00 -1.43425E+00  8.66900E-01  1.10646E+00 -5.56956E-01
  -2.00194E-01  4.21253E-01 -2.67720E-01 -3.64463E-01 -5.13928E-02 -8.46628E-02  1.29666E+00 -5.97125E-02 -2.83259E-01  7.29711E-02
   4.96002E-01  3.84979E-01  4.05034E-01 -1.32390E+00  7.61698E-02 -5.52165E-01 -1.27255E+00 -3.85558E-01 -3.03164E-01 -6.49590E-01
  -3.41298E-01 -4.95757E-01 -2.74812E-01 -5.40550E-01 -8.80007E-01  6.82277E-01  2.20777E-02 -3.65828E-01  5.24939E-01 -5.16218E-01
   7.06060E-01 -4.55055E-01 -1.48918E+00 -1.25497E+00 -8.05286E-01  2.70182E-01  2.80655E-01 -8.37195E-01 -9.52161E-01  4.53336E-02
  -5.68889E-01 -2.99522E-01  4.16372E-01 -8.26618E-01 -1.52319E-01  7.10060E-01 -7.56186E-01 -1.78122E+00  7.92815E-02 -7.73926E-01
   5.66655E-01 -5.50342E-01  2.02401E-01 -4.05782E-01 -6.55099E-01 -1.26650E+00 -1.11398E+00  3.73951E-02 -1.26553E+00 -8.97024E-01
   1.52329E-01 -2.93778E-01 -5.80512E-01 -1.17920E+00  4.90894E-01 -2.68555E-01 -1.48378E+00 -3.11056E-01 -3.77221E-01 -2.56457E-01
  -5.31111E-01 -1.82333E+00  5.89819E-01 -8.85874E-01 -1.58429E-01  2.66900E-02  7.83008E-01 -6.78206E-01  2.81755E-01 -2.43381E-01
  -5.50335E-01 -6.04870E-01 -7.16966E-01 -1.22344E+00  2.30737E-01 -1.90215E+00 -7.08888E-02 -1.08366E+00 -2.13204E+00 -1.09999E+00
  -5.64448E-01  7.74144E-01  1.16880E+00  1.90888E+00  1.37606E-01  9.65942E-01 -1.02974E+00 -1.72410E+00 -2.06341E+00 -1.54613E+00
  -1.11568E+00 -9.44000E-01 -2.05558E+00 -4.85864E-01 -6.60407E-01  8.76285E-01 -5.55545E-01 -3.59480E-01 -9.46893E-01  1.02462E-01
   7.44121E-01 -4.72019E-01  1.22520E+00  1.82648E-01  4.11968E-01 -1.52583E-01 -9.39389E-01  2.13753E-01  3.18873E-01  4.87055E-01
  -5.93691E-01 -3.01809E-01 -1.35512E+00 -1.55976E+00  2.27623E-01 -1.62596E+00 -2.85976E-01  4.21262E-02 -1.18608E+00 -7.27382E-01
   1.31278E+00  9.52692E-02 -1.62004E-01 -3.30231E-01  1.34064E-01 -8.68200E-02 -4.06139E-01 -2.13187E+00 -1.23112E+00 -4.03996E-01
  -7.97200E-04 -2.23420E+00 -1.77374E+00  3.50666E-01  8.21455E-01 -8.37835E-01 -7.92358E-01  5.16315E-01  8.10609E-01 -9.01516E-04
   6.86358E-01 -9.88321E-02 -2.65814E-01 -1.44387E-01  3.16041E-01 -4.66258E-02  8.92198E-01  1.64548E+00  2.38763E+00  2.11202E+00
   2.92273E+00  1.77994E+00 -2.20867E-01  2.35757E+00  2.15891E+00  4.54827E-01  8.42887E-01 -2.14311E-01 -5.53131E-02  1.28750E+00
   6.29053E-01  3.61001E+00  2.13929E+00  2.43506E+00  1.00642E+00  3.70594E+00  4.00517E+00  2.08577E+00  4.38767E+00  3.18301E+00
   2.93187E+00  2.64156E+00  4.42833E+00  5.11503E+00  3.37715E+00  3.47587E+00  3.32949E+00  1.88889E+00  4.28668E+00  3.43627E+00
   2.54707E+00  4.13058E+00  2.83939E+00  3.02741E+00  4.75871E+00  5.41130E+00  3.94670E+00  2.28636E+00  3.09212E+00  3.38428E+00
   5.15641E+00  4.08774E+00  4.06063E+00  2.68133E+00  4.36766E+00  5.64273E+00  2.94038E+00  5.11091E+00  4.28958E+00  3.85107E+00
   4.45212E+00  5.44185E+00  2.94179E+00  3.98329E+00  4.66164E+00  3.57412E+00  3.70197E+00  3.65221E+00  3.99635E+00  4.87094E+00
   3.35193E+00  5.20058E+00  1.98575E+00  6.82554E+00  4.61279E+00  2.90834E+00  4.46417E+00  5.16400E+00  5.05001E+00  4.34579E+00
   4.59474E+00  5.30159E+00  4.77097E+00  4.62020E+00  5.24172E+00  4.21494E+00  4.95495E+00  4.12963E+00  6.11742E+00  3.75102E+00
   4.62718E+00  4.64819E+00  3.82505E+00  4.24820E+00  4.19811E+00  4.00184E+00  4.46210E+00  3.61648E+00  4.26919E+00  2.63824E+00
   3.68415E+00  2.86815E+00  2.05272E+00  2.65208E+00  2.81220E+00  2.96252E+00  3.48894E+00  3.92105E+00  3.40688E+00  9.19681E-01
   1.93664E+00  3.39078E-01  1.50350E+00  1.17250E+00  2.88504E+00  1.19701E+00  1.08372E+00  1.82495E+00  1.19387E+00  1.51659E+00
  -1.21472E-01  2.40573E+00  1.81793E+00  7.77109E-02  1.30113E+00  7.61319E-01  1.13210E+00 -3.88169E-01  6.90661E-01  3.94668E-01
   1.25892E+00  1.74910E+00  1.43597E+00  1.30443E-02 -6.66620E-01  9.11218E-01  1.96600E+00  8.48608E-01  2.21543E-01  9.03698E-01
   8.67306E-01  1.02647E+00  5.87579E-01  4.50291E-01 -6.08085E-01 -8.43851E-01 -3.84430E-01  1.44844E+00  1.10545E-01  1.02472E+00
  -6.62814E-02  4.93469E-01  1.30804E+00  1.18396E+00  1.55445E+00  1.29564E+00 -3.19146E-01  9.12001E-01 -3.50969E-01  3.21047E-01
   1.47090E+00 -5.85893E-01 -2.70750E-01 -5.17419E-01  3.57924E-01 -2.75263E-01  8.49113E-01 -1.71822E-01 -9.50975E-02 -1.22548E+00
  -4.64053E-01  2.73993E-01 -3.88474E-01 -5.40243E-01 -7.21257E-01 -7.44821E-01 -5.04755E-01  6.37731E-01  8.11043E-01 -1.15122E-01
   4.47929E-01  1.33231E-01  1.34216E+00  6.12937E-01 -4.78433E-01 -7.56662E-01 -4.42121E-01  1.18704E-01
 NY points of the fit to the data follow
  -7.02875E-01 -6.73495E-01 -6.34907E-01 -4.83561E-01 -1.74374E-01  5.59692E-02  3.88531E-02 -1.99786E-01 -5.39341E-01 -8.39540E-01
  -9.82383E-01 -9.56935E-01 -8.57148E-01 -7.81815E-01 -7.53881E-01 -7.34792E-01 -6.92405E-01 -6.29264E-01 -5.59548E-01 -4.95766E-01
  -4.35364E-01 -4.36894E-01 -5.54619E-01 -7.43767E-01 -9.00262E-01 -9.20527E-01 -8.06405E-01 -6.23885E-01 -4.20096E-01 -2.57633E-01
  -2.10301E-01 -2.80943E-01 -4.00394E-01 -5.27317E-01 -6.61779E-01 -7.79790E-01 -8.58262E-01 -8.77839E-01 -8.39767E-01 -7.59171E-01
  -6.52573E-01 -4.86237E-01 -1.72948E-01  2.09064E-01  3.96992E-01  2.21535E-01 -2.36838E-01 -7.61393E-01 -1.13360E+00 -1.23163E+00
  -1.09017E+00 -8.45761E-01 -6.44282E-01 -5.33746E-01 -4.41672E-01 -3.30624E-01 -2.33895E-01 -2.09635E-01 -2.96979E-01 -4.75323E-01
  -6.73025E-01 -8.07034E-01 -8.21953E-01 -7.33332E-01 -5.96966E-01 -4.85254E-01 -4.14018E-01 -3.66143E-01 -3.51966E-01 -3.80480E-01
  -4.36614E-01 -4.95018E-01 -5.44599E-01 -5.74893E-01 -5.82545E-01 -5.78236E-01 -5.72302E-01 -5.67270E-01 -5.60322E-01 -5.51636E-01
  -5.44374E-01 -5.55381E-01 -6.14324E-01 -7.23103E-01 -8.30358E-01 -8.72936E-01 -8.25508E-01 -7.06910E-01 -5.63135E-01 -4.45779E-01
  -3.91102E-01 -3.86424E-01 -4.28914E-01 -5.13378E-01 -6.11774E-01 -6.92763E-01 -7.38176E-01 -7.43078E-01 -7.18712E-01 -6.85335E-01
  -6.45483E-01 -6.02696E-01 -5.66773E-01 -5.40725E-01 -5.28228E-01 -5.30154E-01 -5.39432E-01 -5.46359E-01 -5.47347E-01 -5.43941E-01
  -5.40862E-01 -5.40910E-01 -5.43218E-01 -5.46421E-01 -5.49247E-01 -5.51680E-01 -5.51393E-01 -5.45231E-01 -5.31931E-01 -5.05920E-01
  -4.30908E-01 -1.41082E-01  3.62935E-01  6.90693E-01  6.13989E-01  2.01349E-01 -3.43808E-01 -7.92078E-01 -9.67889E-01 -8.83420E-01
  -7.04122E-01 -5.73398E-01 -5.37891E-01 -5.53436E-01 -5.61978E-01 -5.41479E-01 -4.97583E-01 -4.47071E-01 -4.11486E-01 -4.00787E-01
  -4.09641E-01 -4.24402E-01 -4.35834E-01 -4.40578E-01 -4.38127E-01 -4.32220E-01 -4.26264E-01 -4.21252E-01 -4.17807E-01 -4.23632E-01
  -4.40719E-01 -4.51338E-01 -4.42336E-01 -4.12420E-01 -3.68739E-01 -3.39461E-01 -3.42805E-01 -3.70632E-01 -4.03458E-01 -4.26021E-01
  -4.31165E-01 -4.23080E-01 -4.11232E-01 -4.03398E-01 -4.05783E-01 -4.22381E-01 -4.35232E-01 -4.22710E-01 -3.90195E-01 -3.57327E-01
  -3.48210E-01 -3.74611E-01 -4.14915E-01 -4.42094E-01 -4.45284E-01 -4.30303E-01 -4.13324E-01 -4.14024E-01 -4.35392E-01 -4.42804E-01
  -4.20428E-01 -3.82751E-01 -3.49350E-01 -3.32574E-01 -3.35070E-01 -3.44604E-01 -3.43029E-01 -3.22822E-01 -3.04937E-01 -3.24556E-01
  -3.81659E-01 -4.54051E-01 -5.22872E-01 -5.64031E-01 -5.48104E-01 -4.68844E-01 -3.55425E-01 -2.39484E-01 -1.55462E-01 -1.33745E-01
  -1.63831E-01 -2.18150E-01 -2.89428E-01 -3.74968E-01 -4.80441E-01 -6.20061E-01 -7.32212E-01 -7.13832E-01 -5.60921E-01 -3.44338E-01
  -1.39748E-01  6.80292E-03  4.73273E-02 -1.87142E-02 -1.39425E-01 -2.61543E-01 -3.60507E-01 -4.36683E-01 -4.75780E-01 -4.48098E-01
  -3.52635E-01 -2.30821E-01 -1.21978E-01 -5.77512E-02 -5.01443E-02 -8.39764E-02 -1.44277E-01 -2.08925E-01 -2.48154E-01 -2.46342E-01
  -2.07865E-01 -1.70113E-01 -1.49877E-01 -1.32591E-01 -1.10884E-01 -8.80090E-02 -6.05274E-02 -5.13518E-02 -1.07305E-01 -1.90637E-01
  -2.42311E-01 -2.43451E-01 -2.03414E-01 -1.40218E-01 -8.85055E-02 -6.83331E-02 -6.10912E-02 -3.90422E-02  1.21030E-02  9.32606E-02
   2.87940E-01  8.46132E-01  1.48178E+00  1.68411E+00  1.33060E+00  6.34186E-01 -9.77771E-02 -5.65230E-01 -6.32280E-01 -4.28630E-01
  -1.77065E-01 -2.68841E-02  1.14317E-02  6.25299E-03 -3.64831E-03 -1.16555E-02 -1.43141E-02 -8.69870E-03  4.74143E-03  2.28654E-02
   4.04349E-02  4.83065E-02  3.60759E-02  9.01064E-03 -1.71901E-02 -3.15064E-02 -3.16233E-02 -1.98823E-02  5.47993E-05  2.25710E-02
   3.91684E-02  4.82381E-02  5.14083E-02  5.01665E-02  4.71409E-02  4.53089E-02  4.64501E-02  5.61832E-02  7.54705E-02  9.85446E-02
   1.19678E-01  1.35768E-01  1.45983E-01  1.52107E-01  1.55876E-01  1.61350E-01  1.72563E-01  1.89769E-01  2.11301E-01  2.35232E-01
   2.59086E-01  2.81123E-01  3.01677E-01  3.22130E-01  3.43848E-01  3.67467E-01  3.92858E-01  4.19940E-01  4.48769E-01  4.79344E-01
   5.11773E-01  5.46284E-01  5.83181E-01  6.22858E-01  6.65849E-01  7.12848E-01  7.64810E-01  8.23200E-01  8.90576E-01  9.71983E-01
   1.07914E+00  1.24595E+00  1.51360E+00  1.65911E+00  1.46489E+00  1.04211E+00  6.27941E-01  3.93955E-01  4.05596E-01  6.06909E-01
   1.02053E+00  1.66942E+00  2.32012E+00  2.75192E+00  2.90226E+00  2.80217E+00  2.57013E+00  2.39276E+00  2.38027E+00  2.51654E+00
   2.72830E+00  2.96104E+00  3.23710E+00  3.47926E+00  3.51184E+00  3.35694E+00  3.15933E+00  3.04365E+00  3.07028E+00  3.23559E+00
   3.57334E+00  4.04883E+00  4.48436E+00  4.74422E+00  4.80823E+00  4.71419E+00  4.54329E+00  4.40559E+00  4.35442E+00  4.37016E+00
   4.40294E+00  4.41393E+00  4.39977E+00  4.37017E+00  4.32949E+00  4.28008E+00  4.22372E+00  4.16205E+00  4.09667E+00  4.02924E+00
   3.96139E+00  3.89475E+00  3.83088E+00  3.77129E+00  3.71747E+00  3.67083E+00  3.63269E+00  3.60421E+00  3.58640E+00  3.58009E+00
   3.58593E+00  3.60435E+00  3.63552E+00  3.67927E+00  3.73512E+00  3.80223E+00  3.87945E+00  3.96523E+00  4.05765E+00  4.15444E+00
   4.25301E+00  4.35055E+00  4.44408E+00  4.53053E+00  4.60684E+00  4.67006E+00  4.71747E+00  4.74674E+00  4.75595E+00  4.74371E+00
   4.70918E+00  4.65215E+00  4.57299E+00  4.47272E+00  4.35285E+00  4.21537E+00  4.06263E+00  3.89722E+00  3.72194E+00  3.53963E+00
   3.35307E+00  3.16489E+00  2.97752E+00  2.79310E+00  2.61349E+00  2.44023E+00  2.27451E+00  2.11720E+00  1.96888E+00  1.82985E+00
   1.70023E+00  1.57992E+00  1.46865E+00  1.36604E+00  1.27163E+00  1.18493E+00  1.10540E+00  1.03250E+00  9.65685E-01  9.04418E-01
   8.48206E-01  7.96592E-01  7.49154E-01  7.05493E-01  6.65243E-01  6.28074E-01  5.93696E-01  5.61855E-01  5.32318E-01  5.04867E-01
   4.79307E-01  4.55466E-01  4.33202E-01  4.12385E-01  3.92895E-01  3.74614E-01  3.57440E-01  3.41287E-01  3.26085E-01  3.11764E-01
   2.98257E-01  2.85498E-01  2.73432E-01  2.62014E-01  2.51209E-01  2.40974E-01  2.31268E-01  2.22050E-01  2.13292E-01  2.04970E-01
   1.97065E-01  1.89548E-01  1.82390E-01  1.75567E-01  1.69065E-01  1.62871E-01  1.56971E-01  1.51343E-01  1.45970E-01  1.40835E-01
   1.35935E-01  1.31260E-01  1.26800E-01  1.22536E-01  1.18458E-01  1.14557E-01  1.10833E-01  1.07278E-01  1.03883E-01  1.00632E-01
   9.75220E-02  9.45485E-02  9.17119E-02  8.90042E-02  8.64168E-02  8.39396E-02  8.15717E-02  7.93121E-02  7.71604E-02  7.51080E-02
   7.31480E-02  7.12745E-02  6.94894E-02  6.77920E-02  6.61807E-02  6.46469E-02  6.31865E-02  6.17971E-02
 NY background values follow
    -7.440E-01   -7.427E-01   -7.414E-01   -7.401E-01   -7.388E-01   -7.376E-01   -7.363E-01   -7.350E-01   -7.337E-01   -7.324E-01
    -7.311E-01   -7.298E-01   -7.285E-01   -7.272E-01   -7.259E-01   -7.246E-01   -7.233E-01   -7.220E-01   -7.207E-01   -7.194E-01
    -7.181E-01   -7.168E-01   -7.155E-01   -7.142E-01   -7.129E-01   -7.116E-01   -7.103E-01   -7.090E-01   -7.077E-01   -7.064E-01
    -7.051E-01   -7.038E-01   -7.025E-01   -7.012E-01   -6.999E-01   -6.986E-01   -6.973E-01   -6.960E-01   -6.947E-01   -6.935E-01
    -6.922E-01   -6.909E-01   -6.896E-01   -6.883E-01   -6.870E-01   -6.857E-01   -6.844E-01   -6.831E-01   -6.818E-01   -6.805E-01
    -6.792E-01   -6.779E-01   -6.766E-01   -6.753E-01   -6.740E-01   -6.727E-01   -6.714E-01   -6.701E-01   -6.688E-01   -6.675E-01
    -6.662E-01   -6.649E-01   -6.636E-01   -6.623E-01   -6.610E-01   -6.597E-01   -6.584E-01   -6.571E-01   -6.558E-01   -6.545E-01
    -6.532E-01   -6.519E-01   -6.506E-01   -6.494E-01   -6.481E-01   -6.468E-01   -6.455E-01   -6.442E-01   -6.429E-01   -6.416E-01
    -6.403E-01   -6.390E-01   -6.377E-01   -6.364E-01   -6.351E-01   -6.338E-01   -6.325E-01   -6.312E-01   -6.299E-01   -6.286E-01
    -6.273E-01   -6.260E-01   -6.247E-01   -6.234E-01   -6.221E-01   -6.208E-01   -6.195E-01   -6.182E-01   -6.169E-01   -6.156E-01
    -6.143E-01   -6.130E-01   -6.117E-01   -6.104E-01   -6.091E-01   -6.078E-01   -6.065E-01   -6.052E-01   -6.040E-01   -6.027E-01
    -6.014E-01   -6.001E-01   -5.988E-01   -5.975E-01   -5.962E-01   -5.949E-01   -5.936E-01   -5.923E-01   -5.910E-01   -5.897E-01
    -5.884E-01   -5.871E-01   -5.858E-01   -5.845E-01   -5.832E-01   -5.819E-01   -5.806E-01   -5.793E-01   -5.780E-01   -5.767E-01
    -5.754E-01   -5.741E-01   -5.728E-01   -5.715E-01   -5.702E-01   -5.689E-01   -5.676E-01   -5.663E-01   -5.650E-01   -5.637E-01
    -5.624E-01   -5.611E-01   -5.598E-01   -5.585E-01   -5.572E-01   -5.560E-01   -5.547E-01   -5.534E-01   -5.521E-01   -5.508E-01
    -5.495E-01   -5.482E-01   -5.469E-01   -5.456E-01   -5.443E-01   -5.430E-01   -5.417E-01   -5.404E-01   -5.391E-01   -5.378E-01
    -5.365E-01   -5.352E-01   -5.339E-01   -5.326E-01   -5.313E-01   -5.300E-01   -5.287E-01   -5.274E-01   -5.261E-01   -5.248E-01
    -5.235E-01   -5.222E-01   -5.209E-01   -5.196E-01   -5.183E-01   -5.170E-01   -5.157E-01   -5.144E-01   -5.131E-01   -5.118E-01
    -5.105E-01   -5.092E-01   -5.079E-01   -5.066E-01   -5.054E-01   -5.041E-01   -5.028E-01   -5.015E-01   -5.002E-01   -4.989E-01
    -4.976E-01   -4.963E-01   -4.950E-01   -4.937E-01   -4.924E-01   -4.911E-01   -4.898E-01   -4.885E-01   -4.872E-01   -4.859E-01
    -4.846E-01   -4.833E-01   -4.820E-01   -4.807E-01   -4.794E-01   -4.781E-01   -4.768E-01   -4.755E-01   -4.742E-01   -4.729E-01
    -4.716E-01   -4.703E-01   -4.690E-01   -4.677E-01   -4.664E-01   -4.651E-01   -4.638E-01   -4.625E-01   -4.612E-01   -4.599E-01
    -4.586E-01   -4.573E-01   -4.560E-01   -4.547E-01   -4.534E-01   -4.521E-01   -4.508E-01   -4.495E-01   -4.482E-01   -4.469E-01
    -4.457E-01   -4.444E-01   -4.431E-01   -4.418E-01   -4.405E-01   -4.392E-01   -4.379E-01   -4.366E-01   -4.353E-01   -4.340E-01
    -4.327E-01   -4.314E-01   -4.301E-01   -4.288E-01   -4.275E-01   -4.262E-01   -4.249E-01   -4.236E-01   -4.223E-01   -4.210E-01
    -4.197E-01   -4.184E-01   -4.171E-01   -4.158E-01   -4.145E-01   -4.132E-01   -4.119E-01   -4.106E-01   -4.093E-01   -4.080E-01
    -4.067E-01   -4.054E-01   -4.041E-01   -4.028E-01   -4.015E-01   -4.002E-01   -3.989E-01   -3.976E-01   -3.963E-01   -3.950E-01
    -3.937E-01   -3.924E-01   -3.911E-01   -3.898E-01   -3.885E-01   -3.872E-01   -3.859E-01   -3.846E-01   -3.833E-01   -3.820E-01
    -3.807E-01   -3.794E-01   -3.781E-01   -3.768E-01   -3.755E-01   -3.742E-01   -3.729E-01   -3.716E-01   -3.703E-01   -3.690E-01
    -3.677E-01   -3.664E-01   -3.651E-01   -3.639E-01   -3.626E-01   -3.613E-01   -3.600E-01   -3.587E-01   -3.574E-01   -3.561E-01
    -3.548E-01   -3.535E-01   -3.522E-01   -3.509E-01   -3.496E-01   -3.483E-01   -3.470E-01   -3.457E-01   -3.444E-01   -3.431E-01
    -3.418E-01   -3.405E-01   -3.392E-01   -3.379E-01   -3.366E-01   -3.353E-01   -3.340E-01   -3.327E-01   -3.314E-01   -3.301E-01
    -3.288E-01   -3.275E-01   -3.262E-01   -3.249E-01   -3.236E-01   -3.223E-01   -3.210E-01   -3.197E-01   -3.184E-01   -3.171E-01
    -3.158E-01   -3.145E-01   -3.132E-01   -3.119E-01   -3.106E-01   -3.093E-01   -3.080E-01   -3.067E-01   -3.054E-01   -3.041E-01
    -3.028E-01   -3.015E-01   -3.002E-01   -2.989E-01   -2.976E-01   -2.963E-01   -2.950E-01   -2.937E-01   -2.924E-01   -2.911E-01
    -2.898E-01   -2.885E-01   -2.872E-01   -2.859E-01   -2.846E-01   -2.833E-01   -2.820E-01   -2.807E-01   -2.794E-01   -2.781E-01
    -2.768E-01   -2.755E-01   -2.742E-01   -2.729E-01   -2.716E-01   -2.703E-01   -2.690E-01   -2.677E-01   -2.664E-01   -2.651E-01
    -2.638E-01   -2.625E-01   -2.612E-01   -2.599E-01   -2.586E-01   -2.573E-01   -2.560E-01   -2.547E-01   -2.534E-01   -2.521E-01
    -2.508E-01   -2.495E-01   -2.482E-01   -2.469E-01   -2.456E-01   -2.443E-01   -2.430E-01   -2.417E-01   -2.404E-01   -2.391E-01
    -2.378E-01   -2.365E-01   -2.352E-01   -2.339E-01   -2.326E-01   -2.313E-01   -2.300E-01   -2.287E-01   -2.274E-01   -2.261E-01
    -2.248E-01   -2.235E-01   -2.222E-01   -2.209E-01   -2.196E-01   -2.183E-01   -2.170E-01   -2.157E-01   -2.144E-01   -2.131E-01
    -2.118E-01   -2.105E-01   -2.093E-01   -2.080E-01   -2.067E-01   -2.054E-01   -2.041E-01   -2.028E-01   -2.015E-01   -2.002E-01
    -1.989E-01   -1.976E-01   -1.963E-01   -1.950E-01   -1.937E-01   -1.924E-01   -1.911E-01   -1.898E-01   -1.885E-01   -1.872E-01
    -1.859E-01   -1.846E-01   -1.833E-01   -1.820E-01   -1.807E-01   -1.794E-01   -1.781E-01   -1.768E-01   -1.755E-01   -1.742E-01
    -1.729E-01   -1.716E-01   -1.703E-01   -1.690E-01   -1.677E-01   -1.664E-01   -1.651E-01   -1.638E-01   -1.625E-01   -1.612E-01
    -1.599E-01   -1.586E-01   -1.573E-01   -1.560E-01   -1.547E-01   -1.534E-01   -1.521E-01   -1.508E-01   -1.495E-01   -1.482E-01
    -1.469E-01   -1.456E-01   -1.443E-01   -1.430E-01   -1.417E-01   -1.404E-01   -1.391E-01   -1.378E-01   -1.365E-01   -1.352E-01
    -1.339E-01   -1.326E-01   -1.313E-01   -1.300E-01   -1.287E-01   -1.274E-01   -1.261E-01   -1.248E-01   -1.235E-01   -1.222E-01
    -1.209E-01   -1.196E-01   -1.183E-01   -1.170E-01   -1.157E-01   -1.144E-01   -1.131E-01   -1.118E-01   -1.105E-01   -1.092E-01
    -1.079E-01   -1.066E-01   -1.053E-01   -1.040E-01   -1.027E-01   -1.014E-01   -1.001E-01   -9.880E-02
 Ala      Conc. = 1.94E+01
