 LCModel (Version 6.3-1L) Copyright: S.W. Provencher.          Ref.: Magn. Reson. Med. 30:672-679 (1993).                
 Slice#2 Row#11 Col#5  K_02_press_1_raw_act
 36 lines in following concentration table = NCONC+1
    Conc.  %SD /Cr+PCr  Metabolite                                         
    0.000 999%   0.000 Ala                                                 
    0.000 999%   0.000 Asp                                                 
  494.328  65%   0.198 Cr                                                  
 2.00E+03  16%   0.802 PCr                                                 
    0.000 999%   0.000 GABA                                                
  609.219  45%   0.244 Glc                                                 
 1.28E+03  32%   0.512 Gln                                                 
 2.31E+03  20%   0.927 Glu                                                 
 1.17E+03   3%   0.470 GPC                                                 
    0.000 999%   0.000 PCh                                                 
 1.12E+03  10%   0.448 GSH                                                 
 5.61E+03   8%   2.248 Ins                                                 
  246.504  86% 9.9E-02 Lac                                                 
 4.03E+03   4%   1.615 NAA                                                 
  165.709 108% 6.6E-02 NAAG                                                
  578.378   8%   0.232+Scyllo                                              
  428.065  87%   0.171 Tau                                                 
    0.000 999%   0.000 -CrCH2                                              
 1.17E+03   3%   0.470 GPC+PCh                                             
 4.20E+03   2%   1.681 NAA+NAAG                                            
 2.50E+03   3%   1.000 Cr+PCr                                              
 3.59E+03  21%   1.439 Glu+Gln                                             
 4.46E+03  18%   1.785 Lip13a                                              
    0.000 999%   0.000 Lip13b                                              
  939.055  39%   0.376 Lip09                                               
 1.17E+03  29%   0.468 MM09                                                
  811.800  29%   0.325 Lip20                                               
 2.09E+03  25%   0.837 MM20                                                
  380.936  61%   0.153 MM12                                                
 2.72E+03  14%   1.091 MM14                                                
  618.528  37%   0.248 MM17                                                
 4.46E+03  18%   1.785 Lip13a+Lip13b                                       
 7.56E+03   9%   3.029 MM14+Lip13a+Lip13b+MM12                             
 2.11E+03  12%   0.844 MM09+Lip09                                          
 2.90E+03  16%   1.162 MM20+Lip20                                          
   6 lines in following misc. output table
  FWHM = 0.069 ppm    S/N =  16                                            
  Data shift = 0.023 ppm                                                   
  Ph: -58 deg     -19.9 deg/ppm                                            
  alphaB,S = 7.2E-01,   2.0E+02                                            
   14 spline knots.   Ns =10(1)                                            
  (17) 5 infls.   ( 9) 1 extrs.                                            
  498 points on ppm-axis = NY
      4.000000     3.992357     3.984714     3.977070     3.969427     3.961784     3.954141     3.946497     3.938854     3.931211
      3.923568     3.915925     3.908281     3.900638     3.892995     3.885352     3.877708     3.870065     3.862422     3.854779
      3.847136     3.839492     3.831849     3.824206     3.816563     3.808919     3.801276     3.793633     3.785990     3.778347
      3.770703     3.763060     3.755417     3.747774     3.740130     3.732487     3.724844     3.717201     3.709558     3.701914
      3.694271     3.686628     3.678985     3.671341     3.663698     3.656055     3.648412     3.640769     3.633125     3.625482
      3.617839     3.610196     3.602552     3.594909     3.587266     3.579623     3.571980     3.564336     3.556693     3.549050
      3.541407     3.533763     3.526120     3.518477     3.510834     3.503191     3.495547     3.487904     3.480261     3.472618
      3.464974     3.457331     3.449688     3.442045     3.434402     3.426758     3.419115     3.411472     3.403829     3.396185
      3.388542     3.380899     3.373256     3.365613     3.357969     3.350326     3.342683     3.335040     3.327396     3.319753
      3.312110     3.304467     3.296824     3.289180     3.281537     3.273894     3.266251     3.258607     3.250964     3.243321
      3.235678     3.228034     3.220391     3.212748     3.205105     3.197462     3.189818     3.182175     3.174532     3.166889
      3.159245     3.151602     3.143959     3.136316     3.128673     3.121029     3.113386     3.105743     3.098100     3.090456
      3.082813     3.075170     3.067527     3.059884     3.052240     3.044597     3.036954     3.029311     3.021667     3.014024
      3.006381     2.998738     2.991095     2.983451     2.975808     2.968165     2.960522     2.952878     2.945235     2.937592
      2.929949     2.922306     2.914662     2.907019     2.899376     2.891733     2.884089     2.876446     2.868803     2.861160
      2.853517     2.845873     2.838230     2.830587     2.822944     2.815300     2.807657     2.800014     2.792371     2.784728
      2.777084     2.769441     2.761798     2.754155     2.746511     2.738868     2.731225     2.723582     2.715939     2.708295
      2.700652     2.693009     2.685366     2.677722     2.670079     2.662436     2.654793     2.647150     2.639506     2.631863
      2.624220     2.616577     2.608933     2.601290     2.593647     2.586004     2.578361     2.570717     2.563074     2.555431
      2.547788     2.540144     2.532501     2.524858     2.517215     2.509572     2.501928     2.494285     2.486642     2.478999
      2.471355     2.463712     2.456069     2.448426     2.440783     2.433139     2.425496     2.417853     2.410210     2.402566
      2.394923     2.387280     2.379637     2.371994     2.364350     2.356707     2.349064     2.341421     2.333777     2.326134
      2.318491     2.310848     2.303205     2.295561     2.287918     2.280275     2.272632     2.264988     2.257345     2.249702
      2.242059     2.234416     2.226772     2.219129     2.211486     2.203843     2.196199     2.188556     2.180913     2.173270
      2.165627     2.157983     2.150340     2.142697     2.135054     2.127410     2.119767     2.112124     2.104481     2.096838
      2.089194     2.081551     2.073908     2.066265     2.058621     2.050978     2.043335     2.035692     2.028049     2.020405
      2.012762     2.005119     1.997476     1.989833     1.982190     1.974546     1.966903     1.959260     1.951617     1.943974
      1.936331     1.928688     1.921045     1.913402     1.905759     1.898115     1.890472     1.882829     1.875186     1.867543
      1.859900     1.852257     1.844614     1.836971     1.829327     1.821684     1.814041     1.806398     1.798755     1.791112
      1.783469     1.775826     1.768183     1.760540     1.752896     1.745253     1.737610     1.729967     1.722324     1.714681
      1.707038     1.699395     1.691752     1.684108     1.676465     1.668822     1.661179     1.653536     1.645893     1.638250
      1.630607     1.622964     1.615321     1.607677     1.600034     1.592391     1.584748     1.577105     1.569462     1.561819
      1.554176     1.546533     1.538890     1.531246     1.523603     1.515960     1.508317     1.500674     1.493031     1.485388
      1.477745     1.470102     1.462458     1.454815     1.447172     1.439529     1.431886     1.424243     1.416600     1.408957
      1.401314     1.393671     1.386027     1.378384     1.370741     1.363098     1.355455     1.347812     1.340169     1.332526
      1.324883     1.317240     1.309596     1.301953     1.294310     1.286667     1.279024     1.271381     1.263738     1.256095
      1.248452     1.240808     1.233165     1.225522     1.217879     1.210236     1.202593     1.194950     1.187307     1.179664
      1.172021     1.164377     1.156734     1.149091     1.141448     1.133805     1.126162     1.118519     1.110876     1.103233
      1.095590     1.087946     1.080303     1.072660     1.065017     1.057374     1.049731     1.042088     1.034445     1.026802
      1.019158     1.011515     1.003872     0.996229     0.988586     0.980943     0.973300     0.965657     0.958014     0.950371
      0.942727     0.935084     0.927441     0.919798     0.912155     0.904512     0.896869     0.889226     0.881583     0.873940
      0.866296     0.858653     0.851010     0.843367     0.835724     0.828081     0.820438     0.812795     0.805152     0.797508
      0.789865     0.782222     0.774579     0.766936     0.759293     0.751650     0.744007     0.736364     0.728721     0.721077
      0.713434     0.705791     0.698148     0.690505     0.682862     0.675219     0.667576     0.659933     0.652290     0.644646
      0.637003     0.629360     0.621717     0.614074     0.606431     0.598788     0.591145     0.583502     0.575858     0.568215
      0.560572     0.552929     0.545286     0.537643     0.530000     0.522357     0.514714     0.507071     0.499427     0.491784
      0.484141     0.476498     0.468855     0.461212     0.453569     0.445925     0.438282     0.430639     0.422996     0.415353
      0.407710     0.400067     0.392424     0.384780     0.377137     0.369494     0.361851     0.354208     0.346565     0.338922
      0.331278     0.323635     0.315992     0.308349     0.300706     0.293063     0.285420     0.277777     0.270133     0.262490
      0.254847     0.247204     0.239561     0.231918     0.224275     0.216631     0.208988     0.201345
 NY phased data points follow
  -2.14574E+02 -2.12587E+02 -2.05501E+02 -1.99739E+02 -1.93826E+02 -1.83005E+02 -1.77266E+02 -1.69046E+02 -1.64818E+02 -1.60510E+02
  -1.59451E+02 -1.60885E+02 -1.66447E+02 -1.67777E+02 -1.73665E+02 -1.82105E+02 -1.80908E+02 -1.88050E+02 -1.86747E+02 -1.86003E+02
  -1.82391E+02 -1.86139E+02 -1.84948E+02 -1.79217E+02 -1.75465E+02 -1.68888E+02 -1.70299E+02 -1.64387E+02 -1.57450E+02 -1.53422E+02
  -1.52470E+02 -1.51025E+02 -1.51658E+02 -1.50626E+02 -1.49904E+02 -1.48826E+02 -1.48298E+02 -1.48850E+02 -1.43904E+02 -1.47281E+02
  -1.39764E+02 -1.43104E+02 -1.37251E+02 -1.34282E+02 -1.31390E+02 -1.27838E+02 -1.24168E+02 -1.27775E+02 -1.23868E+02 -1.26359E+02
  -1.26929E+02 -1.30143E+02 -1.27750E+02 -1.30211E+02 -1.27961E+02 -1.25725E+02 -1.30340E+02 -1.26416E+02 -1.28262E+02 -1.29040E+02
  -1.25393E+02 -1.28525E+02 -1.25265E+02 -1.25199E+02 -1.26846E+02 -1.26200E+02 -1.24353E+02 -1.22995E+02 -1.23681E+02 -1.17888E+02
  -1.20111E+02 -1.15920E+02 -1.14719E+02 -1.12974E+02 -1.12922E+02 -1.09376E+02 -1.07581E+02 -1.07185E+02 -1.08454E+02 -1.06199E+02
  -1.05979E+02 -1.01267E+02 -1.03027E+02 -1.00954E+02 -1.01894E+02 -1.02250E+02 -9.61758E+01 -9.53081E+01 -9.35634E+01 -8.59031E+01
  -8.85735E+01 -8.22643E+01 -8.39667E+01 -7.90580E+01 -7.70762E+01 -7.17307E+01 -6.50102E+01 -6.49046E+01 -5.85082E+01 -4.38402E+01
  -3.17378E+01 -2.08623E+01 -2.37326E+01 -2.53285E+01 -3.46620E+01 -4.11683E+01 -4.81246E+01 -5.67332E+01 -6.42554E+01 -6.91297E+01
  -7.62695E+01 -8.09583E+01 -7.91122E+01 -8.17271E+01 -8.15648E+01 -8.07838E+01 -8.01061E+01 -7.59132E+01 -7.62554E+01 -7.37773E+01
  -6.66040E+01 -6.54580E+01 -5.62884E+01 -4.59925E+01 -3.38762E+01 -2.45156E+01 -1.98183E+01 -2.14996E+01 -2.51126E+01 -2.98210E+01
  -3.95486E+01 -4.05435E+01 -4.64000E+01 -5.95895E+01 -5.86641E+01 -6.48295E+01 -6.86199E+01 -7.22504E+01 -7.38215E+01 -7.15500E+01
  -7.62460E+01 -7.51315E+01 -7.39126E+01 -6.90114E+01 -6.99232E+01 -7.28982E+01 -6.90947E+01 -6.62445E+01 -6.99139E+01 -6.48311E+01
  -6.77330E+01 -6.22745E+01 -6.79233E+01 -6.40968E+01 -6.14685E+01 -6.39382E+01 -6.53081E+01 -6.10755E+01 -6.45086E+01 -6.15625E+01
  -6.71560E+01 -6.54728E+01 -6.50367E+01 -6.49963E+01 -6.26819E+01 -6.49986E+01 -6.55677E+01 -6.46857E+01 -6.64716E+01 -6.54489E+01
  -6.99233E+01 -6.81804E+01 -7.17405E+01 -7.24773E+01 -7.34748E+01 -7.40267E+01 -7.50327E+01 -6.97702E+01 -6.65844E+01 -7.22076E+01
  -6.82053E+01 -7.34575E+01 -7.06323E+01 -6.22987E+01 -6.70857E+01 -6.51076E+01 -6.10043E+01 -6.06463E+01 -5.81487E+01 -5.38414E+01
  -5.00072E+01 -4.73075E+01 -4.68866E+01 -4.68876E+01 -4.49924E+01 -4.26906E+01 -4.43182E+01 -4.63783E+01 -4.40685E+01 -4.80455E+01
  -4.27207E+01 -4.30969E+01 -4.11307E+01 -4.13909E+01 -3.98321E+01 -4.36830E+01 -4.20601E+01 -4.22037E+01 -4.58495E+01 -4.43285E+01
  -4.57912E+01 -3.63771E+01 -3.76504E+01 -3.93078E+01 -3.32363E+01 -3.08214E+01 -3.06401E+01 -3.00986E+01 -3.29204E+01 -3.36642E+01
  -3.79004E+01 -3.80265E+01 -3.68261E+01 -3.89198E+01 -3.47797E+01 -3.15119E+01 -3.13717E+01 -3.31473E+01 -3.11582E+01 -2.55354E+01
  -2.94564E+01 -2.52774E+01 -2.70357E+01 -2.31814E+01 -2.77114E+01 -2.61949E+01 -2.33237E+01 -2.33647E+01 -2.21891E+01 -2.97137E+01
  -3.04879E+01 -3.20351E+01 -3.03279E+01 -2.49833E+01 -2.62111E+01 -1.94413E+01 -2.07731E+01 -1.67202E+01 -1.47435E+01 -1.24951E+01
  -9.70139E+00 -5.10504E+00  6.71585E+00  1.23083E+01  2.67332E+01  2.92347E+01  3.21375E+01  5.13828E+01  7.26706E+01  8.48160E+01
   8.05227E+01  7.72478E+01  6.59625E+01  5.64732E+01  4.65633E+01  3.20968E+01  2.34628E+01  1.67645E+01  5.72175E+00  8.71791E-01
  -3.65374E+00 -1.16683E+01 -1.18591E+01 -1.43275E+01 -2.04153E+01 -1.71283E+01 -1.59275E+01 -1.36421E+01 -1.62550E+01 -1.77563E+01
  -1.39341E+01 -1.57030E+01 -1.83602E+01 -2.55290E+01 -2.01101E+01 -1.89510E+01 -1.82956E+01 -2.23238E+01 -2.22480E+01 -1.96151E+01
  -1.78356E+01 -1.90555E+01 -1.78849E+01 -1.46637E+01 -1.91219E+01 -1.85894E+01 -2.05302E+01 -1.80210E+01 -1.55825E+01 -1.76976E+01
  -1.19930E+01 -1.51310E+01 -1.66583E+01 -1.56166E+01 -1.31717E+01 -1.28902E+01 -1.06565E+01 -1.04786E+01 -1.12359E+01 -6.01789E+00
  -1.05029E+01 -2.03914E+00 -2.66995E+00 -6.98068E+00 -5.82583E+00 -8.95435E+00 -9.77846E+00 -9.51850E+00 -8.82529E+00 -8.22622E+00
  -6.64310E+00 -6.00982E+00 -3.19636E-01 -8.26412E-01  9.13946E-01 -5.84507E-01  1.29248E-01 -8.56223E-01 -1.11592E+00  1.40118E+00
   8.91686E+00  5.86706E+00  1.19441E+01  8.33835E+00  1.26301E+01  1.19151E+01  1.26756E+01  1.53207E+01  1.25476E+01  1.36682E+01
   1.55043E+01  1.51056E+01  2.03410E+01  2.03086E+01  1.65727E+01  1.83734E+01  1.80829E+01  1.73821E+01  1.89349E+01  1.61801E+01
   1.53814E+01  1.38063E+01  1.07286E+01  1.36901E+01  1.25537E+01  1.46288E+01  1.30401E+01  1.46509E+01  1.24192E+01  1.29654E+01
   1.05933E+01  1.18099E+01  8.15320E+00  9.26203E+00  1.27894E+01  8.40066E+00  6.25161E+00  4.42115E+00  5.87260E+00  5.95792E+00
   5.48611E+00  7.53041E+00  6.83596E+00  5.85089E+00  7.95865E+00  5.71563E+00  6.11510E+00  3.77231E+00  8.73091E+00  4.29936E+00
   2.33039E+00  4.71228E+00  1.72768E+00 -5.37875E-01  1.84931E+00  4.90431E+00  1.53411E+00 -6.51324E-01  5.04836E-01  7.62417E-01
   1.78533E+00  3.42488E+00  1.74016E+00  4.73238E+00  5.35529E+00  7.22208E+00  5.26559E+00  1.16121E+01  1.06674E+01  1.15447E+01
   1.22060E+01  1.08399E+01  1.37590E+01  1.00545E+01  1.49049E+01  1.41506E+01  1.68284E+01  1.75138E+01  1.30350E+01  1.57161E+01
   1.44086E+01  1.32783E+01  1.50067E+01  1.36978E+01  1.37599E+01  1.33738E+01  1.11916E+01  1.15686E+01  8.73262E+00  9.81503E+00
   7.81284E+00  5.73759E+00  7.25782E+00  8.85213E+00  6.80468E+00  1.24157E+01  7.11828E+00  5.94347E+00  3.04347E+00  3.03266E+00
   5.00430E+00  3.54566E+00  6.13867E+00  5.97691E+00  1.58490E+00  3.19354E+00  1.29055E+00  9.70797E+00  7.64984E+00 -3.97446E-01
   6.90121E+00  4.70457E+00  2.18690E+00  4.24189E+00  5.04552E+00  2.36125E+00  5.41327E+00  5.94559E+00  5.32915E+00  3.75897E+00
   4.70070E+00  2.18165E+00  3.27453E+00  9.08007E+00  5.03599E+00  5.55958E+00  5.10543E+00  8.76943E+00  8.57257E+00  5.47279E+00
   7.60247E+00  7.95142E+00  4.14250E+00  4.81893E+00  6.13367E+00  4.39240E+00  3.85766E+00  6.16859E+00  4.47673E+00  9.13742E+00
   6.70154E+00  8.42099E+00  1.03112E+01  4.05470E+00  8.63248E+00  4.86533E+00  4.59420E+00  4.55063E+00  6.38540E+00  7.64577E+00
   7.53907E+00  7.78784E+00  8.19310E+00  6.11444E+00  5.67181E+00  8.73694E+00  8.67919E+00  2.87968E+00  7.48514E+00  3.29375E+00
   9.85955E+00  6.46508E+00  9.18070E+00  6.92494E+00  6.24277E+00  5.19539E+00  5.94801E+00  6.52601E+00
 NY points of the fit to the data follow
  -2.06730E+02 -2.03828E+02 -2.00624E+02 -1.97132E+02 -1.92487E+02 -1.86076E+02 -1.78325E+02 -1.70884E+02 -1.65650E+02 -1.63348E+02
  -1.63559E+02 -1.65357E+02 -1.67892E+02 -1.70711E+02 -1.73654E+02 -1.76520E+02 -1.79026E+02 -1.81006E+02 -1.82583E+02 -1.83888E+02
  -1.84106E+02 -1.82623E+02 -1.80632E+02 -1.78304E+02 -1.75733E+02 -1.72968E+02 -1.69477E+02 -1.64575E+02 -1.58794E+02 -1.53689E+02
  -1.50246E+02 -1.48384E+02 -1.47683E+02 -1.47827E+02 -1.48594E+02 -1.49668E+02 -1.50411E+02 -1.50326E+02 -1.49454E+02 -1.47984E+02
  -1.46338E+02 -1.44567E+02 -1.41541E+02 -1.36531E+02 -1.30734E+02 -1.26105E+02 -1.24013E+02 -1.24429E+02 -1.26261E+02 -1.28375E+02
  -1.30244E+02 -1.31732E+02 -1.32884E+02 -1.33532E+02 -1.33455E+02 -1.32640E+02 -1.31295E+02 -1.29767E+02 -1.28233E+02 -1.26929E+02
  -1.26203E+02 -1.25929E+02 -1.25789E+02 -1.25436E+02 -1.24705E+02 -1.23577E+02 -1.22082E+02 -1.20273E+02 -1.18297E+02 -1.16481E+02
  -1.14988E+02 -1.13767E+02 -1.12635E+02 -1.11465E+02 -1.10426E+02 -1.09754E+02 -1.09637E+02 -1.09760E+02 -1.09120E+02 -1.07887E+02
  -1.06618E+02 -1.05425E+02 -1.04514E+02 -1.03597E+02 -1.01756E+02 -9.84099E+01 -9.45206E+01 -9.16239E+01 -9.02561E+01 -8.99987E+01
  -9.01811E+01 -8.95313E+01 -8.61214E+01 -8.16329E+01 -7.75903E+01 -7.36120E+01 -6.94436E+01 -6.39439E+01 -5.50410E+01 -4.28492E+01
  -3.07281E+01 -2.32021E+01 -2.20515E+01 -2.58773E+01 -3.24692E+01 -4.01778E+01 -4.82356E+01 -5.61866E+01 -6.34580E+01 -6.95532E+01
  -7.45487E+01 -7.88421E+01 -8.29950E+01 -8.67018E+01 -8.82767E+01 -8.80844E+01 -8.59506E+01 -8.12548E+01 -7.62006E+01 -7.13248E+01
  -6.65310E+01 -6.16872E+01 -5.52313E+01 -4.54889E+01 -3.38544E+01 -2.44363E+01 -2.02298E+01 -2.10870E+01 -2.52130E+01 -3.07989E+01
  -3.66311E+01 -4.24449E+01 -4.82325E+01 -5.37984E+01 -5.88348E+01 -6.32693E+01 -6.71503E+01 -7.05851E+01 -7.26597E+01 -7.24900E+01
  -7.15431E+01 -7.05803E+01 -6.98223E+01 -6.93110E+01 -6.90118E+01 -6.88129E+01 -6.85556E+01 -6.82601E+01 -6.80213E+01 -6.78316E+01
  -6.77325E+01 -6.78150E+01 -6.79568E+01 -6.80279E+01 -6.78887E+01 -6.75064E+01 -6.70830E+01 -6.68540E+01 -6.68714E+01 -6.70117E+01
  -6.70281E+01 -6.67272E+01 -6.61871E+01 -6.56891E+01 -6.54472E+01 -6.54897E+01 -6.57534E+01 -6.61035E+01 -6.63469E+01 -6.64770E+01
  -6.65440E+01 -6.66449E+01 -6.68410E+01 -6.71433E+01 -6.73571E+01 -6.72767E+01 -6.69377E+01 -6.65525E+01 -6.62524E+01 -6.59138E+01
  -6.53325E+01 -6.44244E+01 -6.33503E+01 -6.23588E+01 -6.14516E+01 -6.03487E+01 -5.87974E+01 -5.67913E+01 -5.47561E+01 -5.29170E+01
  -5.12974E+01 -5.00417E+01 -4.91820E+01 -4.86687E+01 -4.83470E+01 -4.81291E+01 -4.77416E+01 -4.68982E+01 -4.57188E+01 -4.45375E+01
  -4.34434E+01 -4.23437E+01 -4.14491E+01 -4.10625E+01 -4.12398E+01 -4.19634E+01 -4.29296E+01 -4.36047E+01 -4.38389E+01 -4.35823E+01
  -4.30449E+01 -4.21850E+01 -4.07798E+01 -3.88902E+01 -3.69102E+01 -3.53809E+01 -3.46561E+01 -3.47340E+01 -3.54195E+01 -3.66077E+01
  -3.80269E+01 -3.91355E+01 -3.94370E+01 -3.86384E+01 -3.70468E+01 -3.52919E+01 -3.35879E+01 -3.19824E+01 -3.05284E+01 -2.92964E+01
  -2.83790E+01 -2.76770E+01 -2.70893E+01 -2.63748E+01 -2.54062E+01 -2.43582E+01 -2.34511E+01 -2.29630E+01 -2.31265E+01 -2.38777E+01
  -2.48971E+01 -2.57690E+01 -2.60753E+01 -2.56213E+01 -2.45652E+01 -2.30781E+01 -2.12649E+01 -1.94572E+01 -1.78156E+01 -1.57664E+01
  -1.08278E+01 -2.56458E+00  6.02967E+00  1.43882E+01  2.22000E+01  2.96694E+01  3.93887E+01  5.34681E+01  6.90397E+01  8.00185E+01
   8.27998E+01  7.82636E+01  6.92637E+01  5.82646E+01  4.66592E+01  3.50511E+01  2.39934E+01  1.43178E+01  6.41328E+00 -1.87901E-01
  -6.23500E+00 -1.20984E+01 -1.60806E+01 -1.73456E+01 -1.77806E+01 -1.80285E+01 -1.81922E+01 -1.83020E+01 -1.84173E+01 -1.85254E+01
  -1.86030E+01 -1.86434E+01 -1.86480E+01 -1.86228E+01 -1.85838E+01 -1.85368E+01 -1.84683E+01 -1.83673E+01 -1.82364E+01 -1.80780E+01
  -1.78892E+01 -1.76673E+01 -1.74142E+01 -1.71375E+01 -1.68366E+01 -1.65079E+01 -1.61502E+01 -1.57633E+01 -1.53464E+01 -1.49001E+01
  -1.44267E+01 -1.39306E+01 -1.34181E+01 -1.28959E+01 -1.23705E+01 -1.18485E+01 -1.13358E+01 -1.08375E+01 -1.03579E+01 -9.90009E+00
  -9.46556E+00 -9.05375E+00 -8.66061E+00 -8.27990E+00 -7.90376E+00 -7.52225E+00 -7.12343E+00 -6.69438E+00 -6.22190E+00 -5.69338E+00
  -5.09739E+00 -4.42416E+00 -3.66602E+00 -2.81795E+00 -1.87835E+00 -8.49389E-01  2.62927E-01  1.44923E+00  2.69713E+00  3.99147E+00
   5.31468E+00  6.64751E+00  7.97022E+00  9.26406E+00  1.05128E+01  1.17052E+01  1.28423E+01  1.39460E+01  1.49510E+01  1.57515E+01
   1.63710E+01  1.68310E+01  1.71580E+01  1.73992E+01  1.75236E+01  1.74698E+01  1.71591E+01  1.65826E+01  1.58806E+01  1.51675E+01
   1.45015E+01  1.39870E+01  1.37401E+01  1.37546E+01  1.38822E+01  1.39475E+01  1.38572E+01  1.36064E+01  1.32394E+01  1.28317E+01
   1.23796E+01  1.18283E+01  1.12130E+01  1.05691E+01  9.90853E+00  9.21947E+00  8.48400E+00  7.76511E+00  7.10996E+00  6.49727E+00
   5.91866E+00  5.37357E+00  4.86387E+00  4.39228E+00  3.96162E+00  3.57444E+00  3.23295E+00  2.93913E+00  2.69480E+00  2.50160E+00
   2.36098E+00  2.27416E+00  2.24235E+00  2.26690E+00  2.34930E+00  2.49112E+00  2.69382E+00  2.95871E+00  3.28694E+00  3.67938E+00
   4.13633E+00  4.65715E+00  5.23993E+00  5.88126E+00  6.57610E+00  7.31756E+00  8.09666E+00  8.90218E+00  9.72078E+00  1.05373E+01
   1.13352E+01  1.20970E+01  1.28051E+01  1.34421E+01  1.39915E+01  1.44393E+01  1.47739E+01  1.49873E+01  1.50750E+01  1.50363E+01
   1.48744E+01  1.45966E+01  1.42135E+01  1.37386E+01  1.31872E+01  1.25760E+01  1.19224E+01  1.12433E+01  1.05553E+01  9.87286E+00
   9.20894E+00  8.57416E+00  7.97700E+00  7.42376E+00  6.91860E+00  6.46365E+00  6.05929E+00  5.70462E+00  5.39771E+00  5.13590E+00
   4.91595E+00  4.73420E+00  4.58688E+00  4.47032E+00  4.38107E+00  4.31588E+00  4.27169E+00  4.24564E+00  4.23521E+00  4.23822E+00
   4.25284E+00  4.27740E+00  4.31038E+00  4.35042E+00  4.39639E+00  4.44739E+00  4.50266E+00  4.56147E+00  4.62310E+00  4.68693E+00
   4.75252E+00  4.81950E+00  4.88753E+00  4.95627E+00  5.02540E+00  5.09474E+00  5.16416E+00  5.23363E+00  5.30302E+00  5.37217E+00
   5.44094E+00  5.50926E+00  5.57717E+00  5.64467E+00  5.71167E+00  5.77809E+00  5.84384E+00  5.90898E+00  5.97356E+00  6.03759E+00
   6.10101E+00  6.16375E+00  6.22583E+00  6.28733E+00  6.34831E+00  6.40878E+00  6.46867E+00  6.52796E+00  6.58672E+00  6.64504E+00
   6.70299E+00  6.76053E+00  6.81764E+00  6.87433E+00  6.93071E+00  6.98689E+00  7.04290E+00  7.09870E+00  7.15430E+00  7.20977E+00
   7.26525E+00  7.32083E+00  7.37654E+00  7.43236E+00  7.48836E+00  7.54468E+00  7.60149E+00  7.65890E+00
 NY background values follow
    -2.266E+02   -2.252E+02   -2.237E+02   -2.222E+02   -2.208E+02   -2.193E+02   -2.178E+02   -2.164E+02   -2.149E+02   -2.135E+02
    -2.120E+02   -2.105E+02   -2.091E+02   -2.076E+02   -2.062E+02   -2.047E+02   -2.033E+02   -2.018E+02   -2.004E+02   -1.989E+02
    -1.975E+02   -1.960E+02   -1.946E+02   -1.932E+02   -1.917E+02   -1.903E+02   -1.889E+02   -1.875E+02   -1.861E+02   -1.847E+02
    -1.833E+02   -1.819E+02   -1.805E+02   -1.791E+02   -1.777E+02   -1.763E+02   -1.750E+02   -1.736E+02   -1.722E+02   -1.709E+02
    -1.695E+02   -1.682E+02   -1.669E+02   -1.655E+02   -1.642E+02   -1.629E+02   -1.616E+02   -1.603E+02   -1.590E+02   -1.578E+02
    -1.565E+02   -1.552E+02   -1.540E+02   -1.527E+02   -1.515E+02   -1.503E+02   -1.491E+02   -1.478E+02   -1.466E+02   -1.454E+02
    -1.443E+02   -1.431E+02   -1.419E+02   -1.407E+02   -1.396E+02   -1.385E+02   -1.373E+02   -1.362E+02   -1.351E+02   -1.340E+02
    -1.329E+02   -1.318E+02   -1.307E+02   -1.296E+02   -1.285E+02   -1.275E+02   -1.264E+02   -1.254E+02   -1.244E+02   -1.234E+02
    -1.224E+02   -1.214E+02   -1.204E+02   -1.194E+02   -1.184E+02   -1.174E+02   -1.165E+02   -1.155E+02   -1.146E+02   -1.137E+02
    -1.128E+02   -1.119E+02   -1.110E+02   -1.101E+02   -1.092E+02   -1.083E+02   -1.075E+02   -1.066E+02   -1.058E+02   -1.050E+02
    -1.041E+02   -1.033E+02   -1.025E+02   -1.017E+02   -1.009E+02   -1.002E+02   -9.940E+01   -9.864E+01   -9.788E+01   -9.714E+01
    -9.640E+01   -9.567E+01   -9.495E+01   -9.424E+01   -9.353E+01   -9.284E+01   -9.214E+01   -9.146E+01   -9.079E+01   -9.012E+01
    -8.946E+01   -8.880E+01   -8.815E+01   -8.751E+01   -8.688E+01   -8.625E+01   -8.563E+01   -8.502E+01   -8.441E+01   -8.381E+01
    -8.321E+01   -8.262E+01   -8.204E+01   -8.146E+01   -8.089E+01   -8.033E+01   -7.977E+01   -7.921E+01   -7.867E+01   -7.812E+01
    -7.758E+01   -7.705E+01   -7.652E+01   -7.600E+01   -7.548E+01   -7.496E+01   -7.445E+01   -7.395E+01   -7.344E+01   -7.294E+01
    -7.245E+01   -7.195E+01   -7.146E+01   -7.098E+01   -7.049E+01   -7.001E+01   -6.953E+01   -6.906E+01   -6.858E+01   -6.811E+01
    -6.764E+01   -6.717E+01   -6.671E+01   -6.624E+01   -6.578E+01   -6.532E+01   -6.485E+01   -6.439E+01   -6.393E+01   -6.347E+01
    -6.301E+01   -6.255E+01   -6.209E+01   -6.163E+01   -6.117E+01   -6.071E+01   -6.025E+01   -5.979E+01   -5.933E+01   -5.886E+01
    -5.840E+01   -5.793E+01   -5.746E+01   -5.700E+01   -5.652E+01   -5.605E+01   -5.558E+01   -5.511E+01   -5.463E+01   -5.416E+01
    -5.368E+01   -5.321E+01   -5.274E+01   -5.226E+01   -5.179E+01   -5.131E+01   -5.084E+01   -5.037E+01   -4.990E+01   -4.943E+01
    -4.896E+01   -4.850E+01   -4.803E+01   -4.757E+01   -4.711E+01   -4.665E+01   -4.620E+01   -4.574E+01   -4.529E+01   -4.484E+01
    -4.440E+01   -4.396E+01   -4.352E+01   -4.309E+01   -4.265E+01   -4.223E+01   -4.180E+01   -4.139E+01   -4.097E+01   -4.056E+01
    -4.016E+01   -3.975E+01   -3.936E+01   -3.897E+01   -3.858E+01   -3.820E+01   -3.783E+01   -3.746E+01   -3.710E+01   -3.674E+01
    -3.639E+01   -3.604E+01   -3.570E+01   -3.537E+01   -3.503E+01   -3.471E+01   -3.439E+01   -3.407E+01   -3.376E+01   -3.345E+01
    -3.315E+01   -3.285E+01   -3.256E+01   -3.227E+01   -3.198E+01   -3.170E+01   -3.142E+01   -3.115E+01   -3.087E+01   -3.061E+01
    -3.034E+01   -3.008E+01   -2.982E+01   -2.957E+01   -2.932E+01   -2.907E+01   -2.882E+01   -2.858E+01   -2.834E+01   -2.810E+01
    -2.787E+01   -2.763E+01   -2.740E+01   -2.717E+01   -2.695E+01   -2.672E+01   -2.650E+01   -2.628E+01   -2.606E+01   -2.584E+01
    -2.562E+01   -2.540E+01   -2.519E+01   -2.497E+01   -2.476E+01   -2.455E+01   -2.434E+01   -2.413E+01   -2.392E+01   -2.371E+01
    -2.351E+01   -2.330E+01   -2.310E+01   -2.289E+01   -2.269E+01   -2.249E+01   -2.229E+01   -2.209E+01   -2.189E+01   -2.169E+01
    -2.149E+01   -2.129E+01   -2.110E+01   -2.090E+01   -2.071E+01   -2.051E+01   -2.032E+01   -2.012E+01   -1.993E+01   -1.974E+01
    -1.955E+01   -1.936E+01   -1.916E+01   -1.897E+01   -1.878E+01   -1.859E+01   -1.840E+01   -1.822E+01   -1.803E+01   -1.784E+01
    -1.765E+01   -1.746E+01   -1.728E+01   -1.709E+01   -1.690E+01   -1.671E+01   -1.653E+01   -1.634E+01   -1.615E+01   -1.597E+01
    -1.578E+01   -1.559E+01   -1.541E+01   -1.522E+01   -1.504E+01   -1.485E+01   -1.467E+01   -1.448E+01   -1.430E+01   -1.411E+01
    -1.393E+01   -1.375E+01   -1.356E+01   -1.338E+01   -1.320E+01   -1.302E+01   -1.284E+01   -1.266E+01   -1.248E+01   -1.230E+01
    -1.212E+01   -1.194E+01   -1.176E+01   -1.158E+01   -1.140E+01   -1.123E+01   -1.105E+01   -1.088E+01   -1.070E+01   -1.053E+01
    -1.035E+01   -1.018E+01   -1.001E+01   -9.838E+00   -9.668E+00   -9.498E+00   -9.330E+00   -9.162E+00   -8.994E+00   -8.828E+00
    -8.662E+00   -8.498E+00   -8.334E+00   -8.171E+00   -8.009E+00   -7.848E+00   -7.688E+00   -7.528E+00   -7.370E+00   -7.212E+00
    -7.054E+00   -6.898E+00   -6.742E+00   -6.586E+00   -6.432E+00   -6.278E+00   -6.124E+00   -5.971E+00   -5.819E+00   -5.667E+00
    -5.515E+00   -5.364E+00   -5.213E+00   -5.063E+00   -4.913E+00   -4.764E+00   -4.615E+00   -4.466E+00   -4.317E+00   -4.169E+00
    -4.021E+00   -3.873E+00   -3.725E+00   -3.577E+00   -3.430E+00   -3.282E+00   -3.135E+00   -2.988E+00   -2.841E+00   -2.693E+00
    -2.546E+00   -2.399E+00   -2.251E+00   -2.104E+00   -1.956E+00   -1.809E+00   -1.661E+00   -1.513E+00   -1.364E+00   -1.216E+00
    -1.067E+00   -9.188E-01   -7.702E-01   -6.217E-01   -4.734E-01   -3.252E-01   -1.772E-01   -2.943E-02    1.180E-01    2.651E-01
     4.117E-01    5.579E-01    7.035E-01    8.487E-01    9.931E-01    1.137E+00    1.280E+00    1.422E+00    1.564E+00    1.705E+00
     1.844E+00    1.983E+00    2.121E+00    2.258E+00    2.393E+00    2.527E+00    2.661E+00    2.793E+00    2.923E+00    3.052E+00
     3.180E+00    3.306E+00    3.431E+00    3.555E+00    3.676E+00    3.796E+00    3.914E+00    4.031E+00    4.145E+00    4.258E+00
     4.369E+00    4.478E+00    4.585E+00    4.689E+00    4.792E+00    4.893E+00    4.992E+00    5.089E+00    5.184E+00    5.277E+00
     5.369E+00    5.459E+00    5.547E+00    5.634E+00    5.719E+00    5.802E+00    5.884E+00    5.964E+00    6.043E+00    6.121E+00
     6.197E+00    6.272E+00    6.346E+00    6.419E+00    6.490E+00    6.560E+00    6.630E+00    6.698E+00    6.765E+00    6.831E+00
     6.897E+00    6.961E+00    7.025E+00    7.088E+00    7.150E+00    7.211E+00    7.272E+00    7.332E+00    7.392E+00    7.451E+00
     7.509E+00    7.567E+00    7.625E+00    7.682E+00    7.739E+00    7.796E+00    7.853E+00    7.909E+00
 Cr       Conc. = 4.94E+02
