 LCModel (Version 6.3-1L) Copyright: S.W. Provencher.          Ref.: Magn. Reson. Med. 30:672-679 (1993).                
 Slice#3 Row#13 Col#10  K_02_press_1_raw_act
 36 lines in following concentration table = NCONC+1
    Conc.  %SD /Cr+PCr  Metabolite                                         
    0.000 999%   0.000 Ala                                                 
   28.378 163%   0.113 Asp                                                 
  250.386  11%   1.000 Cr                                                  
    0.000 999%   0.000 PCr                                                 
   24.918 115%   0.100 GABA                                                
   25.828 109%   0.103 Glc                                                 
    0.000 999%   0.000 Gln                                                 
   51.291 348%   0.205 Glu                                                 
    0.000 999%   0.000 GPC                                                 
   76.759  13%   0.307 PCh                                                 
   54.772  73%   0.219 GSH                                                 
  437.222  31%   1.746 Ins                                                 
    0.000 999%   0.000 Lac                                                 
  319.901  15%   1.278 NAA                                                 
   37.556 132%   0.150 NAAG                                                
   22.388  37% 8.9E-02 Scyllo                                              
   80.351  56%   0.321 Tau                                                 
  314.511  16%   1.256 -CrCH2                                              
   76.759  13%   0.307 GPC+PCh                                             
  357.457  10%   1.428 NAA+NAAG                                            
  250.386  11%   1.000 Cr+PCr                                              
   51.291 348%   0.205 Glu+Gln                                             
  781.467  18%   3.121 Lip13a                                              
    0.000 999%   0.000 Lip13b                                              
  229.094  35%   0.915 Lip09                                               
   40.237 165%   0.161 MM09                                                
  114.995  53%   0.459 Lip20                                               
   97.846 121%   0.391 MM20                                                
   18.542 208% 7.4E-02 MM12                                                
    0.000 999%   0.000 MM14                                                
    0.000 999%   0.000 MM17                                                
  781.467  18%   3.121 Lip13a+Lip13b                                       
  800.009  16%   3.195 MM14+Lip13a+Lip13b+MM12                             
  269.330  24%   1.076 MM09+Lip09                                          
  212.842  57%   0.850 MM20+Lip20                                          
   6 lines in following misc. output table
  FWHM = 0.107 ppm    S/N =   3                                            
  Data shift = 0.031 ppm                                                   
  Ph: -52 deg     -15.2 deg/ppm                                            
  alphaB,S = 7.2E-01,   6.4E+00                                            
   14 spline knots.   Ns = 9(1)                                            
  (14)10 infls.   (13) 9 extrs.                                            
  498 points on ppm-axis = NY
      4.000000     3.992357     3.984714     3.977070     3.969427     3.961784     3.954141     3.946497     3.938854     3.931211
      3.923568     3.915925     3.908281     3.900638     3.892995     3.885352     3.877708     3.870065     3.862422     3.854779
      3.847136     3.839492     3.831849     3.824206     3.816563     3.808919     3.801276     3.793633     3.785990     3.778347
      3.770703     3.763060     3.755417     3.747774     3.740130     3.732487     3.724844     3.717201     3.709558     3.701914
      3.694271     3.686628     3.678985     3.671341     3.663698     3.656055     3.648412     3.640769     3.633125     3.625482
      3.617839     3.610196     3.602552     3.594909     3.587266     3.579623     3.571980     3.564336     3.556693     3.549050
      3.541407     3.533763     3.526120     3.518477     3.510834     3.503191     3.495547     3.487904     3.480261     3.472618
      3.464974     3.457331     3.449688     3.442045     3.434402     3.426758     3.419115     3.411472     3.403829     3.396185
      3.388542     3.380899     3.373256     3.365613     3.357969     3.350326     3.342683     3.335040     3.327396     3.319753
      3.312110     3.304467     3.296824     3.289180     3.281537     3.273894     3.266251     3.258607     3.250964     3.243321
      3.235678     3.228034     3.220391     3.212748     3.205105     3.197462     3.189818     3.182175     3.174532     3.166889
      3.159245     3.151602     3.143959     3.136316     3.128673     3.121029     3.113386     3.105743     3.098100     3.090456
      3.082813     3.075170     3.067527     3.059884     3.052240     3.044597     3.036954     3.029311     3.021667     3.014024
      3.006381     2.998738     2.991095     2.983451     2.975808     2.968165     2.960522     2.952878     2.945235     2.937592
      2.929949     2.922306     2.914662     2.907019     2.899376     2.891733     2.884089     2.876446     2.868803     2.861160
      2.853517     2.845873     2.838230     2.830587     2.822944     2.815300     2.807657     2.800014     2.792371     2.784728
      2.777084     2.769441     2.761798     2.754155     2.746511     2.738868     2.731225     2.723582     2.715939     2.708295
      2.700652     2.693009     2.685366     2.677722     2.670079     2.662436     2.654793     2.647150     2.639506     2.631863
      2.624220     2.616577     2.608933     2.601290     2.593647     2.586004     2.578361     2.570717     2.563074     2.555431
      2.547788     2.540144     2.532501     2.524858     2.517215     2.509572     2.501928     2.494285     2.486642     2.478999
      2.471355     2.463712     2.456069     2.448426     2.440783     2.433139     2.425496     2.417853     2.410210     2.402566
      2.394923     2.387280     2.379637     2.371994     2.364350     2.356707     2.349064     2.341421     2.333777     2.326134
      2.318491     2.310848     2.303205     2.295561     2.287918     2.280275     2.272632     2.264988     2.257345     2.249702
      2.242059     2.234416     2.226772     2.219129     2.211486     2.203843     2.196199     2.188556     2.180913     2.173270
      2.165627     2.157983     2.150340     2.142697     2.135054     2.127410     2.119767     2.112124     2.104481     2.096838
      2.089194     2.081551     2.073908     2.066265     2.058621     2.050978     2.043335     2.035692     2.028049     2.020405
      2.012762     2.005119     1.997476     1.989833     1.982190     1.974546     1.966903     1.959260     1.951617     1.943974
      1.936331     1.928688     1.921045     1.913402     1.905759     1.898115     1.890472     1.882829     1.875186     1.867543
      1.859900     1.852257     1.844614     1.836971     1.829327     1.821684     1.814041     1.806398     1.798755     1.791112
      1.783469     1.775826     1.768183     1.760540     1.752896     1.745253     1.737610     1.729967     1.722324     1.714681
      1.707038     1.699395     1.691752     1.684108     1.676465     1.668822     1.661179     1.653536     1.645893     1.638250
      1.630607     1.622964     1.615321     1.607677     1.600034     1.592391     1.584748     1.577105     1.569462     1.561819
      1.554176     1.546533     1.538890     1.531246     1.523603     1.515960     1.508317     1.500674     1.493031     1.485388
      1.477745     1.470102     1.462458     1.454815     1.447172     1.439529     1.431886     1.424243     1.416600     1.408957
      1.401314     1.393671     1.386027     1.378384     1.370741     1.363098     1.355455     1.347812     1.340169     1.332526
      1.324883     1.317240     1.309596     1.301953     1.294310     1.286667     1.279024     1.271381     1.263738     1.256095
      1.248452     1.240808     1.233165     1.225522     1.217879     1.210236     1.202593     1.194950     1.187307     1.179664
      1.172021     1.164377     1.156734     1.149091     1.141448     1.133805     1.126162     1.118519     1.110876     1.103233
      1.095590     1.087946     1.080303     1.072660     1.065017     1.057374     1.049731     1.042088     1.034445     1.026802
      1.019158     1.011515     1.003872     0.996229     0.988586     0.980943     0.973300     0.965657     0.958014     0.950371
      0.942727     0.935084     0.927441     0.919798     0.912155     0.904512     0.896869     0.889226     0.881583     0.873940
      0.866296     0.858653     0.851010     0.843367     0.835724     0.828081     0.820438     0.812795     0.805152     0.797508
      0.789865     0.782222     0.774579     0.766936     0.759293     0.751650     0.744007     0.736364     0.728721     0.721077
      0.713434     0.705791     0.698148     0.690505     0.682862     0.675219     0.667576     0.659933     0.652290     0.644646
      0.637003     0.629360     0.621717     0.614074     0.606431     0.598788     0.591145     0.583502     0.575858     0.568215
      0.560572     0.552929     0.545286     0.537643     0.530000     0.522357     0.514714     0.507071     0.499427     0.491784
      0.484141     0.476498     0.468855     0.461212     0.453569     0.445925     0.438282     0.430639     0.422996     0.415353
      0.407710     0.400067     0.392424     0.384780     0.377137     0.369494     0.361851     0.354208     0.346565     0.338922
      0.331278     0.323635     0.315992     0.308349     0.300706     0.293063     0.285420     0.277777     0.270133     0.262490
      0.254847     0.247204     0.239561     0.231918     0.224275     0.216631     0.208988     0.201345
 NY phased data points follow
  -3.16652E+01 -3.13161E+01 -2.99426E+01 -2.82211E+01 -2.73419E+01 -3.00036E+01 -2.39680E+01 -2.75294E+01 -2.49619E+01 -2.68737E+01
  -2.38005E+01 -2.54014E+01 -2.29795E+01 -2.45777E+01 -2.61517E+01 -2.51007E+01 -2.62289E+01 -2.37575E+01 -2.30367E+01 -2.46058E+01
  -2.58259E+01 -2.39572E+01 -2.29200E+01 -2.16603E+01 -2.32373E+01 -2.17232E+01 -2.20746E+01 -2.27958E+01 -2.12509E+01 -2.14702E+01
  -2.33175E+01 -2.18338E+01 -2.17475E+01 -2.00741E+01 -1.89816E+01 -2.02767E+01 -1.98329E+01 -1.99283E+01 -1.93143E+01 -2.04247E+01
  -1.83979E+01 -1.95936E+01 -1.91320E+01 -1.97014E+01 -1.83578E+01 -2.04729E+01 -1.71309E+01 -1.86639E+01 -1.87613E+01 -1.65029E+01
  -1.75224E+01 -1.70807E+01 -1.64289E+01 -1.83273E+01 -1.89641E+01 -1.93533E+01 -1.75159E+01 -1.43761E+01 -1.72224E+01 -1.71390E+01
  -1.65565E+01 -1.57848E+01 -1.82112E+01 -1.73196E+01 -1.72230E+01 -1.70985E+01 -1.72726E+01 -1.67555E+01 -1.65671E+01 -1.83718E+01
  -1.68032E+01 -1.57813E+01 -1.72131E+01 -1.37476E+01 -1.70914E+01 -1.57141E+01 -1.69628E+01 -1.64036E+01 -1.50246E+01 -1.37451E+01
  -1.48436E+01 -1.54004E+01 -1.48445E+01 -1.41041E+01 -1.56403E+01 -1.51279E+01 -1.38785E+01 -1.38010E+01 -1.52277E+01 -1.52020E+01
  -1.34085E+01 -1.52124E+01 -1.28296E+01 -1.45643E+01 -1.44652E+01 -1.35532E+01 -1.42148E+01 -1.27396E+01 -1.00662E+01 -9.21213E+00
  -1.21329E+01 -8.89698E+00 -1.01900E+01 -1.13405E+01 -8.11123E+00 -9.24750E+00 -1.09643E+01 -1.28643E+01 -1.18009E+01 -8.98386E+00
  -1.12454E+01 -1.18128E+01 -1.14139E+01 -1.05597E+01 -1.29238E+01 -1.21291E+01 -1.21728E+01 -1.28890E+01 -1.10262E+01 -1.06791E+01
  -1.10993E+01 -9.71478E+00 -1.11667E+01 -7.67644E+00 -9.38359E+00 -5.77333E+00 -8.52753E+00 -5.62472E+00 -6.68137E+00 -7.45862E+00
  -6.74235E+00 -5.13109E+00 -6.85870E+00 -9.57666E+00 -8.82087E+00 -1.23742E+01 -1.05273E+01 -1.10307E+01 -1.14769E+01 -8.61337E+00
  -1.02309E+01 -1.14163E+01 -1.17284E+01 -1.11652E+01 -1.01648E+01 -9.36408E+00 -1.21997E+01 -9.78450E+00 -9.46004E+00 -1.08990E+01
  -1.11466E+01 -1.06312E+01 -8.93826E+00 -1.18560E+01 -1.07571E+01 -8.49654E+00 -9.62059E+00 -1.18327E+01 -1.05044E+01 -1.06262E+01
  -1.19059E+01 -8.98545E+00 -9.12171E+00 -1.00473E+01 -1.08402E+01 -1.11711E+01 -1.01063E+01 -1.18445E+01 -9.62980E+00 -1.04387E+01
  -1.06614E+01 -1.08557E+01 -1.12859E+01 -1.03267E+01 -1.08975E+01 -1.00471E+01 -1.11799E+01 -1.29181E+01 -9.07836E+00 -1.00432E+01
  -1.27908E+01 -9.17822E+00 -9.42195E+00 -1.06424E+01 -9.41194E+00 -1.15951E+01 -1.19762E+01 -7.93880E+00 -1.12315E+01 -7.43075E+00
  -7.73587E+00 -9.20981E+00 -7.21176E+00 -7.82300E+00 -9.29421E+00 -9.22077E+00 -7.89546E+00 -9.31145E+00 -7.97074E+00 -1.00523E+01
  -8.48643E+00 -9.33657E+00 -8.09886E+00 -8.89288E+00 -8.88937E+00 -6.71735E+00 -7.20929E+00 -8.07910E+00 -8.36139E+00 -8.14907E+00
  -8.25190E+00 -8.64137E+00 -5.33654E+00 -6.10432E+00 -6.63387E+00 -8.36994E+00 -7.06829E+00 -7.38276E+00 -6.32693E+00 -6.90953E+00
  -8.30123E+00 -7.55474E+00 -9.15405E+00 -7.93931E+00 -6.93284E+00 -7.17819E+00 -1.00485E+01 -6.45404E+00 -5.52819E+00 -8.30931E+00
  -6.31534E+00 -7.75139E+00 -5.62791E+00 -6.05574E+00 -6.75218E+00 -8.02848E+00 -5.71653E+00 -6.69494E+00 -5.72365E+00 -6.73653E+00
  -6.90904E+00 -5.56697E+00 -5.40528E+00 -7.15227E+00 -6.65931E+00 -7.41412E+00 -4.36407E+00 -6.70760E+00 -4.60885E+00 -2.53978E+00
  -5.37511E+00 -5.45525E+00 -6.27215E+00 -1.64722E+00 -1.49613E+00 -1.33744E+00  5.92597E-02  8.13371E-01  1.47019E-01  3.91425E+00
   1.73401E+00  3.74961E+00  1.97255E+00 -1.43262E-01 -1.72682E+00 -2.61718E+00 -2.36698E+00 -4.81166E+00 -4.83217E+00 -5.62804E+00
  -7.26204E+00 -5.13756E+00 -5.99701E+00 -7.73863E+00 -5.95430E+00 -6.15103E+00 -6.11487E+00 -6.19183E+00 -5.12175E+00 -6.64458E+00
  -8.02022E+00 -5.12988E+00 -6.77434E+00 -4.53207E+00 -7.29679E+00 -7.31336E+00 -4.23043E+00 -4.90566E+00 -5.26613E+00 -4.71959E+00
  -5.50131E+00 -5.84010E+00 -4.46118E+00 -6.94726E+00 -6.38519E+00 -5.35292E+00 -5.33394E+00 -6.58029E+00 -7.83397E+00 -3.51362E+00
  -5.08704E+00 -5.24585E+00 -4.95681E+00 -5.07483E+00 -1.93861E+00 -3.70341E+00 -5.59699E+00 -4.80890E+00 -5.02140E+00 -3.66371E+00
  -3.31737E+00 -5.53632E+00 -6.27650E+00 -2.25517E+00 -4.51883E+00 -4.98226E+00 -5.22397E+00 -4.52518E+00 -3.62874E+00 -6.25816E+00
  -6.29352E+00 -6.33550E+00 -3.02248E+00 -2.12834E+00 -4.76850E+00 -4.59618E+00 -3.17479E+00 -4.28805E+00 -3.46973E+00 -1.48639E+00
  -2.45715E+00 -3.33333E+00 -2.18182E+00 -2.71304E+00 -2.62677E+00 -4.36457E+00 -4.74013E+00 -5.24971E+00 -5.60107E+00 -3.10597E+00
  -4.42157E+00 -2.07480E+00 -3.41759E+00 -2.06191E+00 -2.95589E-01 -2.00431E+00  2.20273E+00 -2.01717E-01  1.18234E-01 -4.09652E-01
  -4.45686E-01 -9.41298E-02  4.40558E-01 -2.78276E-01  2.10301E+00 -1.57007E-01 -2.95115E+00 -1.73706E+00 -2.20581E+00 -3.55344E-01
  -1.92974E-02 -5.53119E-01 -9.10565E-01 -2.93337E+00 -5.55746E-01 -1.68273E+00  1.24293E+00 -2.11145E-02  5.11008E-02  7.43612E-01
   5.54255E-01  9.76048E-01  5.89373E-01  3.09227E-01  4.12973E-01  1.16729E-01 -1.03601E+00  6.92267E-01 -2.22516E-01 -2.25058E+00
  -1.36511E+00  8.99929E-01 -2.65977E+00 -5.61440E-01  8.52461E-01 -2.08686E+00 -1.96317E+00 -6.30311E-01  5.34514E-01  1.90218E+00
  -1.45397E+00 -1.64654E+00 -4.76595E-01  1.04147E+00  2.91058E-01 -1.02229E-01  4.19279E-01 -9.15123E-01  8.68021E-01 -2.28658E+00
   6.78025E-02 -8.89337E-01  6.10208E-01  1.77397E+00  1.29667E-01 -2.85338E+00 -1.07468E+00 -8.80589E-01 -1.78565E+00  8.56609E-01
  -4.22022E-01  2.00762E-01  3.38792E-01  6.67685E-01  2.34156E+00  1.97667E+00 -2.38843E-01  2.31838E+00  1.70196E+00  2.05221E+00
   9.36287E-02  9.01045E-01 -1.19748E-01  2.84163E-01  2.17619E-01 -6.98626E-01 -1.73862E+00  9.62447E-01  1.82295E+00 -1.24556E-01
  -1.41070E+00 -2.88200E+00 -6.17047E-02  2.29989E-01 -2.20305E+00 -7.74923E-01 -2.30578E+00  1.04003E+00 -1.15730E+00  1.17009E-01
   3.20967E-01  7.44124E-01 -1.02632E+00  7.78509E-01  2.07840E+00  1.64107E+00  1.31708E+00  2.29021E+00  5.37335E-01 -2.14539E+00
   2.81733E-01  2.91401E+00  4.21678E-02 -1.41064E+00 -1.56658E+00  1.28060E-01  2.43293E-01  2.04444E+00 -4.02663E-01  1.58248E+00
   1.11894E+00  2.72877E+00 -3.15185E-02  4.74783E-01  2.66631E-01  1.40251E+00  1.13926E+00  1.59153E-01 -9.27696E-01  6.30001E-01
  -1.64572E+00  6.72765E-01  7.84170E-02  3.95833E-01 -1.37485E+00 -6.51664E-01  6.05646E-01  7.86983E-01  1.31790E+00 -7.30715E-01
  -5.02283E-01 -2.70476E-01  1.49540E+00  9.70648E-01  2.16158E-01 -5.12939E-01 -1.34817E-01 -1.04662E+00  1.78775E+00  1.02220E+00
  -1.01018E+00  5.16249E-01 -9.58246E-01  5.21816E-01  5.13141E-01 -6.40846E-01  1.22236E+00  4.01649E-01
 NY points of the fit to the data follow
  -2.65877E+01 -2.76897E+01 -2.74429E+01 -2.68544E+01 -2.72151E+01 -2.72416E+01 -2.68043E+01 -2.68681E+01 -2.66397E+01 -2.65521E+01
  -2.57874E+01 -2.46758E+01 -2.36809E+01 -2.39704E+01 -2.43264E+01 -2.38605E+01 -2.29338E+01 -2.24574E+01 -2.29261E+01 -2.34001E+01
  -2.34653E+01 -2.31918E+01 -2.28502E+01 -2.26055E+01 -2.24761E+01 -2.21660E+01 -2.18633E+01 -2.17054E+01 -2.13965E+01 -2.11487E+01
  -2.09143E+01 -2.07680E+01 -2.08057E+01 -2.07925E+01 -2.08002E+01 -2.07670E+01 -2.06884E+01 -2.07940E+01 -2.06910E+01 -2.02301E+01
  -1.98568E+01 -1.97296E+01 -1.94528E+01 -1.91381E+01 -1.90195E+01 -1.88234E+01 -1.86042E+01 -1.83715E+01 -1.81826E+01 -1.83409E+01
  -1.86396E+01 -1.86298E+01 -1.84272E+01 -1.82958E+01 -1.83112E+01 -1.84974E+01 -1.85254E+01 -1.82648E+01 -1.80425E+01 -1.78000E+01
  -1.75583E+01 -1.74274E+01 -1.73506E+01 -1.73154E+01 -1.71628E+01 -1.70083E+01 -1.69615E+01 -1.67368E+01 -1.66017E+01 -1.65416E+01
  -1.63504E+01 -1.62062E+01 -1.60602E+01 -1.59311E+01 -1.58259E+01 -1.58105E+01 -1.57189E+01 -1.56012E+01 -1.54333E+01 -1.54299E+01
  -1.55293E+01 -1.54246E+01 -1.53167E+01 -1.53753E+01 -1.52746E+01 -1.52061E+01 -1.51830E+01 -1.50865E+01 -1.51365E+01 -1.52306E+01
  -1.51633E+01 -1.49777E+01 -1.49168E+01 -1.49388E+01 -1.45911E+01 -1.34159E+01 -1.23500E+01 -1.22109E+01 -1.15976E+01 -1.07222E+01
  -1.06477E+01 -1.01638E+01 -9.55683E+00 -9.54498E+00 -9.01287E+00 -9.59505E+00 -1.04954E+01 -1.08878E+01 -1.09910E+01 -1.11766E+01
  -1.19284E+01 -1.27855E+01 -1.32141E+01 -1.31440E+01 -1.31846E+01 -1.31738E+01 -1.31124E+01 -1.29243E+01 -1.23219E+01 -1.07572E+01
  -1.00315E+01 -9.93545E+00 -8.90866E+00 -8.08179E+00 -8.12863E+00 -7.12861E+00 -6.82029E+00 -6.58783E+00 -6.23843E+00 -7.25626E+00
  -8.18742E+00 -8.59326E+00 -8.66004E+00 -9.15563E+00 -1.00937E+01 -1.10807E+01 -1.13772E+01 -1.13346E+01 -1.13603E+01 -1.13306E+01
  -1.12451E+01 -1.11947E+01 -1.11276E+01 -1.10529E+01 -1.09840E+01 -1.09083E+01 -1.08576E+01 -1.08179E+01 -1.07979E+01 -1.07693E+01
  -1.07377E+01 -1.06900E+01 -1.06666E+01 -1.06868E+01 -1.06701E+01 -1.06206E+01 -1.05852E+01 -1.05156E+01 -1.04655E+01 -1.04739E+01
  -1.04332E+01 -1.04049E+01 -1.04194E+01 -1.03318E+01 -1.02742E+01 -1.02517E+01 -1.02353E+01 -1.02771E+01 -1.03036E+01 -1.02797E+01
  -1.02000E+01 -1.02012E+01 -1.02354E+01 -1.02535E+01 -1.02471E+01 -1.02254E+01 -1.01630E+01 -1.01613E+01 -1.00880E+01 -1.00411E+01
  -1.00072E+01 -9.91566E+00 -9.85002E+00 -9.68684E+00 -9.47510E+00 -9.36864E+00 -9.31545E+00 -9.18897E+00 -9.05836E+00 -8.86315E+00
  -8.75953E+00 -8.70741E+00 -8.63163E+00 -8.60672E+00 -8.57368E+00 -8.46368E+00 -8.40799E+00 -8.38500E+00 -8.36916E+00 -8.35758E+00
  -8.28785E+00 -8.23803E+00 -8.16401E+00 -8.15842E+00 -8.11785E+00 -8.12044E+00 -8.12498E+00 -8.09904E+00 -8.09349E+00 -8.07437E+00
  -8.05657E+00 -8.07170E+00 -8.07442E+00 -8.07676E+00 -8.06051E+00 -7.99440E+00 -7.88865E+00 -7.81164E+00 -7.80496E+00 -7.74443E+00
  -7.65007E+00 -7.56544E+00 -7.52553E+00 -7.52748E+00 -7.49829E+00 -7.39117E+00 -7.33093E+00 -7.29473E+00 -7.20666E+00 -7.10761E+00
  -7.01226E+00 -6.97465E+00 -6.97442E+00 -6.91618E+00 -6.85715E+00 -6.84514E+00 -6.80854E+00 -6.77479E+00 -6.70689E+00 -6.66378E+00
  -6.64949E+00 -6.62774E+00 -6.58020E+00 -6.53504E+00 -6.47791E+00 -6.42079E+00 -6.32034E+00 -6.13109E+00 -5.82669E+00 -5.66504E+00
  -5.52392E+00 -4.97443E+00 -3.43030E+00 -1.70156E+00 -1.55656E+00 -8.79598E-01  5.61473E-01  7.57232E-01  9.19792E-01  1.97010E+00
   1.61243E+00  2.34214E+00  1.62010E+00 -1.76453E-01 -1.07489E+00 -1.50581E+00 -1.78901E+00 -2.94200E+00 -4.33903E+00 -5.26740E+00
  -5.27069E+00 -5.43439E+00 -5.51935E+00 -5.55198E+00 -5.56506E+00 -5.57278E+00 -5.57644E+00 -5.57514E+00 -5.56779E+00 -5.56742E+00
  -5.56217E+00 -5.55257E+00 -5.54555E+00 -5.53698E+00 -5.51724E+00 -5.49533E+00 -5.47191E+00 -5.44425E+00 -5.41585E+00 -5.38855E+00
  -5.35817E+00 -5.32937E+00 -5.29999E+00 -5.26897E+00 -5.24106E+00 -5.21205E+00 -5.18040E+00 -5.14945E+00 -5.11563E+00 -5.08286E+00
  -5.05016E+00 -5.01480E+00 -4.97764E+00 -4.94086E+00 -4.90304E+00 -4.86463E+00 -4.82459E+00 -4.78414E+00 -4.74313E+00 -4.70194E+00
  -4.65948E+00 -4.61680E+00 -4.57280E+00 -4.52820E+00 -4.48205E+00 -4.43519E+00 -4.38665E+00 -4.33721E+00 -4.28584E+00 -4.23331E+00
  -4.17853E+00 -4.12223E+00 -4.06340E+00 -4.00268E+00 -3.93895E+00 -3.87278E+00 -3.80306E+00 -3.73037E+00 -3.65355E+00 -3.57308E+00
  -3.48774E+00 -3.39797E+00 -3.30264E+00 -3.20224E+00 -3.09563E+00 -2.98333E+00 -2.86431E+00 -2.73924E+00 -2.60737E+00 -2.46959E+00
  -2.32541E+00 -2.17601E+00 -2.02127E+00 -1.86280E+00 -1.70094E+00 -1.53770E+00 -1.37377E+00 -1.21149E+00 -1.05192E+00 -8.97655E-01
  -7.49905E-01 -6.11277E-01 -4.82866E-01 -3.67056E-01 -2.64646E-01 -1.77593E-01 -1.06138E-01 -5.15593E-02 -1.33808E-02  7.85081E-03
   1.33012E-02  3.12391E-03 -2.08486E-02 -5.78498E-02 -1.05570E-01 -1.62894E-01 -2.27311E-01 -2.97574E-01 -3.71141E-01 -4.46830E-01
  -5.22303E-01 -5.96658E-01 -6.67898E-01 -7.35448E-01 -7.97650E-01 -8.54272E-01 -9.04032E-01 -9.47037E-01 -9.82302E-01 -1.01015E+00
  -1.02979E+00 -1.04170E+00 -1.04525E+00 -1.04104E+00 -1.02851E+00 -1.00829E+00 -9.79894E-01 -9.44014E-01 -9.00272E-01 -8.49482E-01
  -7.91389E-01 -7.26943E-01 -6.56102E-01 -5.80070E-01 -4.99092E-01 -4.14642E-01 -3.27235E-01 -2.38593E-01 -1.49492E-01 -6.18669E-02
   2.33581E-02  1.04218E-01  1.79845E-01  2.48424E-01  3.09302E-01  3.60984E-01  4.03228E-01  4.35052E-01  4.56754E-01  4.67907E-01
   4.69328E-01  4.61100E-01  4.44513E-01  4.20073E-01  3.89379E-01  3.53146E-01  3.13067E-01  2.69890E-01  2.25260E-01  1.79817E-01
   1.35003E-01  9.12080E-02  4.95925E-02  1.02808E-02 -2.58303E-02 -5.88695E-02 -8.82041E-02 -1.14191E-01 -1.36403E-01 -1.55332E-01
  -1.70662E-01 -1.82980E-01 -1.92060E-01 -1.98541E-01 -2.02226E-01 -2.03738E-01 -2.02873E-01 -2.00240E-01 -1.95638E-01 -1.89655E-01
  -1.82057E-01 -1.73380E-01 -1.63365E-01 -1.52531E-01 -1.40611E-01 -1.28094E-01 -1.14683E-01 -1.00826E-01 -8.62199E-02 -7.13076E-02
  -5.57859E-02 -4.00707E-02 -2.38368E-02 -7.47752E-03  9.32681E-03  2.61856E-02  4.34187E-02  6.06599E-02  7.82428E-02  9.58090E-02
   1.13676E-01  1.31485E-01  1.49557E-01  1.67556E-01  1.85808E-01  2.03977E-01  2.22371E-01  2.40657E-01  2.59150E-01  2.77538E-01
   2.96134E-01  3.14619E-01  3.33288E-01  3.51833E-01  3.70559E-01  3.89174E-01  4.07972E-01  4.26651E-01  4.45496E-01  4.64219E-01
   4.83114E-01  5.01904E-01  5.20864E-01  5.39711E-01  5.58717E-01  5.77616E-01  5.96686E-01  6.15663E-01  6.34808E-01  6.53851E-01
   6.73056E-01  6.92174E-01  7.11469E-01  7.30688E-01  7.50075E-01  7.69380E-01  7.88855E-01  8.08269E-01
 NY background values follow
    -2.642E+01   -2.629E+01   -2.616E+01   -2.603E+01   -2.590E+01   -2.577E+01   -2.564E+01   -2.551E+01   -2.538E+01   -2.525E+01
    -2.512E+01   -2.499E+01   -2.486E+01   -2.473E+01   -2.460E+01   -2.447E+01   -2.434E+01   -2.422E+01   -2.409E+01   -2.396E+01
    -2.383E+01   -2.370E+01   -2.357E+01   -2.344E+01   -2.332E+01   -2.319E+01   -2.306E+01   -2.293E+01   -2.281E+01   -2.268E+01
    -2.255E+01   -2.243E+01   -2.230E+01   -2.217E+01   -2.205E+01   -2.192E+01   -2.180E+01   -2.167E+01   -2.155E+01   -2.142E+01
    -2.130E+01   -2.118E+01   -2.105E+01   -2.093E+01   -2.081E+01   -2.069E+01   -2.057E+01   -2.044E+01   -2.032E+01   -2.020E+01
    -2.008E+01   -1.997E+01   -1.985E+01   -1.973E+01   -1.961E+01   -1.949E+01   -1.938E+01   -1.926E+01   -1.914E+01   -1.903E+01
    -1.891E+01   -1.880E+01   -1.868E+01   -1.857E+01   -1.846E+01   -1.834E+01   -1.823E+01   -1.812E+01   -1.801E+01   -1.790E+01
    -1.779E+01   -1.768E+01   -1.757E+01   -1.746E+01   -1.736E+01   -1.725E+01   -1.714E+01   -1.704E+01   -1.693E+01   -1.683E+01
    -1.672E+01   -1.662E+01   -1.652E+01   -1.641E+01   -1.631E+01   -1.621E+01   -1.611E+01   -1.601E+01   -1.591E+01   -1.581E+01
    -1.572E+01   -1.562E+01   -1.552E+01   -1.543E+01   -1.533E+01   -1.524E+01   -1.515E+01   -1.505E+01   -1.496E+01   -1.487E+01
    -1.478E+01   -1.469E+01   -1.460E+01   -1.451E+01   -1.442E+01   -1.433E+01   -1.425E+01   -1.416E+01   -1.407E+01   -1.399E+01
    -1.391E+01   -1.382E+01   -1.374E+01   -1.366E+01   -1.358E+01   -1.349E+01   -1.341E+01   -1.333E+01   -1.326E+01   -1.318E+01
    -1.310E+01   -1.302E+01   -1.295E+01   -1.287E+01   -1.280E+01   -1.272E+01   -1.265E+01   -1.257E+01   -1.250E+01   -1.243E+01
    -1.236E+01   -1.229E+01   -1.222E+01   -1.215E+01   -1.208E+01   -1.201E+01   -1.195E+01   -1.188E+01   -1.181E+01   -1.175E+01
    -1.168E+01   -1.162E+01   -1.156E+01   -1.149E+01   -1.143E+01   -1.137E+01   -1.131E+01   -1.125E+01   -1.119E+01   -1.113E+01
    -1.107E+01   -1.101E+01   -1.095E+01   -1.090E+01   -1.084E+01   -1.078E+01   -1.073E+01   -1.067E+01   -1.062E+01   -1.056E+01
    -1.051E+01   -1.046E+01   -1.040E+01   -1.035E+01   -1.030E+01   -1.025E+01   -1.020E+01   -1.015E+01   -1.010E+01   -1.005E+01
    -9.997E+00   -9.947E+00   -9.899E+00   -9.850E+00   -9.802E+00   -9.755E+00   -9.707E+00   -9.660E+00   -9.614E+00   -9.567E+00
    -9.521E+00   -9.476E+00   -9.430E+00   -9.385E+00   -9.341E+00   -9.296E+00   -9.252E+00   -9.208E+00   -9.164E+00   -9.121E+00
    -9.078E+00   -9.035E+00   -8.993E+00   -8.951E+00   -8.909E+00   -8.867E+00   -8.826E+00   -8.785E+00   -8.744E+00   -8.703E+00
    -8.663E+00   -8.623E+00   -8.583E+00   -8.544E+00   -8.504E+00   -8.465E+00   -8.427E+00   -8.388E+00   -8.350E+00   -8.312E+00
    -8.274E+00   -8.237E+00   -8.199E+00   -8.162E+00   -8.126E+00   -8.089E+00   -8.053E+00   -8.017E+00   -7.981E+00   -7.945E+00
    -7.910E+00   -7.874E+00   -7.839E+00   -7.805E+00   -7.770E+00   -7.736E+00   -7.702E+00   -7.668E+00   -7.634E+00   -7.600E+00
    -7.567E+00   -7.534E+00   -7.501E+00   -7.468E+00   -7.435E+00   -7.403E+00   -7.371E+00   -7.338E+00   -7.306E+00   -7.274E+00
    -7.242E+00   -7.211E+00   -7.179E+00   -7.148E+00   -7.116E+00   -7.085E+00   -7.054E+00   -7.022E+00   -6.991E+00   -6.960E+00
    -6.929E+00   -6.898E+00   -6.867E+00   -6.837E+00   -6.806E+00   -6.775E+00   -6.744E+00   -6.713E+00   -6.683E+00   -6.652E+00
    -6.621E+00   -6.590E+00   -6.559E+00   -6.528E+00   -6.498E+00   -6.467E+00   -6.436E+00   -6.405E+00   -6.373E+00   -6.342E+00
    -6.311E+00   -6.280E+00   -6.248E+00   -6.217E+00   -6.185E+00   -6.153E+00   -6.122E+00   -6.090E+00   -6.058E+00   -6.026E+00
    -5.994E+00   -5.961E+00   -5.929E+00   -5.897E+00   -5.864E+00   -5.831E+00   -5.799E+00   -5.766E+00   -5.733E+00   -5.700E+00
    -5.667E+00   -5.634E+00   -5.600E+00   -5.567E+00   -5.533E+00   -5.500E+00   -5.466E+00   -5.432E+00   -5.399E+00   -5.365E+00
    -5.331E+00   -5.296E+00   -5.262E+00   -5.228E+00   -5.193E+00   -5.159E+00   -5.124E+00   -5.089E+00   -5.055E+00   -5.020E+00
    -4.985E+00   -4.949E+00   -4.914E+00   -4.879E+00   -4.843E+00   -4.808E+00   -4.772E+00   -4.736E+00   -4.700E+00   -4.664E+00
    -4.628E+00   -4.592E+00   -4.556E+00   -4.520E+00   -4.483E+00   -4.447E+00   -4.410E+00   -4.374E+00   -4.337E+00   -4.300E+00
    -4.263E+00   -4.227E+00   -4.190E+00   -4.153E+00   -4.116E+00   -4.079E+00   -4.042E+00   -4.005E+00   -3.968E+00   -3.930E+00
    -3.893E+00   -3.856E+00   -3.819E+00   -3.782E+00   -3.745E+00   -3.707E+00   -3.670E+00   -3.633E+00   -3.596E+00   -3.559E+00
    -3.522E+00   -3.485E+00   -3.447E+00   -3.410E+00   -3.373E+00   -3.336E+00   -3.300E+00   -3.263E+00   -3.226E+00   -3.189E+00
    -3.152E+00   -3.116E+00   -3.079E+00   -3.043E+00   -3.006E+00   -2.970E+00   -2.933E+00   -2.897E+00   -2.861E+00   -2.825E+00
    -2.789E+00   -2.753E+00   -2.717E+00   -2.681E+00   -2.646E+00   -2.610E+00   -2.575E+00   -2.539E+00   -2.504E+00   -2.469E+00
    -2.434E+00   -2.399E+00   -2.364E+00   -2.329E+00   -2.295E+00   -2.260E+00   -2.226E+00   -2.192E+00   -2.157E+00   -2.123E+00
    -2.089E+00   -2.056E+00   -2.022E+00   -1.988E+00   -1.955E+00   -1.922E+00   -1.889E+00   -1.856E+00   -1.823E+00   -1.790E+00
    -1.758E+00   -1.725E+00   -1.693E+00   -1.661E+00   -1.629E+00   -1.597E+00   -1.566E+00   -1.534E+00   -1.503E+00   -1.472E+00
    -1.441E+00   -1.410E+00   -1.379E+00   -1.349E+00   -1.318E+00   -1.288E+00   -1.258E+00   -1.228E+00   -1.199E+00   -1.169E+00
    -1.140E+00   -1.110E+00   -1.081E+00   -1.053E+00   -1.024E+00   -9.953E-01   -9.669E-01   -9.387E-01   -9.106E-01   -8.827E-01
    -8.549E-01   -8.274E-01   -7.999E-01   -7.727E-01   -7.456E-01   -7.186E-01   -6.919E-01   -6.653E-01   -6.388E-01   -6.125E-01
    -5.864E-01   -5.604E-01   -5.346E-01   -5.090E-01   -4.835E-01   -4.582E-01   -4.330E-01   -4.080E-01   -3.832E-01   -3.585E-01
    -3.340E-01   -3.096E-01   -2.854E-01   -2.614E-01   -2.375E-01   -2.138E-01   -1.902E-01   -1.668E-01   -1.435E-01   -1.204E-01
    -9.734E-02   -7.445E-02   -5.168E-02   -2.903E-02   -6.490E-03    1.593E-02    3.825E-02    6.046E-02    8.258E-02    1.046E-01
     1.265E-01    1.484E-01    1.701E-01    1.918E-01    2.134E-01    2.350E-01    2.564E-01    2.778E-01    2.992E-01    3.205E-01
     3.417E-01    3.629E-01    3.841E-01    4.052E-01    4.263E-01    4.474E-01    4.684E-01    4.894E-01    5.104E-01    5.314E-01
     5.524E-01    5.734E-01    5.943E-01    6.153E-01    6.363E-01    6.573E-01    6.783E-01    6.993E-01
 Asp      Conc. = 2.84E+01
