 LCModel (Version 6.3-1L) Copyright: S.W. Provencher.          Ref.: Magn. Reson. Med. 30:672-679 (1993).                
 Slice#1 Row#12 Col#4  K_02_press_1_raw_act
 36 lines in following concentration table = NCONC+1
    Conc.  %SD /Cr+PCr  Metabolite                                         
  261.390  45%   0.394 Ala                                                 
    0.000 999%   0.000 Asp                                                 
   79.011 236%   0.119 Cr                                                  
  585.182  33%   0.881 PCr                                                 
   66.839 165%   0.101 GABA                                                
   73.828 143%   0.111 Glc                                                 
  472.514  58%   0.711 Gln                                                 
 1.03E+03  30%   1.557 Glu                                                 
  308.390   6%   0.464 GPC                                                 
    0.000 999%   0.000 PCh                                                 
  371.145  19%   0.559 GSH                                                 
 1.56E+03  17%   2.349 Ins                                                 
  123.665 107%   0.186 Lac                                                 
 1.39E+03   7%   2.094 NAA                                                 
  242.149  44%   0.365 NAAG                                                
  145.071  16%   0.218 Scyllo                                              
   80.762 199%   0.122 Tau                                                 
  396.036  26%   0.596 -CrCH2                                              
  308.390   6%   0.464 GPC+PCh                                             
 1.63E+03   4%   2.459 NAA+NAAG                                            
  664.194   7%   1.000 Cr+PCr                                              
 1.51E+03  34%   2.268 Glu+Gln                                             
    0.000 999%   0.000 Lip13a                                              
    0.000 999%   0.000 Lip13b                                              
    0.000 999%   0.000 Lip09                                               
  827.966  14%   1.247 MM09                                                
    3.612 999% 5.4E-03 Lip20                                               
 1.10E+03  25%   1.654 MM20                                                
  243.494  41%   0.367 MM12                                                
 1.21E+03  16%   1.825 MM14                                                
 1.02E+03  14%   1.541 MM17                                                
    0.000 999%   0.000 Lip13a+Lip13b                                       
 1.46E+03  17%   2.192 MM14+Lip13a+Lip13b+MM12                             
  827.966  14%   1.247 MM09+Lip09                                          
 1.10E+03  25%   1.660 MM20+Lip20                                          
   6 lines in following misc. output table
  FWHM = 0.076 ppm    S/N =   8                                            
  Data shift =-0.008 ppm                                                   
  Ph: -63 deg     -18.7 deg/ppm                                            
  alphaB,S = 6.1E-01,   9.6E+01                                            
   14 spline knots.   Ns = 9(1)                                            
  (14) 5 infls.   (11) 1 extrs.                                            
  498 points on ppm-axis = NY
      4.000000     3.992357     3.984714     3.977070     3.969427     3.961784     3.954141     3.946497     3.938854     3.931211
      3.923568     3.915925     3.908281     3.900638     3.892995     3.885352     3.877708     3.870065     3.862422     3.854779
      3.847136     3.839492     3.831849     3.824206     3.816563     3.808919     3.801276     3.793633     3.785990     3.778347
      3.770703     3.763060     3.755417     3.747774     3.740130     3.732487     3.724844     3.717201     3.709558     3.701914
      3.694271     3.686628     3.678985     3.671341     3.663698     3.656055     3.648412     3.640769     3.633125     3.625482
      3.617839     3.610196     3.602552     3.594909     3.587266     3.579623     3.571980     3.564336     3.556693     3.549050
      3.541407     3.533763     3.526120     3.518477     3.510834     3.503191     3.495547     3.487904     3.480261     3.472618
      3.464974     3.457331     3.449688     3.442045     3.434402     3.426758     3.419115     3.411472     3.403829     3.396185
      3.388542     3.380899     3.373256     3.365613     3.357969     3.350326     3.342683     3.335040     3.327396     3.319753
      3.312110     3.304467     3.296824     3.289180     3.281537     3.273894     3.266251     3.258607     3.250964     3.243321
      3.235678     3.228034     3.220391     3.212748     3.205105     3.197462     3.189818     3.182175     3.174532     3.166889
      3.159245     3.151602     3.143959     3.136316     3.128673     3.121029     3.113386     3.105743     3.098100     3.090456
      3.082813     3.075170     3.067527     3.059884     3.052240     3.044597     3.036954     3.029311     3.021667     3.014024
      3.006381     2.998738     2.991095     2.983451     2.975808     2.968165     2.960522     2.952878     2.945235     2.937592
      2.929949     2.922306     2.914662     2.907019     2.899376     2.891733     2.884089     2.876446     2.868803     2.861160
      2.853517     2.845873     2.838230     2.830587     2.822944     2.815300     2.807657     2.800014     2.792371     2.784728
      2.777084     2.769441     2.761798     2.754155     2.746511     2.738868     2.731225     2.723582     2.715939     2.708295
      2.700652     2.693009     2.685366     2.677722     2.670079     2.662436     2.654793     2.647150     2.639506     2.631863
      2.624220     2.616577     2.608933     2.601290     2.593647     2.586004     2.578361     2.570717     2.563074     2.555431
      2.547788     2.540144     2.532501     2.524858     2.517215     2.509572     2.501928     2.494285     2.486642     2.478999
      2.471355     2.463712     2.456069     2.448426     2.440783     2.433139     2.425496     2.417853     2.410210     2.402566
      2.394923     2.387280     2.379637     2.371994     2.364350     2.356707     2.349064     2.341421     2.333777     2.326134
      2.318491     2.310848     2.303205     2.295561     2.287918     2.280275     2.272632     2.264988     2.257345     2.249702
      2.242059     2.234416     2.226772     2.219129     2.211486     2.203843     2.196199     2.188556     2.180913     2.173270
      2.165627     2.157983     2.150340     2.142697     2.135054     2.127410     2.119767     2.112124     2.104481     2.096838
      2.089194     2.081551     2.073908     2.066265     2.058621     2.050978     2.043335     2.035692     2.028049     2.020405
      2.012762     2.005119     1.997476     1.989833     1.982190     1.974546     1.966903     1.959260     1.951617     1.943974
      1.936331     1.928688     1.921045     1.913402     1.905759     1.898115     1.890472     1.882829     1.875186     1.867543
      1.859900     1.852257     1.844614     1.836971     1.829327     1.821684     1.814041     1.806398     1.798755     1.791112
      1.783469     1.775826     1.768183     1.760540     1.752896     1.745253     1.737610     1.729967     1.722324     1.714681
      1.707038     1.699395     1.691752     1.684108     1.676465     1.668822     1.661179     1.653536     1.645893     1.638250
      1.630607     1.622964     1.615321     1.607677     1.600034     1.592391     1.584748     1.577105     1.569462     1.561819
      1.554176     1.546533     1.538890     1.531246     1.523603     1.515960     1.508317     1.500674     1.493031     1.485388
      1.477745     1.470102     1.462458     1.454815     1.447172     1.439529     1.431886     1.424243     1.416600     1.408957
      1.401314     1.393671     1.386027     1.378384     1.370741     1.363098     1.355455     1.347812     1.340169     1.332526
      1.324883     1.317240     1.309596     1.301953     1.294310     1.286667     1.279024     1.271381     1.263738     1.256095
      1.248452     1.240808     1.233165     1.225522     1.217879     1.210236     1.202593     1.194950     1.187307     1.179664
      1.172021     1.164377     1.156734     1.149091     1.141448     1.133805     1.126162     1.118519     1.110876     1.103233
      1.095590     1.087946     1.080303     1.072660     1.065017     1.057374     1.049731     1.042088     1.034445     1.026802
      1.019158     1.011515     1.003872     0.996229     0.988586     0.980943     0.973300     0.965657     0.958014     0.950371
      0.942727     0.935084     0.927441     0.919798     0.912155     0.904512     0.896869     0.889226     0.881583     0.873940
      0.866296     0.858653     0.851010     0.843367     0.835724     0.828081     0.820438     0.812795     0.805152     0.797508
      0.789865     0.782222     0.774579     0.766936     0.759293     0.751650     0.744007     0.736364     0.728721     0.721077
      0.713434     0.705791     0.698148     0.690505     0.682862     0.675219     0.667576     0.659933     0.652290     0.644646
      0.637003     0.629360     0.621717     0.614074     0.606431     0.598788     0.591145     0.583502     0.575858     0.568215
      0.560572     0.552929     0.545286     0.537643     0.530000     0.522357     0.514714     0.507071     0.499427     0.491784
      0.484141     0.476498     0.468855     0.461212     0.453569     0.445925     0.438282     0.430639     0.422996     0.415353
      0.407710     0.400067     0.392424     0.384780     0.377137     0.369494     0.361851     0.354208     0.346565     0.338922
      0.331278     0.323635     0.315992     0.308349     0.300706     0.293063     0.285420     0.277777     0.270133     0.262490
      0.254847     0.247204     0.239561     0.231918     0.224275     0.216631     0.208988     0.201345
 NY phased data points follow
  -8.70037E+01 -8.72462E+01 -8.80762E+01 -8.56424E+01 -8.55360E+01 -8.54398E+01 -7.91723E+01 -7.80633E+01 -7.91409E+01 -7.41922E+01
  -7.16952E+01 -7.14019E+01 -7.22159E+01 -7.27531E+01 -7.39005E+01 -7.72250E+01 -7.43246E+01 -7.64931E+01 -7.80481E+01 -7.93966E+01
  -7.39508E+01 -7.65389E+01 -7.22440E+01 -6.96021E+01 -7.19835E+01 -6.83030E+01 -6.74224E+01 -6.44614E+01 -6.54713E+01 -6.46079E+01
  -6.22553E+01 -5.80527E+01 -6.06640E+01 -5.92175E+01 -5.82947E+01 -5.59984E+01 -5.82229E+01 -5.78450E+01 -5.70509E+01 -5.49763E+01
  -5.70903E+01 -5.49231E+01 -5.42501E+01 -5.19939E+01 -5.24333E+01 -5.15808E+01 -5.04181E+01 -5.20443E+01 -5.16460E+01 -5.18796E+01
  -4.75330E+01 -4.97107E+01 -4.78179E+01 -4.67892E+01 -4.94728E+01 -4.76639E+01 -4.99660E+01 -5.15720E+01 -4.97652E+01 -4.81004E+01
  -5.02183E+01 -4.80067E+01 -5.09274E+01 -4.90138E+01 -4.90392E+01 -5.07857E+01 -4.79632E+01 -4.67737E+01 -4.91727E+01 -4.69103E+01
  -4.97622E+01 -4.53501E+01 -4.54345E+01 -4.43802E+01 -4.56217E+01 -3.97588E+01 -4.29954E+01 -4.18433E+01 -4.12856E+01 -4.19275E+01
  -3.98654E+01 -3.68386E+01 -3.58595E+01 -4.06398E+01 -3.63824E+01 -3.74579E+01 -3.84786E+01 -3.59923E+01 -3.46030E+01 -3.45763E+01
  -3.53139E+01 -3.16032E+01 -3.33898E+01 -3.05821E+01 -2.99111E+01 -3.00680E+01 -2.84412E+01 -2.92224E+01 -2.69048E+01 -2.05076E+01
  -1.50652E+01 -1.98561E+01 -1.69446E+01 -1.38215E+01 -1.36747E+01 -1.71538E+01 -1.59345E+01 -2.69120E+01 -2.66619E+01 -2.89325E+01
  -2.98766E+01 -2.94159E+01 -3.36953E+01 -3.19053E+01 -2.79764E+01 -2.89295E+01 -2.75413E+01 -2.46713E+01 -2.59981E+01 -2.86128E+01
  -2.22851E+01 -2.18755E+01 -2.40396E+01 -1.52630E+01 -1.77756E+01 -1.53574E+01 -1.17905E+01 -7.69135E+00 -8.39495E+00 -1.14777E+01
  -1.18686E+01 -1.60543E+01 -2.25590E+01 -1.96726E+01 -2.15001E+01 -2.80272E+01 -2.54972E+01 -2.80970E+01 -2.46472E+01 -2.39162E+01
  -2.63469E+01 -2.54946E+01 -2.51638E+01 -2.38140E+01 -2.08621E+01 -2.34304E+01 -2.25365E+01 -2.26568E+01 -2.43951E+01 -2.21925E+01
  -2.47668E+01 -2.30748E+01 -2.29941E+01 -1.89836E+01 -2.00038E+01 -1.52704E+01 -2.18467E+01 -2.06796E+01 -1.86350E+01 -1.84464E+01
  -1.84825E+01 -1.93552E+01 -2.15145E+01 -1.90104E+01 -2.24660E+01 -1.76744E+01 -2.49288E+01 -2.16503E+01 -2.28731E+01 -2.55973E+01
  -2.42992E+01 -2.20161E+01 -2.51717E+01 -2.37528E+01 -2.29155E+01 -2.49797E+01 -2.63053E+01 -2.48543E+01 -2.48784E+01 -2.27022E+01
  -2.13852E+01 -2.00816E+01 -1.83258E+01 -1.95348E+01 -2.23026E+01 -1.87890E+01 -1.90982E+01 -1.77629E+01 -1.78544E+01 -1.58518E+01
  -1.92205E+01 -1.72672E+01 -1.86733E+01 -1.50508E+01 -1.89265E+01 -1.36265E+01 -1.32497E+01 -1.59157E+01 -1.51735E+01 -1.73184E+01
  -1.42064E+01 -1.83656E+01 -1.22202E+01 -1.28814E+01 -9.94668E+00 -1.13527E+01 -1.07693E+01 -1.24271E+01 -1.26711E+01 -1.26975E+01
  -1.26317E+01 -1.14486E+01 -6.56081E+00 -9.90481E+00 -1.10057E+01 -8.27635E+00 -9.35921E+00 -8.90467E+00 -9.94363E+00 -1.24988E+01
  -9.83918E+00 -1.19786E+01 -1.07054E+01 -1.13559E+01 -1.05714E+01 -9.62041E+00 -1.45632E+00 -7.14365E+00 -7.40920E+00 -6.32868E+00
  -2.52574E+00 -4.40598E+00 -7.38160E+00 -2.07312E+00 -5.44888E+00 -7.23956E+00 -4.64580E+00 -4.16137E+00 -6.44187E+00 -7.59473E+00
  -4.24508E+00 -3.57117E+00 -2.45199E+00 -7.03631E+00 -5.50381E+00 -1.70534E+00 -3.55064E+00 -3.47395E+00 -1.02144E+00  2.08434E+00
   5.29257E+00  7.33001E+00  1.14391E+01  1.75838E+01  1.83359E+01  2.10122E+01  2.63612E+01  3.34760E+01  3.99511E+01  3.41559E+01
   3.65785E+01  3.53236E+01  3.80855E+01  2.86994E+01  1.78540E+01  1.16522E+01  7.44206E+00  3.56737E+00  3.16424E+00 -1.15078E+00
  -8.36097E-01 -2.04106E-01 -3.17756E+00  2.13436E+00  1.13539E+00 -3.88782E+00 -7.55837E-01  1.79617E+00 -1.07333E+00 -2.70272E+00
   1.09902E+00 -5.16998E-01  1.04419E+00 -1.44696E+00 -1.15250E+00  3.22309E+00 -9.41603E-01 -3.33051E-01 -6.06918E-01  1.82257E+00
   1.09396E+00  4.06895E+00 -1.37621E+00 -7.38697E-02  3.14498E+00  4.41775E+00  3.97271E+00  2.28747E+00  3.84003E+00  3.42366E+00
   3.55550E+00  4.36920E+00  5.68554E+00  7.46565E+00  3.44485E+00  1.00747E+01  8.76010E-01  5.20546E+00  5.88902E+00  6.75016E+00
   1.03457E+01  8.35682E+00  8.00202E+00  9.70472E+00  9.95394E+00  8.46851E+00  1.21863E+01  1.26133E+01  8.44630E+00  6.30072E+00
   7.29034E+00  5.97502E+00  7.07950E+00  6.00783E+00  7.92730E+00  7.50786E+00  8.45504E+00  9.93414E+00  5.21304E+00  5.54942E+00
   4.62560E+00  3.46239E+00  4.66075E+00  6.16082E+00  4.68982E+00  4.11628E+00  7.36623E+00  5.27724E+00  6.05074E+00  6.36461E+00
   6.32635E+00  7.10695E+00  4.07611E+00  8.39114E+00  7.48508E+00  2.21819E+00  1.96856E+00  6.36402E+00  3.91153E+00  3.06411E+00
   3.95155E+00  1.07719E-01  5.76245E-01 -1.02935E+00 -1.14418E+00  1.78019E+00 -1.95615E+00 -3.93959E+00 -1.55764E+00  6.75385E-01
   2.60038E+00  5.17340E-01  1.28048E+00  2.50767E+00  3.68544E+00  2.42558E+00  3.06662E+00  8.68590E-01 -4.74260E-01  1.67427E+00
   9.33979E-01  4.93092E+00  1.65372E+00 -1.21431E+00  1.28493E-01 -9.80035E-01  4.38962E-01 -7.17074E-01  1.32009E+00 -1.20651E+00
  -2.26527E+00 -4.74847E-01 -8.32561E-01  4.99209E-01  5.26707E-01 -2.31946E-02 -3.90770E+00 -2.64594E+00 -4.17832E+00 -1.14882E+00
  -3.38207E+00 -5.72035E-02 -2.72564E+00 -3.49003E-01  5.72140E+00  5.38326E+00  4.86137E+00  4.31333E-01  3.15714E+00  1.79980E+00
   2.49277E+00  6.43777E+00  6.98797E+00  4.28811E+00  6.80081E+00  4.04167E+00  4.03702E+00  6.15538E+00  3.67902E+00  4.97258E+00
   5.02482E+00  1.82071E+00  3.81457E+00  4.28989E+00  3.88805E+00 -1.30535E-01  3.79876E+00  1.51553E+00 -2.01199E+00 -4.06039E-01
  -1.52309E+00 -2.57332E+00  8.70092E-02 -3.20190E+00  1.59076E+00 -8.93793E-01 -3.62979E+00 -1.75713E+00 -1.11978E+00 -2.24955E-01
  -2.07113E+00  8.47505E-01 -2.94478E+00  3.59182E+00 -1.07807E+00 -2.46539E+00 -3.17565E-01 -1.42911E+00 -5.12387E+00 -3.40536E+00
  -1.64694E+00 -7.18167E-01 -3.54921E+00 -1.90704E-01 -3.46093E+00 -1.97318E+00 -3.15519E+00 -2.36232E+00 -2.86501E+00 -1.40920E+00
  -3.85264E-01 -2.10728E+00 -2.29436E+00 -3.99239E+00 -5.16866E+00  2.44192E-02 -3.82414E+00 -2.07587E+00 -7.21306E+00 -2.11930E+00
  -5.80022E+00 -1.98497E+00 -4.27681E+00 -6.47502E+00 -3.18014E+00 -9.47192E-01 -1.63144E+00 -3.97855E+00 -5.24268E+00 -1.69975E+00
  -3.29193E+00 -4.60424E+00 -3.33372E+00 -9.96125E-01  3.02330E-01 -2.60629E+00 -5.11883E+00 -3.98749E+00 -5.00080E+00  2.18063E+00
  -2.55992E+00 -2.78175E+00 -1.35186E+00 -4.23343E+00 -2.35878E+00 -4.98917E+00  1.02201E+00 -1.80050E+00  1.74790E+00 -3.34574E+00
  -1.70566E+00 -1.18494E+00 -2.87650E+00 -2.03883E+00  4.51962E-01  2.37403E-02 -9.91276E-01 -2.54728E+00
 NY points of the fit to the data follow
  -8.50754E+01 -8.45729E+01 -8.38138E+01 -8.30860E+01 -8.24104E+01 -8.13557E+01 -7.98710E+01 -7.84112E+01 -7.72472E+01 -7.61755E+01
  -7.50325E+01 -7.39699E+01 -7.33540E+01 -7.33611E+01 -7.37160E+01 -7.39389E+01 -7.38994E+01 -7.37941E+01 -7.38083E+01 -7.37512E+01
  -7.34958E+01 -7.28680E+01 -7.16585E+01 -7.03588E+01 -6.92906E+01 -6.82870E+01 -6.71008E+01 -6.56781E+01 -6.42265E+01 -6.28534E+01
  -6.14006E+01 -5.98037E+01 -5.84235E+01 -5.76678E+01 -5.77341E+01 -5.84942E+01 -5.94848E+01 -6.01872E+01 -6.02393E+01 -5.97116E+01
  -5.89426E+01 -5.80759E+01 -5.69629E+01 -5.54232E+01 -5.36993E+01 -5.22528E+01 -5.12175E+01 -5.03969E+01 -4.98026E+01 -4.97422E+01
  -5.03359E+01 -5.13568E+01 -5.23134E+01 -5.28814E+01 -5.30560E+01 -5.28766E+01 -5.23591E+01 -5.15614E+01 -5.06337E+01 -4.97677E+01
  -4.90231E+01 -4.84652E+01 -4.81122E+01 -4.79270E+01 -4.78636E+01 -4.77887E+01 -4.75511E+01 -4.70608E+01 -4.63530E+01 -4.55533E+01
  -4.47953E+01 -4.41037E+01 -4.34717E+01 -4.29421E+01 -4.25710E+01 -4.23563E+01 -4.22116E+01 -4.19904E+01 -4.13952E+01 -4.06912E+01
  -4.02317E+01 -3.98728E+01 -3.93229E+01 -3.84779E+01 -3.75854E+01 -3.69424E+01 -3.64994E+01 -3.60106E+01 -3.55974E+01 -3.55482E+01
  -3.59267E+01 -3.64558E+01 -3.65380E+01 -3.50971E+01 -3.25059E+01 -3.04420E+01 -2.89789E+01 -2.71796E+01 -2.43919E+01 -2.11294E+01
  -1.85532E+01 -1.68618E+01 -1.53471E+01 -1.40518E+01 -1.40136E+01 -1.60009E+01 -1.96052E+01 -2.34436E+01 -2.63714E+01 -2.84095E+01
  -3.00694E+01 -3.12945E+01 -3.17233E+01 -3.15968E+01 -3.13851E+01 -3.11328E+01 -3.07918E+01 -2.99987E+01 -2.80223E+01 -2.58096E+01
  -2.41625E+01 -2.27785E+01 -2.08713E+01 -1.81715E+01 -1.54460E+01 -1.34306E+01 -1.19324E+01 -1.06258E+01 -9.93928E+00 -1.06191E+01
  -1.28569E+01 -1.59074E+01 -1.87063E+01 -2.07366E+01 -2.22744E+01 -2.36046E+01 -2.45246E+01 -2.48694E+01 -2.49522E+01 -2.48591E+01
  -2.45485E+01 -2.40839E+01 -2.35791E+01 -2.31218E+01 -2.27758E+01 -2.25935E+01 -2.25700E+01 -2.26265E+01 -2.26849E+01 -2.27129E+01
  -2.27087E+01 -2.27183E+01 -2.27806E+01 -2.28155E+01 -2.27724E+01 -2.26473E+01 -2.24857E+01 -2.24078E+01 -2.23816E+01 -2.23143E+01
  -2.22080E+01 -2.21379E+01 -2.21258E+01 -2.21015E+01 -2.19901E+01 -2.18279E+01 -2.17689E+01 -2.19134E+01 -2.21085E+01 -2.21779E+01
  -2.21510E+01 -2.21496E+01 -2.22430E+01 -2.22876E+01 -2.21682E+01 -2.19580E+01 -2.18149E+01 -2.17678E+01 -2.16883E+01 -2.13979E+01
  -2.09660E+01 -2.05742E+01 -2.02520E+01 -1.98489E+01 -1.92461E+01 -1.85571E+01 -1.79217E+01 -1.73122E+01 -1.66316E+01 -1.59707E+01
  -1.54044E+01 -1.48964E+01 -1.44578E+01 -1.41656E+01 -1.40546E+01 -1.40631E+01 -1.40464E+01 -1.39062E+01 -1.36916E+01 -1.33894E+01
  -1.30298E+01 -1.26726E+01 -1.22588E+01 -1.18737E+01 -1.17511E+01 -1.18908E+01 -1.21385E+01 -1.23195E+01 -1.25887E+01 -1.29098E+01
  -1.30386E+01 -1.27325E+01 -1.20738E+01 -1.14076E+01 -1.07971E+01 -1.01062E+01 -9.51626E+00 -9.41416E+00 -9.92183E+00 -1.07819E+01
  -1.14882E+01 -1.17821E+01 -1.17885E+01 -1.15487E+01 -1.08351E+01 -9.57099E+00 -8.12294E+00 -7.03952E+00 -6.39890E+00 -5.93238E+00
  -5.52273E+00 -5.36117E+00 -5.43011E+00 -5.50628E+00 -5.40243E+00 -5.08025E+00 -4.71502E+00 -4.41330E+00 -4.16804E+00 -3.97894E+00
  -3.91825E+00 -4.03664E+00 -4.24382E+00 -4.30506E+00 -4.06359E+00 -3.57073E+00 -2.81172E+00 -1.53257E+00 -6.10259E-02  1.24306E+00
   2.96081E+00  7.04824E+00  1.23480E+01  1.64797E+01  1.94424E+01  2.28411E+01  2.77043E+01  3.26423E+01  3.55433E+01  3.64699E+01
   3.68141E+01  3.65006E+01  3.40184E+01  2.84420E+01  2.08845E+01  1.38332E+01  8.77683E+00  5.10071E+00  2.00422E+00 -1.55950E-01
  -9.24368E-01 -1.03142E+00 -1.06633E+00 -1.03065E+00 -9.43962E-01 -8.56941E-01 -8.01468E-01 -7.87662E-01 -8.04693E-01 -8.29671E-01
  -8.46800E-01 -8.49047E-01 -8.27327E-01 -7.66285E-01 -6.65969E-01 -5.39170E-01 -3.95941E-01 -2.39279E-01 -6.45477E-02  1.31106E-01
   3.44093E-01  5.79532E-01  8.46997E-01  1.14937E+00  1.48221E+00  1.84008E+00  2.22186E+00  2.62837E+00  3.05888E+00  3.50916E+00
   3.97270E+00  4.44475E+00  4.92064E+00  5.39062E+00  5.84158E+00  6.26233E+00  6.64463E+00  6.98235E+00  7.26991E+00  7.50385E+00
   7.68389E+00  7.81227E+00  7.89343E+00  7.93488E+00  7.94643E+00  7.94203E+00  7.94233E+00  7.98660E+00  8.13413E+00  8.24218E+00
   8.14979E+00  7.97326E+00  7.84892E+00  7.77270E+00  7.57194E+00  7.11545E+00  6.61759E+00  6.33639E+00  6.05501E+00  5.54174E+00
   4.87428E+00  4.40139E+00  4.38185E+00  4.70240E+00  5.09870E+00  5.52543E+00  6.08026E+00  6.69637E+00  7.12984E+00  7.18673E+00
   6.84562E+00  6.32662E+00  5.81423E+00  5.31435E+00  4.75906E+00  4.14121E+00  3.57251E+00  3.13757E+00  2.74479E+00  2.27717E+00
   1.74508E+00  1.29663E+00  1.06562E+00  1.03139E+00  1.08642E+00  1.19004E+00  1.36694E+00  1.58602E+00  1.73085E+00  1.70859E+00
   1.56058E+00  1.37902E+00  1.20974E+00  1.03838E+00  8.60475E-01  7.09269E-01  5.98154E-01  5.03512E-01  4.16476E-01  3.34451E-01
   2.56011E-01  1.80772E-01  1.08732E-01  4.05613E-02 -2.29840E-02 -8.07818E-02 -1.31837E-01 -1.74831E-01 -2.08493E-01 -2.31188E-01
  -2.41403E-01 -2.37379E-01 -2.17521E-01 -1.79909E-01 -1.22698E-01 -4.37516E-02  5.88020E-02  1.86884E-01  3.41970E-01  5.25435E-01
   7.37984E-01  9.79835E-01  1.25005E+00  1.54677E+00  1.86669E+00  2.20543E+00  2.55705E+00  2.91444E+00  3.26901E+00  3.61137E+00
   3.93133E+00  4.21874E+00  4.46353E+00  4.65662E+00  4.78995E+00  4.85748E+00  4.85513E+00  4.78151E+00  4.63752E+00  4.42669E+00
   4.15461E+00  3.82903E+00  3.45908E+00  3.05512E+00  2.62774E+00  2.18761E+00  1.74465E+00  1.30806E+00  8.85642E-01  4.83948E-01
   1.07763E-01 -2.39487E-01 -5.55985E-01 -8.40923E-01 -1.09472E+00 -1.31846E+00 -1.51410E+00 -1.68383E+00 -1.83023E+00 -1.95573E+00
  -2.06290E+00 -2.15402E+00 -2.23143E+00 -2.29706E+00 -2.35274E+00 -2.39986E+00 -2.43978E+00 -2.47352E+00 -2.50216E+00 -2.52639E+00
  -2.54690E+00 -2.56411E+00 -2.57851E+00 -2.59042E+00 -2.60026E+00 -2.60818E+00 -2.61444E+00 -2.61909E+00 -2.62238E+00 -2.62436E+00
  -2.62528E+00 -2.62509E+00 -2.62393E+00 -2.62176E+00 -2.61874E+00 -2.61489E+00 -2.61033E+00 -2.60500E+00 -2.59897E+00 -2.59220E+00
  -2.58485E+00 -2.57687E+00 -2.56838E+00 -2.55925E+00 -2.54958E+00 -2.53932E+00 -2.52861E+00 -2.51739E+00 -2.50573E+00 -2.49353E+00
  -2.48088E+00 -2.46773E+00 -2.45421E+00 -2.44024E+00 -2.42588E+00 -2.41102E+00 -2.39578E+00 -2.38009E+00 -2.36409E+00 -2.34767E+00
  -2.33088E+00 -2.31362E+00 -2.29601E+00 -2.27801E+00 -2.25971E+00 -2.24098E+00 -2.22188E+00 -2.20232E+00 -2.18244E+00 -2.16216E+00
  -2.14155E+00 -2.12048E+00 -2.09900E+00 -2.07705E+00 -2.05472E+00 -2.03193E+00 -2.00870E+00 -1.98489E+00
 NY background values follow
    -8.861E+01   -8.800E+01   -8.738E+01   -8.677E+01   -8.616E+01   -8.555E+01   -8.493E+01   -8.432E+01   -8.371E+01   -8.310E+01
    -8.248E+01   -8.187E+01   -8.126E+01   -8.065E+01   -8.004E+01   -7.943E+01   -7.882E+01   -7.821E+01   -7.760E+01   -7.699E+01
    -7.639E+01   -7.578E+01   -7.518E+01   -7.458E+01   -7.398E+01   -7.338E+01   -7.278E+01   -7.219E+01   -7.159E+01   -7.100E+01
    -7.041E+01   -6.982E+01   -6.923E+01   -6.865E+01   -6.807E+01   -6.749E+01   -6.691E+01   -6.634E+01   -6.577E+01   -6.520E+01
    -6.463E+01   -6.407E+01   -6.351E+01   -6.295E+01   -6.240E+01   -6.184E+01   -6.130E+01   -6.075E+01   -6.021E+01   -5.967E+01
    -5.914E+01   -5.861E+01   -5.808E+01   -5.755E+01   -5.703E+01   -5.652E+01   -5.600E+01   -5.549E+01   -5.498E+01   -5.448E+01
    -5.398E+01   -5.348E+01   -5.299E+01   -5.250E+01   -5.201E+01   -5.153E+01   -5.105E+01   -5.058E+01   -5.011E+01   -4.964E+01
    -4.917E+01   -4.871E+01   -4.826E+01   -4.780E+01   -4.735E+01   -4.691E+01   -4.646E+01   -4.603E+01   -4.559E+01   -4.516E+01
    -4.473E+01   -4.431E+01   -4.389E+01   -4.347E+01   -4.306E+01   -4.265E+01   -4.225E+01   -4.185E+01   -4.145E+01   -4.106E+01
    -4.067E+01   -4.028E+01   -3.990E+01   -3.953E+01   -3.915E+01   -3.878E+01   -3.842E+01   -3.805E+01   -3.770E+01   -3.734E+01
    -3.699E+01   -3.664E+01   -3.630E+01   -3.596E+01   -3.563E+01   -3.529E+01   -3.497E+01   -3.464E+01   -3.432E+01   -3.400E+01
    -3.369E+01   -3.337E+01   -3.307E+01   -3.276E+01   -3.246E+01   -3.216E+01   -3.187E+01   -3.158E+01   -3.129E+01   -3.101E+01
    -3.073E+01   -3.045E+01   -3.018E+01   -2.991E+01   -2.964E+01   -2.937E+01   -2.911E+01   -2.885E+01   -2.860E+01   -2.834E+01
    -2.810E+01   -2.785E+01   -2.761E+01   -2.737E+01   -2.713E+01   -2.689E+01   -2.666E+01   -2.643E+01   -2.621E+01   -2.599E+01
    -2.576E+01   -2.555E+01   -2.533E+01   -2.512E+01   -2.491E+01   -2.470E+01   -2.449E+01   -2.429E+01   -2.409E+01   -2.389E+01
    -2.369E+01   -2.349E+01   -2.330E+01   -2.311E+01   -2.292E+01   -2.273E+01   -2.254E+01   -2.235E+01   -2.217E+01   -2.198E+01
    -2.180E+01   -2.162E+01   -2.144E+01   -2.126E+01   -2.108E+01   -2.090E+01   -2.072E+01   -2.055E+01   -2.037E+01   -2.020E+01
    -2.002E+01   -1.985E+01   -1.967E+01   -1.950E+01   -1.933E+01   -1.915E+01   -1.898E+01   -1.881E+01   -1.863E+01   -1.846E+01
    -1.828E+01   -1.811E+01   -1.793E+01   -1.776E+01   -1.758E+01   -1.741E+01   -1.723E+01   -1.706E+01   -1.688E+01   -1.670E+01
    -1.652E+01   -1.635E+01   -1.617E+01   -1.599E+01   -1.581E+01   -1.564E+01   -1.546E+01   -1.528E+01   -1.510E+01   -1.493E+01
    -1.475E+01   -1.457E+01   -1.439E+01   -1.422E+01   -1.404E+01   -1.386E+01   -1.369E+01   -1.351E+01   -1.333E+01   -1.316E+01
    -1.298E+01   -1.281E+01   -1.263E+01   -1.246E+01   -1.228E+01   -1.211E+01   -1.193E+01   -1.176E+01   -1.159E+01   -1.142E+01
    -1.125E+01   -1.108E+01   -1.091E+01   -1.074E+01   -1.057E+01   -1.040E+01   -1.023E+01   -1.006E+01   -9.898E+00   -9.733E+00
    -9.568E+00   -9.404E+00   -9.242E+00   -9.080E+00   -8.918E+00   -8.758E+00   -8.599E+00   -8.441E+00   -8.283E+00   -8.127E+00
    -7.972E+00   -7.818E+00   -7.664E+00   -7.512E+00   -7.361E+00   -7.212E+00   -7.063E+00   -6.916E+00   -6.770E+00   -6.625E+00
    -6.481E+00   -6.339E+00   -6.198E+00   -6.058E+00   -5.920E+00   -5.783E+00   -5.647E+00   -5.513E+00   -5.381E+00   -5.250E+00
    -5.120E+00   -4.992E+00   -4.866E+00   -4.741E+00   -4.618E+00   -4.496E+00   -4.376E+00   -4.258E+00   -4.142E+00   -4.027E+00
    -3.914E+00   -3.803E+00   -3.693E+00   -3.586E+00   -3.480E+00   -3.376E+00   -3.274E+00   -3.173E+00   -3.075E+00   -2.978E+00
    -2.884E+00   -2.791E+00   -2.700E+00   -2.611E+00   -2.523E+00   -2.438E+00   -2.355E+00   -2.273E+00   -2.193E+00   -2.116E+00
    -2.040E+00   -1.966E+00   -1.894E+00   -1.824E+00   -1.756E+00   -1.690E+00   -1.626E+00   -1.564E+00   -1.504E+00   -1.446E+00
    -1.390E+00   -1.336E+00   -1.284E+00   -1.234E+00   -1.185E+00   -1.139E+00   -1.095E+00   -1.053E+00   -1.013E+00   -9.755E-01
    -9.397E-01   -9.059E-01   -8.742E-01   -8.446E-01   -8.170E-01   -7.915E-01   -7.682E-01   -7.469E-01   -7.277E-01   -7.105E-01
    -6.953E-01   -6.820E-01   -6.707E-01   -6.611E-01   -6.533E-01   -6.473E-01   -6.430E-01   -6.403E-01   -6.393E-01   -6.398E-01
    -6.418E-01   -6.452E-01   -6.501E-01   -6.564E-01   -6.640E-01   -6.728E-01   -6.829E-01   -6.942E-01   -7.066E-01   -7.201E-01
    -7.347E-01   -7.503E-01   -7.668E-01   -7.842E-01   -8.025E-01   -8.216E-01   -8.414E-01   -8.620E-01   -8.832E-01   -9.051E-01
    -9.276E-01   -9.506E-01   -9.741E-01   -9.980E-01   -1.022E+00   -1.047E+00   -1.072E+00   -1.097E+00   -1.123E+00   -1.148E+00
    -1.174E+00   -1.200E+00   -1.226E+00   -1.252E+00   -1.277E+00   -1.303E+00   -1.329E+00   -1.355E+00   -1.380E+00   -1.406E+00
    -1.431E+00   -1.457E+00   -1.482E+00   -1.507E+00   -1.532E+00   -1.557E+00   -1.582E+00   -1.607E+00   -1.631E+00   -1.655E+00
    -1.679E+00   -1.703E+00   -1.727E+00   -1.750E+00   -1.773E+00   -1.796E+00   -1.818E+00   -1.841E+00   -1.863E+00   -1.885E+00
    -1.906E+00   -1.927E+00   -1.948E+00   -1.968E+00   -1.988E+00   -2.008E+00   -2.027E+00   -2.046E+00   -2.064E+00   -2.082E+00
    -2.100E+00   -2.117E+00   -2.134E+00   -2.150E+00   -2.166E+00   -2.181E+00   -2.196E+00   -2.210E+00   -2.224E+00   -2.237E+00
    -2.250E+00   -2.262E+00   -2.274E+00   -2.285E+00   -2.296E+00   -2.306E+00   -2.316E+00   -2.325E+00   -2.333E+00   -2.342E+00
    -2.349E+00   -2.357E+00   -2.363E+00   -2.370E+00   -2.375E+00   -2.381E+00   -2.386E+00   -2.390E+00   -2.394E+00   -2.397E+00
    -2.400E+00   -2.403E+00   -2.405E+00   -2.406E+00   -2.407E+00   -2.408E+00   -2.408E+00   -2.408E+00   -2.407E+00   -2.406E+00
    -2.405E+00   -2.403E+00   -2.400E+00   -2.397E+00   -2.394E+00   -2.390E+00   -2.386E+00   -2.382E+00   -2.377E+00   -2.371E+00
    -2.365E+00   -2.359E+00   -2.352E+00   -2.345E+00   -2.338E+00   -2.330E+00   -2.322E+00   -2.313E+00   -2.304E+00   -2.294E+00
    -2.285E+00   -2.274E+00   -2.264E+00   -2.253E+00   -2.242E+00   -2.230E+00   -2.218E+00   -2.206E+00   -2.193E+00   -2.180E+00
    -2.166E+00   -2.153E+00   -2.139E+00   -2.124E+00   -2.110E+00   -2.095E+00   -2.080E+00   -2.064E+00   -2.048E+00   -2.032E+00
    -2.016E+00   -1.999E+00   -1.982E+00   -1.965E+00   -1.947E+00   -1.929E+00   -1.911E+00   -1.893E+00   -1.874E+00   -1.855E+00
    -1.836E+00   -1.817E+00   -1.797E+00   -1.778E+00   -1.758E+00   -1.737E+00   -1.717E+00   -1.696E+00
 Ala      Conc. = 2.61E+02
