 LCModel (Version 6.3-1L) Copyright: S.W. Provencher.          Ref.: Magn. Reson. Med. 30:672-679 (1993).                
 Slice#1 Row#12 Col#10  K_02_press_1_raw_act
 36 lines in following concentration table = NCONC+1
    Conc.  %SD /Cr+PCr  Metabolite                                         
   47.063 123% 6.1E-02 Ala                                                 
    0.000 999%   0.000 Asp                                                 
  115.955 117%   0.150 Cr                                                  
  655.524  22%   0.850 PCr                                                 
    6.105 999% 7.9E-03 GABA                                                
   26.321 337% 3.4E-02 Glc                                                 
  350.574  34%   0.454 Gln                                                 
  812.785  17%   1.054 Glu                                                 
  258.446   5%   0.335 GPC                                                 
    0.000 999%   0.000 PCh                                                 
  120.374  34%   0.156 GSH                                                 
  630.751  21%   0.818 Ins                                                 
  304.318  22%   0.394 Lac                                                 
 1.41E+03   5%   1.832 NAA                                                 
  316.844  24%   0.411 NAAG                                                
   39.308  40% 5.1E-02 Scyllo                                              
  206.517  56%   0.268 Tau                                                 
  364.072  17%   0.472 -CrCH2                                              
  258.446   5%   0.335 GPC+PCh                                             
 1.73E+03   3%   2.242 NAA+NAAG                                            
  771.480   5%   1.000 Cr+PCr                                              
 1.16E+03  16%   1.508 Glu+Gln                                             
  914.688  38%   1.186 Lip13a                                              
    0.000 999%   0.000 Lip13b                                              
  176.380  96%   0.229 Lip09                                               
 1.18E+03  17%   1.526 MM09                                                
  163.126  69%   0.211 Lip20                                               
 2.07E+03  11%   2.689 MM20                                                
  517.847  32%   0.671 MM12                                                
 1.11E+03  13%   1.440 MM14                                                
  410.617  26%   0.532 MM17                                                
  914.688  38%   1.186 Lip13a+Lip13b                                       
 2.54E+03   8%   3.297 MM14+Lip13a+Lip13b+MM12                             
 1.35E+03   9%   1.755 MM09+Lip09                                          
 2.24E+03  10%   2.901 MM20+Lip20                                          
   6 lines in following misc. output table
  FWHM = 0.046 ppm    S/N =  14                                            
  Data shift =-0.008 ppm                                                   
  Ph: -44 deg      -6.0 deg/ppm                                            
  alphaB,S = 8.5E+01,   6.6E+01                                            
   14 spline knots.   Ns = 6(1)                                            
   2 inflections.     1 extrema                                            
  498 points on ppm-axis = NY
      4.000000     3.992357     3.984714     3.977070     3.969427     3.961784     3.954141     3.946497     3.938854     3.931211
      3.923568     3.915925     3.908281     3.900638     3.892995     3.885352     3.877708     3.870065     3.862422     3.854779
      3.847136     3.839492     3.831849     3.824206     3.816563     3.808919     3.801276     3.793633     3.785990     3.778347
      3.770703     3.763060     3.755417     3.747774     3.740130     3.732487     3.724844     3.717201     3.709558     3.701914
      3.694271     3.686628     3.678985     3.671341     3.663698     3.656055     3.648412     3.640769     3.633125     3.625482
      3.617839     3.610196     3.602552     3.594909     3.587266     3.579623     3.571980     3.564336     3.556693     3.549050
      3.541407     3.533763     3.526120     3.518477     3.510834     3.503191     3.495547     3.487904     3.480261     3.472618
      3.464974     3.457331     3.449688     3.442045     3.434402     3.426758     3.419115     3.411472     3.403829     3.396185
      3.388542     3.380899     3.373256     3.365613     3.357969     3.350326     3.342683     3.335040     3.327396     3.319753
      3.312110     3.304467     3.296824     3.289180     3.281537     3.273894     3.266251     3.258607     3.250964     3.243321
      3.235678     3.228034     3.220391     3.212748     3.205105     3.197462     3.189818     3.182175     3.174532     3.166889
      3.159245     3.151602     3.143959     3.136316     3.128673     3.121029     3.113386     3.105743     3.098100     3.090456
      3.082813     3.075170     3.067527     3.059884     3.052240     3.044597     3.036954     3.029311     3.021667     3.014024
      3.006381     2.998738     2.991095     2.983451     2.975808     2.968165     2.960522     2.952878     2.945235     2.937592
      2.929949     2.922306     2.914662     2.907019     2.899376     2.891733     2.884089     2.876446     2.868803     2.861160
      2.853517     2.845873     2.838230     2.830587     2.822944     2.815300     2.807657     2.800014     2.792371     2.784728
      2.777084     2.769441     2.761798     2.754155     2.746511     2.738868     2.731225     2.723582     2.715939     2.708295
      2.700652     2.693009     2.685366     2.677722     2.670079     2.662436     2.654793     2.647150     2.639506     2.631863
      2.624220     2.616577     2.608933     2.601290     2.593647     2.586004     2.578361     2.570717     2.563074     2.555431
      2.547788     2.540144     2.532501     2.524858     2.517215     2.509572     2.501928     2.494285     2.486642     2.478999
      2.471355     2.463712     2.456069     2.448426     2.440783     2.433139     2.425496     2.417853     2.410210     2.402566
      2.394923     2.387280     2.379637     2.371994     2.364350     2.356707     2.349064     2.341421     2.333777     2.326134
      2.318491     2.310848     2.303205     2.295561     2.287918     2.280275     2.272632     2.264988     2.257345     2.249702
      2.242059     2.234416     2.226772     2.219129     2.211486     2.203843     2.196199     2.188556     2.180913     2.173270
      2.165627     2.157983     2.150340     2.142697     2.135054     2.127410     2.119767     2.112124     2.104481     2.096838
      2.089194     2.081551     2.073908     2.066265     2.058621     2.050978     2.043335     2.035692     2.028049     2.020405
      2.012762     2.005119     1.997476     1.989833     1.982190     1.974546     1.966903     1.959260     1.951617     1.943974
      1.936331     1.928688     1.921045     1.913402     1.905759     1.898115     1.890472     1.882829     1.875186     1.867543
      1.859900     1.852257     1.844614     1.836971     1.829327     1.821684     1.814041     1.806398     1.798755     1.791112
      1.783469     1.775826     1.768183     1.760540     1.752896     1.745253     1.737610     1.729967     1.722324     1.714681
      1.707038     1.699395     1.691752     1.684108     1.676465     1.668822     1.661179     1.653536     1.645893     1.638250
      1.630607     1.622964     1.615321     1.607677     1.600034     1.592391     1.584748     1.577105     1.569462     1.561819
      1.554176     1.546533     1.538890     1.531246     1.523603     1.515960     1.508317     1.500674     1.493031     1.485388
      1.477745     1.470102     1.462458     1.454815     1.447172     1.439529     1.431886     1.424243     1.416600     1.408957
      1.401314     1.393671     1.386027     1.378384     1.370741     1.363098     1.355455     1.347812     1.340169     1.332526
      1.324883     1.317240     1.309596     1.301953     1.294310     1.286667     1.279024     1.271381     1.263738     1.256095
      1.248452     1.240808     1.233165     1.225522     1.217879     1.210236     1.202593     1.194950     1.187307     1.179664
      1.172021     1.164377     1.156734     1.149091     1.141448     1.133805     1.126162     1.118519     1.110876     1.103233
      1.095590     1.087946     1.080303     1.072660     1.065017     1.057374     1.049731     1.042088     1.034445     1.026802
      1.019158     1.011515     1.003872     0.996229     0.988586     0.980943     0.973300     0.965657     0.958014     0.950371
      0.942727     0.935084     0.927441     0.919798     0.912155     0.904512     0.896869     0.889226     0.881583     0.873940
      0.866296     0.858653     0.851010     0.843367     0.835724     0.828081     0.820438     0.812795     0.805152     0.797508
      0.789865     0.782222     0.774579     0.766936     0.759293     0.751650     0.744007     0.736364     0.728721     0.721077
      0.713434     0.705791     0.698148     0.690505     0.682862     0.675219     0.667576     0.659933     0.652290     0.644646
      0.637003     0.629360     0.621717     0.614074     0.606431     0.598788     0.591145     0.583502     0.575858     0.568215
      0.560572     0.552929     0.545286     0.537643     0.530000     0.522357     0.514714     0.507071     0.499427     0.491784
      0.484141     0.476498     0.468855     0.461212     0.453569     0.445925     0.438282     0.430639     0.422996     0.415353
      0.407710     0.400067     0.392424     0.384780     0.377137     0.369494     0.361851     0.354208     0.346565     0.338922
      0.331278     0.323635     0.315992     0.308349     0.300706     0.293063     0.285420     0.277777     0.270133     0.262490
      0.254847     0.247204     0.239561     0.231918     0.224275     0.216631     0.208988     0.201345
 NY phased data points follow
  -7.16765E+00 -6.88967E+00 -4.43750E+00 -3.22314E+00 -5.13047E+00 -4.63780E+00 -2.99001E-01  1.51680E+00  3.68446E+00  3.09064E+00
   3.44338E+00  8.43392E+00  6.98963E+00  3.50182E+00 -4.91320E-01 -1.13369E+00 -6.70050E-01 -4.45621E+00 -6.02924E+00 -3.90868E+00
  -3.02510E+00 -2.17275E+00 -4.87621E+00 -5.15566E+00 -4.17866E+00 -4.42876E+00 -3.71064E+00 -3.05563E+00 -4.11474E-01 -1.65650E+00
  -4.19767E+00 -3.33034E+00 -1.33033E+00 -3.17515E+00  2.46754E+00 -1.53428E+00  5.82600E-02  1.33610E+00 -3.72006E+00 -3.65968E+00
  -2.33806E+00  6.33884E-01 -3.23093E+00  1.33337E-01 -1.63664E+00 -4.21302E-01 -4.95241E-01  4.12005E+00  2.44418E+00  2.22236E+00
  -9.84290E-01  2.09798E-01 -2.10820E+00 -3.28880E+00 -3.71577E+00 -5.68479E-01 -1.01310E+00 -9.23801E-01 -3.42109E+00  1.76081E-01
   3.74269E-02 -1.34850E+00 -2.88229E+00 -2.32222E+00 -4.44888E+00 -6.38646E+00 -4.52723E+00 -3.53925E+00 -5.56248E+00 -3.88466E+00
  -3.08744E+00 -3.69948E+00 -4.39711E+00 -2.41545E+00 -1.33092E+00 -5.95458E+00 -3.80420E+00 -1.45102E+00 -3.41806E+00 -5.33776E+00
  -2.24841E+00 -3.17614E+00 -3.82091E+00 -1.53280E+00 -5.22111E+00 -5.32545E+00 -3.18773E+00 -1.68052E+00 -1.47774E+00 -4.36897E+00
  -3.15477E+00 -1.85636E+00  6.83832E-01 -1.81126E+00 -2.78566E+00 -2.00752E-01 -5.08126E-01  1.24558E+00  2.42039E+00  6.09439E+00
   8.34039E+00  1.38679E+01  1.98498E+01  2.11471E+01  2.44727E+01  1.95712E+01  1.46826E+01  8.33083E+00  1.16559E+00  1.51209E+00
   3.55763E-01  1.61879E+00 -1.08371E+00 -3.50407E+00 -1.58183E+00 -1.59207E+00 -1.37464E+00 -1.59268E+00 -8.33465E-01 -8.58594E-01
   2.06673E-02  1.51507E+00 -3.46137E-01  5.97666E+00  1.03708E+01  1.57036E+01  1.98667E+01  2.56554E+01  2.89492E+01  2.58542E+01
   1.62734E+01  7.35597E+00  6.22431E+00  2.00502E+00  8.47758E-01  2.94649E-01 -1.33049E+00 -9.68017E-01 -6.26582E-01  4.43249E-01
  -6.71617E-04 -2.19660E+00  1.22472E+00  6.30607E-01 -1.90021E+00 -2.60040E+00 -4.46689E-01 -1.32729E+00  5.94428E-01 -1.95271E+00
  -1.54244E+00  9.71523E-01  2.02901E+00 -1.61300E+00 -5.45191E-01 -9.47552E-01 -9.05528E-02 -4.64332E+00 -2.81860E+00 -3.21893E+00
  -9.95727E-01  1.06055E-02 -5.08944E+00 -1.89039E+00 -4.20793E+00 -4.87719E+00 -6.80514E+00 -5.42730E+00 -5.45810E+00 -1.06789E+01
  -9.05586E+00 -8.89431E+00 -1.04883E+01 -9.26378E+00 -9.35351E+00 -1.32672E+01 -1.20543E+01 -1.08433E+01 -1.03240E+01 -1.08116E+01
  -6.92952E+00 -1.01621E+01 -7.92534E+00 -5.84895E+00 -6.48909E+00 -3.85042E+00 -2.59141E+00 -4.16403E+00 -7.50550E+00 -5.14125E+00
  -6.53837E+00 -1.75433E+00 -3.95536E+00 -5.06031E+00 -5.24346E+00 -5.36346E+00 -7.37242E+00 -6.23939E+00 -7.96587E+00 -8.58727E+00
  -4.58403E+00 -4.93162E+00 -5.38302E-01 -2.23370E+00 -2.02890E+00  1.69926E+00 -2.09000E+00 -2.70107E+00 -4.78385E+00 -4.85416E+00
  -2.96853E+00 -5.19330E+00 -8.33773E-01 -4.70762E-01  4.27909E+00  6.57080E+00  4.90380E+00  4.24848E+00  3.71052E+00 -5.62724E-01
  -1.75617E+00 -5.48543E+00 -4.97505E+00 -6.09628E+00 -1.61758E+00  1.59955E+00  3.21883E+00  3.87523E+00  3.64129E+00  2.44466E+00
   4.42375E+00  1.69820E+00  1.18867E+00  3.85124E+00  1.71958E+00  6.90866E-01  3.26803E+00  4.21245E+00  5.06789E+00  3.19586E+00
   7.14061E-01  1.24470E+00 -1.49082E+00 -7.22829E-05 -2.50894E-01  2.17714E+00  5.22955E+00  6.19963E+00  7.16566E+00  7.12355E+00
   1.16401E+01  1.20698E+01  1.28069E+01  1.47515E+01  2.03203E+01  2.87901E+01  3.56105E+01  4.08381E+01  4.92859E+01  5.40784E+01
   6.02192E+01  6.58665E+01  5.35607E+01  3.97281E+01  2.21263E+01  1.32146E+01  5.51954E+00  1.57693E+00  1.24872E+00  1.64774E+00
   1.46669E+00  1.89472E+00  1.94627E+00  3.70261E+00 -1.48693E-01  2.76477E+00 -2.57978E+00  1.74168E+00  1.02366E+00 -1.90224E+00
  -8.41262E-01  2.05425E+00  5.39716E-01  3.95536E-01 -3.93715E-01 -1.08024E+00 -1.65495E+00  6.06938E-01 -1.81729E+00 -2.29997E+00
   1.74031E+00 -5.76727E-01  1.46502E+00  1.88452E+00  1.78863E+00  7.78442E-01  1.70604E+00  4.40814E-01  6.73784E-01  1.83050E+00
   2.14161E+00  4.90712E+00  8.87296E-01  2.81584E+00  5.24920E+00  4.41516E+00  1.95875E+00 -1.81281E+00 -1.18598E+00 -4.69714E-01
  -1.22857E+00  3.85373E-01 -1.65861E+00 -1.35873E+00  1.61302E+00 -3.73515E+00 -2.33783E+00 -2.49251E+00 -6.15535E-01 -1.84196E+00
   1.47551E+00  1.17586E+00 -1.96863E+00 -2.78913E+00 -1.20077E+00  8.99765E-01  2.25327E+00  7.44017E-01  1.78473E+00  1.01709E+00
   4.53877E+00  2.23257E+00  2.63789E+00  6.52415E+00  8.14914E+00  1.06063E+01  9.84536E+00  1.17341E+01  7.70355E+00  8.89182E+00
   1.04545E+01  1.02218E+01  1.32709E+01  1.35327E+01  1.43021E+01  1.38036E+01  1.25475E+01  1.01786E+01  5.35302E+00  5.24581E+00
   3.65003E+00  3.02696E+00  3.82505E+00  4.74575E+00  4.82851E+00  6.63538E+00  5.15767E+00  3.54044E+00  6.05040E+00  9.38096E+00
   1.07555E+01  7.31770E+00  8.68500E+00  9.44179E+00  6.67590E+00  5.22211E+00  7.04229E+00  5.54867E+00  6.85348E+00  5.61922E+00
   3.13283E+00  6.32817E+00  6.48419E+00  6.55926E+00  5.08029E+00  1.41034E+00  3.04703E+00  1.53639E+00  1.27251E+00 -1.07901E+00
   3.56761E+00 -9.52441E-02  1.35779E+00  7.94678E-01 -4.87455E-01  1.99855E+00  1.84492E+00 -4.25606E+00  3.41333E+00  2.44311E+00
   1.80359E+00  3.67912E+00  5.74595E+00  5.52636E+00  7.47021E+00  3.21650E+00  8.45159E+00  1.07546E+01  7.02085E+00  5.89325E+00
   6.93492E+00  5.97609E+00  5.47418E+00  9.33493E+00  9.20532E+00  8.78031E+00  6.63445E+00  7.32653E+00  9.74987E+00  8.45990E+00
   4.84269E+00  9.89248E+00  7.03072E+00  7.15558E+00  5.46448E+00  5.26571E+00  5.91330E+00  4.64412E+00  3.52914E+00  2.10163E+00
   2.36686E+00  3.47561E-01  4.90199E+00  1.36766E+00  4.22102E+00  1.67266E+00  2.02887E+00  1.08072E+00 -2.38171E-01  2.29899E+00
   6.04011E-01  6.33147E-01  1.86375E+00  7.79504E-01 -1.43121E+00  1.18387E+00 -7.13474E-01  6.40291E-02 -2.39125E+00 -1.58529E+00
  -8.74000E-01 -1.44401E+00 -1.77527E+00 -1.25739E+00 -9.43069E-02 -1.38105E+00 -3.12195E-01 -2.79084E+00 -6.52606E-01 -2.01598E+00
  -6.18276E-02 -2.81422E+00 -1.48027E+00  1.69800E-01  8.42896E-01  1.25656E+00 -2.94089E+00  1.65098E-01 -1.62734E+00 -5.43829E-01
   1.04243E+00 -2.09448E+00  1.59196E-01  4.95038E-01  2.07204E-01 -1.81000E+00  1.08631E-01 -6.07218E-01 -1.31560E+00 -3.86896E+00
   4.22677E-02 -3.50337E+00 -1.89993E+00 -1.43397E+00 -1.14926E+00  2.34898E-01 -2.28841E+00  2.19673E+00 -2.56488E+00  6.89892E-01
  -3.14770E+00  6.49612E-01 -1.77270E+00  6.52542E-01  4.81929E-01  7.20917E-02 -1.46889E+00 -9.98049E-01 -9.81432E-01 -1.44382E+00
   1.20592E+00  2.41281E+00 -1.03524E+00  2.26211E+00  1.38525E+00  2.72343E+00 -2.61360E-01 -1.09617E+00
 NY points of the fit to the data follow
  -4.92984E+00 -5.04535E+00 -4.99873E+00 -4.71499E+00 -3.79097E+00 -2.56638E+00 -1.15598E+00  4.67986E-01  2.35087E+00  4.40155E+00
   6.18855E+00  6.84257E+00  5.82270E+00  3.59091E+00  1.16949E+00 -6.85862E-01 -1.80305E+00 -2.32952E+00 -2.58990E+00 -2.75337E+00
  -2.89464E+00 -3.00273E+00 -3.17743E+00 -3.39118E+00 -3.49577E+00 -3.56346E+00 -3.59202E+00 -3.46762E+00 -3.03927E+00 -2.17780E+00
  -9.70708E-01  2.26935E-01  9.53374E-01  9.31146E-01  2.58204E-01 -8.87558E-01 -2.23135E+00 -3.36144E+00 -4.02925E+00 -4.21492E+00
  -3.93408E+00 -3.22342E+00 -2.29072E+00 -1.38499E+00 -5.52071E-01  2.74584E-01  1.11601E+00  1.81502E+00  1.95699E+00  1.21464E+00
  -2.32360E-01 -1.82237E+00 -3.05966E+00 -3.72078E+00 -3.86812E+00 -3.68624E+00 -3.34000E+00 -2.95641E+00 -2.58182E+00 -2.23689E+00
  -1.99751E+00 -1.98501E+00 -2.28364E+00 -2.77492E+00 -3.27973E+00 -3.60958E+00 -3.63646E+00 -3.43476E+00 -3.16711E+00 -2.88833E+00
  -2.61065E+00 -2.38992E+00 -2.21991E+00 -2.10448E+00 -2.08570E+00 -2.16433E+00 -2.32086E+00 -2.62164E+00 -3.07534E+00 -3.52036E+00
  -3.72811E+00 -3.59311E+00 -3.28184E+00 -2.93220E+00 -2.62710E+00 -2.41692E+00 -2.33352E+00 -2.46772E+00 -2.91104E+00 -3.53930E+00
  -4.03465E+00 -4.23151E+00 -4.18848E+00 -4.04506E+00 -3.94090E+00 -3.81871E+00 -3.22161E+00 -1.13419E+00  2.03388E+00  5.47878E+00
   9.40004E+00  1.40348E+01  1.90490E+01  2.31431E+01  2.40926E+01  2.05580E+01  1.39451E+01  7.21250E+00  2.36357E+00 -4.02521E-01
  -1.70652E+00 -2.27737E+00 -2.58305E+00 -2.76820E+00 -2.88667E+00 -2.95846E+00 -2.99645E+00 -3.00393E+00 -2.96782E+00 -2.83689E+00
  -2.34328E+00 -4.33126E-01  2.81733E+00  6.39478E+00  1.04956E+01  1.54600E+01  2.09457E+01  2.56729E+01  2.73438E+01  2.41914E+01
   1.73376E+01  9.97824E+00  4.51162E+00  1.31376E+00 -3.02321E-01 -1.15227E+00 -1.74034E+00 -2.12835E+00 -2.27039E+00 -2.18582E+00
  -1.97207E+00 -1.75922E+00 -1.65479E+00 -1.70101E+00 -1.87115E+00 -2.09309E+00 -2.29845E+00 -2.46074E+00 -2.59957E+00 -2.72740E+00
  -2.84554E+00 -2.95986E+00 -3.06363E+00 -3.14185E+00 -3.21653E+00 -3.34224E+00 -3.44449E+00 -3.50371E+00 -3.58800E+00 -3.73649E+00
  -4.04880E+00 -4.43406E+00 -4.62007E+00 -4.46629E+00 -4.13684E+00 -3.93354E+00 -4.10374E+00 -4.63228E+00 -5.26245E+00 -5.75991E+00
  -6.09426E+00 -6.27530E+00 -6.31138E+00 -6.37825E+00 -6.57784E+00 -6.89722E+00 -7.11421E+00 -7.00109E+00 -6.56611E+00 -6.12718E+00
  -5.99819E+00 -6.20858E+00 -6.37059E+00 -6.19462E+00 -5.76077E+00 -5.26739E+00 -4.79613E+00 -4.26583E+00 -3.53186E+00 -2.59579E+00
  -1.73579E+00 -1.22190E+00 -1.22416E+00 -1.60004E+00 -2.10749E+00 -2.51824E+00 -2.71658E+00 -2.67464E+00 -2.38673E+00 -1.89955E+00
  -1.22018E+00 -4.54397E-01  1.89643E-01  5.00257E-01  2.88655E-01 -4.28519E-01 -1.65641E+00 -3.31218E+00 -4.93082E+00 -6.01874E+00
  -6.15022E+00 -5.28967E+00 -3.75534E+00 -1.88048E+00  5.74911E-02  1.73698E+00  2.61203E+00  2.16836E+00  4.93605E-01 -1.76887E+00
  -3.94332E+00 -5.49510E+00 -6.14620E+00 -5.69823E+00 -4.12301E+00 -1.86686E+00  2.97683E-01  1.79337E+00  2.48777E+00  2.53705E+00
   2.19978E+00  1.79646E+00  1.55332E+00  1.59706E+00  1.93763E+00  2.44838E+00  2.95467E+00  3.36175E+00  3.65726E+00  3.74359E+00
   3.56412E+00  3.19245E+00  2.85411E+00  2.79443E+00  3.19188E+00  3.99066E+00  4.91742E+00  5.71845E+00  6.32669E+00  7.03970E+00
   8.31371E+00  9.86447E+00  1.16864E+01  1.44349E+01  2.02808E+01  2.85229E+01  3.60885E+01  4.26280E+01  4.89226E+01  5.55140E+01
   6.12216E+01  6.19935E+01  5.40759E+01  3.94871E+01  2.44598E+01  1.36113E+01  7.45054E+00  4.57102E+00  3.39604E+00  2.75881E+00
   2.31057E+00  1.97597E+00  1.74034E+00  1.57965E+00  1.45059E+00  1.28619E+00  1.04627E+00  7.49680E-01  4.55378E-01  2.14052E-01
   4.32560E-02 -6.37186E-02 -1.13984E-01 -1.17027E-01 -9.80150E-02 -7.79253E-02 -5.36307E-02 -1.33236E-02  5.47498E-02  1.60978E-01
   3.11824E-01  5.07336E-01  7.35443E-01  9.69887E-01  1.18675E+00  1.37124E+00  1.51946E+00  1.63318E+00  1.71428E+00  1.76616E+00
   1.79316E+00  1.79532E+00  1.76529E+00  1.69525E+00  1.58312E+00  1.43305E+00  1.25227E+00  1.05047E+00  8.37335E-01  6.22605E-01
   4.15276E-01  2.23293E-01  5.30260E-02 -8.98500E-02 -2.00122E-01 -2.72349E-01 -3.01602E-01 -2.83420E-01 -2.13692E-01 -8.64420E-02
   1.10104E-01  3.88782E-01  7.10818E-01  1.05859E+00  1.44456E+00  1.85919E+00  2.26874E+00  2.62919E+00  2.91299E+00  3.19698E+00
   3.59710E+00  4.15911E+00  4.87022E+00  5.68796E+00  6.57490E+00  7.48916E+00  8.35305E+00  9.06701E+00  9.59235E+00  9.99011E+00
   1.03805E+01  1.09047E+01  1.14423E+01  1.17423E+01  1.18668E+01  1.18222E+01  1.14466E+01  1.04811E+01  8.72148E+00  6.51965E+00
   4.59713E+00  3.48196E+00  3.36727E+00  4.10516E+00  5.45862E+00  7.16343E+00  8.72828E+00  9.56362E+00  9.44909E+00  8.70241E+00
   7.80618E+00  7.03635E+00  6.46188E+00  6.03996E+00  5.69313E+00  5.38090E+00  5.08530E+00  4.79803E+00  4.51507E+00  4.23530E+00
   3.95931E+00  3.68928E+00  3.42802E+00  3.17874E+00  2.94448E+00  2.72855E+00  2.53413E+00  2.36456E+00  2.22266E+00  2.11098E+00
   2.03150E+00  1.98628E+00  1.97716E+00  2.00596E+00  2.07391E+00  2.18202E+00  2.33087E+00  2.52099E+00  2.75240E+00  3.02466E+00
   3.33616E+00  3.68453E+00  4.06625E+00  4.47701E+00  4.91107E+00  5.36146E+00  5.81964E+00  6.27613E+00  6.72055E+00  7.14222E+00
   7.53004E+00  7.87317E+00  8.16114E+00  8.38500E+00  8.53736E+00  8.61308E+00  8.60901E+00  8.52447E+00  8.36105E+00  8.12308E+00
   7.81698E+00  7.45114E+00  7.03500E+00  6.57900E+00  6.09390E+00  5.59073E+00  5.07993E+00  4.57118E+00  4.07269E+00  3.59151E+00
   3.13321E+00  2.70227E+00  2.30159E+00  1.93288E+00  1.59646E+00  1.29198E+00  1.01832E+00  7.74082E-01  5.57245E-01  3.65603E-01
   1.96623E-01  4.80641E-02 -8.22821E-02 -1.96304E-01 -2.96038E-01 -3.83279E-01 -4.59797E-01 -5.26853E-01 -5.85629E-01 -6.37024E-01
  -6.82121E-01 -7.21754E-01 -7.56746E-01 -7.87499E-01 -8.14491E-01 -8.38057E-01 -8.58776E-01 -8.76989E-01 -8.93046E-01 -9.06976E-01
  -9.18998E-01 -9.29255E-01 -9.38124E-01 -9.45716E-01 -9.52167E-01 -9.57375E-01 -9.61502E-01 -9.64643E-01 -9.67077E-01 -9.68784E-01
  -9.69805E-01 -9.70010E-01 -9.69571E-01 -9.68562E-01 -9.67186E-01 -9.65330E-01 -9.62997E-01 -9.60087E-01 -9.56802E-01 -9.53191E-01
  -9.49379E-01 -9.45196E-01 -9.40649E-01 -9.35681E-01 -9.30511E-01 -9.25143E-01 -9.19638E-01 -9.13803E-01 -9.07683E-01 -9.01266E-01
  -8.94766E-01 -8.88131E-01 -8.81366E-01 -8.74284E-01 -8.66978E-01 -8.59466E-01 -8.51933E-01 -8.44265E-01 -8.36439E-01 -8.28299E-01
  -8.19987E-01 -8.11528E-01 -8.03055E-01 -7.94397E-01 -7.85527E-01 -7.76331E-01 -7.66983E-01 -7.57485E-01
 NY background values follow
    -5.556E+00   -5.547E+00   -5.537E+00   -5.527E+00   -5.518E+00   -5.508E+00   -5.499E+00   -5.489E+00   -5.479E+00   -5.470E+00
    -5.460E+00   -5.450E+00   -5.441E+00   -5.431E+00   -5.421E+00   -5.411E+00   -5.402E+00   -5.392E+00   -5.382E+00   -5.373E+00
    -5.363E+00   -5.353E+00   -5.344E+00   -5.334E+00   -5.324E+00   -5.315E+00   -5.305E+00   -5.295E+00   -5.285E+00   -5.276E+00
    -5.266E+00   -5.256E+00   -5.247E+00   -5.237E+00   -5.227E+00   -5.217E+00   -5.208E+00   -5.198E+00   -5.188E+00   -5.179E+00
    -5.169E+00   -5.159E+00   -5.149E+00   -5.140E+00   -5.130E+00   -5.120E+00   -5.110E+00   -5.101E+00   -5.091E+00   -5.081E+00
    -5.071E+00   -5.062E+00   -5.052E+00   -5.042E+00   -5.032E+00   -5.023E+00   -5.013E+00   -5.003E+00   -4.993E+00   -4.984E+00
    -4.974E+00   -4.964E+00   -4.954E+00   -4.944E+00   -4.935E+00   -4.925E+00   -4.915E+00   -4.905E+00   -4.896E+00   -4.886E+00
    -4.876E+00   -4.866E+00   -4.856E+00   -4.847E+00   -4.837E+00   -4.827E+00   -4.817E+00   -4.808E+00   -4.798E+00   -4.788E+00
    -4.778E+00   -4.768E+00   -4.759E+00   -4.749E+00   -4.739E+00   -4.729E+00   -4.719E+00   -4.709E+00   -4.700E+00   -4.690E+00
    -4.680E+00   -4.670E+00   -4.660E+00   -4.651E+00   -4.641E+00   -4.631E+00   -4.621E+00   -4.611E+00   -4.601E+00   -4.592E+00
    -4.582E+00   -4.572E+00   -4.562E+00   -4.552E+00   -4.542E+00   -4.533E+00   -4.523E+00   -4.513E+00   -4.503E+00   -4.493E+00
    -4.483E+00   -4.473E+00   -4.464E+00   -4.454E+00   -4.444E+00   -4.434E+00   -4.424E+00   -4.414E+00   -4.405E+00   -4.395E+00
    -4.385E+00   -4.375E+00   -4.365E+00   -4.355E+00   -4.345E+00   -4.335E+00   -4.326E+00   -4.316E+00   -4.306E+00   -4.296E+00
    -4.286E+00   -4.276E+00   -4.266E+00   -4.256E+00   -4.247E+00   -4.237E+00   -4.227E+00   -4.217E+00   -4.207E+00   -4.197E+00
    -4.187E+00   -4.177E+00   -4.167E+00   -4.158E+00   -4.148E+00   -4.138E+00   -4.128E+00   -4.118E+00   -4.108E+00   -4.098E+00
    -4.088E+00   -4.078E+00   -4.068E+00   -4.059E+00   -4.049E+00   -4.039E+00   -4.029E+00   -4.019E+00   -4.009E+00   -3.999E+00
    -3.989E+00   -3.979E+00   -3.969E+00   -3.959E+00   -3.950E+00   -3.940E+00   -3.930E+00   -3.920E+00   -3.910E+00   -3.900E+00
    -3.890E+00   -3.880E+00   -3.870E+00   -3.860E+00   -3.850E+00   -3.840E+00   -3.830E+00   -3.820E+00   -3.811E+00   -3.801E+00
    -3.791E+00   -3.781E+00   -3.771E+00   -3.761E+00   -3.751E+00   -3.741E+00   -3.731E+00   -3.721E+00   -3.711E+00   -3.701E+00
    -3.691E+00   -3.681E+00   -3.671E+00   -3.661E+00   -3.651E+00   -3.641E+00   -3.631E+00   -3.622E+00   -3.612E+00   -3.602E+00
    -3.592E+00   -3.582E+00   -3.572E+00   -3.562E+00   -3.552E+00   -3.542E+00   -3.532E+00   -3.522E+00   -3.512E+00   -3.502E+00
    -3.492E+00   -3.482E+00   -3.472E+00   -3.462E+00   -3.452E+00   -3.442E+00   -3.432E+00   -3.422E+00   -3.412E+00   -3.402E+00
    -3.392E+00   -3.382E+00   -3.372E+00   -3.362E+00   -3.352E+00   -3.342E+00   -3.332E+00   -3.322E+00   -3.312E+00   -3.302E+00
    -3.292E+00   -3.282E+00   -3.272E+00   -3.262E+00   -3.252E+00   -3.242E+00   -3.232E+00   -3.222E+00   -3.212E+00   -3.202E+00
    -3.192E+00   -3.182E+00   -3.172E+00   -3.162E+00   -3.152E+00   -3.142E+00   -3.132E+00   -3.122E+00   -3.112E+00   -3.102E+00
    -3.092E+00   -3.082E+00   -3.072E+00   -3.062E+00   -3.052E+00   -3.042E+00   -3.032E+00   -3.022E+00   -3.012E+00   -3.002E+00
    -2.992E+00   -2.982E+00   -2.972E+00   -2.962E+00   -2.952E+00   -2.942E+00   -2.932E+00   -2.922E+00   -2.912E+00   -2.902E+00
    -2.892E+00   -2.882E+00   -2.872E+00   -2.862E+00   -2.852E+00   -2.842E+00   -2.832E+00   -2.822E+00   -2.812E+00   -2.802E+00
    -2.792E+00   -2.782E+00   -2.772E+00   -2.762E+00   -2.752E+00   -2.742E+00   -2.732E+00   -2.722E+00   -2.712E+00   -2.702E+00
    -2.692E+00   -2.682E+00   -2.672E+00   -2.662E+00   -2.652E+00   -2.642E+00   -2.632E+00   -2.622E+00   -2.612E+00   -2.602E+00
    -2.591E+00   -2.581E+00   -2.571E+00   -2.561E+00   -2.551E+00   -2.541E+00   -2.531E+00   -2.521E+00   -2.511E+00   -2.501E+00
    -2.491E+00   -2.481E+00   -2.471E+00   -2.461E+00   -2.451E+00   -2.441E+00   -2.431E+00   -2.421E+00   -2.411E+00   -2.401E+00
    -2.391E+00   -2.381E+00   -2.371E+00   -2.361E+00   -2.351E+00   -2.341E+00   -2.331E+00   -2.320E+00   -2.310E+00   -2.300E+00
    -2.290E+00   -2.280E+00   -2.270E+00   -2.260E+00   -2.250E+00   -2.240E+00   -2.230E+00   -2.220E+00   -2.210E+00   -2.200E+00
    -2.190E+00   -2.180E+00   -2.170E+00   -2.160E+00   -2.150E+00   -2.140E+00   -2.130E+00   -2.120E+00   -2.110E+00   -2.100E+00
    -2.089E+00   -2.079E+00   -2.069E+00   -2.059E+00   -2.049E+00   -2.039E+00   -2.029E+00   -2.019E+00   -2.009E+00   -1.999E+00
    -1.989E+00   -1.979E+00   -1.969E+00   -1.959E+00   -1.949E+00   -1.939E+00   -1.929E+00   -1.919E+00   -1.909E+00   -1.899E+00
    -1.889E+00   -1.878E+00   -1.868E+00   -1.858E+00   -1.848E+00   -1.838E+00   -1.828E+00   -1.818E+00   -1.808E+00   -1.798E+00
    -1.788E+00   -1.778E+00   -1.768E+00   -1.758E+00   -1.748E+00   -1.738E+00   -1.728E+00   -1.718E+00   -1.708E+00   -1.698E+00
    -1.688E+00   -1.678E+00   -1.668E+00   -1.657E+00   -1.647E+00   -1.637E+00   -1.627E+00   -1.617E+00   -1.607E+00   -1.597E+00
    -1.587E+00   -1.577E+00   -1.567E+00   -1.557E+00   -1.547E+00   -1.537E+00   -1.527E+00   -1.517E+00   -1.507E+00   -1.497E+00
    -1.487E+00   -1.477E+00   -1.467E+00   -1.457E+00   -1.447E+00   -1.437E+00   -1.426E+00   -1.416E+00   -1.406E+00   -1.396E+00
    -1.386E+00   -1.376E+00   -1.366E+00   -1.356E+00   -1.346E+00   -1.336E+00   -1.326E+00   -1.316E+00   -1.306E+00   -1.296E+00
    -1.286E+00   -1.276E+00   -1.266E+00   -1.256E+00   -1.246E+00   -1.236E+00   -1.226E+00   -1.216E+00   -1.206E+00   -1.196E+00
    -1.186E+00   -1.176E+00   -1.166E+00   -1.156E+00   -1.146E+00   -1.135E+00   -1.125E+00   -1.115E+00   -1.105E+00   -1.095E+00
    -1.085E+00   -1.075E+00   -1.065E+00   -1.055E+00   -1.045E+00   -1.035E+00   -1.025E+00   -1.015E+00   -1.005E+00   -9.951E-01
    -9.851E-01   -9.751E-01   -9.651E-01   -9.551E-01   -9.450E-01   -9.350E-01   -9.250E-01   -9.150E-01   -9.050E-01   -8.950E-01
    -8.849E-01   -8.749E-01   -8.649E-01   -8.549E-01   -8.449E-01   -8.349E-01   -8.249E-01   -8.149E-01   -8.048E-01   -7.948E-01
    -7.848E-01   -7.748E-01   -7.648E-01   -7.548E-01   -7.448E-01   -7.348E-01   -7.248E-01   -7.148E-01   -7.048E-01   -6.948E-01
    -6.848E-01   -6.748E-01   -6.648E-01   -6.548E-01   -6.448E-01   -6.348E-01   -6.248E-01   -6.148E-01
 Ala      Conc. = 4.71E+01
