 LCModel (Version 6.3-1L) Copyright: S.W. Provencher.          Ref.: Magn. Reson. Med. 30:672-679 (1993).                
 Slice#3 Row#7 Col#6  K_02_press_1_raw_act
 36 lines in following concentration table = NCONC+1
    Conc.  %SD /Cr+PCr  Metabolite                                         
  234.979  40%   0.108 Ala                                                 
    0.000 999%   0.000 Asp                                                 
  907.962  20%   0.418 Cr                                                  
 1.26E+03  15%   0.582 PCr                                                 
    0.000 999%   0.000 GABA                                                
    0.000 999%   0.000 Glc                                                 
  557.144  34%   0.257 Gln                                                 
 1.78E+03  12%   0.819 Glu                                                 
  774.723   3%   0.357 GPC                                                 
    0.000 999%   0.000 PCh                                                 
  697.051  10%   0.321 GSH                                                 
 1.26E+03  19%   0.583 Ins                                                 
  222.330  45%   0.102 Lac                                                 
 2.50E+03   4%   1.150 NAA                                                 
  456.971  20%   0.211 NAAG                                                
   31.854  89% 1.5E-02 Scyllo                                              
    0.000 999%   0.000 Tau                                                 
    0.000 999%   0.000 -CrCH2                                              
  774.723   3%   0.357 GPC+PCh                                             
 2.95E+03   3%   1.360 NAA+NAAG                                            
 2.17E+03   3%   1.000 Cr+PCr                                              
 2.34E+03  12%   1.076 Glu+Gln                                             
   61.722 443% 2.8E-02 Lip13a                                              
    0.000 999%   0.000 Lip13b                                              
    0.000 999%   0.000 Lip09                                               
 1.11E+03  22%   0.510 MM09                                                
   22.454 343% 1.0E-02 Lip20                                               
 2.24E+03  17%   1.033 MM20                                                
  346.174  33%   0.159 MM12                                                
 1.12E+03  27%   0.517 MM14                                                
  392.976  57%   0.181 MM17                                                
   61.722 443% 2.8E-02 Lip13a+Lip13b                                       
 1.53E+03  28%   0.705 MM14+Lip13a+Lip13b+MM12                             
 1.11E+03  22%   0.510 MM09+Lip09                                          
 2.27E+03  17%   1.043 MM20+Lip20                                          
   6 lines in following misc. output table
  FWHM = 0.038 ppm    S/N =  15                                            
  Data shift = 0.015 ppm                                                   
  Ph: -17 deg      -7.7 deg/ppm                                            
  alphaB,S = 9.5E-01,   4.1E+01                                            
   14 spline knots.   Ns = 5(1)                                            
  ( 8) 4 infls.   ( 5) 1 extrs.                                            
  498 points on ppm-axis = NY
      4.000000     3.992357     3.984714     3.977070     3.969427     3.961784     3.954141     3.946497     3.938854     3.931211
      3.923568     3.915925     3.908281     3.900638     3.892995     3.885352     3.877708     3.870065     3.862422     3.854779
      3.847136     3.839492     3.831849     3.824206     3.816563     3.808919     3.801276     3.793633     3.785990     3.778347
      3.770703     3.763060     3.755417     3.747774     3.740130     3.732487     3.724844     3.717201     3.709558     3.701914
      3.694271     3.686628     3.678985     3.671341     3.663698     3.656055     3.648412     3.640769     3.633125     3.625482
      3.617839     3.610196     3.602552     3.594909     3.587266     3.579623     3.571980     3.564336     3.556693     3.549050
      3.541407     3.533763     3.526120     3.518477     3.510834     3.503191     3.495547     3.487904     3.480261     3.472618
      3.464974     3.457331     3.449688     3.442045     3.434402     3.426758     3.419115     3.411472     3.403829     3.396185
      3.388542     3.380899     3.373256     3.365613     3.357969     3.350326     3.342683     3.335040     3.327396     3.319753
      3.312110     3.304467     3.296824     3.289180     3.281537     3.273894     3.266251     3.258607     3.250964     3.243321
      3.235678     3.228034     3.220391     3.212748     3.205105     3.197462     3.189818     3.182175     3.174532     3.166889
      3.159245     3.151602     3.143959     3.136316     3.128673     3.121029     3.113386     3.105743     3.098100     3.090456
      3.082813     3.075170     3.067527     3.059884     3.052240     3.044597     3.036954     3.029311     3.021667     3.014024
      3.006381     2.998738     2.991095     2.983451     2.975808     2.968165     2.960522     2.952878     2.945235     2.937592
      2.929949     2.922306     2.914662     2.907019     2.899376     2.891733     2.884089     2.876446     2.868803     2.861160
      2.853517     2.845873     2.838230     2.830587     2.822944     2.815300     2.807657     2.800014     2.792371     2.784728
      2.777084     2.769441     2.761798     2.754155     2.746511     2.738868     2.731225     2.723582     2.715939     2.708295
      2.700652     2.693009     2.685366     2.677722     2.670079     2.662436     2.654793     2.647150     2.639506     2.631863
      2.624220     2.616577     2.608933     2.601290     2.593647     2.586004     2.578361     2.570717     2.563074     2.555431
      2.547788     2.540144     2.532501     2.524858     2.517215     2.509572     2.501928     2.494285     2.486642     2.478999
      2.471355     2.463712     2.456069     2.448426     2.440783     2.433139     2.425496     2.417853     2.410210     2.402566
      2.394923     2.387280     2.379637     2.371994     2.364350     2.356707     2.349064     2.341421     2.333777     2.326134
      2.318491     2.310848     2.303205     2.295561     2.287918     2.280275     2.272632     2.264988     2.257345     2.249702
      2.242059     2.234416     2.226772     2.219129     2.211486     2.203843     2.196199     2.188556     2.180913     2.173270
      2.165627     2.157983     2.150340     2.142697     2.135054     2.127410     2.119767     2.112124     2.104481     2.096838
      2.089194     2.081551     2.073908     2.066265     2.058621     2.050978     2.043335     2.035692     2.028049     2.020405
      2.012762     2.005119     1.997476     1.989833     1.982190     1.974546     1.966903     1.959260     1.951617     1.943974
      1.936331     1.928688     1.921045     1.913402     1.905759     1.898115     1.890472     1.882829     1.875186     1.867543
      1.859900     1.852257     1.844614     1.836971     1.829327     1.821684     1.814041     1.806398     1.798755     1.791112
      1.783469     1.775826     1.768183     1.760540     1.752896     1.745253     1.737610     1.729967     1.722324     1.714681
      1.707038     1.699395     1.691752     1.684108     1.676465     1.668822     1.661179     1.653536     1.645893     1.638250
      1.630607     1.622964     1.615321     1.607677     1.600034     1.592391     1.584748     1.577105     1.569462     1.561819
      1.554176     1.546533     1.538890     1.531246     1.523603     1.515960     1.508317     1.500674     1.493031     1.485388
      1.477745     1.470102     1.462458     1.454815     1.447172     1.439529     1.431886     1.424243     1.416600     1.408957
      1.401314     1.393671     1.386027     1.378384     1.370741     1.363098     1.355455     1.347812     1.340169     1.332526
      1.324883     1.317240     1.309596     1.301953     1.294310     1.286667     1.279024     1.271381     1.263738     1.256095
      1.248452     1.240808     1.233165     1.225522     1.217879     1.210236     1.202593     1.194950     1.187307     1.179664
      1.172021     1.164377     1.156734     1.149091     1.141448     1.133805     1.126162     1.118519     1.110876     1.103233
      1.095590     1.087946     1.080303     1.072660     1.065017     1.057374     1.049731     1.042088     1.034445     1.026802
      1.019158     1.011515     1.003872     0.996229     0.988586     0.980943     0.973300     0.965657     0.958014     0.950371
      0.942727     0.935084     0.927441     0.919798     0.912155     0.904512     0.896869     0.889226     0.881583     0.873940
      0.866296     0.858653     0.851010     0.843367     0.835724     0.828081     0.820438     0.812795     0.805152     0.797508
      0.789865     0.782222     0.774579     0.766936     0.759293     0.751650     0.744007     0.736364     0.728721     0.721077
      0.713434     0.705791     0.698148     0.690505     0.682862     0.675219     0.667576     0.659933     0.652290     0.644646
      0.637003     0.629360     0.621717     0.614074     0.606431     0.598788     0.591145     0.583502     0.575858     0.568215
      0.560572     0.552929     0.545286     0.537643     0.530000     0.522357     0.514714     0.507071     0.499427     0.491784
      0.484141     0.476498     0.468855     0.461212     0.453569     0.445925     0.438282     0.430639     0.422996     0.415353
      0.407710     0.400067     0.392424     0.384780     0.377137     0.369494     0.361851     0.354208     0.346565     0.338922
      0.331278     0.323635     0.315992     0.308349     0.300706     0.293063     0.285420     0.277777     0.270133     0.262490
      0.254847     0.247204     0.239561     0.231918     0.224275     0.216631     0.208988     0.201345
 NY phased data points follow
  -2.74751E+01 -3.07333E+01 -1.98163E+01 -2.42024E+01 -1.61180E+01 -7.34347E+00  4.61409E-01  1.04497E+01  2.53321E+01  3.63848E+01
   4.76912E+01  4.14050E+01  3.10412E+01  1.81696E+01  7.47418E+00  5.53169E-01 -1.30867E+01 -1.53921E+01 -1.78882E+01 -1.69660E+01
  -1.57567E+01 -1.34819E+01 -1.34278E+01 -1.19768E+01 -9.14638E+00 -4.04519E+00 -7.19781E+00 -7.75779E+00 -5.20853E+00 -1.04080E+00
   8.68155E+00  7.27762E+00  1.02449E+01 -1.28256E-01 -2.18003E+00 -5.99617E+00 -5.76715E+00 -7.52472E+00 -2.96523E+00 -1.78543E+00
  -6.30352E+00 -2.85626E+00 -7.44177E+00 -3.20859E+00 -3.52456E+00  9.07150E-01  8.47698E+00  1.21490E+01  5.21723E+00  2.91556E+00
  -6.82101E-01 -6.66305E+00 -3.25681E+00 -7.06216E+00 -9.37556E+00 -9.97408E+00 -5.18335E+00 -5.29718E+00 -1.07708E-01 -3.70637E+00
  -7.22793E+00 -7.47215E+00 -1.31312E+01 -1.32477E+01 -1.22410E+01 -2.09915E+01 -1.31603E+01 -2.00236E+01 -1.38948E+01 -1.55387E+01
  -1.45368E+01 -1.24367E+01 -6.95235E+00 -9.21660E+00 -8.58244E+00 -1.00147E+01 -7.93929E+00 -8.61410E+00 -9.08556E+00 -1.09876E+01
  -8.00214E+00 -6.04169E+00 -8.94529E+00 -7.10042E+00 -1.47749E+01 -7.68013E+00 -8.90736E+00 -6.36265E+00 -7.97979E+00 -7.61794E+00
  -3.04473E+00 -1.89656E+00 -2.07996E+00 -1.38243E-01  1.41691E+00  1.72645E+00  1.50007E+00  3.48097E+00  1.28829E+01  1.69974E+01
   3.47725E+01  5.88618E+01  8.10559E+01  8.67549E+01  7.25301E+01  5.12559E+01  3.72280E+01  2.63844E+01  1.34569E+01  6.32098E+00
   1.89098E+00 -7.06972E-03 -6.79155E-01 -3.72497E+00  2.07094E+00 -9.24322E-01 -6.86232E-01  8.22973E-01  7.75241E+00  7.63329E+00
  -7.97180E-01  2.92026E+00  9.54767E+00  1.42673E+01  3.05445E+01  5.66869E+01  8.11832E+01  9.21542E+01  7.94835E+01  6.06644E+01
   4.49694E+01  2.70193E+01  1.68934E+01  1.33083E+01  5.91486E+00  1.62949E+00  4.01978E+00 -1.02746E+00  9.14164E-01 -1.83629E+00
   2.17223E+00 -6.28827E-01  9.15399E-01  3.75365E+00 -1.09629E+00 -2.81114E-02 -1.28724E+00 -5.29685E+00 -3.84724E+00 -2.90364E+00
  -4.88261E+00 -6.38151E+00 -2.76304E+00  3.37756E-01 -9.40141E+00 -8.02802E+00 -4.05839E+00 -1.46940E+00 -2.62946E+00 -2.47574E-02
   9.71644E-02 -7.83954E+00 -8.53256E+00 -8.54359E+00 -2.60560E+00 -6.88253E-01  1.48886E+00 -9.35752E+00 -6.21220E+00 -1.24316E+01
  -1.05929E+01 -8.89969E+00 -1.16676E+01 -1.86739E+01 -1.71362E+01 -2.26275E+01 -1.62297E+01 -1.07092E+01 -8.07394E+00 -5.85207E+00
  -1.27822E+01 -1.41570E+01 -1.52193E+01 -1.53640E+01 -1.94868E+01 -1.22512E+01 -1.64635E+01 -1.45751E+01 -6.91148E+00  3.86631E+00
  -8.97773E-01  8.77503E+00  1.25405E+01  5.07011E+00  2.92210E-01  6.77528E+00  5.68563E-01  3.04382E+00 -5.18838E+00 -4.78169E+00
  -1.26855E+00 -4.12172E+00  7.32452E+00  2.86931E+00  6.13849E+00  4.95820E-01 -2.49460E+00 -5.67820E+00 -2.86652E+00 -5.56609E+00
  -6.42527E+00 -1.01047E+01 -1.25394E+00  9.04136E+00  1.21478E+01  1.91687E+01  2.08619E+01  1.71625E+01  1.37204E+01  3.30316E+00
   1.57503E+00 -6.10393E+00 -4.43861E+00 -4.46864E+00  1.14271E+00  1.06089E+01  1.17907E+01  1.76120E+01  1.36099E+01  1.21744E+01
   1.27997E+01  1.06757E+01  1.52306E+01  8.71597E+00  1.48961E+01  1.28206E+01  9.52023E+00  1.35966E+01  1.00858E+01  1.03995E+01
   6.92662E+00  3.95264E-01  3.68302E+00  4.83198E+00  8.55097E+00  1.30091E+01  1.36716E+01  1.40419E+01  1.94465E+01  1.75316E+01
   1.98101E+01  2.02716E+01  2.79243E+01  3.20751E+01  3.61768E+01  4.79617E+01  4.73749E+01  6.13765E+01  8.44954E+01  1.16563E+02
   1.36005E+02  1.20893E+02  8.85251E+01  6.68830E+01  4.12664E+01  2.78973E+01  2.27468E+01  1.70814E+01  1.88429E+01  1.60650E+01
   1.11390E+01  1.24887E+01  1.38508E+01  1.71160E+01  1.10324E+01  1.43139E+01  1.21550E+01  1.17791E+01  4.41678E+00  9.45377E+00
   1.43003E+01  9.38602E+00  1.18177E+01  5.30242E+00  5.17284E+00  7.03448E+00  9.83806E+00  5.60244E+00  1.19764E+01  7.51122E+00
   1.04019E+01  3.95082E+00  1.31212E+01  1.09855E+01  8.78622E+00  1.09400E+01  7.28145E+00  1.45775E+01  1.23204E+01  7.64903E+00
   1.10427E+01  9.86039E+00  1.24833E+01  1.26632E+01  8.08704E+00  1.41010E+01  8.24882E+00  8.88152E+00  1.04755E+01  1.39702E+01
   1.25742E+01  7.70552E+00  1.21832E+01  1.36597E+01  3.43882E+00  1.38690E+01  1.00178E+01  9.21837E+00  1.19462E+01  8.06143E+00
   7.40317E+00  8.80240E+00  1.23428E+01  7.77003E+00  1.25879E+01  1.55322E+01  1.34366E+01  1.16419E+01  1.35208E+01  7.92253E+00
   1.71397E+01  1.14849E+01  1.03307E+01  8.07791E+00  7.93747E+00  1.60153E+01  1.26484E+01  1.55161E+01  2.08716E+01  1.73583E+01
   1.74965E+01  2.05977E+01  1.88678E+01  2.20137E+01  2.17806E+01  1.85203E+01  1.78466E+01  1.59435E+01  1.21195E+01  7.52471E+00
   1.51245E+01  7.48433E+00  8.50694E+00  1.06482E+01  1.49672E+01  9.49764E+00  1.11569E+01  1.32157E+01  9.05473E+00  8.15276E+00
   9.12671E+00  1.06197E+01  1.26164E+01  8.50869E+00  6.53400E+00  6.45667E+00  6.34617E+00  1.24841E+01  1.24150E+01  1.21832E+01
   9.74767E+00  9.63528E+00  1.61408E+01  1.66056E+01  1.56761E+01  1.40506E+01  1.47987E+01  1.59904E+01  1.31447E+01  1.16820E+01
   1.34549E+01  1.18316E+01  1.11332E+01  1.22322E+01  1.52643E+01  8.30021E+00  7.53285E+00  7.54913E+00  6.74198E+00  1.19344E+01
   8.92398E+00  8.66275E+00  1.21202E+01  9.28442E+00  1.01696E+01  5.53007E+00  1.06710E+01  1.31043E+01  8.94259E+00  9.66896E+00
   9.17793E+00  1.52603E+01  1.07406E+01  1.45077E+01  9.33275E+00  1.73342E+01  1.23554E+01  1.72327E+01  1.88224E+01  2.10111E+01
   1.32675E+01  1.57123E+01  8.08842E+00  1.29476E+01  1.60222E+01  1.42733E+01  1.18468E+01  7.75595E+00  8.93582E+00  1.35446E+01
   7.04180E+00  5.94036E+00  7.63022E+00  1.33941E+01  1.31825E+01  8.53971E+00  6.55536E+00  7.67469E+00  7.92126E+00  6.78353E+00
   1.62130E+01  9.82419E+00  4.67142E+00  8.22244E+00  1.10312E+01  8.39444E+00  1.32278E+01  9.47561E+00  8.13685E+00  1.33636E+01
   8.33798E+00  8.95002E+00  1.10315E+01  7.62540E+00  1.10887E+01  7.45475E+00  5.72283E+00  3.80322E+00  1.14914E+01  9.83078E+00
   8.49616E+00  8.76177E+00  1.14968E+01  1.06924E+01  8.85211E+00  8.88045E+00  5.49051E+00  1.44038E+01  1.11823E+01  6.80609E+00
   8.90754E+00  7.80654E+00  1.02455E+01  1.05374E+01  5.43848E+00  1.08351E+01  9.76923E+00  1.15391E+01  6.48354E+00  8.72385E+00
   7.25977E+00  1.06816E+01  4.38455E+00  9.59385E+00  1.23139E+01  9.55295E+00  1.00843E+01  7.01096E+00  1.19630E+01  9.62483E+00
   1.06756E+01  1.01955E+01  1.13933E+01  9.98194E+00  3.25454E+00  1.00422E+01  8.89316E+00  9.97760E+00  5.69011E+00  6.72487E+00
   9.03068E+00  9.77075E+00  4.34592E+00  8.53327E+00  1.23833E+01  7.78722E+00  7.89042E+00  1.31763E+01
 NY points of the fit to the data follow
  -2.03596E+01 -2.01301E+01 -1.94993E+01 -1.81834E+01 -1.53665E+01 -1.02815E+01 -2.60465E+00  9.05291E+00  2.43762E+01  3.85774E+01
   4.45096E+01  3.96749E+01  2.81846E+01  1.59190E+01  6.26236E+00 -7.09213E-01 -5.87976E+00 -9.23794E+00 -1.10116E+01 -1.17078E+01
  -1.18969E+01 -1.19391E+01 -1.21521E+01 -1.27284E+01 -1.31750E+01 -1.29169E+01 -1.24785E+01 -1.06539E+01 -5.34350E+00  2.17973E+00
   7.88291E+00  9.18528E+00  7.41764E+00  4.20895E+00  1.34711E-01 -4.20667E+00 -8.29303E+00 -1.07723E+01 -1.14198E+01 -1.11882E+01
  -1.04439E+01 -9.14101E+00 -7.35363E+00 -5.64671E+00 -3.57051E+00 -3.54466E-01  2.84848E+00  4.09232E+00  2.58399E+00 -5.58688E-01
  -3.68283E+00 -6.11921E+00 -7.94087E+00 -9.13641E+00 -9.46504E+00 -9.13835E+00 -8.50102E+00 -7.50080E+00 -6.22746E+00 -5.15077E+00
  -4.88826E+00 -5.60723E+00 -6.93525E+00 -8.31301E+00 -9.24538E+00 -9.61404E+00 -9.34328E+00 -8.62294E+00 -7.82041E+00 -6.97789E+00
  -6.16088E+00 -5.55294E+00 -5.40275E+00 -5.69452E+00 -6.10402E+00 -6.43675E+00 -6.61254E+00 -6.69779E+00 -6.74399E+00 -6.70489E+00
  -6.62252E+00 -6.50322E+00 -6.39547E+00 -6.34356E+00 -6.31943E+00 -6.53751E+00 -7.23944E+00 -8.22045E+00 -8.87107E+00 -8.79189E+00
  -8.11618E+00 -7.08400E+00 -5.99161E+00 -4.96465E+00 -4.04289E+00 -3.33748E+00 -2.60370E+00 -2.14361E-01  6.67709E+00  1.72425E+01
   3.48406E+01  6.01379E+01  8.23388E+01  8.77633E+01  7.47073E+01  5.40404E+01  3.52683E+01  2.12264E+01  1.10572E+01  2.99446E+00
  -1.19519E+00 -2.48049E+00 -2.92174E+00 -3.07107E+00 -3.08833E+00 -3.03973E+00 -2.92967E+00 -2.77780E+00 -2.59375E+00 -2.27755E+00
  -1.52297E+00  7.28873E-01  7.18902E+00  1.72913E+01  3.28685E+01  5.71081E+01  8.18175E+01  9.20841E+01  8.23700E+01  6.22046E+01
   4.29122E+01  2.87176E+01  1.88434E+01  1.01065E+01  3.09187E+00 -1.17107E+00 -3.95472E+00 -5.05522E+00 -4.59672E+00 -3.00320E+00
  -1.03933E+00  5.96448E-01  1.32718E+00  1.09394E+00  4.14423E-01 -3.61560E-01 -1.08493E+00 -1.60896E+00 -2.05915E+00 -2.44857E+00
  -2.85491E+00 -3.28624E+00 -3.71660E+00 -4.04869E+00 -4.12324E+00 -3.92368E+00 -3.69395E+00 -3.59989E+00 -3.97727E+00 -4.97404E+00
  -6.02254E+00 -6.48262E+00 -5.93165E+00 -4.77473E+00 -4.02483E+00 -4.32857E+00 -5.39042E+00 -6.42872E+00 -7.13619E+00 -7.48699E+00
  -7.59157E+00 -7.77231E+00 -8.09427E+00 -8.63901E+00 -9.57112E+00 -1.02388E+01 -1.00151E+01 -8.96302E+00 -8.02413E+00 -8.01098E+00
  -8.59892E+00 -8.84748E+00 -8.44331E+00 -7.85902E+00 -7.76545E+00 -7.88328E+00 -7.24477E+00 -5.10969E+00 -1.91682E+00  1.25462E+00
   3.61513E+00  4.63236E+00  4.16754E+00  2.52836E+00  6.31324E-01 -1.11851E+00 -2.59074E+00 -3.33245E+00 -2.66110E+00 -5.25416E-01
   2.09941E+00  4.58740E+00  6.73019E+00  8.14634E+00  8.40529E+00  6.77077E+00  3.92208E+00  4.84847E-01 -3.02865E+00 -5.40334E+00
  -5.84876E+00 -4.08453E+00 -9.16277E-01  3.61007E+00  9.27364E+00  1.38208E+01  1.49592E+01  1.19489E+01  6.71966E+00  1.32008E+00
  -3.89989E+00 -8.16934E+00 -9.54905E+00 -6.75365E+00 -1.21866E+00  4.23315E+00  8.13828E+00  1.04270E+01  1.14368E+01  1.10840E+01
   9.53527E+00  7.98547E+00  7.87060E+00  9.03182E+00  1.05995E+01  1.22991E+01  1.39662E+01  1.48333E+01  1.39524E+01  1.16970E+01
   9.08579E+00  7.01646E+00  6.12613E+00  6.98384E+00  9.39819E+00  1.23143E+01  1.46521E+01  1.59688E+01  1.64116E+01  1.64453E+01
   1.69720E+01  1.88514E+01  2.21676E+01  2.78832E+01  3.53983E+01  4.49864E+01  5.44666E+01  6.52320E+01  8.77520E+01  1.16373E+02
   1.31181E+02  1.19966E+02  9.28845E+01  6.66823E+01  4.69896E+01  3.32339E+01  2.22698E+01  1.45101E+01  1.21265E+01  1.12210E+01
   1.06857E+01  1.04367E+01  1.05172E+01  1.07305E+01  1.08620E+01  1.07508E+01  1.04646E+01  1.01604E+01  9.89967E+00  9.64081E+00
   9.42208E+00  9.32838E+00  9.35299E+00  9.39233E+00  9.38560E+00  9.34259E+00  9.29369E+00  9.25269E+00  9.21876E+00  9.22919E+00
   9.32316E+00  9.47972E+00  9.64803E+00  9.79342E+00  9.91092E+00  1.00071E+01  1.00781E+01  1.01267E+01  1.01778E+01  1.02566E+01
   1.03560E+01  1.04571E+01  1.05482E+01  1.06221E+01  1.06758E+01  1.07082E+01  1.07174E+01  1.07117E+01  1.06974E+01  1.06785E+01
   1.06588E+01  1.06415E+01  1.06300E+01  1.06297E+01  1.06468E+01  1.06867E+01  1.07539E+01  1.08532E+01  1.09914E+01  1.11786E+01
   1.14295E+01  1.17717E+01  1.22710E+01  1.29299E+01  1.35760E+01  1.43321E+01  1.48323E+01  1.44109E+01  1.29626E+01  1.12250E+01
   1.00151E+01  9.61767E+00  9.69430E+00  1.03083E+01  1.18354E+01  1.41687E+01  1.62171E+01  1.72473E+01  1.74453E+01  1.72771E+01
   1.70471E+01  1.68987E+01  1.68092E+01  1.67835E+01  1.69406E+01  1.70601E+01  1.64641E+01  1.47830E+01  1.25162E+01  1.05835E+01
   9.48487E+00  8.95719E+00  9.05807E+00  1.00387E+01  1.17494E+01  1.32326E+01  1.37870E+01  1.36266E+01  1.31817E+01  1.27026E+01
   1.22563E+01  1.17609E+01  1.13785E+01  1.11290E+01  1.09428E+01  1.07913E+01  1.06611E+01  1.05451E+01  1.04391E+01  1.03412E+01
   1.02504E+01  1.01658E+01  1.00872E+01  1.00149E+01  9.95014E+00  9.89444E+00  9.84910E+00  9.81513E+00  9.79369E+00  9.78638E+00
   9.79519E+00  9.82191E+00  9.86790E+00  9.93421E+00  1.00220E+01  1.01328E+01  1.02682E+01  1.04289E+01  1.06152E+01  1.08267E+01
   1.10630E+01  1.13234E+01  1.16062E+01  1.19088E+01  1.22271E+01  1.25566E+01  1.28919E+01  1.32275E+01  1.35564E+01  1.38713E+01
   1.41641E+01  1.44271E+01  1.46536E+01  1.48373E+01  1.49726E+01  1.50547E+01  1.50806E+01  1.50492E+01  1.49612E+01  1.48189E+01
   1.46257E+01  1.43863E+01  1.41068E+01  1.37944E+01  1.34569E+01  1.31021E+01  1.27371E+01  1.23688E+01  1.20039E+01  1.16482E+01
   1.13068E+01  1.09833E+01  1.06803E+01  1.03994E+01  1.01419E+01  9.90845E+00  9.69884E+00  9.51202E+00  9.34655E+00  9.20104E+00
   9.07422E+00  8.96473E+00  8.87084E+00  8.79068E+00  8.72254E+00  8.66518E+00  8.61761E+00  8.57880E+00  8.54751E+00  8.52253E+00
   8.50300E+00  8.48846E+00  8.47855E+00  8.47268E+00  8.47009E+00  8.47016E+00  8.47260E+00  8.47740E+00  8.48441E+00  8.49322E+00
   8.50331E+00  8.51440E+00  8.52653E+00  8.53982E+00  8.55417E+00  8.56924E+00  8.58472E+00  8.60059E+00  8.61705E+00  8.63420E+00
   8.65190E+00  8.66982E+00  8.68780E+00  8.70598E+00  8.72461E+00  8.74370E+00  8.76303E+00  8.78231E+00  8.80155E+00  8.82096E+00
   8.84076E+00  8.86084E+00  8.88095E+00  8.90093E+00  8.92089E+00  8.94110E+00  8.96165E+00  8.98234E+00  9.00293E+00  9.02338E+00
   9.04391E+00  9.06474E+00  9.08586E+00  9.10701E+00  9.12802E+00  9.14899E+00  9.17019E+00  9.19174E+00  9.21351E+00  9.23526E+00
   9.25692E+00  9.27871E+00  9.30086E+00  9.32342E+00  9.34618E+00  9.36896E+00  9.39182E+00  9.41504E+00
 NY background values follow
    -2.359E+01   -2.337E+01   -2.316E+01   -2.295E+01   -2.273E+01   -2.252E+01   -2.231E+01   -2.210E+01   -2.189E+01   -2.168E+01
    -2.147E+01   -2.126E+01   -2.105E+01   -2.084E+01   -2.063E+01   -2.043E+01   -2.022E+01   -2.001E+01   -1.981E+01   -1.961E+01
    -1.940E+01   -1.920E+01   -1.900E+01   -1.880E+01   -1.860E+01   -1.840E+01   -1.820E+01   -1.800E+01   -1.781E+01   -1.761E+01
    -1.742E+01   -1.722E+01   -1.703E+01   -1.684E+01   -1.665E+01   -1.646E+01   -1.627E+01   -1.608E+01   -1.589E+01   -1.571E+01
    -1.552E+01   -1.534E+01   -1.515E+01   -1.497E+01   -1.479E+01   -1.461E+01   -1.443E+01   -1.426E+01   -1.408E+01   -1.391E+01
    -1.373E+01   -1.356E+01   -1.339E+01   -1.322E+01   -1.305E+01   -1.289E+01   -1.272E+01   -1.256E+01   -1.239E+01   -1.223E+01
    -1.207E+01   -1.191E+01   -1.175E+01   -1.160E+01   -1.144E+01   -1.129E+01   -1.114E+01   -1.099E+01   -1.084E+01   -1.069E+01
    -1.054E+01   -1.040E+01   -1.025E+01   -1.011E+01   -9.970E+00   -9.831E+00   -9.693E+00   -9.557E+00   -9.422E+00   -9.289E+00
    -9.158E+00   -9.028E+00   -8.899E+00   -8.772E+00   -8.647E+00   -8.523E+00   -8.401E+00   -8.281E+00   -8.162E+00   -8.045E+00
    -7.929E+00   -7.816E+00   -7.703E+00   -7.593E+00   -7.484E+00   -7.377E+00   -7.272E+00   -7.168E+00   -7.067E+00   -6.966E+00
    -6.868E+00   -6.772E+00   -6.677E+00   -6.584E+00   -6.493E+00   -6.403E+00   -6.316E+00   -6.230E+00   -6.146E+00   -6.064E+00
    -5.984E+00   -5.906E+00   -5.829E+00   -5.755E+00   -5.682E+00   -5.612E+00   -5.543E+00   -5.476E+00   -5.411E+00   -5.348E+00
    -5.287E+00   -5.228E+00   -5.171E+00   -5.116E+00   -5.063E+00   -5.012E+00   -4.963E+00   -4.917E+00   -4.872E+00   -4.829E+00
    -4.788E+00   -4.749E+00   -4.713E+00   -4.678E+00   -4.646E+00   -4.616E+00   -4.588E+00   -4.562E+00   -4.537E+00   -4.515E+00
    -4.495E+00   -4.475E+00   -4.458E+00   -4.441E+00   -4.426E+00   -4.412E+00   -4.398E+00   -4.385E+00   -4.373E+00   -4.362E+00
    -4.350E+00   -4.339E+00   -4.328E+00   -4.317E+00   -4.305E+00   -4.294E+00   -4.281E+00   -4.269E+00   -4.255E+00   -4.240E+00
    -4.225E+00   -4.208E+00   -4.190E+00   -4.171E+00   -4.150E+00   -4.127E+00   -4.103E+00   -4.076E+00   -4.048E+00   -4.017E+00
    -3.984E+00   -3.948E+00   -3.910E+00   -3.869E+00   -3.825E+00   -3.778E+00   -3.728E+00   -3.675E+00   -3.618E+00   -3.557E+00
    -3.493E+00   -3.425E+00   -3.353E+00   -3.278E+00   -3.198E+00   -3.115E+00   -3.029E+00   -2.939E+00   -2.846E+00   -2.750E+00
    -2.651E+00   -2.550E+00   -2.445E+00   -2.338E+00   -2.229E+00   -2.117E+00   -2.003E+00   -1.886E+00   -1.768E+00   -1.648E+00
    -1.526E+00   -1.403E+00   -1.278E+00   -1.151E+00   -1.024E+00   -8.946E-01   -7.647E-01   -6.338E-01   -5.021E-01   -3.698E-01
    -2.369E-01   -1.035E-01    3.023E-02    1.641E-01    2.981E-01    4.321E-01    5.659E-01    6.995E-01    8.327E-01    9.653E-01
     1.097E+00    1.229E+00    1.359E+00    1.489E+00    1.617E+00    1.744E+00    1.870E+00    1.994E+00    2.117E+00    2.238E+00
     2.358E+00    2.477E+00    2.594E+00    2.710E+00    2.824E+00    2.936E+00    3.048E+00    3.157E+00    3.265E+00    3.372E+00
     3.477E+00    3.581E+00    3.683E+00    3.784E+00    3.883E+00    3.981E+00    4.077E+00    4.172E+00    4.265E+00    4.357E+00
     4.447E+00    4.536E+00    4.623E+00    4.709E+00    4.793E+00    4.876E+00    4.957E+00    5.036E+00    5.114E+00    5.191E+00
     5.266E+00    5.339E+00    5.411E+00    5.481E+00    5.550E+00    5.617E+00    5.683E+00    5.747E+00    5.809E+00    5.870E+00
     5.930E+00    5.987E+00    6.044E+00    6.098E+00    6.151E+00    6.203E+00    6.253E+00    6.302E+00    6.349E+00    6.395E+00
     6.440E+00    6.483E+00    6.525E+00    6.565E+00    6.605E+00    6.643E+00    6.680E+00    6.715E+00    6.750E+00    6.783E+00
     6.816E+00    6.847E+00    6.877E+00    6.906E+00    6.934E+00    6.961E+00    6.987E+00    7.013E+00    7.037E+00    7.061E+00
     7.083E+00    7.105E+00    7.126E+00    7.146E+00    7.166E+00    7.185E+00    7.203E+00    7.220E+00    7.237E+00    7.253E+00
     7.269E+00    7.284E+00    7.299E+00    7.313E+00    7.326E+00    7.339E+00    7.352E+00    7.364E+00    7.376E+00    7.388E+00
     7.399E+00    7.409E+00    7.420E+00    7.429E+00    7.439E+00    7.448E+00    7.457E+00    7.465E+00    7.473E+00    7.480E+00
     7.487E+00    7.494E+00    7.500E+00    7.506E+00    7.511E+00    7.516E+00    7.521E+00    7.525E+00    7.528E+00    7.532E+00
     7.535E+00    7.537E+00    7.539E+00    7.541E+00    7.542E+00    7.542E+00    7.543E+00    7.543E+00    7.542E+00    7.541E+00
     7.540E+00    7.538E+00    7.536E+00    7.533E+00    7.530E+00    7.526E+00    7.522E+00    7.517E+00    7.513E+00    7.507E+00
     7.501E+00    7.495E+00    7.488E+00    7.481E+00    7.474E+00    7.466E+00    7.458E+00    7.449E+00    7.440E+00    7.431E+00
     7.422E+00    7.413E+00    7.404E+00    7.394E+00    7.385E+00    7.375E+00    7.366E+00    7.356E+00    7.347E+00    7.338E+00
     7.329E+00    7.320E+00    7.312E+00    7.304E+00    7.296E+00    7.289E+00    7.282E+00    7.275E+00    7.269E+00    7.263E+00
     7.258E+00    7.253E+00    7.249E+00    7.246E+00    7.244E+00    7.242E+00    7.241E+00    7.240E+00    7.241E+00    7.242E+00
     7.245E+00    7.248E+00    7.252E+00    7.257E+00    7.263E+00    7.271E+00    7.279E+00    7.289E+00    7.300E+00    7.311E+00
     7.324E+00    7.338E+00    7.353E+00    7.370E+00    7.387E+00    7.405E+00    7.423E+00    7.443E+00    7.464E+00    7.485E+00
     7.507E+00    7.530E+00    7.554E+00    7.578E+00    7.603E+00    7.628E+00    7.655E+00    7.681E+00    7.708E+00    7.736E+00
     7.764E+00    7.792E+00    7.821E+00    7.850E+00    7.880E+00    7.910E+00    7.940E+00    7.970E+00    8.000E+00    8.031E+00
     8.062E+00    8.092E+00    8.123E+00    8.154E+00    8.185E+00    8.216E+00    8.246E+00    8.277E+00    8.307E+00    8.337E+00
     8.367E+00    8.397E+00    8.427E+00    8.456E+00    8.485E+00    8.513E+00    8.542E+00    8.570E+00    8.598E+00    8.625E+00
     8.652E+00    8.679E+00    8.706E+00    8.733E+00    8.759E+00    8.785E+00    8.811E+00    8.837E+00    8.862E+00    8.887E+00
     8.913E+00    8.937E+00    8.962E+00    8.987E+00    9.011E+00    9.035E+00    9.060E+00    9.084E+00    9.107E+00    9.131E+00
     9.155E+00    9.178E+00    9.202E+00    9.225E+00    9.248E+00    9.271E+00    9.294E+00    9.317E+00    9.340E+00    9.363E+00
     9.386E+00    9.408E+00    9.431E+00    9.454E+00    9.476E+00    9.499E+00    9.522E+00    9.544E+00
 Ala      Conc. = 2.35E+02
