 LCModel (Version 6.3-1L) Copyright: S.W. Provencher.          Ref.: Magn. Reson. Med. 30:672-679 (1993).                
 Slice#2 Row#1 Col#6  K_02_press_1_raw_act
 36 lines in following concentration table = NCONC+1
    Conc.  %SD /Cr+PCr  Metabolite                                         
   31.539  98%   0.739 Ala                                                 
   11.838  39%   0.277 Asp                                                 
   42.692  46%   1.000 Cr                                                  
    0.000 999%   0.000 PCr                                                 
    7.108  39%   0.166 GABA                                                
    7.029  40%   0.165 Glc                                                 
   28.350 200%   0.664 Gln                                                 
  191.427  42%   4.484 Glu                                                 
   26.849  32%   0.629 GPC                                                 
    0.000 999%   0.000 PCh                                                 
   23.861  98%   0.559 GSH                                                 
    0.000 999%   0.000 Ins                                                 
   10.287 302%   0.241 Lac                                                 
  106.035  27%   2.484 NAA                                                 
    6.864 363%   0.161 NAAG                                                
    2.340  40% 5.5E-02 Scyllo                                              
   11.731  40%   0.275 Tau                                                 
    4.219  98% 9.9E-02 -CrCH2                                              
   26.849  32%   0.629 GPC+PCh                                             
  112.899  27%   2.644 NAA+NAAG                                            
   42.692  46%   1.000 Cr+PCr                                              
  219.777  44%   5.148 Glu+Gln                                             
    0.000 999%   0.000 Lip13a                                              
    0.000 999%   0.000 Lip13b                                              
    0.000 999%   0.000 Lip09                                               
    0.000 999%   0.000 MM09                                                
 4.03E-03 999% 9.4E-05 Lip20                                               
    0.168 999% 3.9E-03 MM20                                                
    0.000 999%   0.000 MM12                                                
    0.000 999%   0.000 MM14                                                
    0.142 999% 3.3E-03 MM17                                                
    0.000 999%   0.000 Lip13a+Lip13b                                       
    0.000 999%   0.000 MM14+Lip13a+Lip13b+MM12                             
    0.000 999%   0.000 MM09+Lip09                                          
    0.172 999% 4.0E-03 MM20+Lip20                                          
   6 lines in following misc. output table
  FWHM = 0.023 ppm    S/N =   1                                            
  Data shift = 0.038 ppm                                                   
  Ph:-172 deg     -19.9 deg/ppm                                            
  alphaB,S = 3.6E-01,   6.1E+00                                            
   14 spline knots.   Ns = 5(1)                                            
  ( 4) 1 infls.   ( 4) 2 extrs.                                            
  498 points on ppm-axis = NY
      4.000000     3.992357     3.984714     3.977070     3.969427     3.961784     3.954141     3.946497     3.938854     3.931211
      3.923568     3.915925     3.908281     3.900638     3.892995     3.885352     3.877708     3.870065     3.862422     3.854779
      3.847136     3.839492     3.831849     3.824206     3.816563     3.808919     3.801276     3.793633     3.785990     3.778347
      3.770703     3.763060     3.755417     3.747774     3.740130     3.732487     3.724844     3.717201     3.709558     3.701914
      3.694271     3.686628     3.678985     3.671341     3.663698     3.656055     3.648412     3.640769     3.633125     3.625482
      3.617839     3.610196     3.602552     3.594909     3.587266     3.579623     3.571980     3.564336     3.556693     3.549050
      3.541407     3.533763     3.526120     3.518477     3.510834     3.503191     3.495547     3.487904     3.480261     3.472618
      3.464974     3.457331     3.449688     3.442045     3.434402     3.426758     3.419115     3.411472     3.403829     3.396185
      3.388542     3.380899     3.373256     3.365613     3.357969     3.350326     3.342683     3.335040     3.327396     3.319753
      3.312110     3.304467     3.296824     3.289180     3.281537     3.273894     3.266251     3.258607     3.250964     3.243321
      3.235678     3.228034     3.220391     3.212748     3.205105     3.197462     3.189818     3.182175     3.174532     3.166889
      3.159245     3.151602     3.143959     3.136316     3.128673     3.121029     3.113386     3.105743     3.098100     3.090456
      3.082813     3.075170     3.067527     3.059884     3.052240     3.044597     3.036954     3.029311     3.021667     3.014024
      3.006381     2.998738     2.991095     2.983451     2.975808     2.968165     2.960522     2.952878     2.945235     2.937592
      2.929949     2.922306     2.914662     2.907019     2.899376     2.891733     2.884089     2.876446     2.868803     2.861160
      2.853517     2.845873     2.838230     2.830587     2.822944     2.815300     2.807657     2.800014     2.792371     2.784728
      2.777084     2.769441     2.761798     2.754155     2.746511     2.738868     2.731225     2.723582     2.715939     2.708295
      2.700652     2.693009     2.685366     2.677722     2.670079     2.662436     2.654793     2.647150     2.639506     2.631863
      2.624220     2.616577     2.608933     2.601290     2.593647     2.586004     2.578361     2.570717     2.563074     2.555431
      2.547788     2.540144     2.532501     2.524858     2.517215     2.509572     2.501928     2.494285     2.486642     2.478999
      2.471355     2.463712     2.456069     2.448426     2.440783     2.433139     2.425496     2.417853     2.410210     2.402566
      2.394923     2.387280     2.379637     2.371994     2.364350     2.356707     2.349064     2.341421     2.333777     2.326134
      2.318491     2.310848     2.303205     2.295561     2.287918     2.280275     2.272632     2.264988     2.257345     2.249702
      2.242059     2.234416     2.226772     2.219129     2.211486     2.203843     2.196199     2.188556     2.180913     2.173270
      2.165627     2.157983     2.150340     2.142697     2.135054     2.127410     2.119767     2.112124     2.104481     2.096838
      2.089194     2.081551     2.073908     2.066265     2.058621     2.050978     2.043335     2.035692     2.028049     2.020405
      2.012762     2.005119     1.997476     1.989833     1.982190     1.974546     1.966903     1.959260     1.951617     1.943974
      1.936331     1.928688     1.921045     1.913402     1.905759     1.898115     1.890472     1.882829     1.875186     1.867543
      1.859900     1.852257     1.844614     1.836971     1.829327     1.821684     1.814041     1.806398     1.798755     1.791112
      1.783469     1.775826     1.768183     1.760540     1.752896     1.745253     1.737610     1.729967     1.722324     1.714681
      1.707038     1.699395     1.691752     1.684108     1.676465     1.668822     1.661179     1.653536     1.645893     1.638250
      1.630607     1.622964     1.615321     1.607677     1.600034     1.592391     1.584748     1.577105     1.569462     1.561819
      1.554176     1.546533     1.538890     1.531246     1.523603     1.515960     1.508317     1.500674     1.493031     1.485388
      1.477745     1.470102     1.462458     1.454815     1.447172     1.439529     1.431886     1.424243     1.416600     1.408957
      1.401314     1.393671     1.386027     1.378384     1.370741     1.363098     1.355455     1.347812     1.340169     1.332526
      1.324883     1.317240     1.309596     1.301953     1.294310     1.286667     1.279024     1.271381     1.263738     1.256095
      1.248452     1.240808     1.233165     1.225522     1.217879     1.210236     1.202593     1.194950     1.187307     1.179664
      1.172021     1.164377     1.156734     1.149091     1.141448     1.133805     1.126162     1.118519     1.110876     1.103233
      1.095590     1.087946     1.080303     1.072660     1.065017     1.057374     1.049731     1.042088     1.034445     1.026802
      1.019158     1.011515     1.003872     0.996229     0.988586     0.980943     0.973300     0.965657     0.958014     0.950371
      0.942727     0.935084     0.927441     0.919798     0.912155     0.904512     0.896869     0.889226     0.881583     0.873940
      0.866296     0.858653     0.851010     0.843367     0.835724     0.828081     0.820438     0.812795     0.805152     0.797508
      0.789865     0.782222     0.774579     0.766936     0.759293     0.751650     0.744007     0.736364     0.728721     0.721077
      0.713434     0.705791     0.698148     0.690505     0.682862     0.675219     0.667576     0.659933     0.652290     0.644646
      0.637003     0.629360     0.621717     0.614074     0.606431     0.598788     0.591145     0.583502     0.575858     0.568215
      0.560572     0.552929     0.545286     0.537643     0.530000     0.522357     0.514714     0.507071     0.499427     0.491784
      0.484141     0.476498     0.468855     0.461212     0.453569     0.445925     0.438282     0.430639     0.422996     0.415353
      0.407710     0.400067     0.392424     0.384780     0.377137     0.369494     0.361851     0.354208     0.346565     0.338922
      0.331278     0.323635     0.315992     0.308349     0.300706     0.293063     0.285420     0.277777     0.270133     0.262490
      0.254847     0.247204     0.239561     0.231918     0.224275     0.216631     0.208988     0.201345
 NY phased data points follow
  -6.07667E+00  8.55913E-01 -4.46850E+00 -6.77989E+00 -5.71653E+00 -3.14698E+00 -7.54278E+00 -2.00367E+00 -6.02904E+00 -2.88875E+00
  -4.25218E+00 -1.16263E+00 -3.93473E+00 -2.25528E-01 -3.18320E+00  3.46707E+00 -1.95894E+00 -3.50978E+00 -1.54566E+00 -3.47405E+00
  -3.46303E+00 -9.28693E-01 -3.95433E+00 -2.83450E+00 -3.62989E+00 -2.34498E+00 -3.06429E+00 -7.18078E-02 -2.03912E+00 -3.41658E+00
  -2.95245E+00 -5.70456E-01 -3.92552E+00 -1.72874E+00 -5.17508E-01 -6.49472E-01 -2.00432E-01 -9.21539E-01 -4.05770E+00 -1.80676E+00
  -5.53227E+00 -2.22017E+00 -4.65902E+00  2.64343E-01 -3.91738E-01 -1.36869E+00 -1.90355E+00 -2.25885E+00  7.72332E-01 -2.33449E+00
  -6.62018E+00  3.28627E+00 -1.17756E+00  1.56834E+00  2.71048E-01 -2.11042E+00 -1.15670E+00 -5.87340E-01 -1.28740E+00 -3.77941E+00
  -3.21717E+00 -4.87665E-01 -1.11593E+00 -2.79186E+00 -4.30639E+00 -3.87569E+00 -1.13252E+00 -1.17464E+00 -3.05237E+00 -1.24870E+00
  -5.98557E+00 -1.55800E+00 -1.30563E+00 -1.04187E+00 -2.04855E+00 -2.65101E+00 -5.54925E-01 -5.29479E+00 -2.70629E+00 -7.57766E+00
  -3.57506E-01 -1.68911E+00 -1.60129E+00  1.77311E+00 -4.88343E-01 -5.07374E+00 -2.68205E-01 -9.68555E-01 -2.16300E+00 -3.22924E-01
  -1.80631E+00 -2.90402E+00  3.11531E+00  1.05175E+00 -2.82490E+00 -1.59751E+00 -1.64142E+00 -9.55158E-01 -6.63097E+00 -1.31710E+00
   5.55623E-01 -6.79564E-01  2.19603E+00  6.13897E+00  5.20984E+00  1.52583E+00 -1.26832E-01 -6.96533E-01  1.38445E-01 -7.85355E-01
   2.03858E+00 -7.73489E-01 -3.36058E-01  3.27224E+00 -2.20104E+00  6.59945E-01 -6.63886E-01  2.64821E+00 -3.53510E+00  1.12727E+00
  -5.34452E-01 -1.58785E+00  2.08733E+00 -4.66289E+00 -2.82099E+00 -3.05114E+00  2.58498E-01  3.47888E+00  4.32515E-01  3.68132E+00
   5.56457E-01 -7.22542E-01 -3.72569E-01 -9.32602E-01  2.60820E+00 -2.05599E+00 -3.49640E+00  9.71758E-01  1.21192E+00  2.17322E+00
   7.06381E-01 -1.12822E+00  6.87724E-01  3.74529E+00 -9.49261E-01  2.40531E-01 -4.03208E-01  1.24671E+00 -3.67765E-01  2.04886E-01
  -8.14294E-01 -2.82744E+00 -2.04450E+00 -3.49628E+00 -2.90596E+00  1.06350E+00  1.04605E+00  2.23600E+00 -1.67936E+00 -3.22176E+00
  -2.22765E+00  1.68816E+00 -1.76335E-01 -2.29345E+00 -5.81763E-01 -1.51450E+00  2.69486E+00 -1.95682E-01 -1.36838E-01 -8.99294E-02
   3.12671E-01  1.19243E+00  2.47227E+00 -1.68798E+00  1.83940E+00 -1.11373E+00  1.72703E+00 -1.75036E+00  3.49793E+00  7.40187E-02
   1.42488E+00 -2.18064E-01 -5.38167E-01  1.80124E+00 -6.75214E-01 -6.48965E-01  1.94830E-01 -2.96925E+00  1.18229E+00  2.11570E+00
  -1.58792E-01  4.58195E+00  5.00584E+00  1.49942E+00  4.53747E+00  5.56888E+00  2.71562E-01  1.80645E+00  1.60476E-01 -7.83383E-01
   7.70856E-01  3.48729E+00 -3.23158E-01  1.39117E+00  1.58271E+00  4.41301E+00 -1.04305E+00  2.62806E+00  3.70558E+00  1.95483E+00
  -2.01217E-02  1.22707E+00 -6.67536E-01  5.13107E-01  1.16024E+00  2.09872E+00  2.35603E+00  4.27718E+00  5.14886E+00  2.36162E+00
   3.93132E+00 -1.12047E-01 -1.76359E-01 -4.15888E-01  3.87687E+00 -3.63561E+00  1.37241E+00  1.34776E+00  1.71796E+00  1.22370E+00
   3.64414E-01 -7.54086E-01  3.99553E+00  3.17212E+00  1.86387E+00 -1.11631E+00 -1.55873E+00  2.35591E+00  1.91078E+00  4.03647E+00
   9.27030E-01  6.09783E+00  1.69139E+00  2.99596E+00  1.29332E+00  1.90479E+00  6.56459E+00  3.99464E+00  2.78686E+00  4.96327E+00
   4.66842E+00  3.42027E+00  2.62934E+00 -9.84023E-01  2.61114E+00  1.37544E+00  4.36496E+00 -1.13542E+00 -2.78651E-01 -1.95407E+00
   5.46942E+00  7.53093E+00  9.78558E+00  3.93756E+00  5.89979E+00  2.18247E+00  2.41304E+00  4.21316E+00  5.10905E+00  1.71320E+00
   7.37152E+00  2.40445E+00  2.37752E+00  4.94191E-01  1.12676E+00  2.76656E+00  2.87541E+00  5.15498E+00  7.01186E-01 -6.29939E-01
   9.73753E-01  3.96988E-01  3.16318E+00 -3.23474E-01  2.10799E+00  3.72853E+00  4.07517E+00  5.52545E+00  3.00454E+00 -1.26800E-01
   4.24408E+00  1.55294E+00  1.35416E+00  6.47966E+00  4.32850E+00  5.72791E+00  3.48971E+00  1.59714E+00  1.93593E+00  3.40345E+00
   3.74988E+00  2.68482E+00  3.92353E+00  1.32576E+00  3.27932E+00  2.66983E+00  8.87984E-01  3.96758E+00 -1.62670E+00  1.64024E+00
  -3.61345E+00  1.73291E+00 -9.84199E-02 -8.60607E-01 -2.78064E+00 -7.88190E-01 -4.59263E-01 -6.01756E+00 -3.95005E+00 -3.25593E+00
  -2.23762E+00 -3.33590E+00 -6.49474E-01 -1.30809E+00 -2.33276E+00 -3.83409E+00 -8.39302E-01 -1.54439E+00 -1.82440E+00 -2.34943E+00
  -2.05793E+00 -1.18803E+00 -1.97450E+00 -1.71428E+00 -2.73575E+00 -4.96983E+00 -7.11423E-01  1.29085E+00  8.29336E-01 -1.30804E+00
   1.03037E+00 -4.20537E-01 -1.21986E+00  1.15738E+00 -1.80992E-01  1.05711E+00 -8.11455E-01 -1.23987E+00 -1.58250E+00 -3.12864E+00
   1.89055E+00 -6.13131E+00 -3.33014E+00 -4.14362E+00 -6.31600E+00 -4.66619E+00 -4.72301E+00 -6.91994E+00 -8.59382E+00 -2.34971E+00
  -7.35601E+00 -6.39314E+00 -5.28021E+00 -2.36707E+00 -6.83743E+00 -3.26153E+00 -5.70582E+00 -8.66687E+00 -2.94837E+00 -4.44641E+00
  -6.12592E+00 -8.32310E+00 -1.04687E+00 -6.65836E+00 -5.48173E+00 -5.80024E+00 -4.99281E+00 -2.92861E+00 -7.39727E+00 -3.64150E+00
  -4.70354E+00 -6.37514E+00 -2.96363E+00 -5.17130E+00 -4.35725E+00 -5.27525E+00 -3.95468E+00 -5.68894E+00 -7.87054E+00 -6.86983E+00
  -4.34249E+00 -3.21600E+00 -5.14095E+00 -5.27618E+00 -2.04458E+00 -4.73801E+00 -6.32092E+00 -4.09977E+00 -8.34307E+00 -3.48201E+00
  -7.47377E+00 -7.39836E+00 -7.47609E+00 -4.29985E+00 -6.15601E+00 -4.11626E+00 -9.95094E+00 -7.02558E+00 -9.47646E+00 -1.00846E+01
  -7.28528E+00 -5.08468E+00 -5.36661E+00 -5.46995E+00 -5.94095E+00 -6.99926E+00 -6.58503E+00 -5.88826E+00 -3.55978E+00 -9.03902E+00
  -1.84118E+00 -2.23298E+00 -5.23843E+00 -4.52668E+00 -3.04691E+00 -5.08591E+00 -5.96468E+00 -5.55112E+00 -3.39269E+00 -7.72625E+00
  -8.07671E+00 -6.31097E+00 -5.41669E+00 -6.74348E+00 -4.71468E+00 -4.02937E+00 -6.69812E+00 -4.71875E+00 -5.22779E+00 -7.52074E+00
  -4.12720E+00 -1.48836E+00 -4.20543E+00 -5.14295E+00 -3.89629E+00 -3.73777E-01 -3.73997E+00 -5.58796E+00 -1.09236E+00 -4.13966E+00
  -3.96532E+00 -7.51447E+00 -1.94402E+00 -1.60470E+00 -1.77388E+00 -4.62868E+00 -2.60947E+00 -6.80658E+00 -5.39309E+00 -4.41698E+00
   4.21062E+00 -6.43902E+00 -2.37488E+00 -1.88291E+00 -2.08329E+00 -5.74329E+00 -3.74696E+00 -3.11437E+00 -5.64220E+00 -4.24023E+00
  -2.55605E+00 -1.86450E+00 -5.45781E+00 -1.57196E+00 -1.63840E+00 -3.63669E+00 -2.25322E+00 -5.68588E+00 -3.20569E-01 -9.02579E-01
  -4.68608E+00 -2.95464E-02 -1.06738E+00 -4.21908E+00 -5.86522E+00 -5.05935E-01 -4.03210E+00 -2.72954E+00 -6.02545E+00 -2.58907E+00
  -4.58311E+00 -7.15626E-01 -1.69520E+00 -3.08656E+00 -2.80807E+00 -3.41129E+00 -6.28094E-02 -1.50281E+00
 NY points of the fit to the data follow
  -3.71925E+00 -3.69447E+00 -3.66579E+00 -3.62414E+00 -3.54746E+00 -3.43375E+00 -3.38093E+00 -3.53871E+00 -3.80214E+00 -3.78974E+00
  -3.19288E+00 -2.18283E+00 -1.42417E+00 -1.36231E+00 -1.76092E+00 -2.14512E+00 -2.38042E+00 -2.59874E+00 -2.81109E+00 -2.93460E+00
  -2.96584E+00 -2.92323E+00 -2.83607E+00 -2.70190E+00 -2.48037E+00 -2.26846E+00 -2.28096E+00 -2.58158E+00 -2.99488E+00 -3.18898E+00
  -3.01256E+00 -2.62530E+00 -2.13173E+00 -1.52938E+00 -9.62993E-01 -8.01323E-01 -1.21431E+00 -1.92163E+00 -2.57301E+00 -2.95083E+00
  -2.94243E+00 -2.64907E+00 -2.28652E+00 -2.04718E+00 -1.94933E+00 -1.93032E+00 -1.96449E+00 -2.04290E+00 -2.10464E+00 -2.08050E+00
  -1.98887E+00 -1.92288E+00 -1.91420E+00 -1.92087E+00 -1.91861E+00 -1.91693E+00 -1.92357E+00 -1.93571E+00 -1.94578E+00 -1.94468E+00
  -1.93292E+00 -1.91703E+00 -1.90200E+00 -1.88526E+00 -1.85843E+00 -1.82166E+00 -1.77811E+00 -1.74046E+00 -1.71846E+00 -1.71191E+00
  -1.71573E+00 -1.72839E+00 -1.73549E+00 -1.71120E+00 -1.63771E+00 -1.52566E+00 -1.42021E+00 -1.37828E+00 -1.40938E+00 -1.46833E+00
  -1.50991E+00 -1.52332E+00 -1.52094E+00 -1.49775E+00 -1.43105E+00 -1.29820E+00 -1.12609E+00 -1.00626E+00 -9.98611E-01 -1.05615E+00
  -1.09757E+00 -1.10253E+00 -1.10607E+00 -1.13389E+00 -1.18642E+00 -1.24484E+00 -1.28822E+00 -1.43192E+00 -1.89732E+00 -2.39291E+00
  -2.06175E+00 -3.24915E-01  2.36308E+00  4.37075E+00  4.48375E+00  3.18328E+00  1.77310E+00  8.30337E-01  1.86163E-01 -2.38194E-01
  -3.83485E-01 -4.38812E-01 -4.64220E-01 -4.73879E-01 -4.76087E-01 -4.68773E-01 -4.51110E-01 -4.29932E-01 -4.14887E-01 -4.13183E-01
  -4.25618E-01 -4.62198E-01 -6.07104E-01 -9.36411E-01 -1.15037E+00 -7.78728E-01  3.78126E-01  1.84471E+00  2.70205E+00  2.51507E+00
   1.76695E+00  1.13600E+00  8.13337E-01  6.25659E-01  4.93753E-01  3.33078E-01  9.67286E-02 -1.18181E-01 -2.23926E-01 -1.87598E-01
  -4.13333E-02  1.44252E-01  2.82681E-01  3.46078E-01  3.61062E-01  3.61776E-01  3.62791E-01  3.61281E-01  3.54230E-01  3.54163E-01
   3.59920E-01  3.66358E-01  3.67830E-01  3.64645E-01  3.61348E-01  3.70069E-01  4.10081E-01  4.82955E-01  5.51954E-01  5.64797E-01
   4.93703E-01  3.70698E-01  2.95029E-01  3.40492E-01  4.82721E-01  6.28407E-01  6.99557E-01  6.90679E-01  6.48413E-01  6.15121E-01
   6.06171E-01  6.20595E-01  6.62874E-01  7.01817E-01  6.80593E-01  5.94363E-01  5.02352E-01  5.02495E-01  6.13034E-01  7.32363E-01
   7.52093E-01  6.89181E-01  6.53584E-01  7.07262E-01  7.79376E-01  7.74465E-01  6.80287E-01  5.91771E-01  6.27044E-01  8.17817E-01
   1.08437E+00  1.30753E+00  1.41957E+00  1.42195E+00  1.35916E+00  1.26379E+00  1.15509E+00  1.03363E+00  9.38053E-01  9.23847E-01
   9.96371E-01  1.11804E+00  1.27406E+00  1.48928E+00  1.75791E+00  1.99015E+00  2.11975E+00  2.05578E+00  1.76987E+00  1.30576E+00
   7.53445E-01  2.56179E-01 -6.44795E-02 -4.81318E-02  5.33847E-01  1.67529E+00  2.99992E+00  3.80568E+00  3.77864E+00  3.17463E+00
   2.24250E+00  9.82981E-01 -4.36981E-01 -1.42637E+00 -1.41038E+00 -5.55650E-01  5.07932E-01  1.33026E+00  1.86296E+00  2.12479E+00
   2.06783E+00  1.77146E+00  1.47136E+00  1.30622E+00  1.28144E+00  1.34690E+00  1.48580E+00  1.69512E+00  1.87673E+00  1.91209E+00
   1.74139E+00  1.40490E+00  9.95576E-01  6.67143E-01  5.87276E-01  8.08133E-01  1.16237E+00  1.45696E+00  1.60299E+00  1.58124E+00
   1.34343E+00  9.69294E-01  6.76018E-01  6.62510E-01  9.11714E-01  1.13238E+00  8.05816E-01 -6.64569E-03 -1.47019E-01  1.49290E+00
   4.79300E+00  7.74134E+00  8.36857E+00  6.86264E+00  4.92738E+00  3.50337E+00  2.47158E+00  1.69991E+00  1.37296E+00  1.20255E+00
   1.03441E+00  8.70006E-01  7.61808E-01  7.31230E-01  7.84079E-01  8.69715E-01  9.25068E-01  9.30400E-01  8.99575E-01  8.41736E-01
   7.60198E-01  6.70931E-01  5.95286E-01  5.43362E-01  5.09308E-01  4.83127E-01  4.58611E-01  4.32098E-01  3.97819E-01  3.57529E-01
   3.16465E-01  2.76556E-01  2.37269E-01  1.98010E-01  1.58192E-01  1.17808E-01  7.70136E-02  3.58887E-02 -6.14125E-03 -4.90909E-02
  -9.19117E-02 -1.33876E-01 -1.74779E-01 -2.14733E-01 -2.54375E-01 -2.94719E-01 -3.36415E-01 -3.79028E-01 -4.21887E-01 -4.64796E-01
  -5.07770E-01 -5.50750E-01 -5.93761E-01 -6.36777E-01 -6.79737E-01 -7.22633E-01 -7.65473E-01 -8.08304E-01 -8.51210E-01 -8.94557E-01
  -9.39599E-01 -9.90782E-01 -1.05962E+00 -1.13256E+00 -1.10418E+00 -8.87543E-01 -5.63297E-01 -3.76042E-01 -5.61612E-01 -1.05973E+00
  -1.57625E+00 -1.97411E+00 -2.33178E+00 -2.62889E+00 -2.66599E+00 -2.30893E+00 -1.76095E+00 -1.36204E+00 -1.27177E+00 -1.36976E+00
  -1.50434E+00 -1.64265E+00 -1.79038E+00 -1.90307E+00 -1.95790E+00 -1.93685E+00 -1.87067E+00 -1.84421E+00 -1.93980E+00 -2.14115E+00
  -2.35645E+00 -2.53975E+00 -2.69432E+00 -2.80127E+00 -2.79842E+00 -2.67815E+00 -2.53905E+00 -2.48005E+00 -2.51175E+00 -2.58154E+00
  -2.65252E+00 -2.72514E+00 -2.79205E+00 -2.84682E+00 -2.89534E+00 -2.94048E+00 -2.98344E+00 -3.02484E+00 -3.06497E+00 -3.10403E+00
  -3.14218E+00 -3.17953E+00 -3.21618E+00 -3.25216E+00 -3.28748E+00 -3.32214E+00 -3.35618E+00 -3.38966E+00 -3.42257E+00 -3.45491E+00
  -3.48667E+00 -3.51783E+00 -3.54843E+00 -3.57850E+00 -3.60803E+00 -3.63699E+00 -3.66537E+00 -3.69317E+00 -3.72042E+00 -3.74713E+00
  -3.77328E+00 -3.79885E+00 -3.82382E+00 -3.84821E+00 -3.87205E+00 -3.89533E+00 -3.91802E+00 -3.94011E+00 -3.96159E+00 -3.98249E+00
  -4.00281E+00 -4.02255E+00 -4.04167E+00 -4.06016E+00 -4.07804E+00 -4.09532E+00 -4.11200E+00 -4.12807E+00 -4.14350E+00 -4.15830E+00
  -4.17250E+00 -4.18613E+00 -4.19919E+00 -4.21167E+00 -4.22357E+00 -4.23490E+00 -4.24569E+00 -4.25597E+00 -4.26572E+00 -4.27494E+00
  -4.28363E+00 -4.29182E+00 -4.29953E+00 -4.30678E+00 -4.31354E+00 -4.31983E+00 -4.32564E+00 -4.33101E+00 -4.33596E+00 -4.34049E+00
  -4.34459E+00 -4.34826E+00 -4.35152E+00 -4.35441E+00 -4.35692E+00 -4.35905E+00 -4.36080E+00 -4.36219E+00 -4.36322E+00 -4.36393E+00
  -4.36432E+00 -4.36439E+00 -4.36412E+00 -4.36353E+00 -4.36266E+00 -4.36152E+00 -4.36010E+00 -4.35841E+00 -4.35643E+00 -4.35421E+00
  -4.35175E+00 -4.34908E+00 -4.34618E+00 -4.34304E+00 -4.33969E+00 -4.33614E+00 -4.33240E+00 -4.32848E+00 -4.32435E+00 -4.32002E+00
  -4.31552E+00 -4.31087E+00 -4.30606E+00 -4.30109E+00 -4.29595E+00 -4.29066E+00 -4.28522E+00 -4.27967E+00 -4.27399E+00 -4.26818E+00
  -4.26223E+00 -4.25618E+00 -4.25002E+00 -4.24378E+00 -4.23743E+00 -4.23099E+00 -4.22444E+00 -4.21782E+00 -4.21114E+00 -4.20441E+00
  -4.19760E+00 -4.19073E+00 -4.18379E+00 -4.17682E+00 -4.16983E+00 -4.16280E+00 -4.15574E+00 -4.14864E+00 -4.14152E+00 -4.13440E+00
  -4.12729E+00 -4.12018E+00 -4.11306E+00 -4.10594E+00 -4.09884E+00 -4.09178E+00 -4.08476E+00 -4.07776E+00
 NY background values follow
    -3.623E+00   -3.596E+00   -3.568E+00   -3.541E+00   -3.514E+00   -3.487E+00   -3.460E+00   -3.432E+00   -3.405E+00   -3.378E+00
    -3.351E+00   -3.324E+00   -3.296E+00   -3.269E+00   -3.242E+00   -3.215E+00   -3.188E+00   -3.160E+00   -3.133E+00   -3.106E+00
    -3.079E+00   -3.052E+00   -3.025E+00   -2.998E+00   -2.971E+00   -2.944E+00   -2.916E+00   -2.889E+00   -2.862E+00   -2.835E+00
    -2.808E+00   -2.781E+00   -2.754E+00   -2.727E+00   -2.700E+00   -2.673E+00   -2.646E+00   -2.620E+00   -2.593E+00   -2.566E+00
    -2.539E+00   -2.512E+00   -2.485E+00   -2.458E+00   -2.432E+00   -2.405E+00   -2.378E+00   -2.351E+00   -2.325E+00   -2.298E+00
    -2.271E+00   -2.245E+00   -2.218E+00   -2.192E+00   -2.165E+00   -2.138E+00   -2.112E+00   -2.085E+00   -2.059E+00   -2.032E+00
    -2.006E+00   -1.980E+00   -1.953E+00   -1.927E+00   -1.900E+00   -1.874E+00   -1.848E+00   -1.821E+00   -1.795E+00   -1.769E+00
    -1.742E+00   -1.716E+00   -1.690E+00   -1.664E+00   -1.637E+00   -1.611E+00   -1.585E+00   -1.559E+00   -1.533E+00   -1.507E+00
    -1.480E+00   -1.454E+00   -1.428E+00   -1.402E+00   -1.376E+00   -1.350E+00   -1.324E+00   -1.298E+00   -1.272E+00   -1.246E+00
    -1.220E+00   -1.194E+00   -1.168E+00   -1.142E+00   -1.116E+00   -1.090E+00   -1.064E+00   -1.038E+00   -1.013E+00   -9.867E-01
    -9.609E-01   -9.351E-01   -9.093E-01   -8.835E-01   -8.578E-01   -8.321E-01   -8.064E-01   -7.808E-01   -7.552E-01   -7.296E-01
    -7.040E-01   -6.785E-01   -6.530E-01   -6.275E-01   -6.021E-01   -5.767E-01   -5.514E-01   -5.261E-01   -5.008E-01   -4.756E-01
    -4.504E-01   -4.252E-01   -4.001E-01   -3.751E-01   -3.501E-01   -3.251E-01   -3.002E-01   -2.753E-01   -2.505E-01   -2.257E-01
    -2.010E-01   -1.764E-01   -1.518E-01   -1.272E-01   -1.027E-01   -7.830E-02   -5.392E-02   -2.961E-02   -5.362E-03    1.882E-02
     4.292E-02    6.695E-02    9.089E-02    1.147E-01    1.385E-01    1.622E-01    1.858E-01    2.092E-01    2.326E-01    2.558E-01
     2.789E-01    3.019E-01    3.248E-01    3.476E-01    3.702E-01    3.927E-01    4.150E-01    4.372E-01    4.592E-01    4.811E-01
     5.028E-01    5.244E-01    5.458E-01    5.670E-01    5.880E-01    6.089E-01    6.295E-01    6.500E-01    6.703E-01    6.904E-01
     7.102E-01    7.299E-01    7.494E-01    7.686E-01    7.876E-01    8.064E-01    8.250E-01    8.433E-01    8.614E-01    8.793E-01
     8.969E-01    9.142E-01    9.313E-01    9.482E-01    9.647E-01    9.810E-01    9.971E-01    1.013E+00    1.028E+00    1.043E+00
     1.058E+00    1.073E+00    1.087E+00    1.101E+00    1.115E+00    1.128E+00    1.141E+00    1.153E+00    1.166E+00    1.177E+00
     1.189E+00    1.200E+00    1.211E+00    1.221E+00    1.231E+00    1.241E+00    1.250E+00    1.259E+00    1.268E+00    1.276E+00
     1.283E+00    1.290E+00    1.297E+00    1.304E+00    1.309E+00    1.315E+00    1.320E+00    1.325E+00    1.329E+00    1.332E+00
     1.335E+00    1.338E+00    1.340E+00    1.342E+00    1.343E+00    1.344E+00    1.344E+00    1.344E+00    1.343E+00    1.342E+00
     1.340E+00    1.338E+00    1.335E+00    1.331E+00    1.327E+00    1.323E+00    1.318E+00    1.312E+00    1.306E+00    1.300E+00
     1.293E+00    1.285E+00    1.277E+00    1.268E+00    1.258E+00    1.248E+00    1.238E+00    1.227E+00    1.215E+00    1.203E+00
     1.191E+00    1.177E+00    1.163E+00    1.149E+00    1.134E+00    1.118E+00    1.102E+00    1.085E+00    1.068E+00    1.050E+00
     1.032E+00    1.012E+00    9.928E-01    9.725E-01    9.516E-01    9.301E-01    9.079E-01    8.852E-01    8.619E-01    8.379E-01
     8.134E-01    7.882E-01    7.624E-01    7.360E-01    7.090E-01    6.814E-01    6.532E-01    6.244E-01    5.951E-01    5.652E-01
     5.348E-01    5.038E-01    4.723E-01    4.403E-01    4.077E-01    3.747E-01    3.411E-01    3.071E-01    2.726E-01    2.376E-01
     2.022E-01    1.663E-01    1.300E-01    9.322E-02    5.604E-02    1.844E-02   -1.956E-02   -5.796E-02   -9.674E-02   -1.359E-01
    -1.754E-01   -2.153E-01   -2.556E-01   -2.962E-01   -3.371E-01   -3.783E-01   -4.199E-01   -4.618E-01   -5.039E-01   -5.464E-01
    -5.891E-01   -6.321E-01   -6.754E-01   -7.189E-01   -7.627E-01   -8.067E-01   -8.509E-01   -8.953E-01   -9.400E-01   -9.848E-01
    -1.030E+00   -1.075E+00   -1.120E+00   -1.166E+00   -1.211E+00   -1.257E+00   -1.303E+00   -1.349E+00   -1.394E+00   -1.440E+00
    -1.486E+00   -1.532E+00   -1.578E+00   -1.624E+00   -1.670E+00   -1.716E+00   -1.762E+00   -1.808E+00   -1.853E+00   -1.899E+00
    -1.945E+00   -1.990E+00   -2.035E+00   -2.080E+00   -2.125E+00   -2.170E+00   -2.214E+00   -2.259E+00   -2.303E+00   -2.347E+00
    -2.390E+00   -2.434E+00   -2.477E+00   -2.519E+00   -2.562E+00   -2.604E+00   -2.646E+00   -2.687E+00   -2.728E+00   -2.769E+00
    -2.809E+00   -2.849E+00   -2.888E+00   -2.927E+00   -2.965E+00   -3.004E+00   -3.041E+00   -3.078E+00   -3.115E+00   -3.151E+00
    -3.187E+00   -3.222E+00   -3.257E+00   -3.292E+00   -3.325E+00   -3.359E+00   -3.392E+00   -3.424E+00   -3.456E+00   -3.488E+00
    -3.518E+00   -3.549E+00   -3.579E+00   -3.608E+00   -3.637E+00   -3.665E+00   -3.693E+00   -3.720E+00   -3.747E+00   -3.773E+00
    -3.799E+00   -3.824E+00   -3.849E+00   -3.873E+00   -3.896E+00   -3.919E+00   -3.941E+00   -3.963E+00   -3.984E+00   -4.004E+00
    -4.024E+00   -4.044E+00   -4.063E+00   -4.081E+00   -4.098E+00   -4.115E+00   -4.132E+00   -4.147E+00   -4.163E+00   -4.177E+00
    -4.191E+00   -4.204E+00   -4.217E+00   -4.229E+00   -4.241E+00   -4.252E+00   -4.263E+00   -4.273E+00   -4.282E+00   -4.291E+00
    -4.300E+00   -4.308E+00   -4.315E+00   -4.322E+00   -4.329E+00   -4.335E+00   -4.341E+00   -4.346E+00   -4.350E+00   -4.355E+00
    -4.359E+00   -4.362E+00   -4.365E+00   -4.368E+00   -4.370E+00   -4.372E+00   -4.374E+00   -4.375E+00   -4.376E+00   -4.376E+00
    -4.377E+00   -4.377E+00   -4.376E+00   -4.375E+00   -4.374E+00   -4.373E+00   -4.371E+00   -4.370E+00   -4.367E+00   -4.365E+00
    -4.363E+00   -4.360E+00   -4.357E+00   -4.353E+00   -4.350E+00   -4.346E+00   -4.342E+00   -4.338E+00   -4.334E+00   -4.330E+00
    -4.325E+00   -4.320E+00   -4.315E+00   -4.310E+00   -4.305E+00   -4.299E+00   -4.294E+00   -4.288E+00   -4.282E+00   -4.276E+00
    -4.270E+00   -4.264E+00   -4.258E+00   -4.252E+00   -4.245E+00   -4.239E+00   -4.232E+00   -4.225E+00   -4.218E+00   -4.212E+00
    -4.205E+00   -4.198E+00   -4.191E+00   -4.184E+00   -4.177E+00   -4.169E+00   -4.162E+00   -4.155E+00   -4.148E+00   -4.141E+00
    -4.133E+00   -4.126E+00   -4.119E+00   -4.112E+00   -4.105E+00   -4.098E+00   -4.091E+00   -4.083E+00
 Ala      Conc. = 3.15E+01
