 LCModel (Version 6.3-1L) Copyright: S.W. Provencher.          Ref.: Magn. Reson. Med. 30:672-679 (1993).                
 Slice#3 Row#11 Col#11  K_02_press_1_raw_act
 36 lines in following concentration table = NCONC+1
    Conc.  %SD /Cr+PCr  Metabolite                                         
  101.515 128% 6.1E-02 Ala                                                 
    3.927 999% 2.4E-03 Asp                                                 
    0.000 999%   0.000 Cr                                                  
 1.66E+03   4%   1.000 PCr                                                 
    0.000 999%   0.000 GABA                                                
    0.000 999%   0.000 Glc                                                 
  822.316  38%   0.494 Gln                                                 
 1.79E+03  20%   1.078 Glu                                                 
  446.368   5%   0.268 GPC                                                 
    0.000 999%   0.000 PCh                                                 
  292.835  27%   0.176 GSH                                                 
 1.14E+03  26%   0.684 Ins                                                 
    0.000 999%   0.000 Lac                                                 
 2.06E+03   4%   1.238 NAA                                                 
    0.000 999%   0.000 NAAG                                                
   21.453 131% 1.3E-02 Scyllo                                              
    0.000 999%   0.000 Tau                                                 
 1.27E+03  10%   0.764 -CrCH2                                              
  446.368   5%   0.268 GPC+PCh                                             
 2.06E+03   4%   1.238 NAA+NAAG                                            
 1.66E+03   4%   1.000 Cr+PCr                                              
 2.62E+03  21%   1.572 Glu+Gln                                             
 1.04E+04   9%   6.269 Lip13a                                              
    0.000 999%   0.000 Lip13b                                              
 4.55E+03  12%   2.733 Lip09                                               
    0.000 999%   0.000 MM09                                                
 2.49E+03  20%   1.498 Lip20                                               
 2.55E+03  22%   1.533 MM20                                                
    0.000 999%   0.000 MM12                                                
    0.000 999%   0.000 MM14                                                
    0.000 999%   0.000 MM17                                                
 1.04E+04   9%   6.269 Lip13a+Lip13b                                       
 1.04E+04   9%   6.269 MM14+Lip13a+Lip13b+MM12                             
 4.55E+03  12%   2.733 MM09+Lip09                                          
 5.04E+03   8%   3.031 MM20+Lip20                                          
   6 lines in following misc. output table
  FWHM = 0.069 ppm    S/N =  12                                            
  Data shift = 0.038 ppm                                                   
  Ph:  34 deg      11.1 deg/ppm                                            
  alphaB,S = 4.1E-01,   3.6E+02                                            
   14 spline knots.   Ns = 9(1)                                            
  (15) 2 infls.   ( 9) 1 extrs.                                            
  498 points on ppm-axis = NY
      4.000000     3.992357     3.984714     3.977070     3.969427     3.961784     3.954141     3.946497     3.938854     3.931211
      3.923568     3.915925     3.908281     3.900638     3.892995     3.885352     3.877708     3.870065     3.862422     3.854779
      3.847136     3.839492     3.831849     3.824206     3.816563     3.808919     3.801276     3.793633     3.785990     3.778347
      3.770703     3.763060     3.755417     3.747774     3.740130     3.732487     3.724844     3.717201     3.709558     3.701914
      3.694271     3.686628     3.678985     3.671341     3.663698     3.656055     3.648412     3.640769     3.633125     3.625482
      3.617839     3.610196     3.602552     3.594909     3.587266     3.579623     3.571980     3.564336     3.556693     3.549050
      3.541407     3.533763     3.526120     3.518477     3.510834     3.503191     3.495547     3.487904     3.480261     3.472618
      3.464974     3.457331     3.449688     3.442045     3.434402     3.426758     3.419115     3.411472     3.403829     3.396185
      3.388542     3.380899     3.373256     3.365613     3.357969     3.350326     3.342683     3.335040     3.327396     3.319753
      3.312110     3.304467     3.296824     3.289180     3.281537     3.273894     3.266251     3.258607     3.250964     3.243321
      3.235678     3.228034     3.220391     3.212748     3.205105     3.197462     3.189818     3.182175     3.174532     3.166889
      3.159245     3.151602     3.143959     3.136316     3.128673     3.121029     3.113386     3.105743     3.098100     3.090456
      3.082813     3.075170     3.067527     3.059884     3.052240     3.044597     3.036954     3.029311     3.021667     3.014024
      3.006381     2.998738     2.991095     2.983451     2.975808     2.968165     2.960522     2.952878     2.945235     2.937592
      2.929949     2.922306     2.914662     2.907019     2.899376     2.891733     2.884089     2.876446     2.868803     2.861160
      2.853517     2.845873     2.838230     2.830587     2.822944     2.815300     2.807657     2.800014     2.792371     2.784728
      2.777084     2.769441     2.761798     2.754155     2.746511     2.738868     2.731225     2.723582     2.715939     2.708295
      2.700652     2.693009     2.685366     2.677722     2.670079     2.662436     2.654793     2.647150     2.639506     2.631863
      2.624220     2.616577     2.608933     2.601290     2.593647     2.586004     2.578361     2.570717     2.563074     2.555431
      2.547788     2.540144     2.532501     2.524858     2.517215     2.509572     2.501928     2.494285     2.486642     2.478999
      2.471355     2.463712     2.456069     2.448426     2.440783     2.433139     2.425496     2.417853     2.410210     2.402566
      2.394923     2.387280     2.379637     2.371994     2.364350     2.356707     2.349064     2.341421     2.333777     2.326134
      2.318491     2.310848     2.303205     2.295561     2.287918     2.280275     2.272632     2.264988     2.257345     2.249702
      2.242059     2.234416     2.226772     2.219129     2.211486     2.203843     2.196199     2.188556     2.180913     2.173270
      2.165627     2.157983     2.150340     2.142697     2.135054     2.127410     2.119767     2.112124     2.104481     2.096838
      2.089194     2.081551     2.073908     2.066265     2.058621     2.050978     2.043335     2.035692     2.028049     2.020405
      2.012762     2.005119     1.997476     1.989833     1.982190     1.974546     1.966903     1.959260     1.951617     1.943974
      1.936331     1.928688     1.921045     1.913402     1.905759     1.898115     1.890472     1.882829     1.875186     1.867543
      1.859900     1.852257     1.844614     1.836971     1.829327     1.821684     1.814041     1.806398     1.798755     1.791112
      1.783469     1.775826     1.768183     1.760540     1.752896     1.745253     1.737610     1.729967     1.722324     1.714681
      1.707038     1.699395     1.691752     1.684108     1.676465     1.668822     1.661179     1.653536     1.645893     1.638250
      1.630607     1.622964     1.615321     1.607677     1.600034     1.592391     1.584748     1.577105     1.569462     1.561819
      1.554176     1.546533     1.538890     1.531246     1.523603     1.515960     1.508317     1.500674     1.493031     1.485388
      1.477745     1.470102     1.462458     1.454815     1.447172     1.439529     1.431886     1.424243     1.416600     1.408957
      1.401314     1.393671     1.386027     1.378384     1.370741     1.363098     1.355455     1.347812     1.340169     1.332526
      1.324883     1.317240     1.309596     1.301953     1.294310     1.286667     1.279024     1.271381     1.263738     1.256095
      1.248452     1.240808     1.233165     1.225522     1.217879     1.210236     1.202593     1.194950     1.187307     1.179664
      1.172021     1.164377     1.156734     1.149091     1.141448     1.133805     1.126162     1.118519     1.110876     1.103233
      1.095590     1.087946     1.080303     1.072660     1.065017     1.057374     1.049731     1.042088     1.034445     1.026802
      1.019158     1.011515     1.003872     0.996229     0.988586     0.980943     0.973300     0.965657     0.958014     0.950371
      0.942727     0.935084     0.927441     0.919798     0.912155     0.904512     0.896869     0.889226     0.881583     0.873940
      0.866296     0.858653     0.851010     0.843367     0.835724     0.828081     0.820438     0.812795     0.805152     0.797508
      0.789865     0.782222     0.774579     0.766936     0.759293     0.751650     0.744007     0.736364     0.728721     0.721077
      0.713434     0.705791     0.698148     0.690505     0.682862     0.675219     0.667576     0.659933     0.652290     0.644646
      0.637003     0.629360     0.621717     0.614074     0.606431     0.598788     0.591145     0.583502     0.575858     0.568215
      0.560572     0.552929     0.545286     0.537643     0.530000     0.522357     0.514714     0.507071     0.499427     0.491784
      0.484141     0.476498     0.468855     0.461212     0.453569     0.445925     0.438282     0.430639     0.422996     0.415353
      0.407710     0.400067     0.392424     0.384780     0.377137     0.369494     0.361851     0.354208     0.346565     0.338922
      0.331278     0.323635     0.315992     0.308349     0.300706     0.293063     0.285420     0.277777     0.270133     0.262490
      0.254847     0.247204     0.239561     0.231918     0.224275     0.216631     0.208988     0.201345
 NY phased data points follow
   6.02637E+00  7.48416E+00  8.81962E+00  4.97367E+00  1.02294E+01  8.37355E+00  8.16446E+00  1.14211E+01  1.26859E+01  1.69941E+01
   1.65218E+01  1.91454E+01  1.89196E+01  2.12881E+01  1.92188E+01  2.03456E+01  2.01823E+01  1.88205E+01  1.81341E+01  1.66954E+01
   1.71883E+01  1.57151E+01  1.31558E+01  1.17454E+01  1.02293E+01  1.36547E+01  9.66928E+00  1.13228E+01  1.13569E+01  1.42489E+01
   1.38398E+01  1.37485E+01  1.10480E+01  1.32803E+01  1.48261E+01  1.56879E+01  1.57658E+01  1.49345E+01  1.32384E+01  1.31770E+01
   1.08823E+01  1.29740E+01  1.17436E+01  1.30425E+01  1.46809E+01  1.49759E+01  1.66037E+01  1.68086E+01  1.61683E+01  1.92329E+01
   1.59441E+01  1.40785E+01  1.71080E+01  1.58223E+01  1.71584E+01  1.34998E+01  1.51494E+01  1.25149E+01  1.16432E+01  1.23977E+01
   6.47721E+00  9.87538E+00  9.82573E+00  7.67316E+00  4.35521E+00  5.44575E+00  4.41773E-01  3.44211E+00  2.81946E+00  6.04879E-01
   5.17535E+00  3.26565E+00  1.28463E+00  3.31871E+00  2.73766E+00  8.44886E-01  2.80846E+00  3.85983E+00  1.85479E+00  3.01040E+00
   3.98862E+00  4.54804E-01  2.17320E+00  2.33165E+00  2.46394E+00  1.81798E+00  3.78011E+00 -1.52666E+00  1.64345E+00  9.17268E-01
  -4.96056E-02  2.20662E+00  3.48711E+00  5.04726E+00  5.67132E+00  4.25980E+00  3.92409E+00  5.49049E+00  8.47497E+00  8.95644E+00
   1.82083E+01  2.20707E+01  2.84358E+01  3.02505E+01  3.27859E+01  2.86553E+01  3.00496E+01  2.53637E+01  2.12038E+01  1.96640E+01
   1.70480E+01  1.17778E+01  9.82406E+00  5.73049E+00  6.02218E+00  5.20923E+00  7.21424E+00  4.31683E+00  1.89630E+00  5.11886E+00
   6.43535E+00  6.50539E+00  7.45436E+00  1.30357E+01  2.29963E+01  2.97562E+01  3.02676E+01  3.87192E+01  4.24956E+01  4.05731E+01
   4.03947E+01  3.28633E+01  3.24544E+01  2.58093E+01  2.54697E+01  1.59804E+01  1.52274E+01  1.06767E+01  1.03802E+01  1.00930E+01
   9.13645E+00  6.33104E+00  6.17828E+00  6.14520E+00  3.36907E+00  1.26451E+00  2.95434E+00  2.57537E+00  3.71523E+00  3.00919E+00
   1.63172E+00  3.00571E+00 -4.55434E-02  1.77928E+00 -1.28600E-01  3.07805E-01 -2.86470E+00 -1.65147E+00 -2.49969E+00 -4.18719E+00
  -2.19359E+00 -2.62813E+00 -4.55942E-01 -4.66385E-01 -2.49540E+00 -1.65927E+00 -6.56607E+00 -7.79788E+00 -5.59704E+00 -6.12566E+00
  -7.73299E+00 -9.75231E+00 -1.29058E+01 -1.37703E+01 -1.28601E+01 -1.56855E+01 -1.80545E+01 -1.57280E+01 -1.80346E+01 -1.31289E+01
  -1.44058E+01 -1.40307E+01 -1.34346E+01 -1.07783E+01 -1.14567E+01 -1.43201E+01 -1.20294E+01 -9.67672E+00 -1.29566E+01 -9.16895E+00
  -1.01253E+01 -1.06148E+01 -7.57119E+00 -8.39034E+00 -1.28043E+01 -6.85804E+00 -1.24920E+01 -1.17967E+01 -7.69140E+00 -9.38557E+00
  -8.11128E+00 -6.58527E+00 -5.90034E+00 -5.43811E+00 -5.91528E+00 -5.74846E+00 -6.08310E+00 -5.00630E+00 -5.43088E+00 -7.76344E+00
  -8.35598E+00 -4.23489E+00  1.06638E+00  7.48213E-02  8.78575E-01  1.66855E+00  2.73195E+00  1.09471E+00  1.80630E+00 -1.60690E+00
  -1.76722E+00 -4.19246E+00 -4.76043E+00 -2.46300E+00 -4.76668E+00 -3.99848E+00 -2.18826E+00 -1.95930E-01 -2.12282E+00 -7.15112E-01
   7.78365E-01 -1.01323E+00  3.90129E+00  1.04997E+00  7.04423E-01  2.63007E+00  1.84559E+00  3.43122E+00  2.69989E-01 -2.48934E+00
   1.25527E+00 -1.77464E+00 -2.32417E-01  7.98962E-01  1.68652E+00  1.31203E+00  3.19040E+00  5.61536E+00  6.00874E+00  1.00879E+01
   6.73047E+00  9.27448E+00  1.07200E+01  1.25244E+01  1.93721E+01  2.74771E+01  3.55638E+01  4.50340E+01  5.32007E+01  5.50828E+01
   6.05955E+01  5.72332E+01  5.64220E+01  4.86170E+01  3.99791E+01  2.85779E+01  1.77193E+01  1.45218E+01  7.64380E+00  4.55896E+00
  -3.36721E+00 -2.13724E+00 -2.13599E+00 -3.29533E+00 -3.33823E+00 -2.85741E+00 -5.78936E+00 -3.45373E+00 -4.60112E+00 -5.68435E+00
  -6.95582E+00 -6.11106E+00 -6.36153E+00 -1.16553E+01 -7.17466E+00 -8.37159E+00 -7.79147E+00 -8.39322E+00 -1.07900E+01 -7.36929E+00
  -6.43831E+00 -7.08840E+00 -6.71781E+00 -7.44261E+00 -8.60975E+00 -6.13958E+00 -1.01508E+01 -9.47357E+00 -7.60026E+00 -9.48662E+00
  -1.09523E+01 -9.46899E+00 -6.91046E+00 -9.18085E+00 -1.22406E+01 -7.87932E+00 -6.78027E+00 -8.81125E+00 -8.01548E+00 -6.55512E+00
  -3.04664E+00 -7.73533E+00 -4.48983E+00 -5.06437E+00 -5.20183E+00 -5.36852E+00 -8.01582E+00 -5.17029E+00 -9.63085E+00 -8.13778E+00
  -9.00261E+00 -7.89388E+00 -5.78145E+00 -4.40926E+00 -5.11172E+00 -7.41720E+00 -1.00702E+00 -6.13021E+00 -3.56406E+00 -1.45137E+00
  -5.86800E-02 -4.70749E-01  2.19991E+00  3.41531E+00  1.88141E+00  5.07916E+00  7.52240E+00  9.60727E+00  1.26871E+01  1.18182E+01
   1.61841E+01  1.36238E+01  1.41815E+01  1.86703E+01  1.84657E+01  2.13973E+01  1.99026E+01  2.31357E+01  2.12213E+01  2.08204E+01
   2.67839E+01  2.48670E+01  2.56759E+01  2.56201E+01  2.73233E+01  2.52196E+01  2.52194E+01  2.55529E+01  2.24969E+01  2.25073E+01
   2.27785E+01  2.40556E+01  2.54450E+01  2.62883E+01  2.38740E+01  2.32183E+01  2.55563E+01  2.48138E+01  2.18849E+01  2.01023E+01
   2.04485E+01  1.80804E+01  2.02147E+01  1.70055E+01  1.73630E+01  2.18409E+01  1.55561E+01  1.88613E+01  1.78863E+01  1.43195E+01
   1.46882E+01  1.53222E+01  1.97719E+01  1.77954E+01  1.92002E+01  1.73606E+01  1.74301E+01  1.82845E+01  2.05643E+01  1.47959E+01
   1.57729E+01  1.75701E+01  1.53181E+01  1.80083E+01  1.82020E+01  1.64635E+01  1.64648E+01  1.76908E+01  1.48136E+01  1.61380E+01
   1.78466E+01  1.52126E+01  1.98655E+01  1.82519E+01  1.81887E+01  1.61102E+01  1.91583E+01  1.75749E+01  1.75111E+01  1.38940E+01
   1.46516E+01  1.40057E+01  1.43220E+01  1.39182E+01  1.15758E+01  1.26714E+01  9.88384E+00  9.51174E+00  1.13947E+01  9.23673E+00
   1.16763E+01  9.52699E+00  8.93937E+00  7.58127E+00  1.21364E+01  9.72123E+00  9.76550E+00  7.45603E+00  8.33589E+00  7.13050E+00
   8.31503E+00  8.85320E+00  3.08560E+00  6.86681E+00  6.86359E+00  4.59847E+00  6.30209E+00  5.98316E+00  7.02556E+00  7.32273E+00
   4.43887E+00  5.49176E+00  7.72983E+00  6.14190E+00  4.42182E+00  6.41960E+00  4.80314E+00  4.32855E+00  6.41613E+00  5.37020E+00
   5.97625E+00  3.75015E+00  3.08278E+00  4.60207E+00  4.20163E+00  5.61600E+00  5.61526E+00  4.00850E+00  3.44972E+00  6.11644E+00
   3.16780E+00  9.85091E-01  5.50402E+00  1.96943E+00  3.91498E+00  3.01839E+00  6.71961E-01  3.73715E+00  3.50078E+00  2.22547E+00
   5.38002E+00  3.50058E+00  3.86347E+00  4.61805E+00  8.26541E-01  2.60691E+00  3.60856E+00  2.82416E+00  4.49487E+00  5.20473E+00
   3.97108E+00  5.29575E+00  2.45095E+00  1.39773E+00  2.74902E+00  2.40577E+00  3.67417E+00  3.23585E+00  3.39066E+00  1.54673E+00
   4.15366E+00  3.40508E+00  8.70121E-01  4.41714E+00  5.31224E+00  6.45294E-01 -9.41417E-01  9.35045E-01
 NY points of the fit to the data follow
   1.17558E+01  1.05925E+01  9.51469E+00  8.53425E+00  7.86988E+00  7.83032E+00  8.65369E+00  1.03446E+01  1.26339E+01  1.51541E+01
   1.75436E+01  1.95017E+01  2.08272E+01  2.14162E+01  2.12949E+01  2.06293E+01  1.96723E+01  1.86474E+01  1.76283E+01  1.63628E+01
   1.46380E+01  1.31680E+01  1.24149E+01  1.20062E+01  1.18111E+01  1.18904E+01  1.22940E+01  1.29923E+01  1.38986E+01  1.48764E+01
   1.57269E+01  1.62739E+01  1.64192E+01  1.61196E+01  1.54340E+01  1.45030E+01  1.34848E+01  1.25059E+01  1.17170E+01  1.11814E+01
   1.09511E+01  1.11473E+01  1.17534E+01  1.26320E+01  1.36048E+01  1.44837E+01  1.50989E+01  1.52997E+01  1.50553E+01  1.44164E+01
   1.34748E+01  1.24033E+01  1.13779E+01  1.04785E+01  9.76462E+00  9.25745E+00  8.89885E+00  8.63272E+00  8.49685E+00  8.46338E+00
   8.37686E+00  8.14097E+00  7.79244E+00  7.40253E+00  7.02119E+00  6.69156E+00  6.44882E+00  6.30872E+00  6.24540E+00  6.21494E+00
   6.20458E+00  6.20131E+00  6.17656E+00  6.11115E+00  5.98185E+00  5.78792E+00  5.54343E+00  5.27331E+00  4.99817E+00  4.71964E+00
   4.42956E+00  4.11141E+00  3.75062E+00  3.35060E+00  2.90509E+00  2.43133E+00  1.96679E+00  1.56053E+00  1.25343E+00  1.06170E+00
   9.85625E-01  1.00529E+00  1.08531E+00  1.19592E+00  1.39831E+00  2.03574E+00  3.36727E+00  5.52570E+00  8.70423E+00  1.29068E+01
   1.78000E+01  2.27714E+01  2.71244E+01  3.02743E+01  3.18523E+01  3.17443E+01  3.00720E+01  2.71544E+01  2.34350E+01  1.93805E+01
   1.53813E+01  1.16643E+01  8.28121E+00  5.25071E+00  2.82513E+00  1.49577E+00  1.03137E+00  8.71895E-01  9.43407E-01  1.55764E+00
   3.10247E+00  5.69758E+00  9.55445E+00  1.47547E+01  2.09794E+01  2.75199E+01  3.34937E+01  3.81169E+01  4.08509E+01  4.14489E+01
   3.99611E+01  3.66983E+01  3.21731E+01  2.70108E+01  2.17753E+01  1.68555E+01  1.24180E+01  8.50475E+00  5.32321E+00  3.40111E+00
   2.74982E+00  2.57776E+00  2.53208E+00  2.51849E+00  2.51564E+00  2.51297E+00  2.47585E+00  2.38708E+00  2.25283E+00  2.07998E+00
   1.88626E+00  1.68567E+00  1.46382E+00  1.22586E+00  9.47826E-01  6.15084E-01  2.37929E-01 -1.77283E-01 -5.99342E-01 -9.96873E-01
  -1.36222E+00 -1.71416E+00 -2.08109E+00 -2.48627E+00 -2.94562E+00 -3.47038E+00 -4.06727E+00 -4.74003E+00 -5.45879E+00 -6.18244E+00
  -6.89119E+00 -7.58990E+00 -8.29166E+00 -8.92949E+00 -9.45979E+00 -9.86166E+00 -1.01455E+01 -1.03837E+01 -1.06072E+01 -1.08046E+01
  -1.09779E+01 -1.11231E+01 -1.12046E+01 -1.11680E+01 -1.09692E+01 -1.06069E+01 -1.01238E+01 -9.59059E+00 -9.02615E+00 -8.48416E+00
  -8.04324E+00 -7.77370E+00 -7.71043E+00 -7.78617E+00 -7.90001E+00 -7.94559E+00 -7.85142E+00 -7.58825E+00 -7.15467E+00 -6.55435E+00
  -5.88934E+00 -5.33718E+00 -5.03191E+00 -5.09757E+00 -5.62527E+00 -6.56169E+00 -7.72478E+00 -8.84856E+00 -9.65611E+00 -9.99812E+00
  -9.70445E+00 -8.72749E+00 -7.20769E+00 -5.46038E+00 -3.85850E+00 -2.69907E+00 -2.17323E+00 -2.35969E+00 -3.17277E+00 -4.37864E+00
  -5.66070E+00 -6.72182E+00 -7.26931E+00 -7.23227E+00 -6.70204E+00 -5.77804E+00 -4.61275E+00 -3.33145E+00 -2.06972E+00 -1.04346E+00
  -2.79355E-01  2.98456E-01  7.62356E-01  1.09601E+00  1.26549E+00  1.36219E+00  1.47829E+00  1.57245E+00  1.59416E+00  1.56768E+00
   1.55317E+00  1.61934E+00  1.80290E+00  2.12297E+00  2.62341E+00  3.28990E+00  4.03352E+00  4.79469E+00  5.59146E+00  6.41443E+00
   7.37464E+00  9.16444E+00  1.20484E+01  1.61366E+01  2.17587E+01  2.89352E+01  3.70739E+01  4.50799E+01  5.17802E+01  5.62598E+01
   5.79762E+01  5.67878E+01  5.29321E+01  4.69631E+01  3.96984E+01  3.19930E+01  2.45008E+01  1.75663E+01  1.12241E+01  5.47848E+00
   8.43815E-01 -1.66753E+00 -2.81587E+00 -3.59771E+00 -4.20970E+00 -4.70797E+00 -5.13350E+00 -5.53710E+00 -5.91952E+00 -6.27735E+00
  -6.61255E+00 -6.92407E+00 -7.21189E+00 -7.48109E+00 -7.72765E+00 -7.93972E+00 -8.11459E+00 -8.25957E+00 -8.38023E+00 -8.47904E+00
  -8.55733E+00 -8.61854E+00 -8.66771E+00 -8.70449E+00 -8.72694E+00 -8.73500E+00 -8.72892E+00 -8.70920E+00 -8.67610E+00 -8.63034E+00
  -8.57257E+00 -8.50278E+00 -8.42091E+00 -8.32755E+00 -8.22274E+00 -8.10632E+00 -7.97777E+00 -7.83671E+00 -7.68246E+00 -7.51441E+00
  -7.33153E+00 -7.13281E+00 -6.91681E+00 -6.68212E+00 -6.42663E+00 -6.14778E+00 -5.84168E+00 -5.50153E+00 -5.11633E+00 -4.68846E+00
  -4.22366E+00 -3.72695E+00 -3.21406E+00 -2.70974E+00 -2.23779E+00 -1.81203E+00 -1.42054E+00 -1.03571E+00 -6.26625E-01 -1.51244E-01
   4.34846E-01  1.16369E+00  2.04538E+00  3.06726E+00  4.20182E+00  5.41567E+00  6.68146E+00  7.98424E+00  9.31167E+00  1.06278E+01
   1.19154E+01  1.31829E+01  1.44367E+01  1.56740E+01  1.68841E+01  1.80598E+01  1.92170E+01  2.03579E+01  2.14563E+01  2.24910E+01
   2.34460E+01  2.43072E+01  2.50628E+01  2.57029E+01  2.62198E+01  2.66084E+01  2.68659E+01  2.69922E+01  2.69900E+01  2.68640E+01
   2.66216E+01  2.62721E+01  2.58268E+01  2.52981E+01  2.46997E+01  2.40458E+01  2.33510E+01  2.26297E+01  2.18960E+01  2.11631E+01
   2.04434E+01  1.97480E+01  1.90869E+01  1.84687E+01  1.79005E+01  1.73879E+01  1.69354E+01  1.65458E+01  1.62209E+01  1.59611E+01
   1.57660E+01  1.56337E+01  1.55617E+01  1.55465E+01  1.55839E+01  1.56688E+01  1.57958E+01  1.59583E+01  1.61499E+01  1.63634E+01
   1.65916E+01  1.68268E+01  1.70616E+01  1.72883E+01  1.74997E+01  1.76888E+01  1.78494E+01  1.79754E+01  1.80620E+01  1.81047E+01
   1.81004E+01  1.80468E+01  1.79427E+01  1.77877E+01  1.75828E+01  1.73294E+01  1.70303E+01  1.66887E+01  1.63086E+01  1.58944E+01
   1.54510E+01  1.49832E+01  1.44964E+01  1.39956E+01  1.34856E+01  1.29711E+01  1.24566E+01  1.19458E+01  1.14426E+01  1.09497E+01
   1.04700E+01  1.00055E+01  9.55804E+00  9.12883E+00  8.71896E+00  8.32889E+00  7.95904E+00  7.60931E+00  7.27967E+00  6.96967E+00
   6.67892E+00  6.40668E+00  6.15234E+00  5.91503E+00  5.69409E+00  5.48860E+00  5.29784E+00  5.12085E+00  4.95694E+00  4.80522E+00
   4.66507E+00  4.53566E+00  4.41639E+00  4.30647E+00  4.20539E+00  4.11247E+00  4.02729E+00  3.94919E+00  3.87780E+00  3.81252E+00
   3.75305E+00  3.69889E+00  3.64979E+00  3.60528E+00  3.56515E+00  3.52901E+00  3.49675E+00  3.46802E+00  3.44271E+00  3.42048E+00
   3.40125E+00  3.38474E+00  3.37092E+00  3.35952E+00  3.35051E+00  3.34362E+00  3.33885E+00  3.33597E+00  3.33503E+00  3.33580E+00
   3.33830E+00  3.34231E+00  3.34788E+00  3.35484E+00  3.36324E+00  3.37291E+00  3.38388E+00  3.39598E+00  3.40929E+00  3.42367E+00
   3.43918E+00  3.45567E+00  3.47320E+00  3.49161E+00  3.51103E+00  3.53131E+00  3.55254E+00  3.57456E+00  3.59747E+00  3.62113E+00
   3.64567E+00  3.67096E+00  3.69709E+00  3.72391E+00  3.75153E+00  3.77985E+00  3.80898E+00  3.83880E+00
 NY background values follow
     8.803E+00    8.736E+00    8.669E+00    8.601E+00    8.534E+00    8.467E+00    8.400E+00    8.332E+00    8.265E+00    8.197E+00
     8.130E+00    8.062E+00    7.994E+00    7.926E+00    7.858E+00    7.790E+00    7.721E+00    7.653E+00    7.584E+00    7.515E+00
     7.445E+00    7.376E+00    7.306E+00    7.235E+00    7.165E+00    7.094E+00    7.023E+00    6.951E+00    6.879E+00    6.807E+00
     6.734E+00    6.661E+00    6.587E+00    6.513E+00    6.438E+00    6.363E+00    6.288E+00    6.211E+00    6.135E+00    6.058E+00
     5.980E+00    5.902E+00    5.823E+00    5.743E+00    5.663E+00    5.582E+00    5.501E+00    5.419E+00    5.336E+00    5.252E+00
     5.168E+00    5.084E+00    4.998E+00    4.913E+00    4.826E+00    4.739E+00    4.652E+00    4.563E+00    4.475E+00    4.385E+00
     4.296E+00    4.205E+00    4.114E+00    4.023E+00    3.931E+00    3.839E+00    3.746E+00    3.652E+00    3.559E+00    3.464E+00
     3.370E+00    3.275E+00    3.179E+00    3.083E+00    2.987E+00    2.890E+00    2.793E+00    2.695E+00    2.597E+00    2.499E+00
     2.400E+00    2.301E+00    2.201E+00    2.102E+00    2.002E+00    1.901E+00    1.801E+00    1.700E+00    1.598E+00    1.497E+00
     1.395E+00    1.293E+00    1.190E+00    1.088E+00    9.850E-01    8.819E-01    7.784E-01    6.747E-01    5.707E-01    4.664E-01
     3.618E-01    2.570E-01    1.518E-01    4.631E-02   -5.948E-02   -1.656E-01   -2.720E-01   -3.788E-01   -4.858E-01   -5.932E-01
    -7.010E-01   -8.091E-01   -9.175E-01   -1.026E+00   -1.135E+00   -1.245E+00   -1.355E+00   -1.465E+00   -1.575E+00   -1.686E+00
    -1.798E+00   -1.909E+00   -2.021E+00   -2.134E+00   -2.247E+00   -2.360E+00   -2.473E+00   -2.587E+00   -2.702E+00   -2.817E+00
    -2.932E+00   -3.048E+00   -3.164E+00   -3.280E+00   -3.397E+00   -3.515E+00   -3.633E+00   -3.751E+00   -3.869E+00   -3.988E+00
    -4.108E+00   -4.227E+00   -4.347E+00   -4.466E+00   -4.586E+00   -4.706E+00   -4.826E+00   -4.946E+00   -5.066E+00   -5.185E+00
    -5.305E+00   -5.424E+00   -5.543E+00   -5.661E+00   -5.780E+00   -5.897E+00   -6.015E+00   -6.131E+00   -6.247E+00   -6.363E+00
    -6.478E+00   -6.592E+00   -6.706E+00   -6.818E+00   -6.930E+00   -7.041E+00   -7.151E+00   -7.260E+00   -7.368E+00   -7.474E+00
    -7.580E+00   -7.684E+00   -7.788E+00   -7.890E+00   -7.990E+00   -8.090E+00   -8.187E+00   -8.284E+00   -8.379E+00   -8.472E+00
    -8.564E+00   -8.654E+00   -8.742E+00   -8.829E+00   -8.914E+00   -8.998E+00   -9.080E+00   -9.160E+00   -9.239E+00   -9.317E+00
    -9.393E+00   -9.468E+00   -9.542E+00   -9.614E+00   -9.685E+00   -9.755E+00   -9.824E+00   -9.891E+00   -9.958E+00   -1.002E+01
    -1.009E+01   -1.015E+01   -1.021E+01   -1.028E+01   -1.034E+01   -1.040E+01   -1.046E+01   -1.051E+01   -1.057E+01   -1.063E+01
    -1.068E+01   -1.074E+01   -1.080E+01   -1.085E+01   -1.090E+01   -1.096E+01   -1.101E+01   -1.106E+01   -1.112E+01   -1.117E+01
    -1.122E+01   -1.127E+01   -1.132E+01   -1.138E+01   -1.143E+01   -1.148E+01   -1.153E+01   -1.158E+01   -1.163E+01   -1.168E+01
    -1.173E+01   -1.178E+01   -1.183E+01   -1.188E+01   -1.193E+01   -1.198E+01   -1.203E+01   -1.208E+01   -1.213E+01   -1.218E+01
    -1.223E+01   -1.227E+01   -1.232E+01   -1.237E+01   -1.241E+01   -1.246E+01   -1.250E+01   -1.255E+01   -1.259E+01   -1.263E+01
    -1.268E+01   -1.272E+01   -1.276E+01   -1.280E+01   -1.284E+01   -1.287E+01   -1.291E+01   -1.295E+01   -1.298E+01   -1.302E+01
    -1.305E+01   -1.308E+01   -1.311E+01   -1.314E+01   -1.317E+01   -1.320E+01   -1.323E+01   -1.325E+01   -1.328E+01   -1.330E+01
    -1.332E+01   -1.334E+01   -1.336E+01   -1.338E+01   -1.339E+01   -1.341E+01   -1.342E+01   -1.343E+01   -1.344E+01   -1.345E+01
    -1.346E+01   -1.347E+01   -1.347E+01   -1.348E+01   -1.348E+01   -1.348E+01   -1.348E+01   -1.348E+01   -1.347E+01   -1.347E+01
    -1.346E+01   -1.345E+01   -1.344E+01   -1.343E+01   -1.342E+01   -1.341E+01   -1.339E+01   -1.337E+01   -1.336E+01   -1.334E+01
    -1.332E+01   -1.329E+01   -1.327E+01   -1.324E+01   -1.322E+01   -1.319E+01   -1.316E+01   -1.313E+01   -1.310E+01   -1.306E+01
    -1.303E+01   -1.299E+01   -1.295E+01   -1.291E+01   -1.287E+01   -1.282E+01   -1.278E+01   -1.273E+01   -1.268E+01   -1.264E+01
    -1.258E+01   -1.253E+01   -1.248E+01   -1.242E+01   -1.237E+01   -1.231E+01   -1.225E+01   -1.219E+01   -1.213E+01   -1.206E+01
    -1.200E+01   -1.193E+01   -1.187E+01   -1.180E+01   -1.173E+01   -1.166E+01   -1.159E+01   -1.152E+01   -1.144E+01   -1.137E+01
    -1.129E+01   -1.122E+01   -1.114E+01   -1.106E+01   -1.098E+01   -1.090E+01   -1.082E+01   -1.074E+01   -1.065E+01   -1.057E+01
    -1.048E+01   -1.040E+01   -1.031E+01   -1.022E+01   -1.013E+01   -1.005E+01   -9.956E+00   -9.866E+00   -9.775E+00   -9.684E+00
    -9.591E+00   -9.498E+00   -9.405E+00   -9.311E+00   -9.216E+00   -9.121E+00   -9.026E+00   -8.930E+00   -8.833E+00   -8.736E+00
    -8.639E+00   -8.541E+00   -8.442E+00   -8.344E+00   -8.245E+00   -8.145E+00   -8.046E+00   -7.946E+00   -7.845E+00   -7.745E+00
    -7.644E+00   -7.543E+00   -7.442E+00   -7.341E+00   -7.239E+00   -7.137E+00   -7.035E+00   -6.933E+00   -6.831E+00   -6.729E+00
    -6.627E+00   -6.525E+00   -6.422E+00   -6.320E+00   -6.218E+00   -6.115E+00   -6.013E+00   -5.911E+00   -5.809E+00   -5.707E+00
    -5.605E+00   -5.504E+00   -5.402E+00   -5.301E+00   -5.200E+00   -5.099E+00   -4.998E+00   -4.898E+00   -4.798E+00   -4.698E+00
    -4.598E+00   -4.499E+00   -4.400E+00   -4.302E+00   -4.204E+00   -4.106E+00   -4.008E+00   -3.911E+00   -3.815E+00   -3.718E+00
    -3.622E+00   -3.527E+00   -3.432E+00   -3.338E+00   -3.244E+00   -3.150E+00   -3.057E+00   -2.965E+00   -2.873E+00   -2.781E+00
    -2.691E+00   -2.600E+00   -2.511E+00   -2.422E+00   -2.333E+00   -2.245E+00   -2.158E+00   -2.071E+00   -1.985E+00   -1.900E+00
    -1.815E+00   -1.732E+00   -1.648E+00   -1.566E+00   -1.484E+00   -1.403E+00   -1.323E+00   -1.243E+00   -1.165E+00   -1.087E+00
    -1.010E+00   -9.336E-01   -8.582E-01   -7.836E-01   -7.098E-01   -6.368E-01   -5.647E-01   -4.932E-01   -4.225E-01   -3.526E-01
    -2.833E-01   -2.147E-01   -1.468E-01   -7.947E-02   -1.278E-02    5.331E-02    1.188E-01    1.838E-01    2.482E-01    3.121E-01
     3.756E-01    4.385E-01    5.010E-01    5.631E-01    6.248E-01    6.860E-01    7.469E-01    8.075E-01    8.677E-01    9.276E-01
     9.873E-01    1.047E+00    1.106E+00    1.165E+00    1.223E+00    1.282E+00    1.340E+00    1.398E+00    1.456E+00    1.514E+00
     1.572E+00    1.630E+00    1.688E+00    1.746E+00    1.803E+00    1.861E+00    1.919E+00    1.977E+00
 Ala      Conc. = 1.02E+02
