 LCModel (Version 6.3-1L) Copyright: S.W. Provencher.          Ref.: Magn. Reson. Med. 30:672-679 (1993).                
 Slice#3 Row#13 Col#1  K_02_press_1_raw_act
 36 lines in following concentration table = NCONC+1
    Conc.  %SD /Cr+PCr  Metabolite                                         
    0.000 999%   0.000 Ala                                                 
   35.573   9%   0.210 Asp                                                 
    0.000 999%   0.000 Cr                                                  
  169.507  22%   1.000 PCr                                                 
   21.347   9%   0.126 GABA                                                
   21.346   9%   0.126 Glc                                                 
  383.597  97%   2.263 Gln                                                 
    0.000 999%   0.000 Glu                                                 
    0.000 999%   0.000 GPC                                                 
    0.000 999%   0.000 PCh                                                 
    0.000 999%   0.000 GSH                                                 
  481.073  31%   2.838 Ins                                                 
    0.000 999%   0.000 Lac                                                 
  201.610  66%   1.189 NAA                                                 
  340.426  39%   2.008 NAAG                                                
    7.117   9% 4.2E-02 Scyllo                                              
   35.577   9%   0.210 Tau                                                 
   16.941  23%   0.100 -CrCH2                                              
    0.000 999%   0.000 GPC+PCh                                             
  542.036   9%   3.198 NAA+NAAG                                            
  169.507  22%   1.000 Cr+PCr                                              
  383.597  97%   2.263 Glu+Gln                                             
    0.000 999%   0.000 Lip13a                                              
   45.202 111%   0.267 Lip13b                                              
   11.989 113% 7.1E-02 Lip09                                               
 1.19E-02 999% 7.0E-05 MM09                                                
    6.821 112% 4.0E-02 Lip20                                               
 9.23E-02 999% 5.4E-04 MM20                                                
 9.57E-03 999% 5.6E-05 MM12                                                
    0.000 999%   0.000 MM14                                                
    0.000 999%   0.000 MM17                                                
   45.202 111%   0.267 Lip13a+Lip13b                                       
   45.211 111%   0.267 MM14+Lip13a+Lip13b+MM12                             
   12.001 115% 7.1E-02 MM09+Lip09                                          
    6.914 127% 4.1E-02 MM20+Lip20                                          
   6 lines in following misc. output table
  FWHM = 0.183 ppm    S/N =   2                                            
  Data shift =-0.168 ppm                                                   
  Ph:  51 deg      -8.9 deg/ppm                                            
  alphaB,S = 4.1E-01,   2.0E+02                                            
   13 spline knots.   Ns = 9(2)                                            
  (14) 4 infls.   (15) 1 extrs.                                            
  498 points on ppm-axis = NY
      4.000000     3.992357     3.984714     3.977070     3.969427     3.961784     3.954141     3.946497     3.938854     3.931211
      3.923568     3.915925     3.908281     3.900638     3.892995     3.885352     3.877708     3.870065     3.862422     3.854779
      3.847136     3.839492     3.831849     3.824206     3.816563     3.808919     3.801276     3.793633     3.785990     3.778347
      3.770703     3.763060     3.755417     3.747774     3.740130     3.732487     3.724844     3.717201     3.709558     3.701914
      3.694271     3.686628     3.678985     3.671341     3.663698     3.656055     3.648412     3.640769     3.633125     3.625482
      3.617839     3.610196     3.602552     3.594909     3.587266     3.579623     3.571980     3.564336     3.556693     3.549050
      3.541407     3.533763     3.526120     3.518477     3.510834     3.503191     3.495547     3.487904     3.480261     3.472618
      3.464974     3.457331     3.449688     3.442045     3.434402     3.426758     3.419115     3.411472     3.403829     3.396185
      3.388542     3.380899     3.373256     3.365613     3.357969     3.350326     3.342683     3.335040     3.327396     3.319753
      3.312110     3.304467     3.296824     3.289180     3.281537     3.273894     3.266251     3.258607     3.250964     3.243321
      3.235678     3.228034     3.220391     3.212748     3.205105     3.197462     3.189818     3.182175     3.174532     3.166889
      3.159245     3.151602     3.143959     3.136316     3.128673     3.121029     3.113386     3.105743     3.098100     3.090456
      3.082813     3.075170     3.067527     3.059884     3.052240     3.044597     3.036954     3.029311     3.021667     3.014024
      3.006381     2.998738     2.991095     2.983451     2.975808     2.968165     2.960522     2.952878     2.945235     2.937592
      2.929949     2.922306     2.914662     2.907019     2.899376     2.891733     2.884089     2.876446     2.868803     2.861160
      2.853517     2.845873     2.838230     2.830587     2.822944     2.815300     2.807657     2.800014     2.792371     2.784728
      2.777084     2.769441     2.761798     2.754155     2.746511     2.738868     2.731225     2.723582     2.715939     2.708295
      2.700652     2.693009     2.685366     2.677722     2.670079     2.662436     2.654793     2.647150     2.639506     2.631863
      2.624220     2.616577     2.608933     2.601290     2.593647     2.586004     2.578361     2.570717     2.563074     2.555431
      2.547788     2.540144     2.532501     2.524858     2.517215     2.509572     2.501928     2.494285     2.486642     2.478999
      2.471355     2.463712     2.456069     2.448426     2.440783     2.433139     2.425496     2.417853     2.410210     2.402566
      2.394923     2.387280     2.379637     2.371994     2.364350     2.356707     2.349064     2.341421     2.333777     2.326134
      2.318491     2.310848     2.303205     2.295561     2.287918     2.280275     2.272632     2.264988     2.257345     2.249702
      2.242059     2.234416     2.226772     2.219129     2.211486     2.203843     2.196199     2.188556     2.180913     2.173270
      2.165627     2.157983     2.150340     2.142697     2.135054     2.127410     2.119767     2.112124     2.104481     2.096838
      2.089194     2.081551     2.073908     2.066265     2.058621     2.050978     2.043335     2.035692     2.028049     2.020405
      2.012762     2.005119     1.997476     1.989833     1.982190     1.974546     1.966903     1.959260     1.951617     1.943974
      1.936331     1.928688     1.921045     1.913402     1.905759     1.898115     1.890472     1.882829     1.875186     1.867543
      1.859900     1.852257     1.844614     1.836971     1.829327     1.821684     1.814041     1.806398     1.798755     1.791112
      1.783469     1.775826     1.768183     1.760540     1.752896     1.745253     1.737610     1.729967     1.722324     1.714681
      1.707038     1.699395     1.691752     1.684108     1.676465     1.668822     1.661179     1.653536     1.645893     1.638250
      1.630607     1.622964     1.615321     1.607677     1.600034     1.592391     1.584748     1.577105     1.569462     1.561819
      1.554176     1.546533     1.538890     1.531246     1.523603     1.515960     1.508317     1.500674     1.493031     1.485388
      1.477745     1.470102     1.462458     1.454815     1.447172     1.439529     1.431886     1.424243     1.416600     1.408957
      1.401314     1.393671     1.386027     1.378384     1.370741     1.363098     1.355455     1.347812     1.340169     1.332526
      1.324883     1.317240     1.309596     1.301953     1.294310     1.286667     1.279024     1.271381     1.263738     1.256095
      1.248452     1.240808     1.233165     1.225522     1.217879     1.210236     1.202593     1.194950     1.187307     1.179664
      1.172021     1.164377     1.156734     1.149091     1.141448     1.133805     1.126162     1.118519     1.110876     1.103233
      1.095590     1.087946     1.080303     1.072660     1.065017     1.057374     1.049731     1.042088     1.034445     1.026802
      1.019158     1.011515     1.003872     0.996229     0.988586     0.980943     0.973300     0.965657     0.958014     0.950371
      0.942727     0.935084     0.927441     0.919798     0.912155     0.904512     0.896869     0.889226     0.881583     0.873940
      0.866296     0.858653     0.851010     0.843367     0.835724     0.828081     0.820438     0.812795     0.805152     0.797508
      0.789865     0.782222     0.774579     0.766936     0.759293     0.751650     0.744007     0.736364     0.728721     0.721077
      0.713434     0.705791     0.698148     0.690505     0.682862     0.675219     0.667576     0.659933     0.652290     0.644646
      0.637003     0.629360     0.621717     0.614074     0.606431     0.598788     0.591145     0.583502     0.575858     0.568215
      0.560572     0.552929     0.545286     0.537643     0.530000     0.522357     0.514714     0.507071     0.499427     0.491784
      0.484141     0.476498     0.468855     0.461212     0.453569     0.445925     0.438282     0.430639     0.422996     0.415353
      0.407710     0.400067     0.392424     0.384780     0.377137     0.369494     0.361851     0.354208     0.346565     0.338922
      0.331278     0.323635     0.315992     0.308349     0.300706     0.293063     0.285420     0.277777     0.270133     0.262490
      0.254847     0.247204     0.239561     0.231918     0.224275     0.216631     0.208988     0.201345
 NY phased data points follow
  -1.40046E+00 -3.05863E+00 -3.59391E+00 -7.39660E+00 -4.10053E+00 -5.00776E+00 -7.93488E+00 -6.52213E+00 -9.40519E+00 -8.91776E+00
  -1.01506E+01 -8.19198E+00 -9.58724E+00 -1.05630E+01 -8.57260E+00 -1.06432E+01 -8.73139E+00 -9.70783E+00 -5.97383E+00 -8.63233E+00
  -8.71451E+00 -1.11674E+01 -1.04027E+01 -8.78165E+00 -1.13077E+01 -1.02477E+01 -1.27748E+01 -9.38593E+00 -1.09894E+01 -9.35965E+00
  -1.05629E+01 -1.10023E+01 -1.18519E+01 -8.43007E+00 -1.11105E+01 -1.13822E+01 -1.08168E+01 -9.31235E+00 -1.11828E+01 -1.07473E+01
  -1.19426E+01 -1.13503E+01 -1.10878E+01 -1.08984E+01 -1.06758E+01 -1.11954E+01 -1.29083E+01 -1.15088E+01 -1.15619E+01 -1.08009E+01
  -1.06128E+01 -9.90543E+00 -1.05042E+01 -1.10277E+01 -1.14312E+01 -1.15326E+01 -1.21625E+01 -9.83047E+00 -1.08580E+01 -1.10220E+01
  -1.06426E+01 -8.88283E+00 -1.00827E+01 -1.09769E+01 -8.60478E+00 -8.83601E+00 -9.51799E+00 -8.85188E+00 -1.04164E+01 -9.96374E+00
  -9.30394E+00 -8.45854E+00 -8.54690E+00 -7.96025E+00 -1.01113E+01 -7.14400E+00 -9.79954E+00 -7.83486E+00 -9.28374E+00 -7.90254E+00
  -7.72589E+00 -9.20015E+00 -1.02765E+01 -7.46401E+00 -7.44239E+00 -7.09844E+00 -7.00105E+00 -5.87352E+00 -8.18072E+00 -8.34163E+00
  -6.56596E+00 -7.11612E+00 -6.99237E+00 -5.73979E+00 -7.10344E+00 -7.93723E+00 -8.04165E+00 -6.94647E+00 -6.11447E+00 -4.30105E+00
  -6.21124E+00 -5.03289E+00 -6.16212E+00 -7.43337E+00 -4.45071E+00 -4.97243E+00 -4.29734E+00 -6.06935E+00 -4.45763E+00 -5.68575E+00
  -5.44696E+00 -5.47373E+00 -5.84769E+00 -7.31548E+00 -3.87963E+00 -3.36672E+00 -4.43741E+00 -2.46232E+00 -3.02425E+00 -2.71762E+00
  -3.75483E+00 -2.38675E+00 -3.42920E+00 -8.24721E-02 -8.54564E-01 -1.07830E+00 -1.46737E+00  9.39636E-02 -6.67915E-02  2.15592E+00
   2.28699E+00  9.86140E-01  1.14124E-01  1.34824E+00  1.59553E+00  3.38245E+00  1.47878E+00  1.78703E+00  1.91399E+00  5.18153E+00
   3.19294E+00  4.04355E+00  2.54838E+00  4.71921E-01  4.37689E+00  3.61312E+00  3.59999E+00  4.28522E+00  3.80615E+00  3.85620E+00
   2.05271E+00  3.29426E+00  3.43042E+00  4.72781E+00  5.95126E+00  5.63319E+00  5.71578E+00  6.06633E+00  5.47623E+00  4.59649E+00
   6.01271E+00  4.74314E+00  4.22701E+00  4.99749E+00  2.93079E+00  5.17084E+00  6.80052E+00  4.97701E+00  5.14951E+00  6.79830E+00
   4.74441E+00  6.00175E+00  6.50120E+00  5.11180E+00  7.11486E+00  4.99444E+00  6.77370E+00  5.43555E+00  7.16677E+00  6.68576E+00
   5.99689E+00  6.49775E+00  7.05489E+00  7.65380E+00  4.86498E+00  6.62839E+00  7.64159E+00  9.79348E+00  8.57621E+00  9.59666E+00
   8.72018E+00  1.08002E+01  8.38408E+00  8.49948E+00  8.97645E+00  1.02932E+01  1.04044E+01  9.65726E+00  8.97523E+00  1.10528E+01
   9.14010E+00  1.01246E+01  1.27469E+01  1.10962E+01  1.09867E+01  1.33003E+01  1.34553E+01  1.17910E+01  1.27206E+01  1.32113E+01
   1.18391E+01  1.18431E+01  1.25385E+01  1.21489E+01  1.26626E+01  1.28063E+01  1.34918E+01  1.12067E+01  1.35148E+01  1.34889E+01
   1.26664E+01  1.29132E+01  1.44689E+01  1.30532E+01  1.44373E+01  1.21109E+01  1.48577E+01  1.42995E+01  1.53662E+01  1.41087E+01
   1.74989E+01  1.43351E+01  1.57854E+01  1.87117E+01  1.59928E+01  1.45199E+01  1.45903E+01  1.65730E+01  1.67795E+01  1.73401E+01
   1.83322E+01  1.60920E+01  1.61197E+01  2.05293E+01  1.78251E+01  1.70379E+01  1.62739E+01  1.83845E+01  1.90824E+01  1.74850E+01
   2.00273E+01  1.97079E+01  2.01262E+01  2.07742E+01  2.13191E+01  2.06343E+01  2.03538E+01  2.07635E+01  2.03245E+01  2.07815E+01
   2.20318E+01  2.01218E+01  2.20692E+01  2.28358E+01  2.05090E+01  2.26582E+01  2.18461E+01  2.27908E+01  2.22870E+01  2.27497E+01
   2.11680E+01  1.95805E+01  1.84660E+01  1.96366E+01  1.95578E+01  1.77048E+01  1.99062E+01  2.00712E+01  1.63853E+01  1.59018E+01
   1.82315E+01  1.49509E+01  1.78164E+01  1.76836E+01  1.59561E+01  1.64930E+01  1.85451E+01  1.66171E+01  1.75583E+01  1.74082E+01
   1.63661E+01  1.52263E+01  1.60341E+01  1.55827E+01  1.49176E+01  1.44790E+01  1.52051E+01  1.50809E+01  1.45109E+01  1.40687E+01
   1.19120E+01  1.25410E+01  1.34547E+01  1.39646E+01  1.42669E+01  1.39851E+01  1.31413E+01  1.33509E+01  1.28816E+01  1.17596E+01
   1.16368E+01  1.07987E+01  1.10794E+01  1.08537E+01  1.08646E+01  1.20657E+01  9.16438E+00  9.30708E+00  9.63804E+00  9.42072E+00
   1.13606E+01  9.27367E+00  1.07297E+01  8.18578E+00  9.69742E+00  9.44064E+00  9.04506E+00  9.13813E+00  7.60117E+00  7.84277E+00
   9.65045E+00  1.14385E+01  8.88060E+00  9.77701E+00  9.70614E+00  8.77406E+00  7.02180E+00  7.45079E+00  6.94248E+00  8.21884E+00
   7.49168E+00  8.47031E+00  6.82914E+00  7.75721E+00  8.70220E+00  5.27983E+00  6.83078E+00  7.69110E+00  7.07307E+00  7.00798E+00
   7.72968E+00  6.54325E+00  8.34427E+00  6.95490E+00  6.95158E+00  7.18775E+00  7.59422E+00  5.80781E+00  7.52087E+00  6.40435E+00
   7.52816E+00  6.10856E+00  7.64116E+00  6.95093E+00  7.77218E+00  7.85231E+00  6.22913E+00  8.70356E+00  6.64984E+00  6.54558E+00
   8.33399E+00  8.00475E+00  6.87261E+00  7.12759E+00  6.62799E+00  6.49424E+00  7.18892E+00  8.18310E+00  5.88641E+00  7.35255E+00
   7.36628E+00  8.30057E+00  6.51079E+00  5.80099E+00  6.60748E+00  6.62449E+00  5.04761E+00  6.10055E+00  6.09430E+00  4.81846E+00
   6.11815E+00  8.18322E+00  6.41800E+00  7.26015E+00  7.04504E+00  4.37642E+00  2.97642E+00  6.62777E+00  5.91891E+00  7.43628E+00
   5.20392E+00  4.53559E+00  5.01935E+00  6.54957E+00  5.29163E+00  4.76778E+00  5.56801E+00  3.28711E+00  7.24117E+00  6.08993E+00
   6.42207E+00  5.29558E+00  5.96456E+00  7.84680E+00  3.90511E+00  5.29942E+00  6.22678E+00  4.80745E+00  6.10069E+00  7.13278E+00
   7.03245E+00  4.92466E+00  5.13334E+00  4.16793E+00  6.11588E+00  5.50516E+00  5.38620E+00  5.39398E+00  5.45456E+00  7.63430E+00
   8.83262E+00  7.33462E+00  5.85378E+00  4.97169E+00  5.49009E+00  4.41969E+00  6.24521E+00  6.39470E+00  6.89368E+00  6.55986E+00
   7.47472E+00  7.46408E+00  8.03121E+00  7.34489E+00  7.53389E+00  6.52378E+00  6.38468E+00  6.33279E+00  6.25009E+00  6.20863E+00
   6.65229E+00  5.09660E+00  5.84002E+00  6.76705E+00  7.00944E+00  6.36635E+00  6.45317E+00  4.74900E+00  5.41384E+00  8.73472E+00
   5.33851E+00  5.58546E+00  3.74303E+00  6.30383E+00  5.16600E+00  5.78614E+00  5.93231E+00  5.66906E+00  5.28447E+00  4.78979E+00
   7.49155E+00  6.14767E+00  4.67355E+00  3.75511E+00  4.84573E+00  5.06109E+00  6.70162E+00  4.98530E+00  6.34300E+00  2.90029E+00
   4.25649E+00  6.58508E+00  6.18935E+00  5.50561E+00  7.76880E+00  6.17263E+00  6.80240E+00  6.11552E+00  5.17149E+00  6.23612E+00
   5.26974E+00  4.58694E+00  5.91464E+00  4.67631E+00  5.18187E+00  5.87015E+00  5.39106E+00  5.00527E+00
 NY points of the fit to the data follow
  -6.70349E+00 -6.73138E+00 -6.89769E+00 -6.95467E+00 -7.15456E+00 -7.23937E+00 -7.46567E+00 -7.56467E+00 -7.81337E+00 -7.92069E+00
  -8.16758E+00 -8.26005E+00 -8.47949E+00 -8.55751E+00 -8.71911E+00 -8.76333E+00 -8.91855E+00 -8.96192E+00 -9.10533E+00 -9.18188E+00
  -9.33099E+00 -9.45056E+00 -9.60627E+00 -9.77037E+00 -9.92437E+00 -1.01142E+01 -1.02525E+01 -1.04369E+01 -1.05305E+01 -1.06394E+01
  -1.06542E+01 -1.06561E+01 -1.06407E+01 -1.06277E+01 -1.06048E+01 -1.05884E+01 -1.05699E+01 -1.05526E+01 -1.05404E+01 -1.05239E+01
  -1.05242E+01 -1.04930E+01 -1.04997E+01 -1.04458E+01 -1.04568E+01 -1.03888E+01 -1.04081E+01 -1.03318E+01 -1.03613E+01 -1.02917E+01
  -1.03086E+01 -1.02360E+01 -1.02308E+01 -1.01474E+01 -1.00944E+01 -1.00125E+01 -9.96869E+00 -9.90918E+00 -9.87863E+00 -9.84520E+00
  -9.82791E+00 -9.81846E+00 -9.80834E+00 -9.81125E+00 -9.78939E+00 -9.78367E+00 -9.73029E+00 -9.68996E+00 -9.58028E+00 -9.48265E+00
  -9.33174E+00 -9.25124E+00 -9.12339E+00 -9.07355E+00 -8.95883E+00 -8.92799E+00 -8.81485E+00 -8.78958E+00 -8.66191E+00 -8.63362E+00
  -8.49271E+00 -8.44662E+00 -8.28912E+00 -8.24419E+00 -8.08831E+00 -8.06669E+00 -7.92556E+00 -7.91857E+00 -7.78709E+00 -7.77709E+00
  -7.64702E+00 -7.62228E+00 -7.48579E+00 -7.44203E+00 -7.28277E+00 -7.22326E+00 -7.04862E+00 -6.97011E+00 -6.77989E+00 -6.68418E+00
  -6.48625E+00 -6.37059E+00 -6.16857E+00 -6.03163E+00 -5.82717E+00 -5.67244E+00 -5.47023E+00 -5.30042E+00 -5.07593E+00 -4.82879E+00
  -4.61236E+00 -4.31404E+00 -4.10338E+00 -3.75028E+00 -3.54626E+00 -3.14931E+00 -2.95742E+00 -2.53282E+00 -2.35970E+00 -1.92567E+00
  -1.78723E+00 -1.35033E+00 -1.24720E+00 -8.05604E-01 -7.32626E-01 -2.82310E-01 -2.31357E-01  2.42310E-01  2.79411E-01  7.73320E-01
   7.90983E-01  1.28253E+00  1.27604E+00  1.74551E+00  1.71217E+00  2.13122E+00  2.06684E+00  2.40248E+00  2.31642E+00  2.55084E+00
   2.45824E+00  2.58383E+00  2.50353E+00  2.53885E+00  2.49925E+00  2.49147E+00  2.51973E+00  2.54081E+00  2.66202E+00  2.81409E+00
   2.96427E+00  3.12447E+00  3.27079E+00  3.43334E+00  3.57729E+00  3.73886E+00  3.87933E+00  4.03395E+00  4.16744E+00  4.31816E+00
   4.44871E+00  4.59855E+00  4.72589E+00  4.87157E+00  4.99257E+00  5.13435E+00  5.25995E+00  5.40376E+00  5.53560E+00  5.67932E+00
   5.81822E+00  5.96556E+00  6.11343E+00  6.26599E+00  6.42840E+00  6.58274E+00  6.74839E+00  6.89908E+00  7.07256E+00  7.22102E+00
   7.40306E+00  7.55112E+00  7.73768E+00  7.88313E+00  8.08964E+00  8.24516E+00  8.47337E+00  8.64621E+00  8.89055E+00  9.06764E+00
   9.31314E+00  9.47235E+00  9.68053E+00  9.82476E+00  1.00312E+01  1.01589E+01  1.03552E+01  1.04632E+01  1.06454E+01  1.07413E+01
   1.09252E+01  1.10125E+01  1.12019E+01  1.12776E+01  1.14757E+01  1.15448E+01  1.17655E+01  1.18354E+01  1.20693E+01  1.21325E+01
   1.23689E+01  1.24284E+01  1.26592E+01  1.27092E+01  1.29311E+01  1.29671E+01  1.31631E+01  1.31891E+01  1.33544E+01  1.33787E+01
   1.35447E+01  1.36003E+01  1.37994E+01  1.39204E+01  1.41597E+01  1.43193E+01  1.45647E+01  1.47337E+01  1.49467E+01  1.50772E+01
   1.52216E+01  1.52790E+01  1.53369E+01  1.53474E+01  1.54076E+01  1.53940E+01  1.54550E+01  1.54678E+01  1.56857E+01  1.57239E+01
   1.60393E+01  1.60800E+01  1.65399E+01  1.66341E+01  1.71630E+01  1.72804E+01  1.78359E+01  1.79622E+01  1.85009E+01  1.86228E+01
   1.91172E+01  1.92286E+01  1.96726E+01  1.97734E+01  2.01701E+01  2.02774E+01  2.06476E+01  2.07845E+01  2.11191E+01  2.12838E+01
   2.15841E+01  2.17865E+01  2.20230E+01  2.22396E+01  2.23301E+01  2.24726E+01  2.23509E+01  2.23978E+01  2.20167E+01  2.19495E+01
   2.13013E+01  2.11199E+01  2.02714E+01  2.00084E+01  1.90825E+01  1.87669E+01  1.79311E+01  1.76317E+01  1.71380E+01  1.68462E+01
   1.65066E+01  1.62160E+01  1.60663E+01  1.58761E+01  1.57610E+01  1.55868E+01  1.54812E+01  1.53126E+01  1.52103E+01  1.50448E+01
   1.49412E+01  1.47784E+01  1.46730E+01  1.45155E+01  1.44118E+01  1.42602E+01  1.41553E+01  1.40082E+01  1.38985E+01  1.37494E+01
   1.36313E+01  1.34828E+01  1.33578E+01  1.32113E+01  1.30805E+01  1.29379E+01  1.28044E+01  1.26632E+01  1.25267E+01  1.23863E+01
   1.22464E+01  1.21063E+01  1.19641E+01  1.18240E+01  1.16836E+01  1.15462E+01  1.14073E+01  1.12718E+01  1.11342E+01  1.09996E+01
   1.08628E+01  1.07274E+01  1.05913E+01  1.04570E+01  1.03223E+01  1.01897E+01  1.00570E+01  9.92654E+00  9.79626E+00  9.66827E+00
   9.54072E+00  9.41559E+00  9.29114E+00  9.16922E+00  9.04824E+00  8.92997E+00  8.81284E+00  8.69866E+00  8.58595E+00  8.47661E+00
   8.36929E+00  8.26608E+00  8.16590E+00  8.07114E+00  7.98103E+00  7.89830E+00  7.82242E+00  7.75614E+00  7.69868E+00  7.65211E+00
   7.61447E+00  7.58623E+00  7.56370E+00  7.54566E+00  7.52702E+00  7.50577E+00  7.47693E+00  7.43949E+00  7.39033E+00  7.33086E+00
   7.26050E+00  7.18301E+00  7.09950E+00  7.01463E+00  6.92959E+00  6.84840E+00  6.77116E+00  6.70053E+00  6.63535E+00  6.57717E+00
   6.52404E+00  6.47699E+00  6.43382E+00  6.39552E+00  6.35997E+00  6.32832E+00  6.29858E+00  6.27206E+00  6.24693E+00  6.22461E+00
   6.20333E+00  6.18459E+00  6.16668E+00  6.15111E+00  6.13622E+00  6.12353E+00  6.11141E+00  6.10139E+00  6.09183E+00  6.08426E+00
   6.07708E+00  6.07178E+00  6.06677E+00  6.06355E+00  6.06049E+00  6.05907E+00  6.05768E+00  6.05776E+00  6.05767E+00  6.05887E+00
   6.05972E+00  6.06169E+00  6.06312E+00  6.06547E+00  6.06709E+00  6.06945E+00  6.07091E+00  6.07293E+00  6.07392E+00  6.07536E+00
   6.07568E+00  6.07641E+00  6.07599E+00  6.07598E+00  6.07487E+00  6.07421E+00  6.07253E+00  6.07138E+00  6.06929E+00  6.06784E+00
   6.06553E+00  6.06393E+00  6.06156E+00  6.05995E+00  6.05762E+00  6.05607E+00  6.05382E+00  6.05236E+00  6.05018E+00  6.04878E+00
   6.04664E+00  6.04523E+00  6.04305E+00  6.04156E+00  6.03925E+00  6.03758E+00  6.03505E+00  6.03311E+00  6.03026E+00  6.02794E+00
   6.02468E+00  6.02191E+00  6.01814E+00  6.01482E+00  6.01047E+00  6.00652E+00  6.00150E+00  5.99684E+00  5.99108E+00  5.98567E+00
   5.97916E+00  5.97301E+00  5.96578E+00  5.95893E+00  5.95102E+00  5.94350E+00  5.93494E+00  5.92680E+00  5.91764E+00  5.90890E+00
   5.89917E+00  5.88989E+00  5.87962E+00  5.86982E+00  5.85907E+00  5.84880E+00  5.83759E+00  5.82688E+00  5.81526E+00  5.80415E+00
   5.79215E+00  5.78068E+00  5.76835E+00  5.75655E+00  5.74391E+00  5.73183E+00  5.71892E+00  5.70659E+00  5.69345E+00  5.68090E+00
   5.66756E+00  5.65482E+00  5.64130E+00  5.62841E+00  5.61475E+00  5.60172E+00  5.58795E+00  5.57481E+00  5.56094E+00  5.54770E+00
   5.53374E+00  5.52042E+00  5.50638E+00  5.49297E+00  5.47882E+00  5.46530E+00  5.45101E+00  5.43731E+00
 NY background values follow
    -8.903E+00   -9.007E+00   -9.111E+00   -9.214E+00   -9.316E+00   -9.417E+00   -9.517E+00   -9.617E+00   -9.715E+00   -9.811E+00
    -9.907E+00   -1.000E+01   -1.009E+01   -1.018E+01   -1.027E+01   -1.036E+01   -1.045E+01   -1.053E+01   -1.062E+01   -1.070E+01
    -1.077E+01   -1.085E+01   -1.092E+01   -1.100E+01   -1.107E+01   -1.113E+01   -1.120E+01   -1.126E+01   -1.132E+01   -1.137E+01
    -1.143E+01   -1.148E+01   -1.153E+01   -1.157E+01   -1.161E+01   -1.165E+01   -1.168E+01   -1.172E+01   -1.174E+01   -1.177E+01
    -1.179E+01   -1.181E+01   -1.182E+01   -1.183E+01   -1.184E+01   -1.184E+01   -1.184E+01   -1.183E+01   -1.182E+01   -1.180E+01
    -1.179E+01   -1.176E+01   -1.173E+01   -1.170E+01   -1.167E+01   -1.163E+01   -1.158E+01   -1.153E+01   -1.148E+01   -1.142E+01
    -1.136E+01   -1.130E+01   -1.123E+01   -1.116E+01   -1.108E+01   -1.100E+01   -1.092E+01   -1.083E+01   -1.074E+01   -1.065E+01
    -1.056E+01   -1.046E+01   -1.035E+01   -1.025E+01   -1.014E+01   -1.003E+01   -9.910E+00   -9.792E+00   -9.671E+00   -9.547E+00
    -9.420E+00   -9.291E+00   -9.159E+00   -9.024E+00   -8.887E+00   -8.747E+00   -8.605E+00   -8.460E+00   -8.313E+00   -8.164E+00
    -8.012E+00   -7.859E+00   -7.703E+00   -7.545E+00   -7.386E+00   -7.224E+00   -7.060E+00   -6.895E+00   -6.728E+00   -6.559E+00
    -6.388E+00   -6.216E+00   -6.042E+00   -5.867E+00   -5.690E+00   -5.512E+00   -5.333E+00   -5.152E+00   -4.970E+00   -4.787E+00
    -4.603E+00   -4.418E+00   -4.232E+00   -4.045E+00   -3.857E+00   -3.668E+00   -3.478E+00   -3.288E+00   -3.097E+00   -2.905E+00
    -2.713E+00   -2.521E+00   -2.328E+00   -2.135E+00   -1.941E+00   -1.747E+00   -1.553E+00   -1.359E+00   -1.164E+00   -9.699E-01
    -7.755E-01   -5.812E-01   -3.870E-01   -1.930E-01    6.956E-04    1.941E-01    3.872E-01    5.799E-01    7.721E-01    9.638E-01
     1.155E+00    1.345E+00    1.535E+00    1.724E+00    1.913E+00    2.100E+00    2.286E+00    2.472E+00    2.656E+00    2.840E+00
     3.022E+00    3.203E+00    3.384E+00    3.563E+00    3.741E+00    3.917E+00    4.093E+00    4.268E+00    4.442E+00    4.615E+00
     4.787E+00    4.958E+00    5.128E+00    5.298E+00    5.466E+00    5.634E+00    5.800E+00    5.966E+00    6.132E+00    6.296E+00
     6.459E+00    6.622E+00    6.784E+00    6.946E+00    7.107E+00    7.267E+00    7.426E+00    7.585E+00    7.743E+00    7.901E+00
     8.058E+00    8.215E+00    8.371E+00    8.526E+00    8.681E+00    8.836E+00    8.990E+00    9.144E+00    9.297E+00    9.450E+00
     9.602E+00    9.754E+00    9.906E+00    1.006E+01    1.021E+01    1.036E+01    1.051E+01    1.066E+01    1.081E+01    1.096E+01
     1.111E+01    1.126E+01    1.141E+01    1.156E+01    1.171E+01    1.185E+01    1.200E+01    1.214E+01    1.229E+01    1.243E+01
     1.258E+01    1.272E+01    1.286E+01    1.300E+01    1.313E+01    1.327E+01    1.340E+01    1.353E+01    1.366E+01    1.379E+01
     1.392E+01    1.404E+01    1.416E+01    1.428E+01    1.440E+01    1.452E+01    1.463E+01    1.474E+01    1.484E+01    1.495E+01
     1.505E+01    1.515E+01    1.524E+01    1.533E+01    1.542E+01    1.551E+01    1.559E+01    1.567E+01    1.574E+01    1.581E+01
     1.588E+01    1.594E+01    1.600E+01    1.605E+01    1.610E+01    1.615E+01    1.619E+01    1.623E+01    1.626E+01    1.629E+01
     1.631E+01    1.633E+01    1.635E+01    1.636E+01    1.636E+01    1.637E+01    1.636E+01    1.636E+01    1.635E+01    1.633E+01
     1.631E+01    1.629E+01    1.626E+01    1.623E+01    1.620E+01    1.616E+01    1.612E+01    1.608E+01    1.603E+01    1.598E+01
     1.592E+01    1.586E+01    1.580E+01    1.574E+01    1.567E+01    1.560E+01    1.553E+01    1.545E+01    1.537E+01    1.529E+01
     1.521E+01    1.512E+01    1.503E+01    1.494E+01    1.485E+01    1.475E+01    1.465E+01    1.455E+01    1.445E+01    1.434E+01
     1.424E+01    1.413E+01    1.402E+01    1.390E+01    1.379E+01    1.367E+01    1.356E+01    1.344E+01    1.332E+01    1.319E+01
     1.307E+01    1.295E+01    1.282E+01    1.269E+01    1.257E+01    1.244E+01    1.231E+01    1.218E+01    1.205E+01    1.191E+01
     1.178E+01    1.165E+01    1.152E+01    1.139E+01    1.125E+01    1.112E+01    1.099E+01    1.086E+01    1.072E+01    1.059E+01
     1.046E+01    1.033E+01    1.020E+01    1.007E+01    9.941E+00    9.813E+00    9.686E+00    9.560E+00    9.436E+00    9.312E+00
     9.190E+00    9.070E+00    8.950E+00    8.833E+00    8.717E+00    8.603E+00    8.490E+00    8.380E+00    8.272E+00    8.165E+00
     8.061E+00    7.959E+00    7.860E+00    7.763E+00    7.668E+00    7.576E+00    7.487E+00    7.400E+00    7.316E+00    7.236E+00
     7.158E+00    7.082E+00    7.010E+00    6.940E+00    6.873E+00    6.809E+00    6.747E+00    6.688E+00    6.631E+00    6.576E+00
     6.524E+00    6.474E+00    6.426E+00    6.380E+00    6.337E+00    6.295E+00    6.256E+00    6.219E+00    6.183E+00    6.149E+00
     6.118E+00    6.087E+00    6.059E+00    6.032E+00    6.007E+00    5.984E+00    5.961E+00    5.941E+00    5.921E+00    5.904E+00
     5.887E+00    5.872E+00    5.857E+00    5.844E+00    5.832E+00    5.821E+00    5.812E+00    5.803E+00    5.794E+00    5.787E+00
     5.781E+00    5.775E+00    5.770E+00    5.766E+00    5.762E+00    5.758E+00    5.756E+00    5.753E+00    5.751E+00    5.750E+00
     5.749E+00    5.748E+00    5.747E+00    5.747E+00    5.747E+00    5.747E+00    5.748E+00    5.748E+00    5.749E+00    5.750E+00
     5.751E+00    5.753E+00    5.754E+00    5.756E+00    5.758E+00    5.760E+00    5.762E+00    5.764E+00    5.766E+00    5.768E+00
     5.770E+00    5.772E+00    5.775E+00    5.777E+00    5.779E+00    5.781E+00    5.782E+00    5.784E+00    5.786E+00    5.787E+00
     5.789E+00    5.790E+00    5.791E+00    5.792E+00    5.793E+00    5.793E+00    5.793E+00    5.793E+00    5.793E+00    5.792E+00
     5.791E+00    5.790E+00    5.789E+00    5.787E+00    5.784E+00    5.782E+00    5.779E+00    5.775E+00    5.772E+00    5.767E+00
     5.763E+00    5.758E+00    5.752E+00    5.746E+00    5.740E+00    5.734E+00    5.727E+00    5.720E+00    5.712E+00    5.705E+00
     5.697E+00    5.688E+00    5.680E+00    5.671E+00    5.662E+00    5.652E+00    5.643E+00    5.633E+00    5.623E+00    5.613E+00
     5.602E+00    5.592E+00    5.581E+00    5.570E+00    5.560E+00    5.548E+00    5.537E+00    5.526E+00    5.515E+00    5.503E+00
     5.491E+00    5.480E+00    5.468E+00    5.457E+00    5.445E+00    5.433E+00    5.421E+00    5.409E+00    5.398E+00    5.386E+00
     5.374E+00    5.363E+00    5.351E+00    5.339E+00    5.328E+00    5.317E+00    5.305E+00    5.294E+00
 Asp      Conc. = 3.56E+01
