 LCModel (Version 6.3-1L) Copyright: S.W. Provencher.          Ref.: Magn. Reson. Med. 30:672-679 (1993).                
 Slice#1 Row#13 Col#4  K_02_press_1_raw_act
 36 lines in following concentration table = NCONC+1
    Conc.  %SD /Cr+PCr  Metabolite                                         
  148.100  64%   0.553 Ala                                                 
    0.000 999%   0.000 Asp                                                 
    0.000 999%   0.000 Cr                                                  
  267.775  13%   1.000 PCr                                                 
   33.483 121%   0.125 GABA                                                
   24.513 162% 9.2E-02 Glc                                                 
  116.602 196%   0.435 Gln                                                 
  296.195  87%   1.106 Glu                                                 
  121.502  11%   0.454 GPC                                                 
    0.000 999%   0.000 PCh                                                 
  149.042  35%   0.557 GSH                                                 
 1.09E+03  17%   4.053 Ins                                                 
  221.731  52%   0.828 Lac                                                 
  357.684  17%   1.336 NAA                                                 
   96.702  64%   0.361 NAAG                                                
   41.516  28%   0.155 Scyllo                                              
   60.276 106%   0.225 Tau                                                 
  244.084  26%   0.912 -CrCH2                                              
  121.502  11%   0.454 GPC+PCh                                             
  454.387   9%   1.697 NAA+NAAG                                            
  267.775  13%   1.000 Cr+PCr                                              
  412.797 104%   1.542 Glu+Gln                                             
  286.062 111%   1.068 Lip13a                                              
   32.418 360%   0.121 Lip13b                                              
   47.805 184%   0.179 Lip09                                               
  285.360  31%   1.066 MM09                                                
   41.032 139%   0.153 Lip20                                               
  292.997  53%   1.094 MM20                                                
   83.761  55%   0.313 MM12                                                
  455.800  27%   1.702 MM14                                                
  345.609  24%   1.291 MM17                                                
  318.479  70%   1.189 Lip13a+Lip13b                                       
  858.040  26%   3.204 MM14+Lip13a+Lip13b+MM12                             
  333.166  25%   1.244 MM09+Lip09                                          
  334.029  47%   1.247 MM20+Lip20                                          
   6 lines in following misc. output table
  FWHM = 0.076 ppm    S/N =   3                                            
  Data shift = 0.000 ppm                                                   
  Ph: -14 deg      -5.6 deg/ppm                                            
  alphaB,S = 1.2E+00,   1.0E+02                                            
   14 spline knots.   Ns =10(1)                                            
  (16) 3 infls.   (14) 1 extrs.                                            
  498 points on ppm-axis = NY
      4.000000     3.992357     3.984714     3.977070     3.969427     3.961784     3.954141     3.946497     3.938854     3.931211
      3.923568     3.915925     3.908281     3.900638     3.892995     3.885352     3.877708     3.870065     3.862422     3.854779
      3.847136     3.839492     3.831849     3.824206     3.816563     3.808919     3.801276     3.793633     3.785990     3.778347
      3.770703     3.763060     3.755417     3.747774     3.740130     3.732487     3.724844     3.717201     3.709558     3.701914
      3.694271     3.686628     3.678985     3.671341     3.663698     3.656055     3.648412     3.640769     3.633125     3.625482
      3.617839     3.610196     3.602552     3.594909     3.587266     3.579623     3.571980     3.564336     3.556693     3.549050
      3.541407     3.533763     3.526120     3.518477     3.510834     3.503191     3.495547     3.487904     3.480261     3.472618
      3.464974     3.457331     3.449688     3.442045     3.434402     3.426758     3.419115     3.411472     3.403829     3.396185
      3.388542     3.380899     3.373256     3.365613     3.357969     3.350326     3.342683     3.335040     3.327396     3.319753
      3.312110     3.304467     3.296824     3.289180     3.281537     3.273894     3.266251     3.258607     3.250964     3.243321
      3.235678     3.228034     3.220391     3.212748     3.205105     3.197462     3.189818     3.182175     3.174532     3.166889
      3.159245     3.151602     3.143959     3.136316     3.128673     3.121029     3.113386     3.105743     3.098100     3.090456
      3.082813     3.075170     3.067527     3.059884     3.052240     3.044597     3.036954     3.029311     3.021667     3.014024
      3.006381     2.998738     2.991095     2.983451     2.975808     2.968165     2.960522     2.952878     2.945235     2.937592
      2.929949     2.922306     2.914662     2.907019     2.899376     2.891733     2.884089     2.876446     2.868803     2.861160
      2.853517     2.845873     2.838230     2.830587     2.822944     2.815300     2.807657     2.800014     2.792371     2.784728
      2.777084     2.769441     2.761798     2.754155     2.746511     2.738868     2.731225     2.723582     2.715939     2.708295
      2.700652     2.693009     2.685366     2.677722     2.670079     2.662436     2.654793     2.647150     2.639506     2.631863
      2.624220     2.616577     2.608933     2.601290     2.593647     2.586004     2.578361     2.570717     2.563074     2.555431
      2.547788     2.540144     2.532501     2.524858     2.517215     2.509572     2.501928     2.494285     2.486642     2.478999
      2.471355     2.463712     2.456069     2.448426     2.440783     2.433139     2.425496     2.417853     2.410210     2.402566
      2.394923     2.387280     2.379637     2.371994     2.364350     2.356707     2.349064     2.341421     2.333777     2.326134
      2.318491     2.310848     2.303205     2.295561     2.287918     2.280275     2.272632     2.264988     2.257345     2.249702
      2.242059     2.234416     2.226772     2.219129     2.211486     2.203843     2.196199     2.188556     2.180913     2.173270
      2.165627     2.157983     2.150340     2.142697     2.135054     2.127410     2.119767     2.112124     2.104481     2.096838
      2.089194     2.081551     2.073908     2.066265     2.058621     2.050978     2.043335     2.035692     2.028049     2.020405
      2.012762     2.005119     1.997476     1.989833     1.982190     1.974546     1.966903     1.959260     1.951617     1.943974
      1.936331     1.928688     1.921045     1.913402     1.905759     1.898115     1.890472     1.882829     1.875186     1.867543
      1.859900     1.852257     1.844614     1.836971     1.829327     1.821684     1.814041     1.806398     1.798755     1.791112
      1.783469     1.775826     1.768183     1.760540     1.752896     1.745253     1.737610     1.729967     1.722324     1.714681
      1.707038     1.699395     1.691752     1.684108     1.676465     1.668822     1.661179     1.653536     1.645893     1.638250
      1.630607     1.622964     1.615321     1.607677     1.600034     1.592391     1.584748     1.577105     1.569462     1.561819
      1.554176     1.546533     1.538890     1.531246     1.523603     1.515960     1.508317     1.500674     1.493031     1.485388
      1.477745     1.470102     1.462458     1.454815     1.447172     1.439529     1.431886     1.424243     1.416600     1.408957
      1.401314     1.393671     1.386027     1.378384     1.370741     1.363098     1.355455     1.347812     1.340169     1.332526
      1.324883     1.317240     1.309596     1.301953     1.294310     1.286667     1.279024     1.271381     1.263738     1.256095
      1.248452     1.240808     1.233165     1.225522     1.217879     1.210236     1.202593     1.194950     1.187307     1.179664
      1.172021     1.164377     1.156734     1.149091     1.141448     1.133805     1.126162     1.118519     1.110876     1.103233
      1.095590     1.087946     1.080303     1.072660     1.065017     1.057374     1.049731     1.042088     1.034445     1.026802
      1.019158     1.011515     1.003872     0.996229     0.988586     0.980943     0.973300     0.965657     0.958014     0.950371
      0.942727     0.935084     0.927441     0.919798     0.912155     0.904512     0.896869     0.889226     0.881583     0.873940
      0.866296     0.858653     0.851010     0.843367     0.835724     0.828081     0.820438     0.812795     0.805152     0.797508
      0.789865     0.782222     0.774579     0.766936     0.759293     0.751650     0.744007     0.736364     0.728721     0.721077
      0.713434     0.705791     0.698148     0.690505     0.682862     0.675219     0.667576     0.659933     0.652290     0.644646
      0.637003     0.629360     0.621717     0.614074     0.606431     0.598788     0.591145     0.583502     0.575858     0.568215
      0.560572     0.552929     0.545286     0.537643     0.530000     0.522357     0.514714     0.507071     0.499427     0.491784
      0.484141     0.476498     0.468855     0.461212     0.453569     0.445925     0.438282     0.430639     0.422996     0.415353
      0.407710     0.400067     0.392424     0.384780     0.377137     0.369494     0.361851     0.354208     0.346565     0.338922
      0.331278     0.323635     0.315992     0.308349     0.300706     0.293063     0.285420     0.277777     0.270133     0.262490
      0.254847     0.247204     0.239561     0.231918     0.224275     0.216631     0.208988     0.201345
 NY phased data points follow
  -4.78466E+01 -5.17750E+01 -4.97895E+01 -4.80849E+01 -4.97506E+01 -4.68369E+01 -4.37561E+01 -4.50655E+01 -4.39288E+01 -4.46819E+01
  -4.20441E+01 -4.30204E+01 -4.30919E+01 -4.25356E+01 -4.58278E+01 -4.35126E+01 -4.23121E+01 -4.40031E+01 -4.39520E+01 -4.34795E+01
  -4.23233E+01 -4.19697E+01 -3.93299E+01 -4.23627E+01 -4.22107E+01 -3.93757E+01 -3.70428E+01 -3.79010E+01 -3.52335E+01 -4.00307E+01
  -3.52229E+01 -3.67900E+01 -3.36277E+01 -3.44681E+01 -3.35870E+01 -3.13662E+01 -3.05066E+01 -3.17075E+01 -3.15292E+01 -3.11628E+01
  -3.20306E+01 -3.11035E+01 -2.95902E+01 -2.91390E+01 -3.03946E+01 -2.64006E+01 -2.93947E+01 -2.87761E+01 -2.84515E+01 -2.50437E+01
  -2.87482E+01 -2.87266E+01 -2.40110E+01 -2.84306E+01 -2.65191E+01 -2.59583E+01 -2.66144E+01 -2.87336E+01 -2.55624E+01 -2.63733E+01
  -2.51156E+01 -2.73505E+01 -2.56274E+01 -2.75793E+01 -3.09018E+01 -2.66833E+01 -2.74863E+01 -2.71411E+01 -2.57666E+01 -2.70937E+01
  -2.86271E+01 -2.26463E+01 -2.54116E+01 -2.51169E+01 -2.45315E+01 -2.42755E+01 -2.29874E+01 -2.28903E+01 -2.49169E+01 -2.33628E+01
  -1.99243E+01 -1.94808E+01 -2.31442E+01 -2.38919E+01 -2.38932E+01 -2.22750E+01 -2.15270E+01 -1.91612E+01 -1.97255E+01 -2.22854E+01
  -2.10306E+01 -1.91389E+01 -1.85008E+01 -1.77679E+01 -1.89670E+01 -1.83839E+01 -2.03547E+01 -1.91969E+01 -1.52078E+01 -1.49621E+01
  -1.65021E+01 -1.49594E+01 -1.39928E+01 -1.13539E+01 -1.30739E+01 -1.10160E+01 -1.14628E+01 -1.32652E+01 -1.55044E+01 -1.63014E+01
  -1.46524E+01 -1.72957E+01 -1.86751E+01 -1.69594E+01 -1.67940E+01 -1.71177E+01 -1.55310E+01 -1.70416E+01 -1.56299E+01 -1.44420E+01
  -1.28145E+01 -1.44861E+01 -1.26051E+01 -1.26936E+01 -9.84405E+00 -9.31880E+00 -1.00057E+01 -7.98568E+00 -1.08870E+01 -7.18294E+00
  -8.07112E+00 -1.11066E+01 -1.02596E+01 -1.05892E+01 -1.46829E+01 -1.52250E+01 -1.50511E+01 -1.39983E+01 -1.40707E+01 -1.35172E+01
  -1.16776E+01 -1.39781E+01 -1.28544E+01 -9.81318E+00 -1.23597E+01 -1.40344E+01 -1.47180E+01 -1.23399E+01 -1.27872E+01 -1.36603E+01
  -1.26507E+01 -1.38578E+01 -1.18831E+01 -1.19515E+01 -8.26375E+00 -1.07968E+01 -1.10644E+01 -9.58076E+00 -1.28234E+01 -9.91932E+00
  -9.21404E+00 -8.28472E+00 -9.26534E+00 -1.10467E+01 -8.19251E+00 -9.55725E+00 -1.08503E+01 -1.02001E+01 -1.25581E+01 -1.45866E+01
  -8.85068E+00 -1.07623E+01 -1.27931E+01 -1.28896E+01 -1.31931E+01 -1.17546E+01 -1.37160E+01 -1.36623E+01 -1.07592E+01 -1.28673E+01
  -1.15873E+01 -1.11181E+01 -1.24558E+01 -1.29910E+01 -9.24716E+00 -8.94870E+00 -1.02070E+01 -8.39786E+00 -7.48270E+00 -9.18295E+00
  -9.42962E+00 -1.08171E+01 -9.48954E+00 -9.63231E+00 -9.53568E+00 -8.59123E+00 -8.17548E+00 -7.74278E+00 -7.79372E+00 -6.93527E+00
  -1.17657E+01 -8.27166E+00 -8.63406E+00 -8.31155E+00 -7.86792E+00 -7.65952E+00 -6.82527E+00 -7.35974E+00 -7.94208E+00 -8.50213E+00
  -8.77389E+00 -5.80359E+00 -5.45404E+00 -6.34623E+00 -6.83423E+00 -5.97200E+00 -5.85642E+00 -7.87757E+00 -8.21595E+00 -7.75660E+00
  -7.85501E+00 -6.25080E+00 -9.25626E+00 -6.38010E+00 -6.71418E+00 -3.98669E+00 -5.35155E+00 -5.50208E+00 -7.80932E+00 -4.39723E+00
  -6.15492E+00 -7.19483E+00 -5.57868E+00 -5.31312E+00 -7.68311E+00 -4.54216E+00 -6.49682E+00 -4.59364E+00 -6.79991E+00 -6.62680E+00
  -3.29937E+00 -5.38707E+00 -4.26488E+00 -5.85248E+00 -4.30525E+00 -5.63160E+00 -6.95144E+00 -5.23921E+00 -4.66710E+00 -2.56439E+00
  -2.58166E+00 -1.61375E+00  1.34726E+00 -1.72489E+00 -5.80366E-01  1.47084E+00  5.16726E+00  6.49780E+00  8.51501E+00  6.32201E+00
   4.42936E+00  6.40336E+00  5.99654E+00  3.19414E+00  5.59408E+00  3.59160E-01 -1.44440E+00 -2.78809E+00  5.89570E-01 -2.54717E+00
  -2.44923E+00 -5.60463E+00 -2.54034E+00 -9.37617E-01 -3.12263E+00 -1.59796E+00 -1.46775E+00 -2.68549E+00 -3.13435E+00 -3.64871E+00
  -1.38051E+00 -2.44919E+00 -2.18700E+00 -4.39890E+00 -2.83213E+00 -2.03857E+00 -4.93620E+00 -2.98183E+00 -1.95733E+00 -3.84907E+00
  -2.35449E+00 -3.54361E+00 -4.46649E+00 -6.87370E-01  6.29147E-03 -3.62957E-01 -4.50164E+00  7.03400E-01 -3.22898E+00 -5.56222E-01
   5.22242E-01  1.92319E-01 -9.53447E-01 -2.34192E+00  3.00780E+00 -3.72048E+00 -1.80461E+00 -8.88056E-01 -7.67794E-01  1.22721E+00
   1.61182E+00 -9.57310E-01  9.14170E-01  1.19445E+00  2.95661E+00  3.97536E+00  1.61943E+00  1.59914E+00 -7.73543E-02  1.02008E+00
  -1.02125E+00 -2.25219E-01 -2.08728E+00  1.54245E+00 -2.17889E+00 -3.47887E-01  2.08554E+00  1.40410E+00  1.40722E-01  2.81293E-01
  -1.02857E+00  5.08994E-02  1.08520E+00 -1.17543E+00 -1.51478E+00  1.36680E-01  1.28648E+00  1.06631E+00  8.41742E-02 -1.36347E+00
   2.80365E+00  2.38672E+00  3.26369E+00  3.59322E+00  7.62289E-01 -4.89170E-01  2.31776E+00  2.38764E+00 -1.19694E+00 -1.45569E+00
  -9.69004E-01  1.23607E+00 -2.05481E-01 -1.69253E+00  6.34211E-01 -8.49147E-01  4.74504E-01 -4.02114E-01  5.69980E-01  6.10212E-01
   4.14446E-01 -1.43672E-01 -1.24821E+00  4.85983E-01 -2.28136E+00 -1.51923E+00 -9.01236E-01 -3.32827E+00  7.36564E-01  1.97646E-01
  -5.92540E-01 -1.14358E+00 -1.34212E+00 -2.47367E+00 -3.93637E+00 -3.27737E+00 -2.45332E+00 -2.16623E+00 -2.54406E+00 -4.08672E+00
  -1.76718E-01 -4.25558E+00 -2.29382E+00 -3.45983E+00 -1.61445E+00 -2.87446E+00 -4.36721E+00 -5.04446E+00 -4.42511E+00 -2.92282E+00
  -3.25987E+00 -3.69217E+00 -1.91287E+00 -8.78391E-01 -3.04856E-01 -1.41064E+00 -5.32346E+00 -2.31570E+00 -2.14880E+00 -1.42303E+00
  -5.97275E-01  2.20146E+00 -4.91003E-01  2.09502E+00 -6.19636E-01 -9.16163E-01  2.20055E+00 -8.39116E-01 -1.59374E+00 -1.69084E+00
  -4.71634E+00 -3.03312E+00 -3.55479E+00 -1.98669E+00 -4.04635E+00 -1.39241E+00 -2.71399E-01 -4.12411E+00 -2.92350E+00 -4.33833E+00
  -4.85762E+00 -1.41675E+00 -5.26944E+00 -3.45081E+00 -6.12351E+00 -7.53944E+00 -4.09685E+00 -3.48458E+00 -4.28301E+00 -5.87880E+00
  -2.85154E+00 -3.59582E+00 -2.06330E+00 -5.92122E+00 -4.41789E+00 -3.91666E+00 -1.56939E+00 -2.85552E+00 -3.35044E+00 -2.59778E+00
  -2.06686E+00 -5.29761E+00 -2.57996E+00 -5.54930E+00 -4.99027E+00 -5.90746E+00 -2.37143E+00 -5.05662E+00 -4.17936E+00 -2.07097E+00
  -4.28693E+00 -2.98460E+00 -3.91479E+00 -5.76791E+00 -2.10236E+00 -5.64125E+00 -3.94492E+00 -5.35948E+00 -4.08864E+00 -6.30029E+00
  -5.41964E+00 -5.76705E+00 -4.64796E+00 -4.35067E+00 -3.27661E+00 -4.44401E+00 -6.44397E+00 -5.36992E+00 -4.43827E+00 -5.73374E+00
  -4.49567E+00 -4.81943E+00 -4.36258E+00 -3.78307E+00 -2.47340E+00 -4.35242E+00 -5.28736E+00 -2.53053E+00 -9.97534E-01 -4.40765E+00
  -6.20616E+00 -3.28823E+00 -5.10554E+00 -3.81246E+00 -4.00168E+00 -2.30463E+00 -1.54242E+00 -4.51660E+00 -3.87177E+00 -3.40713E+00
  -2.39440E+00 -4.94979E+00 -3.56232E+00 -1.58857E+00 -1.72346E+00 -3.09677E+00 -3.28519E+00  9.59427E-01
 NY points of the fit to the data follow
  -4.63603E+01 -4.65184E+01 -4.65206E+01 -4.63641E+01 -4.61051E+01 -4.57751E+01 -4.53952E+01 -4.50038E+01 -4.46296E+01 -4.42733E+01
  -4.39280E+01 -4.36010E+01 -4.33017E+01 -4.30283E+01 -4.27659E+01 -4.24958E+01 -4.22124E+01 -4.19320E+01 -4.16587E+01 -4.13688E+01
  -4.10154E+01 -4.05764E+01 -4.01523E+01 -3.97462E+01 -3.92557E+01 -3.86231E+01 -3.78946E+01 -3.71593E+01 -3.64856E+01 -3.58914E+01
  -3.53261E+01 -3.47835E+01 -3.43013E+01 -3.39434E+01 -3.37735E+01 -3.37750E+01 -3.37931E+01 -3.36750E+01 -3.34810E+01 -3.32966E+01
  -3.29739E+01 -3.23141E+01 -3.13695E+01 -3.04072E+01 -2.96238E+01 -2.90306E+01 -2.85463E+01 -2.81542E+01 -2.79013E+01 -2.78356E+01
  -2.80088E+01 -2.83850E+01 -2.88458E+01 -2.92176E+01 -2.93822E+01 -2.93265E+01 -2.90642E+01 -2.86212E+01 -2.80999E+01 -2.76132E+01
  -2.72181E+01 -2.68832E+01 -2.66071E+01 -2.64243E+01 -2.63218E+01 -2.62214E+01 -2.60484E+01 -2.57985E+01 -2.54880E+01 -2.51173E+01
  -2.47005E+01 -2.42790E+01 -2.39022E+01 -2.36109E+01 -2.34148E+01 -2.32927E+01 -2.31953E+01 -2.30976E+01 -2.30447E+01 -2.30087E+01
  -2.29352E+01 -2.28186E+01 -2.27035E+01 -2.26323E+01 -2.25904E+01 -2.25275E+01 -2.24120E+01 -2.22880E+01 -2.21869E+01 -2.20966E+01
  -2.20003E+01 -2.18752E+01 -2.16138E+01 -2.09992E+01 -2.02648E+01 -1.95936E+01 -1.88090E+01 -1.77105E+01 -1.63981E+01 -1.52006E+01
  -1.43077E+01 -1.36549E+01 -1.30994E+01 -1.26133E+01 -1.23084E+01 -1.23245E+01 -1.27347E+01 -1.34975E+01 -1.44661E+01 -1.54554E+01
  -1.63401E+01 -1.70562E+01 -1.75141E+01 -1.76548E+01 -1.75719E+01 -1.74250E+01 -1.71657E+01 -1.66390E+01 -1.60517E+01 -1.55049E+01
  -1.48267E+01 -1.38598E+01 -1.27039E+01 -1.16285E+01 -1.07800E+01 -1.01231E+01 -9.58795E+00 -9.16731E+00 -8.93728E+00 -9.00067E+00
  -9.41046E+00 -1.01255E+01 -1.10006E+01 -1.18722E+01 -1.26367E+01 -1.32367E+01 -1.36042E+01 -1.37119E+01 -1.36563E+01 -1.35657E+01
  -1.34505E+01 -1.32976E+01 -1.31143E+01 -1.29174E+01 -1.27279E+01 -1.25707E+01 -1.24635E+01 -1.24027E+01 -1.23733E+01 -1.23580E+01
  -1.23435E+01 -1.23236E+01 -1.22852E+01 -1.22224E+01 -1.21485E+01 -1.20761E+01 -1.20157E+01 -1.19606E+01 -1.18915E+01 -1.18041E+01
  -1.17153E+01 -1.16425E+01 -1.15869E+01 -1.15394E+01 -1.14909E+01 -1.14417E+01 -1.13995E+01 -1.13605E+01 -1.13152E+01 -1.12742E+01
  -1.12512E+01 -1.12473E+01 -1.12365E+01 -1.11951E+01 -1.11276E+01 -1.10584E+01 -1.10090E+01 -1.09722E+01 -1.09150E+01 -1.08241E+01
  -1.07166E+01 -1.06033E+01 -1.04741E+01 -1.03143E+01 -1.01248E+01 -9.90865E+00 -9.67369E+00 -9.43342E+00 -9.21727E+00 -9.03112E+00
  -8.85205E+00 -8.68690E+00 -8.56227E+00 -8.48434E+00 -8.42813E+00 -8.37079E+00 -8.31061E+00 -8.25604E+00 -8.19041E+00 -8.10014E+00
  -7.99827E+00 -7.87712E+00 -7.73707E+00 -7.62200E+00 -7.55986E+00 -7.53956E+00 -7.51847E+00 -7.51632E+00 -7.54298E+00 -7.55549E+00
  -7.50529E+00 -7.40173E+00 -7.29993E+00 -7.20463E+00 -7.07827E+00 -6.93429E+00 -6.83747E+00 -6.81397E+00 -6.83904E+00 -6.88070E+00
  -6.93228E+00 -6.99146E+00 -7.03254E+00 -7.01364E+00 -6.90227E+00 -6.69821E+00 -6.44012E+00 -6.16480E+00 -5.89336E+00 -5.64843E+00
  -5.46869E+00 -5.35376E+00 -5.28114E+00 -5.23562E+00 -5.18659E+00 -5.12860E+00 -5.06911E+00 -5.01471E+00 -4.96656E+00 -4.92749E+00
  -4.90174E+00 -4.89055E+00 -4.88890E+00 -4.88033E+00 -4.84261E+00 -4.73656E+00 -4.49161E+00 -4.15608E+00 -3.79764E+00 -3.35528E+00
  -2.58325E+00 -1.50893E+00 -5.36136E-01  3.22573E-01  1.36607E+00  2.71851E+00  4.11809E+00  5.20442E+00  5.85864E+00  6.17789E+00
   6.26073E+00  6.10168E+00  5.62648E+00  4.77407E+00  3.56623E+00  2.15252E+00  7.45386E-01 -5.10398E-01 -1.57501E+00 -2.39336E+00
  -2.87404E+00 -3.04101E+00 -3.07125E+00 -3.08784E+00 -3.09020E+00 -3.08309E+00 -3.07383E+00 -3.06544E+00 -3.06036E+00 -3.05987E+00
  -3.06217E+00 -3.06386E+00 -3.05981E+00 -3.04588E+00 -3.02014E+00 -2.98239E+00 -2.93351E+00 -2.87466E+00 -2.80749E+00 -2.73351E+00
  -2.65249E+00 -2.56320E+00 -2.46438E+00 -2.35492E+00 -2.23454E+00 -2.10328E+00 -1.96137E+00 -1.80981E+00 -1.65047E+00 -1.48519E+00
  -1.31602E+00 -1.14535E+00 -9.75604E-01 -8.09664E-01 -6.51381E-01 -5.04542E-01 -3.72304E-01 -2.57157E-01 -1.60929E-01 -8.45097E-02
  -2.74815E-02  1.19008E-02  3.62719E-02  4.94007E-02  5.65831E-02  6.57691E-02  9.18077E-02  1.58393E-01  2.26552E-01  2.52213E-01
   2.78308E-01  3.36974E-01  3.89147E-01  3.58408E-01  2.11416E-01  2.31074E-02 -1.19568E-01 -2.58068E-01 -4.36517E-01 -6.22491E-01
  -7.43652E-01 -7.63849E-01 -6.97208E-01 -5.59933E-01 -3.45108E-01 -3.80986E-02  3.73442E-01  8.87733E-01  1.36361E+00  1.65941E+00
   1.82262E+00  1.92481E+00  1.93126E+00  1.74497E+00  1.35137E+00  9.33508E-01  5.91540E-01  2.53575E-01 -1.24757E-01 -4.78201E-01
  -7.27941E-01 -8.65107E-01 -9.17225E-01 -8.84325E-01 -7.43518E-01 -4.89679E-01 -1.48565E-01  2.17709E-01  5.01701E-01  6.07522E-01
   5.30283E-01  3.23846E-01  3.64567E-02 -2.98999E-01 -6.42974E-01 -9.39603E-01 -1.16243E+00 -1.34017E+00 -1.49768E+00 -1.63993E+00
  -1.76973E+00 -1.88899E+00 -1.99898E+00 -2.10040E+00 -2.19364E+00 -2.27879E+00 -2.35582E+00 -2.42451E+00 -2.48458E+00 -2.53562E+00
  -2.57715E+00 -2.60859E+00 -2.62937E+00 -2.63881E+00 -2.63626E+00 -2.62105E+00 -2.59259E+00 -2.55039E+00 -2.49422E+00 -2.42408E+00
  -2.34035E+00 -2.24379E+00 -2.13574E+00 -2.01801E+00 -1.89304E+00 -1.76377E+00 -1.63366E+00 -1.50652E+00 -1.38645E+00 -1.27762E+00
  -1.18409E+00 -1.10961E+00 -1.05739E+00 -1.02995E+00 -1.02897E+00 -1.05520E+00 -1.10841E+00 -1.18741E+00 -1.29012E+00 -1.41374E+00
  -1.55490E+00 -1.70980E+00 -1.87451E+00 -2.04506E+00 -2.21772E+00 -2.38904E+00 -2.55608E+00 -2.71637E+00 -2.86801E+00 -3.00965E+00
  -3.14042E+00 -3.25995E+00 -3.36822E+00 -3.46554E+00 -3.55245E+00 -3.62963E+00 -3.69789E+00 -3.75805E+00 -3.81096E+00 -3.85743E+00
  -3.89821E+00 -3.93398E+00 -3.96537E+00 -3.99291E+00 -4.01709E+00 -4.03830E+00 -4.05691E+00 -4.07319E+00 -4.08740E+00 -4.09976E+00
  -4.11044E+00 -4.11959E+00 -4.12733E+00 -4.13377E+00 -4.13901E+00 -4.14312E+00 -4.14617E+00 -4.14820E+00 -4.14928E+00 -4.14944E+00
  -4.14872E+00 -4.14715E+00 -4.14477E+00 -4.14159E+00 -4.13765E+00 -4.13297E+00 -4.12761E+00 -4.12157E+00 -4.11488E+00 -4.10756E+00
  -4.09966E+00 -4.09116E+00 -4.08212E+00 -4.07253E+00 -4.06243E+00 -4.05182E+00 -4.04074E+00 -4.02918E+00 -4.01719E+00 -4.00475E+00
  -3.99190E+00 -3.97865E+00 -3.96501E+00 -3.95099E+00 -3.93662E+00 -3.92190E+00 -3.90686E+00 -3.89149E+00 -3.87583E+00 -3.85986E+00
  -3.84363E+00 -3.82713E+00 -3.81038E+00 -3.79338E+00 -3.77617E+00 -3.75873E+00 -3.74109E+00 -3.72326E+00 -3.70526E+00 -3.68707E+00
  -3.66874E+00 -3.65026E+00 -3.63164E+00 -3.61290E+00 -3.59404E+00 -3.57507E+00 -3.55602E+00 -3.53686E+00
 NY background values follow
    -4.895E+01   -4.863E+01   -4.830E+01   -4.798E+01   -4.765E+01   -4.732E+01   -4.700E+01   -4.667E+01   -4.635E+01   -4.602E+01
    -4.570E+01   -4.537E+01   -4.505E+01   -4.472E+01   -4.440E+01   -4.407E+01   -4.375E+01   -4.343E+01   -4.310E+01   -4.278E+01
    -4.246E+01   -4.213E+01   -4.181E+01   -4.149E+01   -4.117E+01   -4.085E+01   -4.053E+01   -4.022E+01   -3.990E+01   -3.958E+01
    -3.927E+01   -3.895E+01   -3.864E+01   -3.833E+01   -3.801E+01   -3.770E+01   -3.739E+01   -3.708E+01   -3.678E+01   -3.647E+01
    -3.616E+01   -3.586E+01   -3.556E+01   -3.526E+01   -3.495E+01   -3.466E+01   -3.436E+01   -3.406E+01   -3.377E+01   -3.347E+01
    -3.318E+01   -3.289E+01   -3.260E+01   -3.231E+01   -3.203E+01   -3.174E+01   -3.146E+01   -3.118E+01   -3.090E+01   -3.062E+01
    -3.034E+01   -3.007E+01   -2.980E+01   -2.952E+01   -2.925E+01   -2.898E+01   -2.872E+01   -2.845E+01   -2.819E+01   -2.793E+01
    -2.767E+01   -2.741E+01   -2.715E+01   -2.689E+01   -2.664E+01   -2.639E+01   -2.614E+01   -2.589E+01   -2.564E+01   -2.540E+01
    -2.516E+01   -2.492E+01   -2.468E+01   -2.444E+01   -2.420E+01   -2.397E+01   -2.374E+01   -2.351E+01   -2.328E+01   -2.306E+01
    -2.283E+01   -2.261E+01   -2.239E+01   -2.217E+01   -2.196E+01   -2.174E+01   -2.153E+01   -2.132E+01   -2.111E+01   -2.091E+01
    -2.070E+01   -2.050E+01   -2.030E+01   -2.010E+01   -1.990E+01   -1.971E+01   -1.952E+01   -1.932E+01   -1.914E+01   -1.895E+01
    -1.876E+01   -1.858E+01   -1.840E+01   -1.822E+01   -1.804E+01   -1.786E+01   -1.769E+01   -1.752E+01   -1.735E+01   -1.718E+01
    -1.701E+01   -1.685E+01   -1.668E+01   -1.652E+01   -1.636E+01   -1.621E+01   -1.605E+01   -1.590E+01   -1.574E+01   -1.559E+01
    -1.544E+01   -1.530E+01   -1.515E+01   -1.501E+01   -1.487E+01   -1.473E+01   -1.459E+01   -1.445E+01   -1.432E+01   -1.419E+01
    -1.405E+01   -1.393E+01   -1.380E+01   -1.367E+01   -1.355E+01   -1.342E+01   -1.330E+01   -1.318E+01   -1.306E+01   -1.295E+01
    -1.283E+01   -1.272E+01   -1.260E+01   -1.249E+01   -1.238E+01   -1.227E+01   -1.217E+01   -1.206E+01   -1.195E+01   -1.185E+01
    -1.175E+01   -1.165E+01   -1.155E+01   -1.145E+01   -1.135E+01   -1.125E+01   -1.116E+01   -1.106E+01   -1.097E+01   -1.088E+01
    -1.079E+01   -1.070E+01   -1.061E+01   -1.052E+01   -1.043E+01   -1.034E+01   -1.026E+01   -1.017E+01   -1.009E+01   -1.000E+01
    -9.922E+00   -9.839E+00   -9.758E+00   -9.677E+00   -9.597E+00   -9.518E+00   -9.439E+00   -9.361E+00   -9.284E+00   -9.207E+00
    -9.131E+00   -9.056E+00   -8.981E+00   -8.906E+00   -8.833E+00   -8.760E+00   -8.687E+00   -8.615E+00   -8.543E+00   -8.472E+00
    -8.402E+00   -8.332E+00   -8.262E+00   -8.193E+00   -8.125E+00   -8.057E+00   -7.989E+00   -7.922E+00   -7.855E+00   -7.788E+00
    -7.722E+00   -7.656E+00   -7.591E+00   -7.526E+00   -7.462E+00   -7.397E+00   -7.333E+00   -7.270E+00   -7.206E+00   -7.143E+00
    -7.080E+00   -7.018E+00   -6.956E+00   -6.894E+00   -6.832E+00   -6.770E+00   -6.709E+00   -6.648E+00   -6.587E+00   -6.526E+00
    -6.465E+00   -6.405E+00   -6.345E+00   -6.285E+00   -6.226E+00   -6.166E+00   -6.107E+00   -6.048E+00   -5.990E+00   -5.932E+00
    -5.874E+00   -5.816E+00   -5.759E+00   -5.702E+00   -5.646E+00   -5.590E+00   -5.534E+00   -5.478E+00   -5.423E+00   -5.368E+00
    -5.314E+00   -5.260E+00   -5.207E+00   -5.153E+00   -5.101E+00   -5.048E+00   -4.997E+00   -4.945E+00   -4.894E+00   -4.844E+00
    -4.794E+00   -4.744E+00   -4.695E+00   -4.647E+00   -4.599E+00   -4.551E+00   -4.505E+00   -4.458E+00   -4.412E+00   -4.367E+00
    -4.322E+00   -4.278E+00   -4.234E+00   -4.191E+00   -4.149E+00   -4.107E+00   -4.066E+00   -4.025E+00   -3.985E+00   -3.946E+00
    -3.907E+00   -3.869E+00   -3.832E+00   -3.795E+00   -3.759E+00   -3.723E+00   -3.689E+00   -3.655E+00   -3.622E+00   -3.589E+00
    -3.557E+00   -3.526E+00   -3.496E+00   -3.467E+00   -3.438E+00   -3.410E+00   -3.383E+00   -3.356E+00   -3.331E+00   -3.306E+00
    -3.282E+00   -3.259E+00   -3.237E+00   -3.215E+00   -3.195E+00   -3.175E+00   -3.156E+00   -3.138E+00   -3.121E+00   -3.105E+00
    -3.090E+00   -3.075E+00   -3.062E+00   -3.049E+00   -3.038E+00   -3.027E+00   -3.018E+00   -3.009E+00   -3.001E+00   -2.995E+00
    -2.989E+00   -2.984E+00   -2.980E+00   -2.977E+00   -2.974E+00   -2.973E+00   -2.972E+00   -2.973E+00   -2.974E+00   -2.976E+00
    -2.978E+00   -2.981E+00   -2.985E+00   -2.990E+00   -2.996E+00   -3.002E+00   -3.009E+00   -3.016E+00   -3.024E+00   -3.033E+00
    -3.042E+00   -3.052E+00   -3.063E+00   -3.074E+00   -3.085E+00   -3.097E+00   -3.110E+00   -3.123E+00   -3.136E+00   -3.150E+00
    -3.165E+00   -3.180E+00   -3.195E+00   -3.210E+00   -3.226E+00   -3.243E+00   -3.259E+00   -3.276E+00   -3.294E+00   -3.311E+00
    -3.329E+00   -3.347E+00   -3.365E+00   -3.384E+00   -3.403E+00   -3.422E+00   -3.441E+00   -3.460E+00   -3.480E+00   -3.499E+00
    -3.519E+00   -3.539E+00   -3.559E+00   -3.579E+00   -3.599E+00   -3.619E+00   -3.639E+00   -3.659E+00   -3.679E+00   -3.699E+00
    -3.719E+00   -3.739E+00   -3.759E+00   -3.779E+00   -3.799E+00   -3.819E+00   -3.838E+00   -3.858E+00   -3.877E+00   -3.896E+00
    -3.915E+00   -3.934E+00   -3.953E+00   -3.971E+00   -3.989E+00   -4.007E+00   -4.024E+00   -4.042E+00   -4.059E+00   -4.076E+00
    -4.092E+00   -4.108E+00   -4.124E+00   -4.139E+00   -4.154E+00   -4.169E+00   -4.183E+00   -4.196E+00   -4.210E+00   -4.222E+00
    -4.235E+00   -4.247E+00   -4.258E+00   -4.269E+00   -4.280E+00   -4.290E+00   -4.300E+00   -4.309E+00   -4.318E+00   -4.326E+00
    -4.334E+00   -4.341E+00   -4.348E+00   -4.355E+00   -4.361E+00   -4.366E+00   -4.372E+00   -4.376E+00   -4.380E+00   -4.384E+00
    -4.387E+00   -4.390E+00   -4.392E+00   -4.394E+00   -4.395E+00   -4.396E+00   -4.396E+00   -4.396E+00   -4.395E+00   -4.394E+00
    -4.393E+00   -4.390E+00   -4.388E+00   -4.385E+00   -4.381E+00   -4.377E+00   -4.372E+00   -4.367E+00   -4.361E+00   -4.355E+00
    -4.349E+00   -4.341E+00   -4.334E+00   -4.325E+00   -4.317E+00   -4.308E+00   -4.298E+00   -4.288E+00   -4.277E+00   -4.266E+00
    -4.254E+00   -4.243E+00   -4.230E+00   -4.217E+00   -4.204E+00   -4.191E+00   -4.177E+00   -4.163E+00   -4.148E+00   -4.133E+00
    -4.118E+00   -4.102E+00   -4.086E+00   -4.070E+00   -4.053E+00   -4.036E+00   -4.019E+00   -4.002E+00   -3.985E+00   -3.967E+00
    -3.949E+00   -3.930E+00   -3.912E+00   -3.893E+00   -3.874E+00   -3.855E+00   -3.836E+00   -3.817E+00   -3.798E+00   -3.778E+00
    -3.758E+00   -3.738E+00   -3.719E+00   -3.699E+00   -3.678E+00   -3.658E+00   -3.638E+00   -3.618E+00
 Ala      Conc. = 1.48E+02
