 LCModel (Version 6.3-1L) Copyright: S.W. Provencher.          Ref.: Magn. Reson. Med. 30:672-679 (1993).                
 Slice#3 Row#3 Col#14  K_02_press_1_raw_act
 36 lines in following concentration table = NCONC+1
    Conc.  %SD /Cr+PCr  Metabolite                                         
  276.426  24%  29.376 Ala                                                 
    1.386  77%   0.147 Asp                                                 
    0.000 999%   0.000 Cr                                                  
    9.410  74%   1.000 PCr                                                 
    0.828  77% 8.8E-02 GABA                                                
    0.840  76% 8.9E-02 Glc                                                 
    0.000 999%   0.000 Gln                                                 
    0.000 999%   0.000 Glu                                                 
    0.000 999%   0.000 GPC                                                 
    6.193  41%   0.658 PCh                                                 
    0.000 999%   0.000 GSH                                                 
    0.000 999%   0.000 Ins                                                 
 1.36E+03  11% 144.719 Lac                                                 
    0.000 999%   0.000 NAA                                                 
    0.000 999%   0.000 NAAG                                                
    0.290  73% 3.1E-02 Scyllo                                              
    1.425  74%   0.151 Tau                                                 
    1.181 152%   0.126 -CrCH2                                              
    6.193  41%   0.658 GPC+PCh                                             
    0.000 999%   0.000 NAA+NAAG                                            
    9.410  74%   1.000 Cr+PCr                                              
    0.000 999%   0.000 Glu+Gln                                             
    0.000 999%   0.000 Lip13a                                              
  643.823  18%  68.419 Lip13b                                              
  161.249  18%  17.136 Lip09                                               
    0.000 999%   0.000 MM09                                                
   80.277  27%   8.531 Lip20                                               
    0.000 999%   0.000 MM20                                                
    0.000 999%   0.000 MM12                                                
    9.951 138%   1.058 MM14                                                
    0.000 999%   0.000 MM17                                                
  643.823  18%  68.419 Lip13a+Lip13b                                       
  653.774  18%  69.477 MM14+Lip13a+Lip13b+MM12                             
  161.249  18%  17.136 MM09+Lip09                                          
   80.277  27%   8.531 MM20+Lip20                                          
   6 lines in following misc. output table
  FWHM = 0.153 ppm    S/N =  10                                            
  Data shift =-0.038 ppm                                                   
  Ph: -45 deg     -35.0 deg/ppm                                            
  alphaB,S = 8.5E+01,   4.1E+02                                            
    7 spline knots.   Ns = 9(2)                                            
  ( 3) 2 infls.   ( 1) 1 extrs.                                            
  498 points on ppm-axis = NY
      4.000000     3.992357     3.984714     3.977070     3.969427     3.961784     3.954141     3.946497     3.938854     3.931211
      3.923568     3.915925     3.908281     3.900638     3.892995     3.885352     3.877708     3.870065     3.862422     3.854779
      3.847136     3.839492     3.831849     3.824206     3.816563     3.808919     3.801276     3.793633     3.785990     3.778347
      3.770703     3.763060     3.755417     3.747774     3.740130     3.732487     3.724844     3.717201     3.709558     3.701914
      3.694271     3.686628     3.678985     3.671341     3.663698     3.656055     3.648412     3.640769     3.633125     3.625482
      3.617839     3.610196     3.602552     3.594909     3.587266     3.579623     3.571980     3.564336     3.556693     3.549050
      3.541407     3.533763     3.526120     3.518477     3.510834     3.503191     3.495547     3.487904     3.480261     3.472618
      3.464974     3.457331     3.449688     3.442045     3.434402     3.426758     3.419115     3.411472     3.403829     3.396185
      3.388542     3.380899     3.373256     3.365613     3.357969     3.350326     3.342683     3.335040     3.327396     3.319753
      3.312110     3.304467     3.296824     3.289180     3.281537     3.273894     3.266251     3.258607     3.250964     3.243321
      3.235678     3.228034     3.220391     3.212748     3.205105     3.197462     3.189818     3.182175     3.174532     3.166889
      3.159245     3.151602     3.143959     3.136316     3.128673     3.121029     3.113386     3.105743     3.098100     3.090456
      3.082813     3.075170     3.067527     3.059884     3.052240     3.044597     3.036954     3.029311     3.021667     3.014024
      3.006381     2.998738     2.991095     2.983451     2.975808     2.968165     2.960522     2.952878     2.945235     2.937592
      2.929949     2.922306     2.914662     2.907019     2.899376     2.891733     2.884089     2.876446     2.868803     2.861160
      2.853517     2.845873     2.838230     2.830587     2.822944     2.815300     2.807657     2.800014     2.792371     2.784728
      2.777084     2.769441     2.761798     2.754155     2.746511     2.738868     2.731225     2.723582     2.715939     2.708295
      2.700652     2.693009     2.685366     2.677722     2.670079     2.662436     2.654793     2.647150     2.639506     2.631863
      2.624220     2.616577     2.608933     2.601290     2.593647     2.586004     2.578361     2.570717     2.563074     2.555431
      2.547788     2.540144     2.532501     2.524858     2.517215     2.509572     2.501928     2.494285     2.486642     2.478999
      2.471355     2.463712     2.456069     2.448426     2.440783     2.433139     2.425496     2.417853     2.410210     2.402566
      2.394923     2.387280     2.379637     2.371994     2.364350     2.356707     2.349064     2.341421     2.333777     2.326134
      2.318491     2.310848     2.303205     2.295561     2.287918     2.280275     2.272632     2.264988     2.257345     2.249702
      2.242059     2.234416     2.226772     2.219129     2.211486     2.203843     2.196199     2.188556     2.180913     2.173270
      2.165627     2.157983     2.150340     2.142697     2.135054     2.127410     2.119767     2.112124     2.104481     2.096838
      2.089194     2.081551     2.073908     2.066265     2.058621     2.050978     2.043335     2.035692     2.028049     2.020405
      2.012762     2.005119     1.997476     1.989833     1.982190     1.974546     1.966903     1.959260     1.951617     1.943974
      1.936331     1.928688     1.921045     1.913402     1.905759     1.898115     1.890472     1.882829     1.875186     1.867543
      1.859900     1.852257     1.844614     1.836971     1.829327     1.821684     1.814041     1.806398     1.798755     1.791112
      1.783469     1.775826     1.768183     1.760540     1.752896     1.745253     1.737610     1.729967     1.722324     1.714681
      1.707038     1.699395     1.691752     1.684108     1.676465     1.668822     1.661179     1.653536     1.645893     1.638250
      1.630607     1.622964     1.615321     1.607677     1.600034     1.592391     1.584748     1.577105     1.569462     1.561819
      1.554176     1.546533     1.538890     1.531246     1.523603     1.515960     1.508317     1.500674     1.493031     1.485388
      1.477745     1.470102     1.462458     1.454815     1.447172     1.439529     1.431886     1.424243     1.416600     1.408957
      1.401314     1.393671     1.386027     1.378384     1.370741     1.363098     1.355455     1.347812     1.340169     1.332526
      1.324883     1.317240     1.309596     1.301953     1.294310     1.286667     1.279024     1.271381     1.263738     1.256095
      1.248452     1.240808     1.233165     1.225522     1.217879     1.210236     1.202593     1.194950     1.187307     1.179664
      1.172021     1.164377     1.156734     1.149091     1.141448     1.133805     1.126162     1.118519     1.110876     1.103233
      1.095590     1.087946     1.080303     1.072660     1.065017     1.057374     1.049731     1.042088     1.034445     1.026802
      1.019158     1.011515     1.003872     0.996229     0.988586     0.980943     0.973300     0.965657     0.958014     0.950371
      0.942727     0.935084     0.927441     0.919798     0.912155     0.904512     0.896869     0.889226     0.881583     0.873940
      0.866296     0.858653     0.851010     0.843367     0.835724     0.828081     0.820438     0.812795     0.805152     0.797508
      0.789865     0.782222     0.774579     0.766936     0.759293     0.751650     0.744007     0.736364     0.728721     0.721077
      0.713434     0.705791     0.698148     0.690505     0.682862     0.675219     0.667576     0.659933     0.652290     0.644646
      0.637003     0.629360     0.621717     0.614074     0.606431     0.598788     0.591145     0.583502     0.575858     0.568215
      0.560572     0.552929     0.545286     0.537643     0.530000     0.522357     0.514714     0.507071     0.499427     0.491784
      0.484141     0.476498     0.468855     0.461212     0.453569     0.445925     0.438282     0.430639     0.422996     0.415353
      0.407710     0.400067     0.392424     0.384780     0.377137     0.369494     0.361851     0.354208     0.346565     0.338922
      0.331278     0.323635     0.315992     0.308349     0.300706     0.293063     0.285420     0.277777     0.270133     0.262490
      0.254847     0.247204     0.239561     0.231918     0.224275     0.216631     0.208988     0.201345
 NY phased data points follow
  -2.15365E-01 -9.25252E-01 -8.13807E-01 -2.81963E-01 -5.70067E-01 -4.18126E-01 -4.39529E-01 -4.91988E-01 -3.39753E-01 -7.49608E-01
  -4.58652E-01  4.75359E-02  4.17730E-02 -3.39381E-01 -5.48767E-01 -3.74184E-01 -3.33083E-01 -4.36599E-01 -8.20929E-01 -2.85070E-01
  -4.58306E-01 -2.78909E-01 -5.46350E-01 -8.54746E-01 -7.91649E-01 -5.09037E-01  5.72570E-02 -8.13058E-01 -3.15537E-02  2.10513E-01
  -6.74180E-01 -5.93535E-01 -1.70828E-01 -9.76985E-01 -1.19121E-01 -4.00706E-01 -5.95946E-01  2.10813E-01 -8.01932E-01 -1.05533E-02
  -2.08472E-01 -4.85171E-01 -4.41103E-01 -2.73121E-01 -4.86351E-02 -1.20314E-01 -5.82588E-01 -3.12907E-01 -2.44318E-01 -2.23039E-01
   1.91883E-01 -1.54431E-01 -4.20693E-01 -3.92628E-01 -6.26423E-04 -2.92628E-01 -1.12622E-01 -6.24180E-01  7.38935E-02 -1.59664E-01
  -1.83450E-01 -2.83000E-01 -1.92437E-01  7.98702E-02 -4.09929E-01 -4.86771E-01  3.08584E-01  1.98676E-01 -7.17142E-01 -2.86132E-01
  -1.70446E-01  6.26518E-02  5.90680E-02 -1.38027E-01  1.71023E-01 -4.83951E-01  1.91988E-01 -1.93044E-01  1.82915E-01 -9.88659E-02
  -5.92276E-02 -2.64236E-01 -3.02684E-02 -2.19097E-01  6.65140E-02  2.22555E-01 -4.09405E-01  2.91176E-01  3.13313E-01  2.15477E-01
  -3.21048E-01  8.55045E-02  1.58541E-01  5.92643E-01 -7.64508E-02  5.00872E-01 -2.33458E-01  6.12775E-02 -6.76877E-01  2.89900E-01
  -6.05346E-01  4.17987E-01 -3.30345E-01  5.58746E-02  1.26031E-01  5.25421E-01  1.85278E-01  1.03556E-01 -4.24167E-01  5.78158E-02
  -6.79086E-03 -1.48886E-01 -5.48462E-01 -1.93379E-01 -2.15281E-03 -8.82174E-02  2.77295E-02  2.90037E-02 -1.21433E-01  7.32830E-02
   4.39625E-01  4.15058E-01  5.53349E-01 -2.25176E-01  3.92514E-01  1.07881E-01  3.78296E-01  6.29249E-02  5.16014E-02  1.22973E-01
   9.69405E-02 -2.26061E-02 -1.20293E-01  3.30837E-01 -5.57939E-02 -5.22635E-01 -1.06321E-01  1.91937E-01 -1.58204E-01 -1.23789E-01
  -1.80737E-01  8.44177E-02  1.30976E-02 -7.27564E-02  3.16234E-01  5.20009E-01  5.33669E-01  2.78704E-01 -1.85125E-01 -2.22313E-01
   2.36112E-02  6.27676E-01  1.30984E-01  6.07487E-01  1.01119E-01  2.67108E-01  1.33101E-01  8.02102E-02  1.20995E-01  1.76412E-01
  -2.12080E-02  1.41537E-01  9.60555E-01  3.36173E-01 -2.14082E-01 -1.20125E-01 -1.73727E-01  8.67660E-01  2.82144E-01  4.24506E-01
   1.11896E-01  5.16420E-01 -8.51356E-02 -4.54575E-02  5.49925E-01  4.77330E-01 -1.27472E-02  1.04539E-01 -4.22788E-02 -8.39314E-02
   3.51115E-01  4.02646E-01 -1.17287E-01 -2.13858E-01  2.68753E-01  4.86697E-01  6.40711E-02  3.27709E-01  2.59794E-01  8.02996E-01
  -4.04454E-02  1.41135E-01  3.57833E-01  2.52803E-01  4.27873E-01  3.60153E-01  1.07724E+00  1.06425E+00  4.93113E-01  6.29073E-01
   7.06540E-01 -2.23861E-01  4.56266E-01  2.55342E-01  7.97209E-01 -2.21130E-02  4.95770E-01  4.42112E-01  6.55209E-01  3.97194E-01
   2.92862E-01  3.61202E-01  4.31590E-01  1.23682E-01  3.41834E-01  2.29660E-01  7.20224E-02  9.32160E-01  7.42904E-01  3.18679E-01
   5.57360E-01  7.60474E-01  3.14977E-01  6.63029E-01  4.43074E-01  1.26994E+00  3.96173E-01  5.25925E-01  6.16368E-01  5.31878E-01
   2.23054E-01  8.13781E-01  7.56528E-01  5.87286E-01  6.88816E-01  4.52667E-01  1.88875E-01 -1.35399E-01  6.21177E-01  4.95240E-01
   1.38499E+00  3.59679E-01  7.68084E-01  2.27404E-01  8.79225E-01  4.48754E-01  3.08999E-01  6.00002E-01  8.85526E-01  5.69510E-01
   5.35291E-01  6.59197E-01  6.17926E-01  8.70065E-01  1.42295E+00  2.78014E-01  1.02336E+00  1.18746E+00  1.07701E+00  1.30498E+00
   6.73889E-01  9.02021E-01  6.74295E-01  1.46528E+00  1.03967E+00  1.51672E+00  8.46347E-01  7.76921E-01  1.25905E+00  1.05221E+00
   7.72498E-01  1.06118E+00  2.03769E-01  8.99941E-01  1.02057E+00  1.17910E+00  1.31232E+00  1.15931E+00  1.26124E+00  1.42817E+00
   1.25438E+00  8.24260E-01  1.01927E+00  1.53065E+00  1.19819E+00  2.46473E-01  1.86135E+00  1.12978E+00  1.47135E+00  1.14255E+00
   1.20833E+00  1.35493E+00  1.22930E+00  2.11200E+00  1.13639E+00  1.64881E+00  1.39914E+00  1.41151E+00  1.77206E+00  1.18546E+00
   1.54337E+00  2.13881E+00  1.80854E+00  2.02345E+00  1.61052E+00  1.94853E+00  2.16281E+00  1.90646E+00  2.48647E+00  2.86149E+00
   2.24545E+00  2.52903E+00  3.15828E+00  2.34054E+00  1.81842E+00  2.57183E+00  2.77973E+00  3.44908E+00  2.86012E+00  3.03795E+00
   3.13115E+00  3.15027E+00  3.47513E+00  4.19677E+00  3.90295E+00  3.85868E+00  4.09004E+00  4.47135E+00  4.52860E+00  4.54724E+00
   5.13042E+00  5.08001E+00  5.33383E+00  5.32331E+00  6.25718E+00  6.39042E+00  6.64058E+00  6.68698E+00  7.21165E+00  7.18418E+00
   7.16271E+00  7.10852E+00  7.34604E+00  7.73437E+00  6.87404E+00  6.58906E+00  6.73616E+00  6.41942E+00  6.78075E+00  5.96797E+00
   5.70545E+00  5.82526E+00  4.69656E+00  4.22190E+00  4.09530E+00  3.96122E+00  2.89757E+00  3.29507E+00  2.75448E+00  2.06331E+00
   2.08544E+00  1.59818E+00  1.50883E+00  1.58265E+00  8.66331E-01  1.07340E+00  9.19450E-01  2.95769E-01  1.10710E+00 -2.79234E-02
   4.25668E-02  1.33604E-01  1.35772E-01 -2.51632E-02  2.14407E-01 -3.97698E-01  1.61561E-01  1.29950E-01 -5.69348E-01  8.67967E-02
  -2.42245E-01 -7.30952E-01  6.36328E-02 -3.09165E-01  2.19616E-02 -2.84082E-01 -1.83664E-01 -1.72611E-01 -9.97932E-02 -6.12514E-01
  -3.53417E-01 -2.89923E-01  6.06445E-02 -4.40022E-01  1.85438E-02  1.66030E-01  1.95561E-01  9.80878E-02  1.77348E-01  2.81792E-01
   3.06141E-01 -3.04581E-01  1.72681E-01 -6.64442E-01  3.60387E-01  2.22367E-01 -5.60725E-02  5.36023E-01 -1.27267E-01  3.59260E-01
   1.29391E-01  3.08004E-01  5.22062E-01  3.86201E-01  4.51551E-01  1.89950E-01  4.57614E-01 -1.70786E-01 -1.72068E-01  3.26901E-01
   5.18042E-01  2.64476E-01  5.99560E-01  5.10448E-01  1.34967E-01  5.80383E-01  6.51768E-01 -2.85986E-01 -1.11016E-01 -2.58133E-01
   2.45548E-01  1.14828E-01 -1.14408E-01  7.85675E-02  1.63934E-01  8.04142E-01  2.46291E-01  4.19937E-01  3.03799E-01  6.83589E-02
   1.98545E-01  2.63201E-01  4.87061E-01  4.28297E-01  1.15084E-01 -1.25905E-01  1.86831E-02 -1.40490E-01  1.73064E-01  5.42920E-01
   2.26962E-01  2.30510E-01  3.82430E-01  8.05203E-01 -3.75677E-01 -1.25028E-01  3.02433E-01 -4.46096E-01  2.91662E-02  3.84184E-01
  -1.22461E-01  5.52182E-01 -2.63997E-02  1.07208E-01  7.83635E-02  1.82169E-01 -9.00229E-02  3.42874E-01  2.24383E-01  9.66384E-02
   3.68329E-01  4.17346E-01  3.16789E-01  3.09092E-01  9.45476E-01  1.07450E-01  2.84325E-01  5.82275E-01  3.85714E-01  4.85476E-01
   4.25069E-01  4.34781E-01  4.21681E-01  7.17399E-01 -6.08736E-02  2.54514E-01  1.86373E-02  4.00973E-01  5.73361E-01  2.49385E-01
   5.77991E-01  5.62872E-02  6.28016E-01  5.69592E-01  4.46425E-01  5.69071E-01 -1.95976E-02  2.55771E-01
 NY points of the fit to the data follow
  -5.49725E-01 -2.63838E-01 -4.93176E-01 -2.53534E-01 -4.11745E-01 -2.23494E-01 -3.71480E-01 -2.32491E-01 -3.69038E-01 -2.79348E-01
  -3.97075E-01 -3.40824E-01 -4.19239E-01 -3.38652E-01 -4.07231E-01 -3.21672E-01 -3.83380E-01 -3.11223E-01 -3.77347E-01 -3.31756E-01
  -4.06112E-01 -3.59980E-01 -4.29666E-01 -3.86836E-01 -4.38709E-01 -3.99403E-01 -4.32075E-01 -4.01994E-01 -4.14794E-01 -3.95821E-01
  -3.87491E-01 -3.83853E-01 -3.60115E-01 -3.71567E-01 -3.36524E-01 -3.62001E-01 -3.19544E-01 -3.57706E-01 -3.10212E-01 -3.56807E-01
  -3.08643E-01 -3.52276E-01 -3.04334E-01 -3.43799E-01 -2.95216E-01 -3.27995E-01 -2.80585E-01 -3.06271E-01 -2.74279E-01 -2.95906E-01
  -2.71040E-01 -2.89105E-01 -2.70987E-01 -2.84674E-01 -2.70993E-01 -2.70976E-01 -2.57106E-01 -2.54522E-01 -2.42896E-01 -2.38885E-01
  -2.30188E-01 -2.26072E-01 -2.22701E-01 -2.19395E-01 -2.15884E-01 -2.11845E-01 -2.08056E-01 -2.03354E-01 -1.99008E-01 -1.94018E-01
  -1.89380E-01 -1.84125E-01 -1.79104E-01 -1.73618E-01 -1.67899E-01 -1.62328E-01 -1.55928E-01 -1.50226E-01 -1.42992E-01 -1.36977E-01
  -1.28585E-01 -1.21780E-01 -1.11635E-01 -1.02423E-01 -8.63647E-02 -6.96630E-02 -5.69678E-02 -3.62426E-02 -2.78882E-02 -2.17517E-03
   1.80820E-03  3.40487E-02  3.09506E-02  6.93283E-02  5.64582E-02  9.95721E-02  7.40969E-02  1.19236E-01  8.14475E-02  1.26324E-01
   7.68824E-02  1.18505E-01  6.22322E-02  9.98676E-02  4.08135E-02  7.34935E-02  1.66469E-02  4.51654E-02 -2.06452E-03  2.38745E-02
  -1.51174E-02  9.03534E-03 -2.16464E-02  1.66925E-03 -2.11504E-02  1.99072E-03 -1.46324E-02  9.14897E-03 -3.21514E-03  2.16656E-02
   8.59829E-03  3.27630E-02  1.88138E-02  4.28379E-02  2.94502E-02  5.53515E-02  3.66663E-02  5.99538E-02  3.83067E-02  5.90430E-02
   3.69777E-02  5.52972E-02  3.53612E-02  5.16844E-02  3.60173E-02  5.07817E-02  3.96822E-02  5.29462E-02  4.61464E-02  5.79657E-02
   5.53425E-02  6.59560E-02  6.72447E-02  7.67967E-02  8.00921E-02  8.83347E-02  9.36353E-02  1.01246E-01  1.09562E-01  1.16923E-01
   1.23604E-01  1.29596E-01  1.34922E-01  1.39778E-01  1.43908E-01  1.47783E-01  1.50861E-01  1.53923E-01  1.56122E-01  1.58525E-01
   1.60056E-01  1.61998E-01  1.63067E-01  1.64710E-01  1.65513E-01  1.67083E-01  1.67917E-01  1.69591E-01  1.70627E-01  1.72518E-01
   1.73923E-01  1.76183E-01  1.78108E-01  1.80828E-01  1.83355E-01  1.86613E-01  1.89852E-01  1.93696E-01  1.97647E-01  2.02062E-01
   2.06699E-01  2.11657E-01  2.16955E-01  2.22463E-01  2.28382E-01  2.34384E-01  2.40881E-01  2.47357E-01  2.54412E-01  2.61358E-01
   2.68911E-01  2.76288E-01  2.84296E-01  2.92091E-01  3.00525E-01  3.08729E-01  3.17558E-01  3.26166E-01  3.35358E-01  3.44374E-01
   3.53940E-01  3.63386E-01  3.73337E-01  3.83244E-01  3.93632E-01  4.04054E-01  4.14906E-01  4.25791E-01  4.37020E-01  4.48326E-01
   4.59901E-01  4.71557E-01  4.83364E-01  4.95284E-01  5.07256E-01  5.19318E-01  5.31298E-01  5.43284E-01  5.55038E-01  5.66735E-01
   5.78076E-01  5.89300E-01  6.00069E-01  6.10686E-01  6.20802E-01  6.30756E-01  6.40221E-01  6.49558E-01  6.58481E-01  6.67341E-01
   6.75913E-01  6.84539E-01  6.93045E-01  7.01719E-01  7.10438E-01  7.19434E-01  7.28620E-01  7.38158E-01  7.47979E-01  7.58172E-01
   7.68672E-01  7.79482E-01  7.90536E-01  8.01778E-01  8.13115E-01  8.24450E-01  8.35636E-01  8.46568E-01  8.57095E-01  8.67141E-01
   8.76525E-01  8.85232E-01  8.93101E-01  9.00261E-01  9.06523E-01  9.12106E-01  9.16794E-01  9.20954E-01  9.24360E-01  9.27488E-01
   9.30080E-01  9.32723E-01  9.35109E-01  9.37904E-01  9.40755E-01  9.44350E-01  9.48287E-01  9.53246E-01  9.58777E-01  9.65520E-01
   9.73015E-01  9.81829E-01  9.91502E-01  1.00251E+00  1.01444E+00  1.02767E+00  1.04186E+00  1.05727E+00  1.07365E+00  1.09117E+00
   1.10966E+00  1.12923E+00  1.14978E+00  1.17136E+00  1.19395E+00  1.21755E+00  1.24219E+00  1.26789E+00  1.29469E+00  1.32260E+00
   1.35171E+00  1.38204E+00  1.41372E+00  1.44680E+00  1.48143E+00  1.51768E+00  1.55573E+00  1.59573E+00  1.63791E+00  1.68246E+00
   1.72968E+00  1.77991E+00  1.83360E+00  1.89129E+00  1.95376E+00  2.02205E+00  2.09778E+00  2.18376E+00  2.28557E+00  2.40201E+00
   2.46784E+00  2.56616E+00  2.61105E+00  2.69891E+00  2.72770E+00  2.80616E+00  2.81056E+00  2.92630E+00  2.94877E+00  3.05747E+00
   3.08638E+00  3.17511E+00  3.23387E+00  3.32533E+00  3.45068E+00  3.56263E+00  3.81289E+00  3.99479E+00  4.44515E+00  4.75470E+00
   5.14044E+00  5.31618E+00  5.68752E+00  5.75762E+00  6.11722E+00  6.10320E+00  6.43727E+00  6.59439E+00  6.89625E+00  7.02239E+00
   7.18286E+00  7.20049E+00  7.23130E+00  7.21132E+00  7.10140E+00  7.01292E+00  6.81361E+00  6.69780E+00  6.38120E+00  6.17400E+00
   5.71023E+00  5.41777E+00  4.90222E+00  4.53594E+00  4.03911E+00  3.70513E+00  3.26174E+00  2.98592E+00  2.63679E+00  2.35645E+00
   2.08950E+00  1.81199E+00  1.62362E+00  1.39946E+00  1.23557E+00  1.01312E+00  9.05660E-01  7.19884E-01  6.88486E-01  5.82332E-01
   4.47576E-01  2.77222E-01  1.35659E-01 -8.09632E-02 -2.18517E-01 -4.47658E-01 -5.25787E-01 -5.40872E-01 -5.32437E-01 -5.12072E-01
  -4.84723E-01 -4.52965E-01 -4.18307E-01 -3.81680E-01 -3.43727E-01 -3.04905E-01 -2.65575E-01 -2.26006E-01 -1.86420E-01 -1.47005E-01
  -1.07950E-01 -6.94491E-02 -3.17032E-02  5.09364E-03  4.07438E-02  7.50463E-02  1.07781E-01  1.38723E-01  1.67648E-01  1.94351E-01
   2.18639E-01  2.40336E-01  2.59280E-01  2.75341E-01  2.88425E-01  2.98491E-01  3.05537E-01  3.09606E-01  3.10778E-01  3.09185E-01
   3.05004E-01  2.98458E-01  2.89799E-01  2.79303E-01  2.67258E-01  2.53976E-01  2.39767E-01  2.24950E-01  2.09816E-01  1.94647E-01
   1.79691E-01  1.65183E-01  1.51322E-01  1.38287E-01  1.26205E-01  1.15185E-01  1.05294E-01  9.65878E-02  8.90868E-02  8.27997E-02
   7.76980E-02  7.37526E-02  7.09097E-02  6.91264E-02  6.83350E-02  6.84781E-02  6.94746E-02  7.12644E-02  7.37716E-02  7.69449E-02
   8.07123E-02  8.50235E-02  8.98089E-02  9.50287E-02  1.00626E-01  1.06573E-01  1.12818E-01  1.19333E-01  1.26073E-01  1.33022E-01
   1.40144E-01  1.47431E-01  1.54846E-01  1.62383E-01  1.70009E-01  1.77728E-01  1.85513E-01  1.93369E-01  2.01267E-01  2.09213E-01
   2.17184E-01  2.25191E-01  2.33215E-01  2.41263E-01  2.49315E-01  2.57381E-01  2.65445E-01  2.73520E-01  2.81591E-01  2.89668E-01
   2.97734E-01  3.05802E-01  3.13860E-01  3.21925E-01  3.29979E-01  3.38038E-01  3.46084E-01  3.54137E-01  3.62184E-01  3.70244E-01
   3.78301E-01  3.86372E-01  3.94444E-01  4.02540E-01  4.10647E-01  4.18788E-01  4.26948E-01  4.35152E-01  4.43388E-01  4.51687E-01
   4.60039E-01  4.68476E-01  4.76989E-01  4.85618E-01  4.94363E-01  5.03273E-01  5.12360E-01  5.21687E-01
 NY background values follow
    -8.036E-01   -8.013E-01   -7.990E-01   -7.967E-01   -7.944E-01   -7.920E-01   -7.897E-01   -7.874E-01   -7.851E-01   -7.828E-01
    -7.804E-01   -7.781E-01   -7.757E-01   -7.734E-01   -7.710E-01   -7.687E-01   -7.663E-01   -7.640E-01   -7.616E-01   -7.592E-01
    -7.568E-01   -7.545E-01   -7.521E-01   -7.497E-01   -7.473E-01   -7.449E-01   -7.425E-01   -7.401E-01   -7.377E-01   -7.352E-01
    -7.328E-01   -7.304E-01   -7.280E-01   -7.255E-01   -7.231E-01   -7.207E-01   -7.182E-01   -7.158E-01   -7.133E-01   -7.108E-01
    -7.084E-01   -7.059E-01   -7.034E-01   -7.010E-01   -6.985E-01   -6.960E-01   -6.935E-01   -6.910E-01   -6.885E-01   -6.860E-01
    -6.835E-01   -6.810E-01   -6.785E-01   -6.760E-01   -6.734E-01   -6.709E-01   -6.684E-01   -6.659E-01   -6.633E-01   -6.608E-01
    -6.582E-01   -6.557E-01   -6.531E-01   -6.506E-01   -6.480E-01   -6.454E-01   -6.428E-01   -6.403E-01   -6.377E-01   -6.351E-01
    -6.325E-01   -6.299E-01   -6.273E-01   -6.247E-01   -6.221E-01   -6.195E-01   -6.169E-01   -6.143E-01   -6.116E-01   -6.090E-01
    -6.064E-01   -6.038E-01   -6.011E-01   -5.985E-01   -5.958E-01   -5.932E-01   -5.905E-01   -5.879E-01   -5.852E-01   -5.825E-01
    -5.799E-01   -5.772E-01   -5.745E-01   -5.718E-01   -5.691E-01   -5.664E-01   -5.637E-01   -5.610E-01   -5.583E-01   -5.556E-01
    -5.529E-01   -5.502E-01   -5.475E-01   -5.447E-01   -5.420E-01   -5.393E-01   -5.366E-01   -5.338E-01   -5.311E-01   -5.283E-01
    -5.256E-01   -5.228E-01   -5.200E-01   -5.173E-01   -5.145E-01   -5.117E-01   -5.090E-01   -5.062E-01   -5.034E-01   -5.006E-01
    -4.978E-01   -4.950E-01   -4.922E-01   -4.894E-01   -4.866E-01   -4.838E-01   -4.810E-01   -4.782E-01   -4.753E-01   -4.725E-01
    -4.697E-01   -4.668E-01   -4.640E-01   -4.611E-01   -4.583E-01   -4.554E-01   -4.526E-01   -4.497E-01   -4.469E-01   -4.440E-01
    -4.411E-01   -4.383E-01   -4.354E-01   -4.325E-01   -4.296E-01   -4.267E-01   -4.238E-01   -4.209E-01   -4.180E-01   -4.151E-01
    -4.122E-01   -4.093E-01   -4.064E-01   -4.034E-01   -4.005E-01   -3.976E-01   -3.947E-01   -3.917E-01   -3.888E-01   -3.858E-01
    -3.829E-01   -3.799E-01   -3.770E-01   -3.740E-01   -3.710E-01   -3.681E-01   -3.651E-01   -3.621E-01   -3.592E-01   -3.562E-01
    -3.532E-01   -3.502E-01   -3.472E-01   -3.442E-01   -3.412E-01   -3.382E-01   -3.352E-01   -3.322E-01   -3.291E-01   -3.261E-01
    -3.231E-01   -3.201E-01   -3.170E-01   -3.140E-01   -3.110E-01   -3.079E-01   -3.049E-01   -3.018E-01   -2.988E-01   -2.957E-01
    -2.926E-01   -2.896E-01   -2.865E-01   -2.834E-01   -2.804E-01   -2.773E-01   -2.742E-01   -2.711E-01   -2.680E-01   -2.649E-01
    -2.618E-01   -2.587E-01   -2.556E-01   -2.525E-01   -2.494E-01   -2.463E-01   -2.431E-01   -2.400E-01   -2.369E-01   -2.337E-01
    -2.306E-01   -2.275E-01   -2.243E-01   -2.212E-01   -2.180E-01   -2.149E-01   -2.117E-01   -2.085E-01   -2.054E-01   -2.022E-01
    -1.990E-01   -1.958E-01   -1.927E-01   -1.895E-01   -1.863E-01   -1.831E-01   -1.799E-01   -1.767E-01   -1.735E-01   -1.703E-01
    -1.671E-01   -1.639E-01   -1.607E-01   -1.574E-01   -1.542E-01   -1.510E-01   -1.478E-01   -1.445E-01   -1.413E-01   -1.380E-01
    -1.348E-01   -1.315E-01   -1.283E-01   -1.250E-01   -1.218E-01   -1.185E-01   -1.152E-01   -1.120E-01   -1.087E-01   -1.054E-01
    -1.021E-01   -9.885E-02   -9.556E-02   -9.226E-02   -8.897E-02   -8.567E-02   -8.237E-02   -7.906E-02   -7.575E-02   -7.244E-02
    -6.912E-02   -6.580E-02   -6.247E-02   -5.915E-02   -5.582E-02   -5.248E-02   -4.914E-02   -4.580E-02   -4.246E-02   -3.911E-02
    -3.576E-02   -3.240E-02   -2.904E-02   -2.568E-02   -2.231E-02   -1.895E-02   -1.557E-02   -1.220E-02   -8.817E-03   -5.434E-03
    -2.048E-03    1.342E-03    4.735E-03    8.132E-03    1.153E-02    1.493E-02    1.834E-02    2.175E-02    2.517E-02    2.858E-02
     3.200E-02    3.543E-02    3.885E-02    4.228E-02    4.572E-02    4.915E-02    5.259E-02    5.604E-02    5.949E-02    6.294E-02
     6.639E-02    6.985E-02    7.331E-02    7.677E-02    8.024E-02    8.371E-02    8.718E-02    9.066E-02    9.414E-02    9.762E-02
     1.011E-01    1.046E-01    1.081E-01    1.116E-01    1.151E-01    1.186E-01    1.221E-01    1.256E-01    1.291E-01    1.326E-01
     1.362E-01    1.397E-01    1.432E-01    1.467E-01    1.503E-01    1.538E-01    1.573E-01    1.609E-01    1.644E-01    1.680E-01
     1.715E-01    1.751E-01    1.786E-01    1.822E-01    1.858E-01    1.893E-01    1.929E-01    1.965E-01    2.001E-01    2.036E-01
     2.072E-01    2.108E-01    2.144E-01    2.180E-01    2.216E-01    2.252E-01    2.288E-01    2.324E-01    2.360E-01    2.396E-01
     2.432E-01    2.468E-01    2.505E-01    2.541E-01    2.577E-01    2.613E-01    2.650E-01    2.686E-01    2.723E-01    2.759E-01
     2.795E-01    2.832E-01    2.868E-01    2.905E-01    2.941E-01    2.978E-01    3.015E-01    3.051E-01    3.088E-01    3.125E-01
     3.162E-01    3.198E-01    3.235E-01    3.272E-01    3.309E-01    3.346E-01    3.383E-01    3.420E-01    3.457E-01    3.494E-01
     3.531E-01    3.568E-01    3.605E-01    3.642E-01    3.679E-01    3.716E-01    3.754E-01    3.791E-01    3.828E-01    3.866E-01
     3.903E-01    3.940E-01    3.978E-01    4.015E-01    4.053E-01    4.090E-01    4.128E-01    4.165E-01    4.203E-01    4.240E-01
     4.278E-01    4.316E-01    4.353E-01    4.391E-01    4.429E-01    4.467E-01    4.504E-01    4.542E-01    4.580E-01    4.618E-01
     4.656E-01    4.694E-01    4.732E-01    4.770E-01    4.808E-01    4.846E-01    4.884E-01    4.922E-01    4.960E-01    4.999E-01
     5.037E-01    5.075E-01    5.113E-01    5.152E-01    5.190E-01    5.228E-01    5.267E-01    5.305E-01    5.343E-01    5.382E-01
     5.420E-01    5.459E-01    5.497E-01    5.536E-01    5.575E-01    5.613E-01    5.652E-01    5.691E-01    5.729E-01    5.768E-01
     5.807E-01    5.845E-01    5.884E-01    5.923E-01    5.962E-01    6.001E-01    6.040E-01    6.079E-01    6.118E-01    6.157E-01
     6.196E-01    6.235E-01    6.274E-01    6.313E-01    6.352E-01    6.391E-01    6.431E-01    6.470E-01    6.509E-01    6.548E-01
     6.588E-01    6.627E-01    6.666E-01    6.706E-01    6.745E-01    6.784E-01    6.824E-01    6.863E-01    6.903E-01    6.942E-01
     6.982E-01    7.021E-01    7.061E-01    7.101E-01    7.140E-01    7.180E-01    7.220E-01    7.259E-01    7.299E-01    7.339E-01
     7.379E-01    7.419E-01    7.459E-01    7.498E-01    7.538E-01    7.578E-01    7.618E-01    7.658E-01    7.698E-01    7.738E-01
     7.778E-01    7.818E-01    7.859E-01    7.899E-01    7.939E-01    7.979E-01    8.019E-01    8.060E-01
 Ala      Conc. = 2.76E+02
