 LCModel (Version 6.3-1L) Copyright: S.W. Provencher.          Ref.: Magn. Reson. Med. 30:672-679 (1993).                
 Slice#2 Row#4 Col#10  K_02_press_1_raw_act
 36 lines in following concentration table = NCONC+1
    Conc.  %SD /Cr+PCr  Metabolite                                         
  319.129  50%   0.133 Ala                                                 
    0.000 999%   0.000 Asp                                                 
 1.14E+03  24%   0.476 Cr                                                  
 1.26E+03  23%   0.524 PCr                                                 
    0.000 999%   0.000 GABA                                                
    0.000 999%   0.000 Glc                                                 
 1.02E+03  29%   0.425 Gln                                                 
 2.10E+03  16%   0.875 Glu                                                 
  880.239   3%   0.366 GPC                                                 
    0.000 999%   0.000 PCh                                                 
  741.284  12%   0.308 GSH                                                 
 1.95E+03  16%   0.810 Ins                                                 
  219.313  76% 9.1E-02 Lac                                                 
 3.37E+03   5%   1.400 NAA                                                 
  263.196  68%   0.109 NAAG                                                
  112.319  31% 4.7E-02 Scyllo                                              
    0.000 999%   0.000 Tau                                                 
    0.000 999%   0.000 -CrCH2                                              
  880.239   3%   0.366 GPC+PCh                                             
 3.63E+03   3%   1.510 NAA+NAAG                                            
 2.40E+03   3%   1.000 Cr+PCr                                              
 3.13E+03  15%   1.300 Glu+Gln                                             
 2.07E+03  54%   0.859 Lip13a                                              
  145.703 166% 6.1E-02 Lip13b                                              
  396.594 102%   0.165 Lip09                                               
 3.00E+03  17%   1.249 MM09                                                
  364.604  69%   0.152 Lip20                                               
 5.85E+03  10%   2.432 MM20                                                
 1.26E+03  37%   0.523 MM12                                                
 6.02E+03  14%   2.504 MM14                                                
 2.50E+03  22%   1.038 MM17                                                
 2.21E+03  44%   0.920 Lip13a+Lip13b                                       
 9.49E+03   8%   3.947 MM14+Lip13a+Lip13b+MM12                             
 3.40E+03  10%   1.414 MM09+Lip09                                          
 6.21E+03   9%   2.583 MM20+Lip20                                          
   6 lines in following misc. output table
  FWHM = 0.046 ppm    S/N =  16                                            
  Data shift = 0.031 ppm                                                   
  Ph: -11 deg      -9.0 deg/ppm                                            
  alphaB,S = 1.3E+00,   1.1E+02                                            
   14 spline knots.   Ns = 8(1)                                            
  (13) 3 infls.   ( 9) 1 extrs.                                            
  498 points on ppm-axis = NY
      4.000000     3.992357     3.984714     3.977070     3.969427     3.961784     3.954141     3.946497     3.938854     3.931211
      3.923568     3.915925     3.908281     3.900638     3.892995     3.885352     3.877708     3.870065     3.862422     3.854779
      3.847136     3.839492     3.831849     3.824206     3.816563     3.808919     3.801276     3.793633     3.785990     3.778347
      3.770703     3.763060     3.755417     3.747774     3.740130     3.732487     3.724844     3.717201     3.709558     3.701914
      3.694271     3.686628     3.678985     3.671341     3.663698     3.656055     3.648412     3.640769     3.633125     3.625482
      3.617839     3.610196     3.602552     3.594909     3.587266     3.579623     3.571980     3.564336     3.556693     3.549050
      3.541407     3.533763     3.526120     3.518477     3.510834     3.503191     3.495547     3.487904     3.480261     3.472618
      3.464974     3.457331     3.449688     3.442045     3.434402     3.426758     3.419115     3.411472     3.403829     3.396185
      3.388542     3.380899     3.373256     3.365613     3.357969     3.350326     3.342683     3.335040     3.327396     3.319753
      3.312110     3.304467     3.296824     3.289180     3.281537     3.273894     3.266251     3.258607     3.250964     3.243321
      3.235678     3.228034     3.220391     3.212748     3.205105     3.197462     3.189818     3.182175     3.174532     3.166889
      3.159245     3.151602     3.143959     3.136316     3.128673     3.121029     3.113386     3.105743     3.098100     3.090456
      3.082813     3.075170     3.067527     3.059884     3.052240     3.044597     3.036954     3.029311     3.021667     3.014024
      3.006381     2.998738     2.991095     2.983451     2.975808     2.968165     2.960522     2.952878     2.945235     2.937592
      2.929949     2.922306     2.914662     2.907019     2.899376     2.891733     2.884089     2.876446     2.868803     2.861160
      2.853517     2.845873     2.838230     2.830587     2.822944     2.815300     2.807657     2.800014     2.792371     2.784728
      2.777084     2.769441     2.761798     2.754155     2.746511     2.738868     2.731225     2.723582     2.715939     2.708295
      2.700652     2.693009     2.685366     2.677722     2.670079     2.662436     2.654793     2.647150     2.639506     2.631863
      2.624220     2.616577     2.608933     2.601290     2.593647     2.586004     2.578361     2.570717     2.563074     2.555431
      2.547788     2.540144     2.532501     2.524858     2.517215     2.509572     2.501928     2.494285     2.486642     2.478999
      2.471355     2.463712     2.456069     2.448426     2.440783     2.433139     2.425496     2.417853     2.410210     2.402566
      2.394923     2.387280     2.379637     2.371994     2.364350     2.356707     2.349064     2.341421     2.333777     2.326134
      2.318491     2.310848     2.303205     2.295561     2.287918     2.280275     2.272632     2.264988     2.257345     2.249702
      2.242059     2.234416     2.226772     2.219129     2.211486     2.203843     2.196199     2.188556     2.180913     2.173270
      2.165627     2.157983     2.150340     2.142697     2.135054     2.127410     2.119767     2.112124     2.104481     2.096838
      2.089194     2.081551     2.073908     2.066265     2.058621     2.050978     2.043335     2.035692     2.028049     2.020405
      2.012762     2.005119     1.997476     1.989833     1.982190     1.974546     1.966903     1.959260     1.951617     1.943974
      1.936331     1.928688     1.921045     1.913402     1.905759     1.898115     1.890472     1.882829     1.875186     1.867543
      1.859900     1.852257     1.844614     1.836971     1.829327     1.821684     1.814041     1.806398     1.798755     1.791112
      1.783469     1.775826     1.768183     1.760540     1.752896     1.745253     1.737610     1.729967     1.722324     1.714681
      1.707038     1.699395     1.691752     1.684108     1.676465     1.668822     1.661179     1.653536     1.645893     1.638250
      1.630607     1.622964     1.615321     1.607677     1.600034     1.592391     1.584748     1.577105     1.569462     1.561819
      1.554176     1.546533     1.538890     1.531246     1.523603     1.515960     1.508317     1.500674     1.493031     1.485388
      1.477745     1.470102     1.462458     1.454815     1.447172     1.439529     1.431886     1.424243     1.416600     1.408957
      1.401314     1.393671     1.386027     1.378384     1.370741     1.363098     1.355455     1.347812     1.340169     1.332526
      1.324883     1.317240     1.309596     1.301953     1.294310     1.286667     1.279024     1.271381     1.263738     1.256095
      1.248452     1.240808     1.233165     1.225522     1.217879     1.210236     1.202593     1.194950     1.187307     1.179664
      1.172021     1.164377     1.156734     1.149091     1.141448     1.133805     1.126162     1.118519     1.110876     1.103233
      1.095590     1.087946     1.080303     1.072660     1.065017     1.057374     1.049731     1.042088     1.034445     1.026802
      1.019158     1.011515     1.003872     0.996229     0.988586     0.980943     0.973300     0.965657     0.958014     0.950371
      0.942727     0.935084     0.927441     0.919798     0.912155     0.904512     0.896869     0.889226     0.881583     0.873940
      0.866296     0.858653     0.851010     0.843367     0.835724     0.828081     0.820438     0.812795     0.805152     0.797508
      0.789865     0.782222     0.774579     0.766936     0.759293     0.751650     0.744007     0.736364     0.728721     0.721077
      0.713434     0.705791     0.698148     0.690505     0.682862     0.675219     0.667576     0.659933     0.652290     0.644646
      0.637003     0.629360     0.621717     0.614074     0.606431     0.598788     0.591145     0.583502     0.575858     0.568215
      0.560572     0.552929     0.545286     0.537643     0.530000     0.522357     0.514714     0.507071     0.499427     0.491784
      0.484141     0.476498     0.468855     0.461212     0.453569     0.445925     0.438282     0.430639     0.422996     0.415353
      0.407710     0.400067     0.392424     0.384780     0.377137     0.369494     0.361851     0.354208     0.346565     0.338922
      0.331278     0.323635     0.315992     0.308349     0.300706     0.293063     0.285420     0.277777     0.270133     0.262490
      0.254847     0.247204     0.239561     0.231918     0.224275     0.216631     0.208988     0.201345
 NY phased data points follow
   3.15569E+01  3.07990E+01  3.52951E+01  3.82192E+01  4.04426E+01  4.69094E+01  5.15737E+01  6.01758E+01  6.83708E+01  7.84483E+01
   7.93037E+01  7.46531E+01  6.56899E+01  5.71271E+01  5.73626E+01  4.68161E+01  3.54744E+01  3.67546E+01  3.23081E+01  2.75054E+01
   2.91463E+01  3.14130E+01  3.14644E+01  3.18812E+01  3.02962E+01  3.15847E+01  2.91112E+01  2.99775E+01  3.26589E+01  3.49554E+01
   3.77016E+01  3.85163E+01  3.25366E+01  3.63685E+01  3.36866E+01  2.77352E+01  2.85906E+01  3.38450E+01  2.72902E+01  3.28329E+01
   2.94683E+01  2.96201E+01  2.87709E+01  2.94845E+01  3.61911E+01  3.66816E+01  4.31442E+01  3.68483E+01  4.45371E+01  3.52707E+01
   3.36626E+01  3.07251E+01  2.72506E+01  2.48345E+01  2.89906E+01  2.28085E+01  3.15228E+01  2.20176E+01  2.40643E+01  1.62945E+01
   1.72071E+01  1.73150E+01  1.60650E+01  1.38541E+01  1.08484E+01  1.29679E+01  7.85446E+00  8.90325E+00  6.86632E+00  8.20400E+00
   7.08807E+00  9.97687E+00  1.38874E+01  1.12550E+01  1.15827E+01  1.10495E+01  1.45277E+01  6.52695E+00  1.33702E+01  1.06719E+01
   1.02149E+01  1.04819E+01  1.57272E+01  1.13545E+01  1.13931E+01  1.15045E+01  9.64762E+00  1.44856E+01  1.43101E+01  1.66413E+01
   1.77364E+01  2.10627E+01  2.19999E+01  2.06547E+01  1.84470E+01  2.51049E+01  2.78624E+01  3.02725E+01  3.30571E+01  4.65253E+01
   6.24690E+01  7.78563E+01  8.88106E+01  8.46812E+01  7.83285E+01  6.51912E+01  4.91291E+01  3.96550E+01  3.11737E+01  2.70685E+01
   1.93565E+01  1.75327E+01  1.89375E+01  8.89108E+00  1.86353E+01  1.83513E+01  1.87053E+01  1.62643E+01  1.98544E+01  2.09259E+01
   2.32612E+01  3.08137E+01  3.48867E+01  4.26763E+01  5.55574E+01  7.24507E+01  8.40838E+01  9.06577E+01  7.79130E+01  6.86545E+01
   5.26611E+01  4.58544E+01  3.52414E+01  2.92056E+01  2.24571E+01  1.67893E+01  1.25524E+01  1.13916E+01  1.68148E+01  1.50643E+01
   1.76325E+01  1.63116E+01  1.46411E+01  1.45928E+01  8.78677E+00  1.70143E+01  1.07172E+01  9.43609E+00  7.18823E+00  1.51847E+01
   1.14978E+01  1.00246E+01  7.19936E+00  1.30378E+01  5.31962E+00  4.50902E+00  8.09685E+00  1.02308E+01  4.95155E+00  8.48804E+00
   3.18881E+00  3.41676E+00 -2.04708E+00 -7.35629E-01  2.75249E+00  4.62555E+00  4.53062E+00  3.76135E+00  1.70402E+00 -5.58838E+00
  -2.53737E+00 -4.87739E+00 -1.05722E+01 -1.18063E+01 -1.31077E+01 -1.02321E+01 -1.14637E+01 -8.79006E+00 -1.01379E+01 -6.66258E+00
  -6.27247E+00 -8.01122E+00 -9.24440E+00 -9.08143E+00 -5.61025E+00 -8.87386E+00 -3.31872E+00 -7.03187E+00 -1.05289E+00  9.30964E+00
   7.42852E+00  3.24701E+00  5.79213E+00  4.99038E+00  8.16559E+00  4.23013E+00  2.03031E+00  4.50065E+00  4.09005E+00 -2.28687E+00
   3.27154E+00  6.43172E+00  1.43724E+00  8.14230E+00  7.40758E+00  7.25369E+00  4.88998E+00  4.48052E+00  2.28832E+00  3.51925E+00
   3.07743E+00  6.88600E+00  9.52501E+00  1.43847E+01  1.51028E+01  1.52014E+01  1.97121E+01  2.25004E+01  1.60311E+01  6.26574E+00
   3.13430E+00  7.04762E+00  6.48134E-01  4.82702E+00  7.94187E+00  1.48808E+01  1.17153E+01  1.84632E+01  2.16447E+01  1.71310E+01
   1.58223E+01  1.54003E+01  1.30018E+01  1.41538E+01  1.51197E+01  1.29375E+01  1.37436E+01  1.68681E+01  1.44691E+01  1.45721E+01
   1.41449E+01  8.47645E+00  1.03389E+01  1.52003E+01  1.80547E+01  1.70916E+01  2.28982E+01  2.96136E+01  3.00302E+01  3.03913E+01
   3.33422E+01  3.34115E+01  4.37912E+01  5.24466E+01  5.33620E+01  6.58830E+01  6.86555E+01  9.07199E+01  1.11046E+02  1.27598E+02
   1.31744E+02  1.30827E+02  1.11149E+02  9.14058E+01  6.84137E+01  5.50973E+01  4.02826E+01  3.46787E+01  2.64114E+01  2.27082E+01
   2.15812E+01  1.61227E+01  1.38246E+01  1.82970E+01  1.30755E+01  1.23966E+01  1.20636E+01  1.21997E+01  1.15605E+01  1.13663E+01
   1.03826E+01  1.23867E+01  8.08630E+00  1.22885E+01  6.07542E+00  8.99841E+00  8.62358E+00  1.54809E+01  1.30163E+01  1.56455E+01
   1.34514E+01  1.15285E+01  1.65963E+01  1.25763E+01  1.36746E+01  1.18116E+01  1.24197E+01  1.31194E+01  1.70147E+01  2.06151E+01
   1.72062E+01  1.62133E+01  2.27560E+01  2.04946E+01  2.06467E+01  2.02657E+01  2.46213E+01  2.05755E+01  2.26188E+01  1.93115E+01
   2.53135E+01  2.34263E+01  2.54576E+01  2.43596E+01  2.14875E+01  2.81484E+01  2.94383E+01  3.03161E+01  2.97212E+01  3.34562E+01
   3.45169E+01  3.97892E+01  3.54908E+01  3.87806E+01  3.49913E+01  3.94549E+01  3.93851E+01  4.24725E+01  4.61345E+01  4.40990E+01
   4.57064E+01  4.27982E+01  4.46388E+01  4.69937E+01  4.16931E+01  4.95556E+01  4.41841E+01  4.87825E+01  4.80667E+01  4.35445E+01
   4.41358E+01  4.32029E+01  3.76481E+01  3.58425E+01  3.42667E+01  3.18326E+01  3.00825E+01  2.84141E+01  2.33625E+01  2.26258E+01
   2.55407E+01  2.53028E+01  2.75971E+01  2.33986E+01  2.80838E+01  3.11727E+01  2.77418E+01  2.78378E+01  2.53445E+01  2.42261E+01
   2.68749E+01  2.48600E+01  2.46085E+01  2.37059E+01  2.64522E+01  2.46019E+01  2.70849E+01  2.09308E+01  2.26563E+01  2.25419E+01
   2.22122E+01  2.32266E+01  2.23943E+01  1.72381E+01  1.84662E+01  1.59159E+01  1.90268E+01  1.66539E+01  1.81133E+01  1.61599E+01
   1.66655E+01  1.74277E+01  1.65305E+01  1.78649E+01  1.50786E+01  1.86598E+01  1.66485E+01  1.98806E+01  2.06765E+01  2.02369E+01
   2.26084E+01  2.14524E+01  2.26584E+01  1.91595E+01  2.69597E+01  2.61509E+01  2.60074E+01  2.65497E+01  2.76744E+01  2.87090E+01
   2.75611E+01  2.47910E+01  2.60762E+01  3.03404E+01  2.78989E+01  2.76858E+01  3.00398E+01  2.88940E+01  2.72528E+01  3.34979E+01
   2.66457E+01  2.51451E+01  2.17387E+01  2.53487E+01  2.33141E+01  2.45871E+01  2.37406E+01  2.43144E+01  2.06585E+01  2.14612E+01
   1.78166E+01  1.99434E+01  2.07529E+01  2.25717E+01  2.14639E+01  1.80142E+01  1.46245E+01  1.69543E+01  1.25983E+01  1.64507E+01
   1.75554E+01  1.50492E+01  1.56920E+01  1.41196E+01  1.87255E+01  1.44998E+01  1.21935E+01  1.35451E+01  1.24113E+01  1.61034E+01
   1.26708E+01  1.33146E+01  1.27577E+01  1.58368E+01  1.26127E+01  1.29145E+01  1.41151E+01  9.17786E+00  8.28199E+00  1.07219E+01
   1.40989E+01  1.16710E+01  1.35009E+01  1.54110E+01  1.64671E+01  1.60395E+01  8.99141E+00  1.13785E+01  1.24347E+01  9.51233E+00
   1.15853E+01  1.41558E+01  9.66712E+00  6.76953E+00  1.30071E+01  1.09858E+01  1.01696E+01  1.70202E+01  1.41881E+01  1.49966E+01
   1.16842E+01  7.57123E+00  1.22982E+01  1.63206E+01  1.33981E+01  1.53129E+01  1.23595E+01  5.54099E+00  1.10283E+01  1.36320E+01
   1.11473E+01  1.32249E+01  1.14096E+01  1.19271E+01  1.23042E+01  1.00364E+01  1.00494E+01  1.21047E+01  1.19653E+01  1.02588E+01
   9.29272E+00  9.49256E+00  7.57344E+00  1.40236E+01  1.24134E+01  9.66008E+00  1.04072E+01  1.06567E+01
 NY points of the fit to the data follow
   2.91456E+01  3.07372E+01  3.34654E+01  3.69532E+01  4.05696E+01  4.49361E+01  5.13091E+01  5.96585E+01  6.82848E+01  7.45327E+01
   7.62429E+01  7.30194E+01  6.62206E+01  5.80531E+01  5.04328E+01  4.42684E+01  3.95136E+01  3.57266E+01  3.25250E+01  3.00539E+01
   2.81524E+01  2.74336E+01  2.79687E+01  2.83050E+01  2.80888E+01  2.80183E+01  2.91268E+01  3.16450E+01  3.49658E+01  3.82968E+01
   4.06390E+01  4.11372E+01  3.97325E+01  3.69279E+01  3.36644E+01  3.06512E+01  2.80284E+01  2.60178E+01  2.49379E+01  2.49851E+01
   2.57753E+01  2.65349E+01  2.73687E+01  2.87650E+01  3.09237E+01  3.32965E+01  3.49676E+01  3.52217E+01  3.37942E+01  3.09825E+01
   2.76756E+01  2.48261E+01  2.28256E+01  2.16210E+01  2.08725E+01  2.03872E+01  2.02910E+01  2.06666E+01  2.12870E+01  2.17397E+01
   2.16383E+01  2.08758E+01  1.96024E+01  1.82867E+01  1.73297E+01  1.68196E+01  1.67251E+01  1.69219E+01  1.72898E+01  1.77331E+01
   1.80943E+01  1.82545E+01  1.81434E+01  1.77695E+01  1.72322E+01  1.66575E+01  1.61397E+01  1.57203E+01  1.53456E+01  1.51895E+01
   1.51215E+01  1.48580E+01  1.45632E+01  1.44383E+01  1.45581E+01  1.48027E+01  1.49387E+01  1.47805E+01  1.43699E+01  1.37859E+01
   1.32575E+01  1.30482E+01  1.32924E+01  1.42241E+01  1.76357E+01  2.41344E+01  2.87743E+01  3.17155E+01  3.69452E+01  4.75351E+01
   6.27148E+01  7.78007E+01  8.73133E+01  8.78516E+01  7.95909E+01  6.59954E+01  5.17021E+01  3.98682E+01  3.12192E+01  2.50455E+01
   2.02690E+01  1.60920E+01  1.29641E+01  1.18169E+01  1.15297E+01  1.15100E+01  1.16934E+01  1.22800E+01  1.46492E+01  2.07670E+01
   2.64851E+01  3.02437E+01  3.51458E+01  4.45344E+01  5.86686E+01  7.38956E+01  8.48761E+01  8.76057E+01  8.15960E+01  6.97508E+01
   5.63973E+01  4.48766E+01  3.59947E+01  2.90645E+01  2.31006E+01  1.75201E+01  1.29300E+01  1.09053E+01  1.07582E+01  1.13804E+01
   1.21390E+01  1.25988E+01  1.25645E+01  1.21483E+01  1.15507E+01  1.08913E+01  1.02459E+01  9.63159E+00  9.04966E+00  8.49715E+00
   7.94916E+00  7.43995E+00  6.93831E+00  6.33938E+00  5.88394E+00  5.68942E+00  5.64243E+00  5.52464E+00  4.94672E+00  4.03505E+00
   3.24757E+00  2.92843E+00  3.08676E+00  3.43007E+00  3.56448E+00  3.22783E+00  2.43293E+00  1.37058E+00  2.63186E-01 -5.09663E-01
  -8.21266E-01 -1.11302E+00 -1.71871E+00 -2.71231E+00 -3.59397E+00 -3.89434E+00 -3.68926E+00 -3.35149E+00 -3.19042E+00 -3.35219E+00
  -3.48170E+00 -3.33600E+00 -2.98217E+00 -2.55723E+00 -2.09611E+00 -1.51661E+00 -5.74938E-01  9.51640E-01  2.98497E+00  5.01563E+00
   6.33568E+00  6.78398E+00  6.50318E+00  5.74782E+00  4.77234E+00  3.95956E+00  3.76889E+00  4.15566E+00  5.07724E+00  6.38401E+00
   7.88387E+00  9.17646E+00  9.98682E+00  1.03404E+01  9.76244E+00  7.86739E+00  5.19985E+00  2.60802E+00  9.88375E-01  2.47190E-01
   3.70667E-01  1.73025E+00  4.37624E+00  7.73778E+00  1.07227E+01  1.25256E+01  1.29738E+01  1.18828E+01  9.16659E+00  5.46020E+00
   1.89730E+00 -2.73860E-01 -4.64533E-01  1.05442E+00  3.81225E+00  7.16306E+00  1.03206E+01  1.24418E+01  1.34792E+01  1.39715E+01
   1.41987E+01  1.42930E+01  1.44719E+01  1.49900E+01  1.58912E+01  1.70437E+01  1.82491E+01  1.92121E+01  1.94893E+01  1.88595E+01
   1.77361E+01  1.67437E+01  1.64487E+01  1.71440E+01  1.87285E+01  2.08075E+01  2.28568E+01  2.46696E+01  2.63749E+01  2.77297E+01
   2.88337E+01  3.14346E+01  4.00286E+01  5.10076E+01  5.82287E+01  6.41407E+01  7.41135E+01  9.06299E+01  1.10529E+02  1.27033E+02
   1.33791E+02  1.27999E+02  1.11778E+02  9.08924E+01  7.11917E+01  5.56701E+01  4.44353E+01  3.60721E+01  2.89641E+01  2.25105E+01
   1.84440E+01  1.67842E+01  1.58528E+01  1.51837E+01  1.46418E+01  1.41126E+01  1.35302E+01  1.29198E+01  1.23229E+01  1.17851E+01
   1.13369E+01  1.09890E+01  1.07310E+01  1.05562E+01  1.04648E+01  1.04450E+01  1.04871E+01  1.05933E+01  1.07774E+01  1.10539E+01
   1.14239E+01  1.18772E+01  1.24099E+01  1.30126E+01  1.36704E+01  1.43677E+01  1.50937E+01  1.58400E+01  1.65983E+01  1.73596E+01
   1.81121E+01  1.88408E+01  1.95324E+01  2.01748E+01  2.07600E+01  2.12856E+01  2.17552E+01  2.21782E+01  2.25688E+01  2.29444E+01
   2.33274E+01  2.37427E+01  2.42162E+01  2.47754E+01  2.54472E+01  2.62571E+01  2.72292E+01  2.83896E+01  2.97834E+01  3.14693E+01
   3.31985E+01  3.48131E+01  3.65368E+01  3.84841E+01  4.04912E+01  4.21811E+01  4.32126E+01  4.36796E+01  4.38422E+01  4.36980E+01
   4.34206E+01  4.33065E+01  4.35849E+01  4.42758E+01  4.51662E+01  4.59147E+01  4.62076E+01  4.59180E+01  4.50640E+01  4.37997E+01
   4.21652E+01  4.03402E+01  3.86013E+01  3.70413E+01  3.55212E+01  3.38667E+01  3.20703E+01  3.02920E+01  2.85432E+01  2.69141E+01
   2.56488E+01  2.49804E+01  2.49785E+01  2.55008E+01  2.62671E+01  2.69702E+01  2.73951E+01  2.74911E+01  2.72631E+01  2.68143E+01
   2.62670E+01  2.56852E+01  2.50857E+01  2.44543E+01  2.37934E+01  2.31792E+01  2.26139E+01  2.20761E+01  2.15564E+01  2.10511E+01
   2.05595E+01  2.00833E+01  1.96260E+01  1.91928E+01  1.87897E+01  1.84235E+01  1.81010E+01  1.78289E+01  1.76131E+01  1.74589E+01
   1.73713E+01  1.73542E+01  1.74111E+01  1.75443E+01  1.77554E+01  1.80448E+01  1.84123E+01  1.88563E+01  1.93742E+01  1.99617E+01
   2.06128E+01  2.13201E+01  2.20746E+01  2.28653E+01  2.36797E+01  2.45035E+01  2.53211E+01  2.61161E+01  2.68718E+01  2.75711E+01
   2.81976E+01  2.87360E+01  2.91727E+01  2.94966E+01  2.96992E+01  2.97752E+01  2.97223E+01  2.95418E+01  2.92382E+01  2.88193E+01
   2.82953E+01  2.76786E+01  2.69833E+01  2.62243E+01  2.54172E+01  2.45776E+01  2.37202E+01  2.28587E+01  2.20053E+01  2.11706E+01
   2.03636E+01  1.95915E+01  1.88595E+01  1.81714E+01  1.75293E+01  1.69341E+01  1.63857E+01  1.58831E+01  1.54246E+01  1.50078E+01
   1.46301E+01  1.42889E+01  1.39815E+01  1.37049E+01  1.34565E+01  1.32335E+01  1.30336E+01  1.28546E+01  1.26944E+01  1.25512E+01
   1.24231E+01  1.23087E+01  1.22065E+01  1.21156E+01  1.20347E+01  1.19628E+01  1.18991E+01  1.18427E+01  1.17930E+01  1.17495E+01
   1.17116E+01  1.16788E+01  1.16505E+01  1.16264E+01  1.16062E+01  1.15897E+01  1.15765E+01  1.15663E+01  1.15588E+01  1.15540E+01
   1.15516E+01  1.15515E+01  1.15534E+01  1.15572E+01  1.15628E+01  1.15701E+01  1.15790E+01  1.15895E+01  1.16012E+01  1.16142E+01
   1.16284E+01  1.16439E+01  1.16604E+01  1.16780E+01  1.16964E+01  1.17158E+01  1.17360E+01  1.17571E+01  1.17790E+01  1.18016E+01
   1.18248E+01  1.18486E+01  1.18732E+01  1.18984E+01  1.19242E+01  1.19505E+01  1.19773E+01  1.20045E+01  1.20324E+01  1.20607E+01
   1.20895E+01  1.21186E+01  1.21481E+01  1.21781E+01  1.22086E+01  1.22394E+01  1.22706E+01  1.23021E+01
 NY background values follow
     2.185E+01    2.170E+01    2.156E+01    2.142E+01    2.127E+01    2.113E+01    2.099E+01    2.084E+01    2.070E+01    2.056E+01
     2.041E+01    2.027E+01    2.013E+01    1.999E+01    1.984E+01    1.970E+01    1.956E+01    1.941E+01    1.927E+01    1.913E+01
     1.898E+01    1.884E+01    1.870E+01    1.856E+01    1.841E+01    1.827E+01    1.813E+01    1.799E+01    1.784E+01    1.770E+01
     1.756E+01    1.742E+01    1.728E+01    1.714E+01    1.700E+01    1.685E+01    1.671E+01    1.657E+01    1.643E+01    1.629E+01
     1.615E+01    1.601E+01    1.588E+01    1.574E+01    1.560E+01    1.546E+01    1.532E+01    1.518E+01    1.504E+01    1.491E+01
     1.477E+01    1.463E+01    1.450E+01    1.436E+01    1.423E+01    1.409E+01    1.396E+01    1.382E+01    1.369E+01    1.355E+01
     1.342E+01    1.329E+01    1.315E+01    1.302E+01    1.289E+01    1.276E+01    1.263E+01    1.250E+01    1.237E+01    1.224E+01
     1.211E+01    1.198E+01    1.186E+01    1.173E+01    1.160E+01    1.148E+01    1.135E+01    1.123E+01    1.110E+01    1.098E+01
     1.086E+01    1.074E+01    1.061E+01    1.049E+01    1.037E+01    1.025E+01    1.014E+01    1.002E+01    9.900E+00    9.784E+00
     9.668E+00    9.553E+00    9.439E+00    9.325E+00    9.213E+00    9.101E+00    8.989E+00    8.879E+00    8.769E+00    8.660E+00
     8.552E+00    8.444E+00    8.337E+00    8.231E+00    8.125E+00    8.021E+00    7.917E+00    7.813E+00    7.711E+00    7.609E+00
     7.508E+00    7.407E+00    7.308E+00    7.209E+00    7.110E+00    7.012E+00    6.916E+00    6.819E+00    6.724E+00    6.629E+00
     6.534E+00    6.441E+00    6.348E+00    6.256E+00    6.164E+00    6.073E+00    5.983E+00    5.894E+00    5.805E+00    5.717E+00
     5.629E+00    5.542E+00    5.456E+00    5.370E+00    5.285E+00    5.201E+00    5.118E+00    5.035E+00    4.952E+00    4.870E+00
     4.789E+00    4.709E+00    4.629E+00    4.551E+00    4.472E+00    4.395E+00    4.318E+00    4.242E+00    4.167E+00    4.092E+00
     4.019E+00    3.946E+00    3.873E+00    3.802E+00    3.732E+00    3.662E+00    3.593E+00    3.525E+00    3.458E+00    3.391E+00
     3.326E+00    3.261E+00    3.198E+00    3.135E+00    3.073E+00    3.012E+00    2.952E+00    2.893E+00    2.835E+00    2.777E+00
     2.721E+00    2.666E+00    2.612E+00    2.558E+00    2.506E+00    2.455E+00    2.405E+00    2.355E+00    2.307E+00    2.260E+00
     2.214E+00    2.169E+00    2.125E+00    2.083E+00    2.041E+00    2.000E+00    1.961E+00    1.922E+00    1.884E+00    1.848E+00
     1.812E+00    1.777E+00    1.744E+00    1.711E+00    1.679E+00    1.648E+00    1.618E+00    1.589E+00    1.561E+00    1.534E+00
     1.508E+00    1.482E+00    1.457E+00    1.434E+00    1.411E+00    1.388E+00    1.367E+00    1.347E+00    1.327E+00    1.308E+00
     1.289E+00    1.272E+00    1.255E+00    1.239E+00    1.224E+00    1.209E+00    1.195E+00    1.182E+00    1.169E+00    1.158E+00
     1.146E+00    1.136E+00    1.126E+00    1.116E+00    1.107E+00    1.099E+00    1.092E+00    1.084E+00    1.078E+00    1.072E+00
     1.067E+00    1.062E+00    1.058E+00    1.054E+00    1.051E+00    1.048E+00    1.046E+00    1.045E+00    1.044E+00    1.044E+00
     1.044E+00    1.045E+00    1.046E+00    1.048E+00    1.051E+00    1.054E+00    1.058E+00    1.062E+00    1.067E+00    1.072E+00
     1.078E+00    1.084E+00    1.091E+00    1.099E+00    1.107E+00    1.115E+00    1.125E+00    1.134E+00    1.145E+00    1.156E+00
     1.167E+00    1.179E+00    1.191E+00    1.204E+00    1.218E+00    1.232E+00    1.247E+00    1.262E+00    1.278E+00    1.294E+00
     1.311E+00    1.329E+00    1.347E+00    1.365E+00    1.384E+00    1.404E+00    1.424E+00    1.445E+00    1.466E+00    1.488E+00
     1.510E+00    1.533E+00    1.556E+00    1.580E+00    1.604E+00    1.628E+00    1.654E+00    1.679E+00    1.705E+00    1.732E+00
     1.759E+00    1.786E+00    1.814E+00    1.842E+00    1.871E+00    1.900E+00    1.930E+00    1.960E+00    1.990E+00    2.021E+00
     2.053E+00    2.084E+00    2.116E+00    2.149E+00    2.181E+00    2.215E+00    2.248E+00    2.282E+00    2.317E+00    2.351E+00
     2.386E+00    2.422E+00    2.457E+00    2.493E+00    2.530E+00    2.566E+00    2.603E+00    2.641E+00    2.678E+00    2.716E+00
     2.755E+00    2.793E+00    2.832E+00    2.871E+00    2.911E+00    2.951E+00    2.991E+00    3.031E+00    3.072E+00    3.112E+00
     3.154E+00    3.195E+00    3.237E+00    3.279E+00    3.321E+00    3.363E+00    3.406E+00    3.449E+00    3.492E+00    3.536E+00
     3.579E+00    3.623E+00    3.667E+00    3.712E+00    3.756E+00    3.801E+00    3.846E+00    3.891E+00    3.937E+00    3.983E+00
     4.028E+00    4.074E+00    4.121E+00    4.167E+00    4.214E+00    4.261E+00    4.308E+00    4.355E+00    4.402E+00    4.450E+00
     4.498E+00    4.545E+00    4.593E+00    4.642E+00    4.690E+00    4.739E+00    4.787E+00    4.836E+00    4.885E+00    4.934E+00
     4.983E+00    5.033E+00    5.082E+00    5.132E+00    5.181E+00    5.231E+00    5.281E+00    5.331E+00    5.381E+00    5.432E+00
     5.482E+00    5.533E+00    5.583E+00    5.634E+00    5.685E+00    5.735E+00    5.786E+00    5.837E+00    5.888E+00    5.940E+00
     5.991E+00    6.042E+00    6.093E+00    6.145E+00    6.196E+00    6.248E+00    6.299E+00    6.351E+00    6.403E+00    6.454E+00
     6.506E+00    6.558E+00    6.609E+00    6.661E+00    6.713E+00    6.765E+00    6.817E+00    6.869E+00    6.920E+00    6.972E+00
     7.024E+00    7.076E+00    7.128E+00    7.180E+00    7.232E+00    7.283E+00    7.335E+00    7.387E+00    7.439E+00    7.490E+00
     7.542E+00    7.594E+00    7.645E+00    7.697E+00    7.748E+00    7.800E+00    7.851E+00    7.903E+00    7.954E+00    8.005E+00
     8.056E+00    8.107E+00    8.158E+00    8.209E+00    8.260E+00    8.311E+00    8.361E+00    8.412E+00    8.462E+00    8.513E+00
     8.563E+00    8.613E+00    8.663E+00    8.713E+00    8.763E+00    8.812E+00    8.862E+00    8.911E+00    8.961E+00    9.010E+00
     9.059E+00    9.108E+00    9.156E+00    9.205E+00    9.253E+00    9.302E+00    9.350E+00    9.398E+00    9.446E+00    9.493E+00
     9.541E+00    9.588E+00    9.636E+00    9.683E+00    9.730E+00    9.777E+00    9.824E+00    9.871E+00    9.918E+00    9.964E+00
     1.001E+01    1.006E+01    1.010E+01    1.015E+01    1.020E+01    1.024E+01    1.029E+01    1.033E+01    1.038E+01    1.043E+01
     1.047E+01    1.052E+01    1.056E+01    1.061E+01    1.066E+01    1.070E+01    1.075E+01    1.079E+01    1.084E+01    1.088E+01
     1.093E+01    1.097E+01    1.102E+01    1.107E+01    1.111E+01    1.116E+01    1.120E+01    1.125E+01
 Ala      Conc. = 3.19E+02
