 LCModel (Version 6.3-1L) Copyright: S.W. Provencher.          Ref.: Magn. Reson. Med. 30:672-679 (1993).                
 Slice#1 Row#6 Col#6  K_02_press_1_raw_act
 36 lines in following concentration table = NCONC+1
    Conc.  %SD /Cr+PCr  Metabolite                                         
   45.948 228% 4.1E-02 Ala                                                 
    0.000 999%   0.000 Asp                                                 
  853.507  21%   0.770 Cr                                                  
  254.818  72%   0.230 PCr                                                 
   26.534 445% 2.4E-02 GABA                                                
    0.000 999%   0.000 Glc                                                 
  385.743  55%   0.348 Gln                                                 
 1.32E+03  19%   1.193 Glu                                                 
  374.165   6%   0.338 GPC                                                 
    0.000 999%   0.000 PCh                                                 
  476.075  15%   0.430 GSH                                                 
  933.342  26%   0.842 Ins                                                 
    0.000 999%   0.000 Lac                                                 
 1.58E+03   7%   1.425 NAA                                                 
  329.370  37%   0.297 NAAG                                                
    0.000 999%   0.000 Scyllo                                              
    0.000 999%   0.000 Tau                                                 
    0.000 999%   0.000 -CrCH2                                              
  374.165   6%   0.338 GPC+PCh                                             
 1.91E+03   5%   1.722 NAA+NAAG                                            
 1.11E+03   5%   1.000 Cr+PCr                                              
 1.71E+03  19%   1.541 Glu+Gln                                             
 7.62E+03  16%   6.875 Lip13a                                              
    0.000 999%   0.000 Lip13b                                              
 1.17E+03  41%   1.054 Lip09                                               
 1.14E+03  40%   1.026 MM09                                                
 1.40E+03  25%   1.260 Lip20                                               
 1.94E+03  27%   1.755 MM20                                                
  411.187  61%   0.371 MM12                                                
 2.30E+03  27%   2.075 MM14                                                
 1.22E+03  25%   1.099 MM17                                                
 7.62E+03  16%   6.875 Lip13a+Lip13b                                       
 1.03E+04   8%   9.320 MM14+Lip13a+Lip13b+MM12                             
 2.31E+03  12%   2.080 MM09+Lip09                                          
 3.34E+03  14%   3.014 MM20+Lip20                                          
   6 lines in following misc. output table
  FWHM = 0.046 ppm    S/N =   9                                            
  Data shift =-0.008 ppm                                                   
  Ph:  33 deg      17.4 deg/ppm                                            
  alphaB,S = 1.4E+00,   8.3E+01                                            
   14 spline knots.   Ns = 6(1)                                            
  ( 7) 2 infls.   ( 5) 1 extrs.                                            
  498 points on ppm-axis = NY
      4.000000     3.992357     3.984714     3.977070     3.969427     3.961784     3.954141     3.946497     3.938854     3.931211
      3.923568     3.915925     3.908281     3.900638     3.892995     3.885352     3.877708     3.870065     3.862422     3.854779
      3.847136     3.839492     3.831849     3.824206     3.816563     3.808919     3.801276     3.793633     3.785990     3.778347
      3.770703     3.763060     3.755417     3.747774     3.740130     3.732487     3.724844     3.717201     3.709558     3.701914
      3.694271     3.686628     3.678985     3.671341     3.663698     3.656055     3.648412     3.640769     3.633125     3.625482
      3.617839     3.610196     3.602552     3.594909     3.587266     3.579623     3.571980     3.564336     3.556693     3.549050
      3.541407     3.533763     3.526120     3.518477     3.510834     3.503191     3.495547     3.487904     3.480261     3.472618
      3.464974     3.457331     3.449688     3.442045     3.434402     3.426758     3.419115     3.411472     3.403829     3.396185
      3.388542     3.380899     3.373256     3.365613     3.357969     3.350326     3.342683     3.335040     3.327396     3.319753
      3.312110     3.304467     3.296824     3.289180     3.281537     3.273894     3.266251     3.258607     3.250964     3.243321
      3.235678     3.228034     3.220391     3.212748     3.205105     3.197462     3.189818     3.182175     3.174532     3.166889
      3.159245     3.151602     3.143959     3.136316     3.128673     3.121029     3.113386     3.105743     3.098100     3.090456
      3.082813     3.075170     3.067527     3.059884     3.052240     3.044597     3.036954     3.029311     3.021667     3.014024
      3.006381     2.998738     2.991095     2.983451     2.975808     2.968165     2.960522     2.952878     2.945235     2.937592
      2.929949     2.922306     2.914662     2.907019     2.899376     2.891733     2.884089     2.876446     2.868803     2.861160
      2.853517     2.845873     2.838230     2.830587     2.822944     2.815300     2.807657     2.800014     2.792371     2.784728
      2.777084     2.769441     2.761798     2.754155     2.746511     2.738868     2.731225     2.723582     2.715939     2.708295
      2.700652     2.693009     2.685366     2.677722     2.670079     2.662436     2.654793     2.647150     2.639506     2.631863
      2.624220     2.616577     2.608933     2.601290     2.593647     2.586004     2.578361     2.570717     2.563074     2.555431
      2.547788     2.540144     2.532501     2.524858     2.517215     2.509572     2.501928     2.494285     2.486642     2.478999
      2.471355     2.463712     2.456069     2.448426     2.440783     2.433139     2.425496     2.417853     2.410210     2.402566
      2.394923     2.387280     2.379637     2.371994     2.364350     2.356707     2.349064     2.341421     2.333777     2.326134
      2.318491     2.310848     2.303205     2.295561     2.287918     2.280275     2.272632     2.264988     2.257345     2.249702
      2.242059     2.234416     2.226772     2.219129     2.211486     2.203843     2.196199     2.188556     2.180913     2.173270
      2.165627     2.157983     2.150340     2.142697     2.135054     2.127410     2.119767     2.112124     2.104481     2.096838
      2.089194     2.081551     2.073908     2.066265     2.058621     2.050978     2.043335     2.035692     2.028049     2.020405
      2.012762     2.005119     1.997476     1.989833     1.982190     1.974546     1.966903     1.959260     1.951617     1.943974
      1.936331     1.928688     1.921045     1.913402     1.905759     1.898115     1.890472     1.882829     1.875186     1.867543
      1.859900     1.852257     1.844614     1.836971     1.829327     1.821684     1.814041     1.806398     1.798755     1.791112
      1.783469     1.775826     1.768183     1.760540     1.752896     1.745253     1.737610     1.729967     1.722324     1.714681
      1.707038     1.699395     1.691752     1.684108     1.676465     1.668822     1.661179     1.653536     1.645893     1.638250
      1.630607     1.622964     1.615321     1.607677     1.600034     1.592391     1.584748     1.577105     1.569462     1.561819
      1.554176     1.546533     1.538890     1.531246     1.523603     1.515960     1.508317     1.500674     1.493031     1.485388
      1.477745     1.470102     1.462458     1.454815     1.447172     1.439529     1.431886     1.424243     1.416600     1.408957
      1.401314     1.393671     1.386027     1.378384     1.370741     1.363098     1.355455     1.347812     1.340169     1.332526
      1.324883     1.317240     1.309596     1.301953     1.294310     1.286667     1.279024     1.271381     1.263738     1.256095
      1.248452     1.240808     1.233165     1.225522     1.217879     1.210236     1.202593     1.194950     1.187307     1.179664
      1.172021     1.164377     1.156734     1.149091     1.141448     1.133805     1.126162     1.118519     1.110876     1.103233
      1.095590     1.087946     1.080303     1.072660     1.065017     1.057374     1.049731     1.042088     1.034445     1.026802
      1.019158     1.011515     1.003872     0.996229     0.988586     0.980943     0.973300     0.965657     0.958014     0.950371
      0.942727     0.935084     0.927441     0.919798     0.912155     0.904512     0.896869     0.889226     0.881583     0.873940
      0.866296     0.858653     0.851010     0.843367     0.835724     0.828081     0.820438     0.812795     0.805152     0.797508
      0.789865     0.782222     0.774579     0.766936     0.759293     0.751650     0.744007     0.736364     0.728721     0.721077
      0.713434     0.705791     0.698148     0.690505     0.682862     0.675219     0.667576     0.659933     0.652290     0.644646
      0.637003     0.629360     0.621717     0.614074     0.606431     0.598788     0.591145     0.583502     0.575858     0.568215
      0.560572     0.552929     0.545286     0.537643     0.530000     0.522357     0.514714     0.507071     0.499427     0.491784
      0.484141     0.476498     0.468855     0.461212     0.453569     0.445925     0.438282     0.430639     0.422996     0.415353
      0.407710     0.400067     0.392424     0.384780     0.377137     0.369494     0.361851     0.354208     0.346565     0.338922
      0.331278     0.323635     0.315992     0.308349     0.300706     0.293063     0.285420     0.277777     0.270133     0.262490
      0.254847     0.247204     0.239561     0.231918     0.224275     0.216631     0.208988     0.201345
 NY phased data points follow
   4.11404E+01  4.44190E+01  4.64751E+01  4.45043E+01  4.30701E+01  5.08263E+01  4.95544E+01  4.69680E+01  5.50477E+01  6.40528E+01
   5.97526E+01  6.52615E+01  6.74285E+01  6.43079E+01  4.89019E+01  4.76686E+01  4.34771E+01  5.06408E+01  3.92039E+01  3.51223E+01
   3.65376E+01  3.79326E+01  3.54061E+01  3.87504E+01  3.57571E+01  3.78705E+01  3.52834E+01  4.07235E+01  3.96912E+01  4.01321E+01
   4.38687E+01  4.26242E+01  3.94731E+01  4.00506E+01  3.58766E+01  3.13215E+01  3.43761E+01  3.37621E+01  3.12952E+01  3.62101E+01
   3.13502E+01  3.05715E+01  3.20550E+01  3.20594E+01  3.56235E+01  3.20859E+01  3.70373E+01  3.54485E+01  4.01361E+01  3.58263E+01
   3.64024E+01  3.29792E+01  2.84164E+01  2.76193E+01  3.01024E+01  2.92679E+01  2.70590E+01  3.03098E+01  2.94046E+01  2.59903E+01
   2.32420E+01  2.69660E+01  1.78676E+01  1.84184E+01  1.54495E+01  1.85872E+01  2.24312E+01  1.71512E+01  2.00830E+01  1.70504E+01
   2.12631E+01  1.84169E+01  1.48918E+01  1.26355E+01  1.62656E+01  1.70548E+01  1.58747E+01  1.53057E+01  1.06009E+01  1.61689E+01
   1.24507E+01  1.61147E+01  1.11016E+01  1.33029E+01  9.43749E+00  1.26195E+01  1.69862E+01  1.19850E+01  1.17462E+01  9.66144E+00
   2.03791E+01  1.04991E+01  1.47015E+01  1.12845E+01  1.54324E+01  1.24713E+01  8.60133E+00  1.88285E+01  1.85429E+01  1.79791E+01
   2.93606E+01  3.68559E+01  4.56782E+01  5.14254E+01  5.65076E+01  4.18392E+01  3.96194E+01  2.51537E+01  1.45834E+01  2.06495E+01
   1.15797E+01  9.64436E+00  1.29697E+01  1.18685E+01  8.03599E+00  9.13230E+00  9.83293E+00  1.07982E+01  1.29068E+01  8.95078E+00
   1.35038E+01  1.75306E+01  1.77845E+01  2.66368E+01  1.95057E+01  3.44558E+01  4.19889E+01  5.01516E+01  4.53606E+01  4.37775E+01
   3.31825E+01  2.84662E+01  1.34857E+01  1.62372E+01  1.61969E+01  3.09377E+00  6.60404E+00  6.69368E+00  4.30242E+00  7.74915E+00
   7.36504E+00  1.45209E+01  7.66659E+00  9.34811E+00  8.44676E+00  8.52579E+00  4.63087E+00  1.62028E+01  8.04616E+00  4.50280E+00
   6.50518E+00  8.46776E+00  6.83485E+00  5.83906E+00  4.77668E+00  2.86634E-02  2.56593E+00  1.21295E+01  6.29319E+00  4.51081E+00
  -5.07492E-01  4.15715E+00 -5.09586E-01 -5.54949E-02 -1.67976E+00  3.36973E+00  9.65790E+00 -2.78630E+00 -4.45599E-01 -3.83965E+00
  -5.19454E+00 -5.16531E+00 -5.74636E+00 -1.31782E+01 -1.05237E+01 -1.46314E+01 -9.23002E+00 -1.08745E+01 -1.09390E+01 -1.40462E+01
  -5.53530E+00 -1.34776E+01 -1.15074E+01 -1.11115E+01 -9.49587E+00 -3.33283E+00 -2.89744E+00 -5.51484E-01 -7.88784E-01 -9.87379E-01
  -2.93155E+00 -5.81531E-01 -2.53073E+00  3.10721E+00 -7.47274E+00 -2.96247E+00 -2.35598E+00 -8.65722E+00 -6.93720E+00 -8.10424E+00
  -9.96169E+00 -3.58036E+00  3.50116E+00 -5.72084E+00  4.88915E-01  2.75507E-01 -3.99007E+00 -6.78793E+00 -5.21053E+00 -6.91446E+00
  -4.48749E+00 -1.84595E+00 -4.47500E-02  6.05353E+00  1.93879E+00  6.43352E+00  3.49756E+00  7.98155E+00  5.87215E+00  9.25129E-01
  -8.10637E+00 -7.31209E+00 -1.31620E+01 -3.93072E+00 -2.78157E+00 -1.32952E+00  3.27246E+00  1.49337E+00  7.27151E+00  5.34330E-01
   3.08647E+00  8.56659E-01  2.37581E+00  4.58451E+00 -9.85758E-01  6.60750E+00 -8.87843E-01  1.76216E+00  1.40539E+00  1.09573E+00
  -8.79180E-01 -2.50425E-01 -5.56470E+00 -5.88549E+00 -4.43411E-01  5.08989E+00  5.27579E+00  3.73445E+00  4.89425E+00  9.83413E+00
   8.19250E+00  5.98324E+00  1.37450E+01  2.00271E+01  2.52113E+01  3.19022E+01  3.49376E+01  4.14653E+01  5.11892E+01  6.92889E+01
   7.16140E+01  6.04374E+01  4.88834E+01  2.70304E+01  1.58054E+01  1.95447E+00  2.16880E+00 -6.76173E+00 -3.28273E+00 -2.04997E+00
  -5.95253E+00 -3.78249E+00  4.38661E-01  4.83722E+00  1.28300E+00 -4.05132E+00  4.58141E-02 -5.08121E+00 -9.19308E+00 -4.89327E+00
  -7.73043E+00 -5.64768E+00 -9.09808E+00 -7.31791E+00 -7.48712E+00 -1.01570E+01 -1.28384E+01 -1.16902E+01 -5.06261E+00 -5.72054E+00
   4.81012E-01 -3.41788E+00 -3.60274E+00 -5.14901E+00 -3.28807E-01 -6.95853E+00 -5.56275E+00 -2.52676E+00 -5.18337E+00 -7.06805E-01
  -2.17219E+00 -2.36961E+00  1.36339E+00 -1.27742E+00 -1.28257E+00 -1.33637E+00  2.34597E+00  2.87526E+00  9.09503E-01  3.84547E+00
   1.16772E+01 -2.83965E+00  2.91985E+00  4.17586E-01 -4.34650E+00 -4.24560E+00 -2.99240E+00 -1.24981E+00 -6.05238E+00 -2.59917E+00
   9.25608E-01  3.72534E-01 -3.10717E+00  4.75216E+00  2.00971E+00 -7.80351E-01  3.58446E+00  7.17660E+00  9.14394E+00  8.86910E+00
   5.67004E+00  1.75952E+00  9.59298E+00  8.41099E+00  1.55389E+01  1.05781E+01  1.08768E+01  1.45651E+01  1.18125E+01  1.87323E+01
   1.43115E+01  1.30598E+01  1.39678E+01  2.17079E+01  1.81596E+01  1.81188E+01  2.31715E+01  2.64196E+01  1.64952E+01  1.99236E+01
   1.94642E+01  1.95901E+01  1.87481E+01  1.66718E+01  1.04856E+01  1.73193E+01  1.06764E+01  1.17878E+01  1.34038E+01  9.12484E+00
   1.19169E+01  1.74281E+01  1.18644E+01  7.69888E+00  9.73537E+00  4.10488E+00  1.20141E+01  8.68989E+00  1.50032E+01  9.94269E+00
   1.92137E+00  6.17036E+00  1.06779E+01  7.48567E+00  1.06159E+00  4.73265E+00  5.61764E+00  6.65185E+00  1.59696E-01  7.03276E+00
   4.41836E+00  3.68937E-01 -5.31830E-02  3.04509E+00 -5.60223E+00 -6.09766E-02 -1.83408E+00 -7.97933E+00 -8.94496E+00 -1.56389E+00
  -6.69005E+00  3.63799E+00  2.67581E+00  3.22255E-02  3.46108E+00  1.42106E+00  7.10227E+00 -7.94313E-02  7.43316E+00  2.48194E+00
   7.42896E+00  1.51268E+00  4.00415E+00  3.33744E+00  7.40123E+00  7.39394E+00  5.01820E+00  5.87042E+00  6.11448E+00  5.45838E-02
   1.30015E+00 -1.12989E+00  2.40869E-01 -2.47487E+00 -2.58390E+00 -3.83203E+00 -7.30954E+00 -1.08051E+01 -1.00922E+01 -9.30654E+00
  -6.58420E+00 -1.48522E+01 -1.15795E+01 -1.04875E+01 -7.21777E+00 -9.68849E+00 -9.47511E+00 -1.33222E+01 -1.22065E+01 -1.08702E+01
  -1.42746E+01 -1.25717E+01 -1.14479E+01 -9.48418E+00 -1.63217E+01 -9.33264E+00 -1.33650E+01 -8.56312E+00 -1.25633E+01 -1.07156E+01
  -1.27556E+01 -6.69902E+00 -9.72459E+00 -5.81620E+00 -1.04729E+01 -9.58862E+00 -1.54040E+01 -1.07102E+01 -1.49939E+01 -1.55961E+01
  -9.88719E+00 -1.47395E+01 -1.69253E+01 -1.54017E+01 -1.63137E+01 -1.64300E+01 -1.19979E+01 -1.06048E+01 -4.06152E+00 -1.07229E+01
  -2.05188E+01 -1.78910E+01 -1.01168E+01 -9.21664E+00 -1.24037E+01 -1.31480E+01 -1.39248E+01 -1.40422E+01 -1.30866E+01 -1.12587E+01
  -1.32130E+01 -1.20377E+01 -5.88625E+00 -9.67986E+00 -9.69811E+00 -8.98737E+00 -5.37682E+00 -1.35915E+01 -1.15377E+01 -4.19161E+00
  -1.40413E+01 -1.45702E+01 -9.21311E+00 -1.40199E+01 -1.32834E+01 -1.73222E+01 -1.74585E+01 -1.37691E+01 -1.61820E+01 -1.60289E+01
  -1.01898E+01 -1.38108E+01 -1.09190E+01 -9.17589E+00 -1.50977E+01 -1.37999E+01 -1.22966E+01 -1.20953E+01
 NY points of the fit to the data follow
   4.02941E+01  3.98431E+01  3.97697E+01  4.02410E+01  4.11979E+01  4.29508E+01  4.60294E+01  4.97426E+01  5.37971E+01  5.80495E+01
   6.17597E+01  6.36194E+01  6.25154E+01  5.85459E+01  5.30296E+01  4.75224E+01  4.31405E+01  4.02583E+01  3.84068E+01  3.71870E+01
   3.64720E+01  3.58999E+01  3.52429E+01  3.48309E+01  3.50480E+01  3.54655E+01  3.62890E+01  3.80054E+01  4.06039E+01  4.32793E+01
   4.49103E+01  4.49381E+01  4.33710E+01  4.06169E+01  3.74341E+01  3.44021E+01  3.17967E+01  2.99942E+01  2.92249E+01  2.91155E+01
   2.94070E+01  3.00650E+01  3.09416E+01  3.17938E+01  3.26642E+01  3.37706E+01  3.48845E+01  3.53791E+01  3.47669E+01  3.30432E+01
   3.06722E+01  2.82945E+01  2.64144E+01  2.52332E+01  2.46697E+01  2.45480E+01  2.47306E+01  2.50509E+01  2.53987E+01  2.56392E+01
   2.55727E+01  2.50802E+01  2.41785E+01  2.30598E+01  2.20110E+01  2.12700E+01  2.09541E+01  2.09746E+01  2.11692E+01  2.14000E+01
   2.15801E+01  2.16244E+01  2.14646E+01  2.10897E+01  2.05590E+01  1.99759E+01  1.94320E+01  1.89773E+01  1.86008E+01  1.82640E+01
   1.79306E+01  1.75259E+01  1.70308E+01  1.64343E+01  1.57267E+01  1.48961E+01  1.40034E+01  1.32205E+01  1.27521E+01  1.26966E+01
   1.30323E+01  1.36039E+01  1.41971E+01  1.46818E+01  1.50009E+01  1.51511E+01  1.53536E+01  1.68029E+01  2.01394E+01  2.42082E+01
   2.98237E+01  3.77189E+01  4.63797E+01  5.22738E+01  5.23346E+01  4.63965E+01  3.69608E+01  2.72681E+01  1.97423E+01  1.50375E+01
   1.22833E+01  1.08291E+01  1.03805E+01  1.02192E+01  1.01129E+01  1.00311E+01  9.96773E+00  9.92191E+00  9.93260E+00  1.01035E+01
   1.07784E+01  1.30364E+01  1.70781E+01  2.19325E+01  2.82061E+01  3.62865E+01  4.45533E+01  4.98095E+01  4.94476E+01  4.35160E+01
   3.45328E+01  2.54802E+01  1.82839E+01  1.32384E+01  9.52539E+00  6.89397E+00  5.44894E+00  4.93137E+00  5.26467E+00  6.19345E+00
   7.25653E+00  8.04576E+00  8.33640E+00  8.12036E+00  7.58647E+00  6.96289E+00  6.40207E+00  5.96383E+00  5.59196E+00  5.24425E+00
   4.91810E+00  4.58999E+00  4.27150E+00  4.00700E+00  3.79342E+00  3.59357E+00  3.44142E+00  3.25189E+00  2.91220E+00  2.41090E+00
   1.81045E+00  1.37795E+00  1.26437E+00  1.33412E+00  1.29395E+00  9.30299E-01  2.47586E-01 -5.63699E-01 -1.31318E+00 -1.92992E+00
  -2.42770E+00 -2.81043E+00 -3.16610E+00 -3.62798E+00 -4.20422E+00 -4.72450E+00 -4.92065E+00 -4.81217E+00 -4.66543E+00 -4.74007E+00
  -5.04593E+00 -5.41649E+00 -5.57214E+00 -5.50027E+00 -5.31461E+00 -4.96154E+00 -4.26216E+00 -3.13735E+00 -1.71119E+00 -3.08061E-01
   6.59131E-01  8.33589E-01  1.36168E-01 -1.06531E+00 -2.42051E+00 -3.66239E+00 -4.49270E+00 -4.63408E+00 -4.01286E+00 -2.81930E+00
  -1.35631E+00  1.17720E-03  9.57699E-01  1.28177E+00  7.60595E-01 -4.66798E-01 -2.27568E+00 -4.44087E+00 -6.40123E+00 -7.60101E+00
  -7.52349E+00 -6.27539E+00 -4.12554E+00 -1.28737E+00  1.65560E+00  3.70135E+00  3.91441E+00  2.12946E+00 -9.90369E-01 -4.52475E+00
  -7.75049E+00 -9.86576E+00 -1.02153E+01 -8.66174E+00 -5.68251E+00 -2.37304E+00  3.26922E-01  1.97974E+00  2.50707E+00  2.16877E+00
   1.40802E+00  8.21073E-01  7.73588E-01  1.25219E+00  2.05156E+00  2.91066E+00  3.44515E+00  3.29850E+00  2.53108E+00  1.39163E+00
   1.74966E-01 -7.50718E-01 -9.35192E-01 -1.89473E-01  1.26060E+00  2.97257E+00  4.48626E+00  5.51899E+00  6.03446E+00  6.44678E+00
   7.41921E+00  8.90151E+00  1.11098E+01  1.50276E+01  2.23924E+01  3.07686E+01  3.83921E+01  4.67248E+01  5.63542E+01  6.45579E+01
   6.67653E+01  6.06042E+01  4.77153E+01  3.22814E+01  1.85932E+01  8.96802E+00  2.98210E+00 -7.83273E-01 -2.68288E+00 -3.55045E+00
  -4.12624E+00 -4.52391E+00 -4.74455E+00 -4.85089E+00 -4.96190E+00 -5.15799E+00 -5.45486E+00 -5.81249E+00 -6.17502E+00 -6.49258E+00
  -6.73184E+00 -6.87805E+00 -6.93540E+00 -6.92551E+00 -6.87758E+00 -6.81156E+00 -6.72610E+00 -6.61139E+00 -6.45323E+00 -6.23637E+00
  -5.94720E+00 -5.58361E+00 -5.16163E+00 -4.70615E+00 -4.23127E+00 -3.74764E+00 -3.26318E+00 -2.78027E+00 -2.30056E+00 -1.82723E+00
  -1.36641E+00 -9.32189E-01 -5.42783E-01 -2.15572E-01  3.70854E-02  2.10567E-01  3.05727E-01  3.26395E-01  2.81212E-01  1.81377E-01
   4.00172E-02 -1.27721E-01 -3.05605E-01 -4.76775E-01 -6.23984E-01 -7.30225E-01 -7.79485E-01 -7.57403E-01 -6.51499E-01 -4.50488E-01
  -1.41516E-01  2.89438E-01  8.17117E-01  1.42187E+00  2.11127E+00  2.85663E+00  3.59608E+00  4.28018E+00  4.91690E+00  5.59175E+00
   6.38460E+00  7.30098E+00  8.33805E+00  9.48377E+00  1.07002E+01  1.19167E+01  1.30320E+01  1.39726E+01  1.47300E+01  1.53371E+01
   1.58438E+01  1.62858E+01  1.66693E+01  1.69973E+01  1.72749E+01  1.74968E+01  1.76611E+01  1.77687E+01  1.78211E+01  1.78196E+01
   1.77650E+01  1.76575E+01  1.74964E+01  1.72807E+01  1.70092E+01  1.66803E+01  1.62930E+01  1.58463E+01  1.53398E+01  1.47743E+01
   1.41515E+01  1.34743E+01  1.27467E+01  1.19737E+01  1.11616E+01  1.03175E+01  9.44931E+00  8.56557E+00  7.67506E+00  6.78670E+00
   5.90941E+00  5.05197E+00  4.22285E+00  3.42997E+00  2.68066E+00  1.98164E+00  1.33912E+00  7.58726E-01  2.45488E-01 -1.96213E-01
  -5.62596E-01 -8.50412E-01 -1.05695E+00 -1.18016E+00 -1.21882E+00 -1.17275E+00 -1.04287E+00 -8.31454E-01 -5.42313E-01 -1.81103E-01
   2.44429E-01  7.24337E-01  1.24649E+00  1.79668E+00  2.35883E+00  2.91522E+00  3.44705E+00  3.93506E+00  4.36035E+00  4.70515E+00
   4.95364E+00  5.09255E+00  5.11193E+00  5.00564E+00  4.77168E+00  4.41230E+00  3.93373E+00  3.34587E+00  2.66166E+00  1.89653E+00
   1.06757E+00  1.92684E-01 -7.10269E-01 -1.62420E+00 -2.53337E+00 -3.42381E+00 -4.28368E+00 -5.10347E+00 -5.87607E+00 -6.59667E+00
  -7.26248E+00 -7.87251E+00 -8.42724E+00 -8.92842E+00 -9.37876E+00 -9.78159E+00 -1.01406E+01 -1.04596E+01 -1.07424E+01 -1.09928E+01
  -1.12144E+01 -1.14105E+01 -1.15841E+01 -1.17379E+01 -1.18743E+01 -1.19954E+01 -1.21031E+01 -1.21991E+01 -1.22847E+01 -1.23611E+01
  -1.24295E+01 -1.24906E+01 -1.25455E+01 -1.25947E+01 -1.26387E+01 -1.26782E+01 -1.27136E+01 -1.27453E+01 -1.27736E+01 -1.27990E+01
  -1.28215E+01 -1.28415E+01 -1.28592E+01 -1.28747E+01 -1.28884E+01 -1.29002E+01 -1.29103E+01 -1.29189E+01 -1.29261E+01 -1.29319E+01
  -1.29366E+01 -1.29401E+01 -1.29425E+01 -1.29438E+01 -1.29443E+01 -1.29439E+01 -1.29427E+01 -1.29407E+01 -1.29379E+01 -1.29345E+01
  -1.29305E+01 -1.29258E+01 -1.29206E+01 -1.29147E+01 -1.29084E+01 -1.29016E+01 -1.28943E+01 -1.28866E+01 -1.28784E+01 -1.28699E+01
  -1.28609E+01 -1.28517E+01 -1.28420E+01 -1.28321E+01 -1.28218E+01 -1.28111E+01 -1.28002E+01 -1.27890E+01 -1.27776E+01 -1.27658E+01
  -1.27537E+01 -1.27414E+01 -1.27289E+01 -1.27161E+01 -1.27030E+01 -1.26896E+01 -1.26760E+01 -1.26620E+01
 NY background values follow
     3.707E+01    3.680E+01    3.652E+01    3.625E+01    3.597E+01    3.569E+01    3.542E+01    3.514E+01    3.487E+01    3.459E+01
     3.431E+01    3.404E+01    3.376E+01    3.349E+01    3.321E+01    3.294E+01    3.266E+01    3.238E+01    3.211E+01    3.183E+01
     3.156E+01    3.128E+01    3.101E+01    3.073E+01    3.046E+01    3.019E+01    2.991E+01    2.964E+01    2.937E+01    2.909E+01
     2.882E+01    2.855E+01    2.827E+01    2.800E+01    2.773E+01    2.746E+01    2.719E+01    2.692E+01    2.664E+01    2.637E+01
     2.610E+01    2.583E+01    2.557E+01    2.530E+01    2.503E+01    2.476E+01    2.449E+01    2.423E+01    2.396E+01    2.369E+01
     2.343E+01    2.316E+01    2.290E+01    2.263E+01    2.237E+01    2.210E+01    2.184E+01    2.158E+01    2.132E+01    2.106E+01
     2.080E+01    2.054E+01    2.028E+01    2.002E+01    1.976E+01    1.951E+01    1.925E+01    1.899E+01    1.874E+01    1.849E+01
     1.823E+01    1.798E+01    1.773E+01    1.748E+01    1.723E+01    1.698E+01    1.673E+01    1.648E+01    1.624E+01    1.599E+01
     1.575E+01    1.550E+01    1.526E+01    1.502E+01    1.478E+01    1.454E+01    1.430E+01    1.406E+01    1.383E+01    1.359E+01
     1.336E+01    1.312E+01    1.289E+01    1.266E+01    1.243E+01    1.220E+01    1.197E+01    1.175E+01    1.152E+01    1.129E+01
     1.107E+01    1.085E+01    1.063E+01    1.041E+01    1.019E+01    9.969E+00    9.752E+00    9.536E+00    9.321E+00    9.107E+00
     8.894E+00    8.682E+00    8.471E+00    8.262E+00    8.053E+00    7.845E+00    7.639E+00    7.433E+00    7.229E+00    7.026E+00
     6.823E+00    6.622E+00    6.422E+00    6.222E+00    6.024E+00    5.827E+00    5.631E+00    5.436E+00    5.242E+00    5.049E+00
     4.857E+00    4.666E+00    4.476E+00    4.287E+00    4.099E+00    3.912E+00    3.726E+00    3.541E+00    3.357E+00    3.175E+00
     2.993E+00    2.812E+00    2.632E+00    2.454E+00    2.276E+00    2.100E+00    1.924E+00    1.750E+00    1.577E+00    1.404E+00
     1.233E+00    1.063E+00    8.944E-01    7.266E-01    5.599E-01    3.943E-01    2.299E-01    6.660E-02   -9.557E-02   -2.566E-01
    -4.165E-01   -5.752E-01   -7.327E-01   -8.891E-01   -1.044E+00   -1.198E+00   -1.351E+00   -1.503E+00   -1.653E+00   -1.803E+00
    -1.951E+00   -2.098E+00   -2.243E+00   -2.388E+00   -2.531E+00   -2.673E+00   -2.813E+00   -2.953E+00   -3.091E+00   -3.228E+00
    -3.364E+00   -3.498E+00   -3.631E+00   -3.763E+00   -3.894E+00   -4.023E+00   -4.151E+00   -4.278E+00   -4.404E+00   -4.529E+00
    -4.652E+00   -4.774E+00   -4.895E+00   -5.015E+00   -5.133E+00   -5.251E+00   -5.367E+00   -5.482E+00   -5.597E+00   -5.709E+00
    -5.821E+00   -5.932E+00   -6.042E+00   -6.150E+00   -6.258E+00   -6.364E+00   -6.470E+00   -6.574E+00   -6.677E+00   -6.779E+00
    -6.881E+00   -6.981E+00   -7.080E+00   -7.178E+00   -7.276E+00   -7.372E+00   -7.467E+00   -7.562E+00   -7.655E+00   -7.748E+00
    -7.839E+00   -7.930E+00   -8.019E+00   -8.108E+00   -8.196E+00   -8.283E+00   -8.369E+00   -8.455E+00   -8.539E+00   -8.623E+00
    -8.706E+00   -8.787E+00   -8.869E+00   -8.949E+00   -9.028E+00   -9.107E+00   -9.184E+00   -9.261E+00   -9.337E+00   -9.413E+00
    -9.487E+00   -9.561E+00   -9.633E+00   -9.705E+00   -9.777E+00   -9.847E+00   -9.917E+00   -9.986E+00   -1.005E+01   -1.012E+01
    -1.019E+01   -1.025E+01   -1.032E+01   -1.038E+01   -1.045E+01   -1.051E+01   -1.057E+01   -1.063E+01   -1.069E+01   -1.075E+01
    -1.081E+01   -1.087E+01   -1.093E+01   -1.098E+01   -1.104E+01   -1.110E+01   -1.115E+01   -1.120E+01   -1.126E+01   -1.131E+01
    -1.136E+01   -1.141E+01   -1.146E+01   -1.151E+01   -1.156E+01   -1.161E+01   -1.166E+01   -1.171E+01   -1.175E+01   -1.180E+01
    -1.185E+01   -1.189E+01   -1.193E+01   -1.198E+01   -1.202E+01   -1.206E+01   -1.210E+01   -1.215E+01   -1.219E+01   -1.223E+01
    -1.226E+01   -1.230E+01   -1.234E+01   -1.238E+01   -1.241E+01   -1.245E+01   -1.249E+01   -1.252E+01   -1.256E+01   -1.259E+01
    -1.262E+01   -1.266E+01   -1.269E+01   -1.272E+01   -1.275E+01   -1.278E+01   -1.281E+01   -1.284E+01   -1.287E+01   -1.290E+01
    -1.293E+01   -1.295E+01   -1.298E+01   -1.301E+01   -1.303E+01   -1.306E+01   -1.308E+01   -1.311E+01   -1.313E+01   -1.315E+01
    -1.318E+01   -1.320E+01   -1.322E+01   -1.324E+01   -1.327E+01   -1.329E+01   -1.331E+01   -1.333E+01   -1.335E+01   -1.336E+01
    -1.338E+01   -1.340E+01   -1.342E+01   -1.343E+01   -1.345E+01   -1.347E+01   -1.348E+01   -1.350E+01   -1.351E+01   -1.353E+01
    -1.354E+01   -1.356E+01   -1.357E+01   -1.358E+01   -1.360E+01   -1.361E+01   -1.362E+01   -1.363E+01   -1.364E+01   -1.365E+01
    -1.366E+01   -1.367E+01   -1.368E+01   -1.369E+01   -1.370E+01   -1.371E+01   -1.372E+01   -1.373E+01   -1.373E+01   -1.374E+01
    -1.375E+01   -1.375E+01   -1.376E+01   -1.377E+01   -1.377E+01   -1.378E+01   -1.378E+01   -1.379E+01   -1.379E+01   -1.380E+01
    -1.380E+01   -1.380E+01   -1.381E+01   -1.381E+01   -1.381E+01   -1.381E+01   -1.381E+01   -1.382E+01   -1.382E+01   -1.382E+01
    -1.382E+01   -1.382E+01   -1.382E+01   -1.382E+01   -1.382E+01   -1.382E+01   -1.382E+01   -1.382E+01   -1.381E+01   -1.381E+01
    -1.381E+01   -1.381E+01   -1.380E+01   -1.380E+01   -1.380E+01   -1.379E+01   -1.379E+01   -1.378E+01   -1.378E+01   -1.377E+01
    -1.377E+01   -1.376E+01   -1.376E+01   -1.375E+01   -1.375E+01   -1.374E+01   -1.373E+01   -1.372E+01   -1.372E+01   -1.371E+01
    -1.370E+01   -1.369E+01   -1.368E+01   -1.368E+01   -1.367E+01   -1.366E+01   -1.365E+01   -1.364E+01   -1.363E+01   -1.362E+01
    -1.361E+01   -1.360E+01   -1.359E+01   -1.357E+01   -1.356E+01   -1.355E+01   -1.354E+01   -1.353E+01   -1.352E+01   -1.350E+01
    -1.349E+01   -1.348E+01   -1.347E+01   -1.345E+01   -1.344E+01   -1.343E+01   -1.341E+01   -1.340E+01   -1.339E+01   -1.337E+01
    -1.336E+01   -1.334E+01   -1.333E+01   -1.332E+01   -1.330E+01   -1.329E+01   -1.327E+01   -1.326E+01   -1.324E+01   -1.323E+01
    -1.321E+01   -1.320E+01   -1.318E+01   -1.317E+01   -1.315E+01   -1.314E+01   -1.312E+01   -1.311E+01   -1.309E+01   -1.308E+01
    -1.306E+01   -1.305E+01   -1.303E+01   -1.302E+01   -1.300E+01   -1.298E+01   -1.297E+01   -1.295E+01   -1.294E+01   -1.292E+01
    -1.291E+01   -1.289E+01   -1.287E+01   -1.286E+01   -1.284E+01   -1.283E+01   -1.281E+01   -1.279E+01   -1.278E+01   -1.276E+01
    -1.275E+01   -1.273E+01   -1.271E+01   -1.270E+01   -1.268E+01   -1.267E+01   -1.265E+01   -1.263E+01   -1.262E+01   -1.260E+01
    -1.259E+01   -1.257E+01   -1.255E+01   -1.254E+01   -1.252E+01   -1.251E+01   -1.249E+01   -1.247E+01
 Ala      Conc. = 4.59E+01
