 LCModel (Version 6.3-1L) Copyright: S.W. Provencher.          Ref.: Magn. Reson. Med. 30:672-679 (1993).                
 Slice#3 Row#9 Col#4  K_02_press_1_raw_act
 36 lines in following concentration table = NCONC+1
    Conc.  %SD /Cr+PCr  Metabolite                                         
   91.256 159% 4.0E-02 Ala                                                 
    0.000 999%   0.000 Asp                                                 
  260.672 121%   0.115 Cr                                                  
 2.01E+03  16%   0.885 PCr                                                 
   12.777 999% 5.6E-03 GABA                                                
    0.000 999%   0.000 Glc                                                 
 1.14E+03  30%   0.503 Gln                                                 
 1.87E+03  21%   0.823 Glu                                                 
  671.447   4%   0.296 GPC                                                 
    0.000 999%   0.000 PCh                                                 
  509.505  16%   0.225 GSH                                                 
  375.194  82%   0.165 Ins                                                 
    0.000 999%   0.000 Lac                                                 
 2.77E+03   8%   1.222 NAA                                                 
  800.384  28%   0.353 NAAG                                                
   78.338  43% 3.5E-02 Scyllo                                              
    0.000 999%   0.000 Tau                                                 
    0.000 999%   0.000 -CrCH2                                              
  671.447   4%   0.296 GPC+PCh                                             
 3.57E+03   2%   1.575 NAA+NAAG                                            
 2.27E+03   3%   1.000 Cr+PCr                                              
 3.01E+03  20%   1.326 Glu+Gln                                             
    0.000 999%   0.000 Lip13a                                              
  153.987  88% 6.8E-02 Lip13b                                              
   18.433 302% 8.1E-03 Lip09                                               
  675.788  25%   0.298 MM09                                                
   31.976 112% 1.4E-02 Lip20                                               
 1.27E+03  22%   0.559 MM20                                                
  198.411  33% 8.7E-02 MM12                                                
  199.538  96% 8.8E-02 MM14                                                
  445.402  26%   0.196 MM17                                                
  153.987  88% 6.8E-02 Lip13a+Lip13b                                       
  551.937  48%   0.243 MM14+Lip13a+Lip13b+MM12                             
  694.222  25%   0.306 MM09+Lip09                                          
 1.30E+03  21%   0.573 MM20+Lip20                                          
   6 lines in following misc. output table
  FWHM = 0.061 ppm    S/N =  14                                            
  Data shift = 0.023 ppm                                                   
  Ph: -21 deg     -14.9 deg/ppm                                            
  alphaB,S = 6.5E-01,   1.0E+02                                            
   14 spline knots.   Ns = 9(1)                                            
  (13) 5 infls.   ( 7) 1 extrs.                                            
  498 points on ppm-axis = NY
      4.000000     3.992357     3.984714     3.977070     3.969427     3.961784     3.954141     3.946497     3.938854     3.931211
      3.923568     3.915925     3.908281     3.900638     3.892995     3.885352     3.877708     3.870065     3.862422     3.854779
      3.847136     3.839492     3.831849     3.824206     3.816563     3.808919     3.801276     3.793633     3.785990     3.778347
      3.770703     3.763060     3.755417     3.747774     3.740130     3.732487     3.724844     3.717201     3.709558     3.701914
      3.694271     3.686628     3.678985     3.671341     3.663698     3.656055     3.648412     3.640769     3.633125     3.625482
      3.617839     3.610196     3.602552     3.594909     3.587266     3.579623     3.571980     3.564336     3.556693     3.549050
      3.541407     3.533763     3.526120     3.518477     3.510834     3.503191     3.495547     3.487904     3.480261     3.472618
      3.464974     3.457331     3.449688     3.442045     3.434402     3.426758     3.419115     3.411472     3.403829     3.396185
      3.388542     3.380899     3.373256     3.365613     3.357969     3.350326     3.342683     3.335040     3.327396     3.319753
      3.312110     3.304467     3.296824     3.289180     3.281537     3.273894     3.266251     3.258607     3.250964     3.243321
      3.235678     3.228034     3.220391     3.212748     3.205105     3.197462     3.189818     3.182175     3.174532     3.166889
      3.159245     3.151602     3.143959     3.136316     3.128673     3.121029     3.113386     3.105743     3.098100     3.090456
      3.082813     3.075170     3.067527     3.059884     3.052240     3.044597     3.036954     3.029311     3.021667     3.014024
      3.006381     2.998738     2.991095     2.983451     2.975808     2.968165     2.960522     2.952878     2.945235     2.937592
      2.929949     2.922306     2.914662     2.907019     2.899376     2.891733     2.884089     2.876446     2.868803     2.861160
      2.853517     2.845873     2.838230     2.830587     2.822944     2.815300     2.807657     2.800014     2.792371     2.784728
      2.777084     2.769441     2.761798     2.754155     2.746511     2.738868     2.731225     2.723582     2.715939     2.708295
      2.700652     2.693009     2.685366     2.677722     2.670079     2.662436     2.654793     2.647150     2.639506     2.631863
      2.624220     2.616577     2.608933     2.601290     2.593647     2.586004     2.578361     2.570717     2.563074     2.555431
      2.547788     2.540144     2.532501     2.524858     2.517215     2.509572     2.501928     2.494285     2.486642     2.478999
      2.471355     2.463712     2.456069     2.448426     2.440783     2.433139     2.425496     2.417853     2.410210     2.402566
      2.394923     2.387280     2.379637     2.371994     2.364350     2.356707     2.349064     2.341421     2.333777     2.326134
      2.318491     2.310848     2.303205     2.295561     2.287918     2.280275     2.272632     2.264988     2.257345     2.249702
      2.242059     2.234416     2.226772     2.219129     2.211486     2.203843     2.196199     2.188556     2.180913     2.173270
      2.165627     2.157983     2.150340     2.142697     2.135054     2.127410     2.119767     2.112124     2.104481     2.096838
      2.089194     2.081551     2.073908     2.066265     2.058621     2.050978     2.043335     2.035692     2.028049     2.020405
      2.012762     2.005119     1.997476     1.989833     1.982190     1.974546     1.966903     1.959260     1.951617     1.943974
      1.936331     1.928688     1.921045     1.913402     1.905759     1.898115     1.890472     1.882829     1.875186     1.867543
      1.859900     1.852257     1.844614     1.836971     1.829327     1.821684     1.814041     1.806398     1.798755     1.791112
      1.783469     1.775826     1.768183     1.760540     1.752896     1.745253     1.737610     1.729967     1.722324     1.714681
      1.707038     1.699395     1.691752     1.684108     1.676465     1.668822     1.661179     1.653536     1.645893     1.638250
      1.630607     1.622964     1.615321     1.607677     1.600034     1.592391     1.584748     1.577105     1.569462     1.561819
      1.554176     1.546533     1.538890     1.531246     1.523603     1.515960     1.508317     1.500674     1.493031     1.485388
      1.477745     1.470102     1.462458     1.454815     1.447172     1.439529     1.431886     1.424243     1.416600     1.408957
      1.401314     1.393671     1.386027     1.378384     1.370741     1.363098     1.355455     1.347812     1.340169     1.332526
      1.324883     1.317240     1.309596     1.301953     1.294310     1.286667     1.279024     1.271381     1.263738     1.256095
      1.248452     1.240808     1.233165     1.225522     1.217879     1.210236     1.202593     1.194950     1.187307     1.179664
      1.172021     1.164377     1.156734     1.149091     1.141448     1.133805     1.126162     1.118519     1.110876     1.103233
      1.095590     1.087946     1.080303     1.072660     1.065017     1.057374     1.049731     1.042088     1.034445     1.026802
      1.019158     1.011515     1.003872     0.996229     0.988586     0.980943     0.973300     0.965657     0.958014     0.950371
      0.942727     0.935084     0.927441     0.919798     0.912155     0.904512     0.896869     0.889226     0.881583     0.873940
      0.866296     0.858653     0.851010     0.843367     0.835724     0.828081     0.820438     0.812795     0.805152     0.797508
      0.789865     0.782222     0.774579     0.766936     0.759293     0.751650     0.744007     0.736364     0.728721     0.721077
      0.713434     0.705791     0.698148     0.690505     0.682862     0.675219     0.667576     0.659933     0.652290     0.644646
      0.637003     0.629360     0.621717     0.614074     0.606431     0.598788     0.591145     0.583502     0.575858     0.568215
      0.560572     0.552929     0.545286     0.537643     0.530000     0.522357     0.514714     0.507071     0.499427     0.491784
      0.484141     0.476498     0.468855     0.461212     0.453569     0.445925     0.438282     0.430639     0.422996     0.415353
      0.407710     0.400067     0.392424     0.384780     0.377137     0.369494     0.361851     0.354208     0.346565     0.338922
      0.331278     0.323635     0.315992     0.308349     0.300706     0.293063     0.285420     0.277777     0.270133     0.262490
      0.254847     0.247204     0.239561     0.231918     0.224275     0.216631     0.208988     0.201345
 NY phased data points follow
   3.00128E+01  3.21868E+01  2.97554E+01  3.73137E+01  3.74853E+01  4.08036E+01  4.71574E+01  4.95517E+01  5.58852E+01  6.03232E+01
   6.43654E+01  6.42963E+01  6.32360E+01  5.75430E+01  5.35914E+01  5.26790E+01  4.35523E+01  3.49256E+01  3.01938E+01  3.22332E+01
   2.85321E+01  2.37029E+01  2.40285E+01  2.37488E+01  2.43249E+01  2.58141E+01  2.49083E+01  2.57505E+01  2.88640E+01  2.72533E+01
   3.16768E+01  2.78229E+01  2.66899E+01  2.85368E+01  3.20870E+01  2.63071E+01  2.24653E+01  2.46841E+01  2.29015E+01  2.16172E+01
   2.19540E+01  2.32616E+01  2.41033E+01  2.23187E+01  2.53130E+01  2.34335E+01  2.43230E+01  2.57364E+01  2.32104E+01  2.62511E+01
   2.56917E+01  2.13538E+01  1.79103E+01  2.10548E+01  2.00393E+01  1.85778E+01  1.78646E+01  1.37217E+01  1.63733E+01  1.75547E+01
   1.61820E+01  1.19352E+01  8.74207E+00  1.00190E+01  7.29519E+00  8.93947E+00  6.18014E+00  4.93675E+00  7.04424E+00  5.58584E+00
   8.36404E+00  7.64329E+00  8.31759E+00  5.25581E+00  1.05301E+01  6.83396E+00  7.30008E+00  9.29860E+00  6.37499E+00  8.95148E+00
   1.22584E+01  6.90568E+00  9.73787E+00  8.29993E+00  6.87499E+00  1.28608E+01  9.70198E+00  1.19636E+01  1.02240E+01  8.79475E+00
   1.08079E+01  1.45328E+01  1.52666E+01  1.19554E+01  1.62681E+01  1.81732E+01  1.61701E+01  1.92213E+01  2.61058E+01  3.09646E+01
   3.81946E+01  4.86806E+01  5.08610E+01  5.23021E+01  5.68310E+01  5.28937E+01  4.68181E+01  4.13837E+01  3.14410E+01  2.87234E+01
   2.49387E+01  1.86662E+01  1.60631E+01  1.66679E+01  1.40913E+01  9.09414E+00  8.79187E+00  1.34811E+01  1.53356E+01  1.71024E+01
   1.83356E+01  1.97293E+01  2.45801E+01  2.97415E+01  3.92084E+01  5.11543E+01  5.72663E+01  5.87508E+01  6.26274E+01  6.02399E+01
   5.69262E+01  4.83846E+01  4.22633E+01  3.55637E+01  2.85171E+01  2.35263E+01  1.94225E+01  1.36379E+01  1.23797E+01  1.08755E+01
   1.15895E+01  7.88946E+00  9.57648E+00  8.58456E+00  5.64498E+00  9.22912E+00  8.12292E+00  9.88300E+00  3.39335E+00  7.54872E+00
   5.20297E+00  6.34515E+00  6.13046E+00  4.96055E+00  5.09852E+00  6.14161E+00  8.27358E+00  7.77201E+00  5.84479E+00  4.54042E+00
   6.53370E+00  6.83699E+00 -8.07862E-01  7.67876E+00  5.25943E+00  1.29909E+00  2.97520E+00  3.41267E-01  8.17481E-01 -1.41912E+00
  -6.75314E-01  2.71974E+00 -1.96815E+00 -1.89801E+00 -6.15812E+00 -9.83787E+00 -6.29611E+00 -9.51415E+00 -1.12667E+01 -6.76865E+00
  -3.13046E+00 -3.47552E+00 -8.13234E+00 -8.22330E+00 -6.82728E+00 -4.64214E+00 -1.78792E+00 -2.00992E+00  8.78178E-01  7.41389E+00
   1.20198E+01  1.33841E+01  1.08163E+01  1.20989E+01  1.53396E+01  9.29661E+00  1.36593E+01  1.05248E+01  7.09062E+00  5.99883E+00
   5.91770E+00  8.14229E+00  6.17860E+00  9.10918E+00  7.36434E+00  3.69360E+00  4.87520E+00  7.60372E+00  5.39035E+00  3.07802E+00
   3.42855E+00  3.62117E+00  5.60779E+00  1.18298E+01  1.10977E+01  1.16085E+01  1.65898E+01  1.43041E+01  1.59001E+01  1.53527E+01
   1.00723E+01  7.78985E+00  6.27137E+00  9.01512E+00  7.30080E+00  1.00581E+01  1.34361E+01  1.56731E+01  1.78568E+01  1.74507E+01
   1.68687E+01  1.69490E+01  1.50726E+01  1.71817E+01  1.69391E+01  1.67307E+01  1.76621E+01  1.16442E+01  1.50421E+01  1.64054E+01
   1.10187E+01  1.21972E+01  1.29306E+01  1.23725E+01  1.40343E+01  1.38694E+01  1.67656E+01  2.17189E+01  2.12050E+01  1.99293E+01
   2.81588E+01  3.13577E+01  3.35282E+01  4.00911E+01  5.31641E+01  6.04602E+01  6.43153E+01  7.64304E+01  8.70078E+01  9.66607E+01
   9.88790E+01  9.91773E+01  9.07508E+01  8.42051E+01  6.78755E+01  5.47968E+01  4.13165E+01  3.31387E+01  2.80387E+01  2.35904E+01
   2.10153E+01  1.65400E+01  2.01416E+01  1.60507E+01  1.60258E+01  1.59602E+01  1.18651E+01  1.63845E+01  1.65813E+01  1.67358E+01
   1.01313E+01  1.70905E+01  1.18775E+01  1.12378E+01  1.16749E+01  8.88949E+00  1.21071E+01  1.02119E+01  8.84456E+00  1.22197E+01
   1.29063E+01  1.31359E+01  1.37476E+01  1.31348E+01  1.05000E+01  1.27076E+01  1.11022E+01  1.50421E+01  1.31679E+01  8.09000E+00
   1.06876E+01  1.12780E+01  1.35674E+01  1.29783E+01  9.80568E+00  1.18966E+01  1.53333E+01  1.36246E+01  1.61165E+01  1.65158E+01
   1.31186E+01  9.63067E+00  1.65160E+01  1.38922E+01  1.49428E+01  1.25521E+01  1.94319E+01  1.69306E+01  1.41664E+01  1.46336E+01
   1.12294E+01  1.08720E+01  1.01861E+01  7.74195E+00  1.05325E+01  8.63617E+00  4.68092E+00  5.87341E+00  5.36760E+00  4.06269E+00
   5.75987E+00  7.78426E+00  6.58750E+00  8.62186E+00  1.01667E+01  1.01759E+01  6.70733E+00  5.23324E+00  3.27896E+00  9.65974E+00
   9.76249E+00  3.21094E+00  7.46663E+00  1.33103E+01  1.20549E+01  1.20284E+01  7.26834E+00  8.12599E+00  8.53330E+00  1.05462E+01
   6.25795E+00  1.09003E+01  8.17908E+00  8.29143E+00  1.18501E+01  1.04631E+01  8.97780E+00  8.58137E+00  1.09222E+01  8.01573E+00
   8.91738E+00  1.04019E+01  1.24795E+01  8.47387E+00  7.07721E+00  9.47899E+00  8.16607E+00  9.77652E+00  7.35906E+00  1.26428E+01
   5.56880E+00  6.51384E+00  4.35495E+00  7.51171E+00  6.67657E+00  4.56417E+00  5.08749E+00  3.80416E+00  7.08829E+00  6.14744E+00
   4.25868E+00  8.72106E+00  3.80885E+00  8.25090E+00  8.36363E+00  7.59220E+00  2.80705E+00  6.74384E+00  8.47462E+00  6.88900E+00
   7.65801E+00  7.80141E+00  1.07341E+01  9.97221E+00  1.20433E+01  1.00375E+01  6.80987E+00  1.01249E+01  7.63897E+00  8.45486E+00
   8.63555E+00  8.46166E+00  1.12753E+01  8.86142E+00  8.99996E+00  6.90747E+00  1.13568E+01  7.39896E+00  1.11331E+01  1.44039E+01
   1.01929E+01  8.61042E+00  7.34048E+00  6.76841E+00  1.00136E+01  8.81732E+00  9.76262E+00  6.76834E+00  7.40799E+00  4.97278E+00
   9.19703E+00  9.83447E+00  5.52652E+00  6.08843E+00  5.48952E+00  4.96905E+00  6.45971E+00  8.76155E+00  5.21069E+00  5.03035E+00
   6.87977E+00  5.87677E+00  1.11132E+01  8.23028E+00  7.76118E+00  9.60414E+00  9.04053E+00  6.22605E+00  6.74741E+00  5.58923E+00
   1.11626E+01  4.95672E+00  6.44872E+00  6.93960E+00  5.38423E+00  7.90294E+00  8.53533E+00  6.94558E+00  7.78597E+00  7.11289E+00
   8.54191E+00  7.25128E+00  7.78252E+00  7.67724E+00  6.36949E+00  9.81611E+00  5.27913E+00  1.04453E+01  6.89076E+00  6.70601E+00
   9.61370E+00  7.77742E+00  7.20182E+00  9.00398E+00  8.60345E+00  6.84529E+00  6.84845E+00  7.61259E+00  5.36181E+00  7.83246E+00
   4.74220E+00  6.86221E+00  7.08988E+00  8.14484E+00  6.62118E+00  6.54086E+00  6.90172E+00  7.27641E+00  5.44023E+00  4.54069E+00
   5.28188E+00  8.56000E+00  1.02393E+01  9.39587E+00  4.78400E+00  4.38338E+00  6.40987E+00  6.66935E+00  7.71064E+00  5.71045E+00
   6.57469E+00  6.99139E+00  8.86740E+00  4.14346E+00  5.94975E+00  5.65954E+00  5.95896E+00  8.36344E+00
 NY points of the fit to the data follow
   2.70936E+01  2.94618E+01  3.13083E+01  3.33081E+01  3.59019E+01  3.93866E+01  4.43653E+01  5.05393E+01  5.63960E+01  6.06792E+01
   6.30424E+01  6.32373E+01  6.10588E+01  5.68710E+01  5.16223E+01  4.63697E+01  4.18106E+01  3.80006E+01  3.45224E+01  3.08213E+01
   2.79148E+01  2.67875E+01  2.62762E+01  2.59600E+01  2.56694E+01  2.53502E+01  2.51937E+01  2.55775E+01  2.66404E+01  2.80505E+01
   2.95643E+01  3.09162E+01  3.15215E+01  3.11026E+01  2.97405E+01  2.76711E+01  2.55108E+01  2.38414E+01  2.27428E+01  2.19121E+01
   2.12859E+01  2.11270E+01  2.11548E+01  2.12465E+01  2.13779E+01  2.15284E+01  2.16352E+01  2.16050E+01  2.13876E+01  2.09104E+01
   2.02502E+01  1.95502E+01  1.87763E+01  1.79867E+01  1.72834E+01  1.66302E+01  1.59904E+01  1.54463E+01  1.50232E+01  1.46476E+01
   1.42597E+01  1.38811E+01  1.34972E+01  1.31167E+01  1.27227E+01  1.23373E+01  1.20079E+01  1.17490E+01  1.15516E+01  1.13881E+01
   1.12438E+01  1.11027E+01  1.09506E+01  1.07916E+01  1.06164E+01  1.04257E+01  1.02407E+01  1.01646E+01  1.02326E+01  1.01976E+01
   1.01249E+01  1.01249E+01  1.02074E+01  1.04466E+01  1.08417E+01  1.12159E+01  1.13999E+01  1.13976E+01  1.12267E+01  1.08590E+01
   1.03471E+01  9.84475E+00  9.64989E+00  1.07831E+01  1.41907E+01  1.69133E+01  1.87742E+01  2.13093E+01  2.50295E+01  3.05538E+01
   3.82214E+01  4.62619E+01  5.23055E+01  5.56568E+01  5.63299E+01  5.39251E+01  4.85052E+01  4.11967E+01  3.37494E+01  2.74169E+01
   2.25018E+01  1.84885E+01  1.44651E+01  1.05524E+01  8.69344E+00  8.16562E+00  8.14129E+00  8.98877E+00  1.23337E+01  1.62760E+01
   1.88666E+01  2.17395E+01  2.57322E+01  3.13547E+01  3.94978E+01  4.90775E+01  5.71239E+01  6.20882E+01  6.40336E+01  6.26955E+01
   5.78892E+01  5.04189E+01  4.19327E+01  3.41050E+01  2.76376E+01  2.23499E+01  1.74198E+01  1.23216E+01  8.99645E+00  7.99311E+00
   7.82373E+00  7.90916E+00  8.01099E+00  8.00076E+00  7.86920E+00  7.68132E+00  7.42705E+00  7.16039E+00  6.90157E+00  6.61951E+00
   6.32242E+00  5.93558E+00  5.40701E+00  5.00996E+00  4.77788E+00  4.67421E+00  4.66962E+00  4.51531E+00  4.18673E+00  3.81008E+00
   3.47317E+00  3.20276E+00  3.03398E+00  2.93206E+00  2.81243E+00  2.63656E+00  2.28364E+00  1.67047E+00  1.04365E+00  5.86225E-01
   2.80477E-01  4.11215E-02 -3.58607E-01 -8.19813E-01 -1.22275E+00 -1.41020E+00 -1.38676E+00 -1.37337E+00 -1.40128E+00 -1.21729E+00
  -8.34478E-01 -4.15702E-01  3.23203E-03  4.60989E-01  9.81563E-01  1.69354E+00  2.69816E+00  3.76128E+00  4.83579E+00  5.88074E+00
   6.96261E+00  7.92208E+00  8.47421E+00  8.61334E+00  8.45359E+00  8.19769E+00  8.03046E+00  8.12390E+00  8.42249E+00  8.97809E+00
   9.61681E+00  1.02004E+01  1.10002E+01  1.15717E+01  1.14285E+01  1.07088E+01  9.50093E+00  8.10075E+00  6.57963E+00  5.25225E+00
   4.54138E+00  4.66062E+00  5.72344E+00  7.40937E+00  9.27388E+00  1.09610E+01  1.20665E+01  1.23003E+01  1.16186E+01  1.01501E+01
   8.27701E+00  6.57168E+00  5.66120E+00  5.66103E+00  6.41566E+00  7.73235E+00  9.25902E+00  1.09265E+01  1.23947E+01  1.33100E+01
   1.37433E+01  1.40109E+01  1.42746E+01  1.42354E+01  1.40209E+01  1.41637E+01  1.45674E+01  1.48822E+01  1.50118E+01  1.48574E+01
   1.43184E+01  1.36365E+01  1.30445E+01  1.26389E+01  1.26307E+01  1.31215E+01  1.42656E+01  1.64168E+01  1.85384E+01  2.03104E+01
   2.33439E+01  3.02219E+01  3.79150E+01  4.45303E+01  5.17564E+01  5.94264E+01  6.78115E+01  7.81727E+01  8.87720E+01  9.58471E+01
   9.81314E+01  9.65243E+01  9.11368E+01  8.18371E+01  6.97541E+01  5.69824E+01  4.55073E+01  3.69220E+01  3.06752E+01  2.49091E+01
   1.88253E+01  1.52332E+01  1.42065E+01  1.37931E+01  1.35352E+01  1.33612E+01  1.31751E+01  1.29345E+01  1.26733E+01  1.24142E+01
   1.21966E+01  1.20324E+01  1.18999E+01  1.17871E+01  1.16847E+01  1.15931E+01  1.15143E+01  1.14429E+01  1.13673E+01  1.13049E+01
   1.12749E+01  1.12823E+01  1.13177E+01  1.13747E+01  1.14551E+01  1.15555E+01  1.16576E+01  1.17655E+01  1.18893E+01  1.20331E+01
   1.21973E+01  1.23763E+01  1.25573E+01  1.27404E+01  1.29169E+01  1.30726E+01  1.31966E+01  1.32825E+01  1.33280E+01  1.33314E+01
   1.32848E+01  1.31890E+01  1.30498E+01  1.28723E+01  1.26644E+01  1.24351E+01  1.21956E+01  1.19643E+01  1.17562E+01  1.15119E+01
   1.12426E+01  1.10030E+01  1.07915E+01  1.06038E+01  1.04265E+01  1.02113E+01  9.97189E+00  9.71772E+00  9.41854E+00  9.09657E+00
   8.78598E+00  8.53414E+00  8.41257E+00  8.44722E+00  8.58166E+00  8.74415E+00  8.89760E+00  9.02819E+00  9.14251E+00  9.19398E+00
   9.16354E+00  9.09040E+00  9.01148E+00  8.94727E+00  8.89457E+00  8.83039E+00  8.78934E+00  8.81207E+00  8.88632E+00  9.00264E+00
   9.15215E+00  9.32259E+00  9.49762E+00  9.65775E+00  9.78252E+00  9.85362E+00  9.85798E+00  9.79010E+00  9.65287E+00  9.45693E+00
   9.21857E+00  8.95700E+00  8.69129E+00  8.43767E+00  8.20775E+00  8.00793E+00  7.83992E+00  7.70195E+00  7.59020E+00  7.49997E+00
   7.42661E+00  7.36612E+00  7.31555E+00  7.27312E+00  7.23803E+00  7.21021E+00  7.19001E+00  7.17807E+00  7.17531E+00  7.18289E+00
   7.20203E+00  7.23392E+00  7.27960E+00  7.34004E+00  7.41621E+00  7.50898E+00  7.61902E+00  7.74661E+00  7.89165E+00  8.05364E+00
   8.23169E+00  8.42442E+00  8.62975E+00  8.84489E+00  9.06639E+00  9.29026E+00  9.51206E+00  9.72697E+00  9.92978E+00  1.01152E+01
   1.02780E+01  1.04135E+01  1.05177E+01  1.05873E+01  1.06199E+01  1.06142E+01  1.05699E+01  1.04884E+01  1.03719E+01  1.02235E+01
   1.00472E+01  9.84772E+00  9.63006E+00  9.39960E+00  9.16159E+00  8.92098E+00  8.68225E+00  8.44937E+00  8.22576E+00  8.01420E+00
   7.81670E+00  7.63456E+00  7.46847E+00  7.31867E+00  7.18504E+00  7.06707E+00  6.96393E+00  6.87456E+00  6.79780E+00  6.73257E+00
   6.67778E+00  6.63233E+00  6.59513E+00  6.56511E+00  6.54139E+00  6.52321E+00  6.50992E+00  6.50086E+00  6.49540E+00  6.49301E+00
   6.49329E+00  6.49593E+00  6.50064E+00  6.50707E+00  6.51492E+00  6.52394E+00  6.53400E+00  6.54497E+00  6.55671E+00  6.56899E+00
   6.58165E+00  6.59459E+00  6.60777E+00  6.62115E+00  6.63464E+00  6.64815E+00  6.66161E+00  6.67506E+00  6.68853E+00  6.70200E+00
   6.71540E+00  6.72867E+00  6.74180E+00  6.75486E+00  6.76788E+00  6.78083E+00  6.79364E+00  6.80629E+00  6.81881E+00  6.83126E+00
   6.84367E+00  6.85599E+00  6.86816E+00  6.88020E+00  6.89217E+00  6.90413E+00  6.91607E+00  6.92792E+00  6.93968E+00  6.95138E+00
   6.96308E+00  6.97484E+00  6.98661E+00  6.99835E+00  7.01006E+00  7.02183E+00  7.03371E+00  7.04572E+00  7.05781E+00  7.06997E+00
   7.08223E+00  7.09469E+00  7.10739E+00  7.12034E+00  7.13351E+00  7.14691E+00  7.16063E+00  7.17478E+00
 NY background values follow
     2.354E+01    2.333E+01    2.313E+01    2.292E+01    2.271E+01    2.250E+01    2.230E+01    2.209E+01    2.188E+01    2.167E+01
     2.146E+01    2.126E+01    2.105E+01    2.084E+01    2.064E+01    2.043E+01    2.022E+01    2.002E+01    1.981E+01    1.961E+01
     1.940E+01    1.920E+01    1.899E+01    1.879E+01    1.859E+01    1.839E+01    1.818E+01    1.798E+01    1.778E+01    1.758E+01
     1.738E+01    1.719E+01    1.699E+01    1.679E+01    1.660E+01    1.640E+01    1.621E+01    1.602E+01    1.582E+01    1.563E+01
     1.544E+01    1.526E+01    1.507E+01    1.488E+01    1.470E+01    1.451E+01    1.433E+01    1.415E+01    1.397E+01    1.379E+01
     1.361E+01    1.344E+01    1.326E+01    1.309E+01    1.292E+01    1.275E+01    1.258E+01    1.241E+01    1.225E+01    1.208E+01
     1.192E+01    1.176E+01    1.160E+01    1.144E+01    1.128E+01    1.113E+01    1.097E+01    1.082E+01    1.067E+01    1.053E+01
     1.038E+01    1.024E+01    1.009E+01    9.952E+00    9.813E+00    9.676E+00    9.541E+00    9.408E+00    9.277E+00    9.147E+00
     9.020E+00    8.895E+00    8.771E+00    8.650E+00    8.531E+00    8.413E+00    8.298E+00    8.185E+00    8.074E+00    7.966E+00
     7.859E+00    7.755E+00    7.653E+00    7.553E+00    7.455E+00    7.359E+00    7.266E+00    7.174E+00    7.085E+00    6.997E+00
     6.912E+00    6.828E+00    6.746E+00    6.667E+00    6.589E+00    6.513E+00    6.438E+00    6.366E+00    6.295E+00    6.226E+00
     6.159E+00    6.093E+00    6.029E+00    5.967E+00    5.906E+00    5.847E+00    5.789E+00    5.733E+00    5.678E+00    5.625E+00
     5.573E+00    5.523E+00    5.474E+00    5.426E+00    5.379E+00    5.334E+00    5.290E+00    5.248E+00    5.206E+00    5.166E+00
     5.127E+00    5.089E+00    5.052E+00    5.016E+00    4.981E+00    4.948E+00    4.915E+00    4.883E+00    4.852E+00    4.822E+00
     4.794E+00    4.766E+00    4.740E+00    4.714E+00    4.690E+00    4.668E+00    4.646E+00    4.626E+00    4.607E+00    4.590E+00
     4.574E+00    4.559E+00    4.546E+00    4.535E+00    4.525E+00    4.517E+00    4.510E+00    4.505E+00    4.502E+00    4.500E+00
     4.500E+00    4.502E+00    4.506E+00    4.511E+00    4.519E+00    4.528E+00    4.540E+00    4.553E+00    4.568E+00    4.586E+00
     4.606E+00    4.627E+00    4.651E+00    4.677E+00    4.706E+00    4.736E+00    4.769E+00    4.804E+00    4.842E+00    4.882E+00
     4.925E+00    4.970E+00    5.017E+00    5.067E+00    5.119E+00    5.173E+00    5.230E+00    5.288E+00    5.349E+00    5.411E+00
     5.475E+00    5.541E+00    5.608E+00    5.677E+00    5.748E+00    5.819E+00    5.892E+00    5.967E+00    6.042E+00    6.118E+00
     6.196E+00    6.274E+00    6.352E+00    6.432E+00    6.512E+00    6.593E+00    6.674E+00    6.755E+00    6.837E+00    6.918E+00
     7.000E+00    7.082E+00    7.164E+00    7.245E+00    7.326E+00    7.407E+00    7.487E+00    7.567E+00    7.646E+00    7.725E+00
     7.803E+00    7.880E+00    7.955E+00    8.030E+00    8.104E+00    8.176E+00    8.248E+00    8.317E+00    8.386E+00    8.453E+00
     8.518E+00    8.582E+00    8.645E+00    8.706E+00    8.766E+00    8.824E+00    8.881E+00    8.937E+00    8.990E+00    9.043E+00
     9.094E+00    9.143E+00    9.191E+00    9.237E+00    9.282E+00    9.325E+00    9.366E+00    9.406E+00    9.445E+00    9.482E+00
     9.517E+00    9.550E+00    9.582E+00    9.613E+00    9.641E+00    9.668E+00    9.694E+00    9.717E+00    9.740E+00    9.760E+00
     9.778E+00    9.795E+00    9.811E+00    9.824E+00    9.836E+00    9.846E+00    9.854E+00    9.860E+00    9.865E+00    9.868E+00
     9.869E+00    9.868E+00    9.866E+00    9.862E+00    9.855E+00    9.848E+00    9.838E+00    9.827E+00    9.814E+00    9.800E+00
     9.784E+00    9.767E+00    9.748E+00    9.727E+00    9.705E+00    9.682E+00    9.657E+00    9.631E+00    9.604E+00    9.576E+00
     9.546E+00    9.515E+00    9.482E+00    9.449E+00    9.415E+00    9.379E+00    9.342E+00    9.305E+00    9.266E+00    9.226E+00
     9.186E+00    9.144E+00    9.102E+00    9.058E+00    9.014E+00    8.970E+00    8.924E+00    8.878E+00    8.831E+00    8.783E+00
     8.735E+00    8.686E+00    8.637E+00    8.587E+00    8.536E+00    8.486E+00    8.434E+00    8.383E+00    8.331E+00    8.278E+00
     8.225E+00    8.172E+00    8.119E+00    8.066E+00    8.012E+00    7.959E+00    7.905E+00    7.851E+00    7.797E+00    7.743E+00
     7.689E+00    7.635E+00    7.581E+00    7.527E+00    7.474E+00    7.421E+00    7.367E+00    7.314E+00    7.262E+00    7.209E+00
     7.157E+00    7.106E+00    7.055E+00    7.004E+00    6.954E+00    6.904E+00    6.855E+00    6.806E+00    6.758E+00    6.710E+00
     6.663E+00    6.617E+00    6.572E+00    6.527E+00    6.484E+00    6.441E+00    6.398E+00    6.357E+00    6.317E+00    6.277E+00
     6.239E+00    6.202E+00    6.165E+00    6.130E+00    6.096E+00    6.063E+00    6.031E+00    6.000E+00    5.970E+00    5.941E+00
     5.913E+00    5.886E+00    5.861E+00    5.836E+00    5.812E+00    5.790E+00    5.768E+00    5.748E+00    5.729E+00    5.710E+00
     5.693E+00    5.677E+00    5.661E+00    5.647E+00    5.634E+00    5.622E+00    5.611E+00    5.601E+00    5.592E+00    5.584E+00
     5.578E+00    5.572E+00    5.567E+00    5.563E+00    5.561E+00    5.559E+00    5.558E+00    5.559E+00    5.560E+00    5.563E+00
     5.566E+00    5.571E+00    5.577E+00    5.583E+00    5.591E+00    5.599E+00    5.609E+00    5.620E+00    5.632E+00    5.644E+00
     5.658E+00    5.673E+00    5.688E+00    5.704E+00    5.722E+00    5.739E+00    5.758E+00    5.777E+00    5.797E+00    5.818E+00
     5.839E+00    5.861E+00    5.884E+00    5.906E+00    5.930E+00    5.954E+00    5.978E+00    6.002E+00    6.027E+00    6.052E+00
     6.078E+00    6.103E+00    6.129E+00    6.155E+00    6.182E+00    6.208E+00    6.234E+00    6.261E+00    6.287E+00    6.313E+00
     6.340E+00    6.366E+00    6.392E+00    6.418E+00    6.443E+00    6.469E+00    6.494E+00    6.519E+00    6.543E+00    6.567E+00
     6.591E+00    6.614E+00    6.637E+00    6.659E+00    6.681E+00    6.702E+00    6.723E+00    6.743E+00    6.763E+00    6.783E+00
     6.802E+00    6.821E+00    6.839E+00    6.857E+00    6.874E+00    6.892E+00    6.908E+00    6.925E+00    6.941E+00    6.957E+00
     6.973E+00    6.988E+00    7.003E+00    7.018E+00    7.033E+00    7.047E+00    7.061E+00    7.075E+00    7.089E+00    7.102E+00
     7.116E+00    7.129E+00    7.142E+00    7.155E+00    7.168E+00    7.181E+00    7.194E+00    7.206E+00    7.219E+00    7.231E+00
     7.244E+00    7.256E+00    7.269E+00    7.281E+00    7.293E+00    7.306E+00    7.318E+00    7.331E+00
 Ala      Conc. = 9.13E+01
