 LCModel (Version 6.3-1L) Copyright: S.W. Provencher.          Ref.: Magn. Reson. Med. 30:672-679 (1993).                
 Slice#3 Row#3 Col#5  K_02_press_1_raw_act
 36 lines in following concentration table = NCONC+1
    Conc.  %SD /Cr+PCr  Metabolite                                         
   84.121 206% 5.1E-02 Ala                                                 
    0.000 999%   0.000 Asp                                                 
    0.000 999%   0.000 Cr                                                  
 1.65E+03   5%   1.000 PCr                                                 
    0.000 999%   0.000 GABA                                                
    0.000 999%   0.000 Glc                                                 
  837.242  40%   0.506 Gln                                                 
 1.57E+03  24%   0.949 Glu                                                 
  443.337   7%   0.268 GPC                                                 
    0.000 999%   0.000 PCh                                                 
  451.091  24%   0.273 GSH                                                 
  774.637  51%   0.468 Ins                                                 
  225.093  82%   0.136 Lac                                                 
 2.03E+03   5%   1.229 NAA                                                 
    0.000 999%   0.000 NAAG                                                
   12.629 312% 7.6E-03 Scyllo                                              
    0.000 999%   0.000 Tau                                                 
   17.930 875% 1.1E-02 -CrCH2                                              
  443.337   7%   0.268 GPC+PCh                                             
 2.03E+03   5%   1.229 NAA+NAAG                                            
 1.65E+03   5%   1.000 Cr+PCr                                              
 2.41E+03  23%   1.455 Glu+Gln                                             
    0.000 999%   0.000 Lip13a                                              
 2.76E+04   8%  16.676 Lip13b                                              
 7.37E+03   8%   4.452 Lip09                                               
    0.000 999%   0.000 MM09                                                
 4.14E+03   8%   2.501 Lip20                                               
    0.000 999%   0.000 MM20                                                
    0.000 999%   0.000 MM12                                                
 1.56E+03  37%   0.943 MM14                                                
 1.11E+03  30%   0.668+MM17                                                
 2.76E+04   8%  16.676 Lip13a+Lip13b                                       
 2.92E+04   7%  17.618 MM14+Lip13a+Lip13b+MM12                             
 7.37E+03   8%   4.452 MM09+Lip09                                          
 4.14E+03   8%   2.501 MM20+Lip20                                          
   6 lines in following misc. output table
  FWHM = 0.054 ppm    S/N =  12                                            
  Data shift = 0.031 ppm                                                   
  Ph: -19 deg     -27.2 deg/ppm                                            
  alphaB,S = 3.6E-01,   1.0E+02                                            
   14 spline knots.   Ns = 9(1)                                            
  (10) 3 infls.   ( 9) 1 extrs.                                            
  498 points on ppm-axis = NY
      4.000000     3.992357     3.984714     3.977070     3.969427     3.961784     3.954141     3.946497     3.938854     3.931211
      3.923568     3.915925     3.908281     3.900638     3.892995     3.885352     3.877708     3.870065     3.862422     3.854779
      3.847136     3.839492     3.831849     3.824206     3.816563     3.808919     3.801276     3.793633     3.785990     3.778347
      3.770703     3.763060     3.755417     3.747774     3.740130     3.732487     3.724844     3.717201     3.709558     3.701914
      3.694271     3.686628     3.678985     3.671341     3.663698     3.656055     3.648412     3.640769     3.633125     3.625482
      3.617839     3.610196     3.602552     3.594909     3.587266     3.579623     3.571980     3.564336     3.556693     3.549050
      3.541407     3.533763     3.526120     3.518477     3.510834     3.503191     3.495547     3.487904     3.480261     3.472618
      3.464974     3.457331     3.449688     3.442045     3.434402     3.426758     3.419115     3.411472     3.403829     3.396185
      3.388542     3.380899     3.373256     3.365613     3.357969     3.350326     3.342683     3.335040     3.327396     3.319753
      3.312110     3.304467     3.296824     3.289180     3.281537     3.273894     3.266251     3.258607     3.250964     3.243321
      3.235678     3.228034     3.220391     3.212748     3.205105     3.197462     3.189818     3.182175     3.174532     3.166889
      3.159245     3.151602     3.143959     3.136316     3.128673     3.121029     3.113386     3.105743     3.098100     3.090456
      3.082813     3.075170     3.067527     3.059884     3.052240     3.044597     3.036954     3.029311     3.021667     3.014024
      3.006381     2.998738     2.991095     2.983451     2.975808     2.968165     2.960522     2.952878     2.945235     2.937592
      2.929949     2.922306     2.914662     2.907019     2.899376     2.891733     2.884089     2.876446     2.868803     2.861160
      2.853517     2.845873     2.838230     2.830587     2.822944     2.815300     2.807657     2.800014     2.792371     2.784728
      2.777084     2.769441     2.761798     2.754155     2.746511     2.738868     2.731225     2.723582     2.715939     2.708295
      2.700652     2.693009     2.685366     2.677722     2.670079     2.662436     2.654793     2.647150     2.639506     2.631863
      2.624220     2.616577     2.608933     2.601290     2.593647     2.586004     2.578361     2.570717     2.563074     2.555431
      2.547788     2.540144     2.532501     2.524858     2.517215     2.509572     2.501928     2.494285     2.486642     2.478999
      2.471355     2.463712     2.456069     2.448426     2.440783     2.433139     2.425496     2.417853     2.410210     2.402566
      2.394923     2.387280     2.379637     2.371994     2.364350     2.356707     2.349064     2.341421     2.333777     2.326134
      2.318491     2.310848     2.303205     2.295561     2.287918     2.280275     2.272632     2.264988     2.257345     2.249702
      2.242059     2.234416     2.226772     2.219129     2.211486     2.203843     2.196199     2.188556     2.180913     2.173270
      2.165627     2.157983     2.150340     2.142697     2.135054     2.127410     2.119767     2.112124     2.104481     2.096838
      2.089194     2.081551     2.073908     2.066265     2.058621     2.050978     2.043335     2.035692     2.028049     2.020405
      2.012762     2.005119     1.997476     1.989833     1.982190     1.974546     1.966903     1.959260     1.951617     1.943974
      1.936331     1.928688     1.921045     1.913402     1.905759     1.898115     1.890472     1.882829     1.875186     1.867543
      1.859900     1.852257     1.844614     1.836971     1.829327     1.821684     1.814041     1.806398     1.798755     1.791112
      1.783469     1.775826     1.768183     1.760540     1.752896     1.745253     1.737610     1.729967     1.722324     1.714681
      1.707038     1.699395     1.691752     1.684108     1.676465     1.668822     1.661179     1.653536     1.645893     1.638250
      1.630607     1.622964     1.615321     1.607677     1.600034     1.592391     1.584748     1.577105     1.569462     1.561819
      1.554176     1.546533     1.538890     1.531246     1.523603     1.515960     1.508317     1.500674     1.493031     1.485388
      1.477745     1.470102     1.462458     1.454815     1.447172     1.439529     1.431886     1.424243     1.416600     1.408957
      1.401314     1.393671     1.386027     1.378384     1.370741     1.363098     1.355455     1.347812     1.340169     1.332526
      1.324883     1.317240     1.309596     1.301953     1.294310     1.286667     1.279024     1.271381     1.263738     1.256095
      1.248452     1.240808     1.233165     1.225522     1.217879     1.210236     1.202593     1.194950     1.187307     1.179664
      1.172021     1.164377     1.156734     1.149091     1.141448     1.133805     1.126162     1.118519     1.110876     1.103233
      1.095590     1.087946     1.080303     1.072660     1.065017     1.057374     1.049731     1.042088     1.034445     1.026802
      1.019158     1.011515     1.003872     0.996229     0.988586     0.980943     0.973300     0.965657     0.958014     0.950371
      0.942727     0.935084     0.927441     0.919798     0.912155     0.904512     0.896869     0.889226     0.881583     0.873940
      0.866296     0.858653     0.851010     0.843367     0.835724     0.828081     0.820438     0.812795     0.805152     0.797508
      0.789865     0.782222     0.774579     0.766936     0.759293     0.751650     0.744007     0.736364     0.728721     0.721077
      0.713434     0.705791     0.698148     0.690505     0.682862     0.675219     0.667576     0.659933     0.652290     0.644646
      0.637003     0.629360     0.621717     0.614074     0.606431     0.598788     0.591145     0.583502     0.575858     0.568215
      0.560572     0.552929     0.545286     0.537643     0.530000     0.522357     0.514714     0.507071     0.499427     0.491784
      0.484141     0.476498     0.468855     0.461212     0.453569     0.445925     0.438282     0.430639     0.422996     0.415353
      0.407710     0.400067     0.392424     0.384780     0.377137     0.369494     0.361851     0.354208     0.346565     0.338922
      0.331278     0.323635     0.315992     0.308349     0.300706     0.293063     0.285420     0.277777     0.270133     0.262490
      0.254847     0.247204     0.239561     0.231918     0.224275     0.216631     0.208988     0.201345
 NY phased data points follow
   3.90642E+01  4.01068E+01  4.86322E+01  5.00993E+01  4.96458E+01  5.59791E+01  5.65086E+01  6.53172E+01  7.04361E+01  6.77363E+01
   6.73836E+01  6.61916E+01  6.14645E+01  5.12828E+01  4.92534E+01  4.72295E+01  3.66210E+01  3.70626E+01  3.58288E+01  3.81954E+01
   4.09459E+01  3.70415E+01  3.39615E+01  3.64964E+01  3.57262E+01  3.79608E+01  3.69794E+01  3.67454E+01  4.24092E+01  3.93243E+01
   3.83683E+01  4.19294E+01  3.92949E+01  3.61000E+01  3.59903E+01  3.49189E+01  3.75323E+01  3.36881E+01  3.46039E+01  3.73289E+01
   3.72232E+01  3.25171E+01  3.73652E+01  3.45893E+01  3.21404E+01  3.94059E+01  3.72545E+01  3.60422E+01  3.33956E+01  3.53020E+01
   3.35614E+01  3.32491E+01  3.19990E+01  2.83186E+01  2.96498E+01  2.76299E+01  2.59286E+01  2.87067E+01  3.18046E+01  2.90024E+01
   2.49436E+01  2.68545E+01  2.35144E+01  2.04930E+01  1.93036E+01  2.09821E+01  2.05826E+01  1.70446E+01  2.55792E+01  1.84202E+01
   2.40103E+01  2.03889E+01  2.83871E+01  2.10572E+01  2.28967E+01  1.99564E+01  1.80083E+01  2.08160E+01  2.01767E+01  2.23810E+01
   2.13898E+01  1.51378E+01  2.10068E+01  1.94551E+01  2.44547E+01  2.25405E+01  1.69988E+01  2.06023E+01  2.47438E+01  1.60499E+01
   2.06792E+01  2.13306E+01  2.51799E+01  2.64684E+01  2.63592E+01  2.92873E+01  2.97565E+01  3.32149E+01  3.60723E+01  4.16817E+01
   4.50140E+01  5.89915E+01  5.94789E+01  5.49879E+01  5.19029E+01  4.81982E+01  4.32363E+01  3.77067E+01  3.36474E+01  2.70796E+01
   2.56778E+01  2.59106E+01  2.48271E+01  2.84545E+01  2.12308E+01  2.74283E+01  2.35581E+01  2.74403E+01  2.66611E+01  2.78451E+01
   3.42298E+01  3.24081E+01  3.42288E+01  4.21509E+01  5.67130E+01  6.89640E+01  6.93542E+01  6.84871E+01  6.65794E+01  5.88075E+01
   5.57411E+01  4.57269E+01  3.80891E+01  3.69662E+01  2.79480E+01  3.22538E+01  2.95363E+01  2.70986E+01  2.65947E+01  2.25559E+01
   2.53863E+01  2.72129E+01  2.68742E+01  2.47978E+01  2.70253E+01  2.90077E+01  2.38687E+01  2.86310E+01  2.85471E+01  2.17028E+01
   2.44819E+01  1.79457E+01  2.43598E+01  2.75983E+01  2.76165E+01  1.96506E+01  2.63105E+01  2.45877E+01  2.46567E+01  2.01252E+01
   2.13071E+01  1.82117E+01  1.89790E+01  2.07054E+01  2.28249E+01  2.16033E+01  2.65540E+01  2.24838E+01  2.02976E+01  2.14018E+01
   2.26927E+01  1.77590E+01  1.77422E+01  1.16317E+01  1.43616E+01  1.58985E+01  1.68596E+01  1.29372E+01  1.85162E+01  1.15874E+01
   1.55623E+01  1.59877E+01  1.27494E+01  1.61143E+01  8.83246E+00  1.36260E+01  1.58189E+01  2.05102E+01  1.94122E+01  2.13913E+01
   2.33307E+01  2.52023E+01  2.78492E+01  2.35809E+01  2.48509E+01  2.76436E+01  2.21111E+01  2.48909E+01  2.22397E+01  2.40575E+01
   1.97111E+01  2.44516E+01  2.92583E+01  2.65895E+01  2.52552E+01  2.16801E+01  2.23135E+01  2.15372E+01  2.16096E+01  2.56583E+01
   2.24535E+01  2.37363E+01  2.89452E+01  2.73838E+01  3.34811E+01  3.22795E+01  3.60113E+01  2.87545E+01  3.24549E+01  2.56670E+01
   2.46140E+01  1.79958E+01  2.57820E+01  2.14692E+01  2.43499E+01  2.98096E+01  2.65313E+01  2.73789E+01  2.54336E+01  3.09677E+01
   2.73675E+01  3.12986E+01  2.76183E+01  2.89849E+01  2.66507E+01  2.95286E+01  2.93015E+01  2.48097E+01  2.58486E+01  3.32094E+01
   2.49013E+01  2.61125E+01  2.67131E+01  2.65767E+01  3.10387E+01  2.64833E+01  2.71524E+01  2.95981E+01  3.56135E+01  3.32723E+01
   3.70900E+01  3.44902E+01  4.08824E+01  4.27048E+01  4.75559E+01  4.71262E+01  5.28700E+01  6.45676E+01  8.55275E+01  1.03627E+02
   9.78714E+01  9.48802E+01  9.32634E+01  7.57685E+01  6.58948E+01  5.96107E+01  5.06465E+01  4.76750E+01  4.94111E+01  4.38081E+01
   4.59191E+01  4.45980E+01  4.14189E+01  4.48485E+01  3.88777E+01  3.91281E+01  4.05699E+01  4.55647E+01  3.83881E+01  3.75627E+01
   4.16814E+01  3.97569E+01  3.96261E+01  4.20864E+01  4.16021E+01  3.92712E+01  3.82123E+01  4.08967E+01  4.09809E+01  4.28383E+01
   4.10133E+01  4.49817E+01  4.55043E+01  4.24546E+01  4.40571E+01  4.79024E+01  4.70633E+01  4.80518E+01  5.08973E+01  5.07868E+01
   5.60073E+01  5.24749E+01  5.71460E+01  5.97012E+01  5.78042E+01  5.87810E+01  6.02000E+01  6.06699E+01  6.14880E+01  6.03518E+01
   6.45880E+01  6.88999E+01  6.45869E+01  7.16206E+01  6.92196E+01  7.27003E+01  7.17738E+01  7.86990E+01  7.95989E+01  8.44235E+01
   8.20725E+01  8.71309E+01  8.84263E+01  9.06480E+01  9.78364E+01  9.73962E+01  1.01842E+02  1.00258E+02  1.06437E+02  1.07860E+02
   1.06316E+02  1.06694E+02  1.07672E+02  1.08681E+02  1.09045E+02  1.08557E+02  1.05789E+02  1.04131E+02  1.04144E+02  9.76593E+01
   9.47748E+01  9.05560E+01  9.07878E+01  8.27752E+01  8.00399E+01  7.80513E+01  7.35817E+01  5.96504E+01  6.02486E+01  5.52820E+01
   4.96954E+01  4.73485E+01  4.15567E+01  3.74032E+01  3.83353E+01  3.52091E+01  3.26855E+01  2.94132E+01  2.63957E+01  2.51974E+01
   2.37018E+01  2.36804E+01  1.58196E+01  1.58619E+01  1.97320E+01  1.29215E+01  1.58661E+01  9.83998E+00  1.34527E+01  7.11669E+00
   8.89734E+00  8.22224E+00  6.28311E+00  8.21533E+00  8.76289E+00  5.38520E+00  4.18343E+00  6.60638E+00  6.75476E+00  3.94030E+00
   4.06198E-01  3.14175E+00  3.26460E+00 -5.35365E-01  2.28223E+00  4.67998E+00  3.32916E+00  4.44035E+00  7.08851E+00  6.14562E+00
   7.37098E+00  7.91001E+00  5.49568E+00  7.57037E+00  3.35492E+00  3.58830E+00  7.33515E+00  2.08394E+00  7.64961E+00  4.52522E+00
   1.02281E+00  7.04555E+00  3.64134E+00  5.27581E+00  5.33166E+00 -4.55876E-01  5.78093E+00  4.19429E+00  7.11927E+00  1.87598E+00
   7.56103E+00  8.57603E+00  8.84184E+00  2.12982E+00  2.90095E+00  7.49041E+00  5.54622E+00  4.24859E+00  1.39371E+00  6.05389E+00
   2.06460E+00  9.96894E-01  4.57813E+00  1.87660E+00 -1.72152E+00  6.80586E+00  3.42247E+00  8.55511E-01  1.79563E+00 -3.42530E-01
  -1.63703E+00  1.06376E+00  2.61993E+00 -2.41643E+00 -2.83394E+00 -1.40440E+00 -5.32314E+00  7.15421E-01 -1.10609E+00 -2.59115E+00
  -1.28305E+00 -1.90687E+00 -1.78415E+00  7.33401E-01  4.97994E+00 -3.42423E+00 -1.22955E+00 -4.43234E-01 -4.23689E-01  1.63753E+00
  -1.30955E+00  1.92935E+00  7.99355E-01 -2.04934E+00 -1.54910E+00 -1.20293E+00  3.30616E+00  1.08821E+00  2.64597E+00  1.06715E+00
  -1.12231E+00  1.23100E+00 -4.69715E+00 -2.73655E+00 -2.34726E+00 -2.67683E-01 -2.68455E+00 -3.44184E+00  2.22876E+00  5.56005E-01
  -4.61165E+00  2.36299E+00 -2.28937E+00  4.14639E+00 -6.55910E-01 -4.15869E+00  6.25828E-01 -1.54578E-02 -7.36369E-02  4.15943E-01
   1.62121E+00  2.03679E+00 -1.97915E+00  7.35305E-01  2.03217E+00 -3.83136E-01 -1.09199E+00 -1.11305E+00 -4.90486E-01  2.32061E+00
   3.17265E+00  3.07244E+00  1.85278E+00 -2.57475E+00  2.54867E-02  4.55169E+00 -3.95780E+00 -1.50926E+00
 NY points of the fit to the data follow
   3.98752E+01  4.09242E+01  4.18796E+01  4.27667E+01  4.50099E+01  5.00503E+01  5.74583E+01  6.45903E+01  6.86823E+01  6.92782E+01
   6.73696E+01  6.37893E+01  5.93427E+01  5.47867E+01  5.07139E+01  4.75360E+01  4.54071E+01  4.40302E+01  4.23445E+01  3.97103E+01
   3.78515E+01  3.71417E+01  3.67152E+01  3.62679E+01  3.57657E+01  3.56268E+01  3.63763E+01  3.80323E+01  3.99526E+01  4.14483E+01
   4.23687E+01  4.26159E+01  4.20046E+01  4.05812E+01  3.86329E+01  3.65581E+01  3.47035E+01  3.33099E+01  3.26689E+01  3.23989E+01
   3.21045E+01  3.20772E+01  3.21856E+01  3.25614E+01  3.32181E+01  3.39795E+01  3.45676E+01  3.45880E+01  3.39843E+01  3.30026E+01
   3.18460E+01  3.06115E+01  2.94566E+01  2.85228E+01  2.79167E+01  2.75584E+01  2.73640E+01  2.72685E+01  2.71813E+01  2.70481E+01
   2.67988E+01  2.63856E+01  2.58416E+01  2.52950E+01  2.48307E+01  2.44952E+01  2.42972E+01  2.42492E+01  2.43316E+01  2.44330E+01
   2.44733E+01  2.44099E+01  2.42479E+01  2.40548E+01  2.38447E+01  2.36359E+01  2.34366E+01  2.32465E+01  2.30594E+01  2.28623E+01
   2.26682E+01  2.24894E+01  2.23180E+01  2.21412E+01  2.18622E+01  2.14531E+01  2.10095E+01  2.06653E+01  2.04881E+01  2.04805E+01
   2.06372E+01  2.09599E+01  2.15006E+01  2.26261E+01  2.45168E+01  2.63242E+01  2.76310E+01  2.94591E+01  3.38956E+01  4.17135E+01
   5.06509E+01  5.69021E+01  5.86540E+01  5.68842E+01  5.28973E+01  4.75861E+01  4.18942E+01  3.66607E+01  3.25706E+01  2.99289E+01
   2.85647E+01  2.75185E+01  2.54229E+01  2.31200E+01  2.24465E+01  2.24514E+01  2.26988E+01  2.35044E+01  2.55031E+01  2.79987E+01
   3.01573E+01  3.24938E+01  3.73299E+01  4.63928E+01  5.79393E+01  6.72557E+01  7.09265E+01  6.95297E+01  6.50337E+01  5.87767E+01
   5.18945E+01  4.51715E+01  3.92784E+01  3.47788E+01  3.18676E+01  2.99435E+01  2.74157E+01  2.42809E+01  2.32632E+01  2.36205E+01
   2.41539E+01  2.45366E+01  2.46601E+01  2.45293E+01  2.43419E+01  2.42345E+01  2.41543E+01  2.41003E+01  2.40523E+01  2.39502E+01
   2.38134E+01  2.36324E+01  2.34751E+01  2.33603E+01  2.32865E+01  2.32704E+01  2.32974E+01  2.32555E+01  2.29648E+01  2.24501E+01
   2.19806E+01  2.18230E+01  2.19760E+01  2.22130E+01  2.22858E+01  2.20950E+01  2.17270E+01  2.12682E+01  2.07258E+01  2.01714E+01
   1.97001E+01  1.93604E+01  1.90371E+01  1.84890E+01  1.78857E+01  1.74904E+01  1.74331E+01  1.76045E+01  1.76429E+01  1.75102E+01
   1.74385E+01  1.75413E+01  1.76922E+01  1.77279E+01  1.76852E+01  1.78299E+01  1.85001E+01  1.96882E+01  2.08919E+01  2.17830E+01
   2.23111E+01  2.24656E+01  2.23006E+01  2.18219E+01  2.13105E+01  2.11241E+01  2.14350E+01  2.22543E+01  2.33403E+01  2.42571E+01
   2.49946E+01  2.56411E+01  2.61777E+01  2.63180E+01  2.56952E+01  2.42580E+01  2.24327E+01  2.08841E+01  2.01296E+01  2.01077E+01
   2.05463E+01  2.15898E+01  2.36267E+01  2.63105E+01  2.85026E+01  2.94753E+01  2.93137E+01  2.82491E+01  2.64184E+01  2.40369E+01
   2.17331E+01  2.03015E+01  2.04455E+01  2.19904E+01  2.42454E+01  2.64726E+01  2.81795E+01  2.93051E+01  3.00797E+01  3.04188E+01
   3.04896E+01  3.05279E+01  3.08371E+01  3.15461E+01  3.23858E+01  3.31123E+01  3.36943E+01  3.39624E+01  3.36867E+01  3.28412E+01
   3.17936E+01  3.11285E+01  3.10719E+01  3.15171E+01  3.24032E+01  3.36346E+01  3.48631E+01  3.58035E+01  3.65466E+01  3.72020E+01
   3.79658E+01  3.94305E+01  4.26836E+01  4.68143E+01  5.01031E+01  5.26915E+01  5.76964E+01  6.82187E+01  8.26393E+01  9.45721E+01
   9.87217E+01  9.56614E+01  8.84278E+01  7.87935E+01  6.83704E+01  5.87014E+01  5.08924E+01  4.56104E+01  4.28802E+01  4.17019E+01
   3.95939E+01  3.55093E+01  3.36278E+01  3.40173E+01  3.45718E+01  3.50914E+01  3.55928E+01  3.59900E+01  3.63220E+01  3.66463E+01
   3.69979E+01  3.74001E+01  3.78617E+01  3.83539E+01  3.88563E+01  3.93877E+01  3.99655E+01  4.05878E+01  4.12514E+01  4.19578E+01
   4.27151E+01  4.35267E+01  4.43794E+01  4.52703E+01  4.61991E+01  4.71615E+01  4.81519E+01  4.91656E+01  5.01991E+01  5.12485E+01
   5.23082E+01  5.33761E+01  5.44513E+01  5.55339E+01  5.66272E+01  5.77370E+01  5.88707E+01  6.00385E+01  6.12527E+01  6.25274E+01
   6.38768E+01  6.53149E+01  6.68547E+01  6.85080E+01  7.02860E+01  7.21975E+01  7.42480E+01  7.64412E+01  7.87774E+01  8.12270E+01
   8.37578E+01  8.63699E+01  8.90743E+01  9.18355E+01  9.45333E+01  9.70254E+01  9.92691E+01  1.01319E+02  1.03188E+02  1.04823E+02
   1.06198E+02  1.07343E+02  1.08269E+02  1.08886E+02  1.09017E+02  1.08523E+02  1.07364E+02  1.05582E+02  1.03292E+02  1.00479E+02
   9.71093E+01  9.33240E+01  8.93245E+01  8.52041E+01  8.08002E+01  7.58517E+01  7.04486E+01  6.49596E+01  5.96141E+01  5.45006E+01
   4.97925E+01  4.57580E+01  4.25096E+01  3.98423E+01  3.73739E+01  3.48676E+01  3.22596E+01  2.96035E+01  2.71196E+01  2.48295E+01
   2.26417E+01  2.06284E+01  1.88475E+01  1.73067E+01  1.58985E+01  1.44869E+01  1.32076E+01  1.21311E+01  1.11916E+01  1.03600E+01
   9.62185E+00  8.96702E+00  8.38713E+00  7.87496E+00  7.42443E+00  7.03047E+00  6.68865E+00  6.39472E+00  6.14456E+00  5.93437E+00
   5.76093E+00  5.62148E+00  5.51335E+00  5.43375E+00  5.37983E+00  5.34897E+00  5.33898E+00  5.34778E+00  5.37318E+00  5.41272E+00
   5.46395E+00  5.52465E+00  5.59288E+00  5.66668E+00  5.74383E+00  5.82198E+00  5.89886E+00  5.97252E+00  6.04123E+00  6.10316E+00
   6.15631E+00  6.19872E+00  6.22871E+00  6.24501E+00  6.24652E+00  6.23210E+00  6.20059E+00  6.15107E+00  6.08300E+00  5.99610E+00
   5.89022E+00  5.76518E+00  5.62096E+00  5.45788E+00  5.27677E+00  5.07869E+00  4.86473E+00  4.63593E+00  4.39350E+00  4.13899E+00
   3.87422E+00  3.60107E+00  3.32120E+00  3.03622E+00  2.74780E+00  2.45783E+00  2.16827E+00  1.88081E+00  1.59689E+00  1.31781E+00
   1.04495E+00  7.79729E-01  5.23454E-01  2.77075E-01  4.12658E-02 -1.83365E-01 -3.96126E-01 -5.96347E-01 -7.83584E-01 -9.57721E-01
  -1.11881E+00 -1.26684E+00 -1.40173E+00 -1.52344E+00 -1.63220E+00 -1.72845E+00 -1.81267E+00 -1.88519E+00 -1.94623E+00 -1.99616E+00
  -2.03554E+00 -2.06507E+00 -2.08532E+00 -2.09665E+00 -2.09925E+00 -2.09347E+00 -2.07981E+00 -2.05879E+00 -2.03074E+00 -1.99583E+00
  -1.95429E+00 -1.90650E+00 -1.85296E+00 -1.79408E+00 -1.73005E+00 -1.66099E+00 -1.58713E+00 -1.50887E+00 -1.42662E+00 -1.34062E+00
  -1.25096E+00 -1.15772E+00 -1.06112E+00 -9.61536E-01 -8.59258E-01 -7.54392E-01 -6.46933E-01 -5.36968E-01 -4.24743E-01 -3.10554E-01
  -1.94565E-01 -7.67621E-02  4.28932E-02  1.64293E-01  2.87197E-01  4.11393E-01  5.36852E-01  6.63660E-01  7.91855E-01  9.21301E-01
   1.05180E+00  1.18325E+00  1.31573E+00  1.44939E+00  1.58425E+00  1.72017E+00  1.85704E+00  1.99492E+00
 NY background values follow
     3.862E+01    3.832E+01    3.801E+01    3.771E+01    3.741E+01    3.711E+01    3.681E+01    3.651E+01    3.621E+01    3.592E+01
     3.562E+01    3.532E+01    3.503E+01    3.473E+01    3.444E+01    3.415E+01    3.386E+01    3.357E+01    3.328E+01    3.299E+01
     3.271E+01    3.242E+01    3.214E+01    3.186E+01    3.158E+01    3.131E+01    3.103E+01    3.076E+01    3.049E+01    3.022E+01
     2.995E+01    2.969E+01    2.943E+01    2.917E+01    2.891E+01    2.866E+01    2.840E+01    2.815E+01    2.791E+01    2.766E+01
     2.742E+01    2.719E+01    2.695E+01    2.672E+01    2.649E+01    2.627E+01    2.605E+01    2.583E+01    2.561E+01    2.540E+01
     2.519E+01    2.499E+01    2.479E+01    2.459E+01    2.439E+01    2.420E+01    2.401E+01    2.383E+01    2.365E+01    2.347E+01
     2.330E+01    2.313E+01    2.296E+01    2.279E+01    2.263E+01    2.248E+01    2.232E+01    2.217E+01    2.203E+01    2.188E+01
     2.174E+01    2.161E+01    2.148E+01    2.135E+01    2.122E+01    2.110E+01    2.098E+01    2.086E+01    2.075E+01    2.064E+01
     2.054E+01    2.044E+01    2.034E+01    2.025E+01    2.016E+01    2.007E+01    1.999E+01    1.991E+01    1.983E+01    1.976E+01
     1.969E+01    1.962E+01    1.956E+01    1.950E+01    1.945E+01    1.939E+01    1.935E+01    1.930E+01    1.925E+01    1.921E+01
     1.917E+01    1.914E+01    1.910E+01    1.907E+01    1.904E+01    1.901E+01    1.898E+01    1.895E+01    1.893E+01    1.890E+01
     1.888E+01    1.885E+01    1.883E+01    1.881E+01    1.879E+01    1.877E+01    1.874E+01    1.872E+01    1.870E+01    1.868E+01
     1.866E+01    1.863E+01    1.861E+01    1.858E+01    1.856E+01    1.853E+01    1.850E+01    1.847E+01    1.844E+01    1.840E+01
     1.837E+01    1.833E+01    1.829E+01    1.825E+01    1.820E+01    1.815E+01    1.810E+01    1.805E+01    1.799E+01    1.793E+01
     1.787E+01    1.781E+01    1.774E+01    1.767E+01    1.760E+01    1.753E+01    1.745E+01    1.738E+01    1.730E+01    1.722E+01
     1.714E+01    1.705E+01    1.697E+01    1.688E+01    1.680E+01    1.671E+01    1.662E+01    1.653E+01    1.644E+01    1.635E+01
     1.625E+01    1.616E+01    1.607E+01    1.598E+01    1.588E+01    1.579E+01    1.570E+01    1.560E+01    1.551E+01    1.542E+01
     1.532E+01    1.523E+01    1.514E+01    1.505E+01    1.496E+01    1.487E+01    1.478E+01    1.470E+01    1.461E+01    1.453E+01
     1.444E+01    1.436E+01    1.428E+01    1.420E+01    1.413E+01    1.405E+01    1.398E+01    1.391E+01    1.384E+01    1.377E+01
     1.371E+01    1.365E+01    1.359E+01    1.353E+01    1.347E+01    1.342E+01    1.337E+01    1.332E+01    1.328E+01    1.324E+01
     1.320E+01    1.316E+01    1.313E+01    1.310E+01    1.307E+01    1.305E+01    1.303E+01    1.301E+01    1.300E+01    1.299E+01
     1.298E+01    1.298E+01    1.298E+01    1.299E+01    1.300E+01    1.301E+01    1.303E+01    1.305E+01    1.308E+01    1.311E+01
     1.314E+01    1.318E+01    1.323E+01    1.328E+01    1.333E+01    1.339E+01    1.345E+01    1.352E+01    1.359E+01    1.366E+01
     1.374E+01    1.383E+01    1.392E+01    1.401E+01    1.410E+01    1.420E+01    1.430E+01    1.440E+01    1.450E+01    1.461E+01
     1.472E+01    1.483E+01    1.494E+01    1.505E+01    1.516E+01    1.527E+01    1.539E+01    1.550E+01    1.561E+01    1.572E+01
     1.583E+01    1.594E+01    1.605E+01    1.616E+01    1.626E+01    1.636E+01    1.647E+01    1.656E+01    1.666E+01    1.675E+01
     1.684E+01    1.693E+01    1.701E+01    1.709E+01    1.716E+01    1.723E+01    1.730E+01    1.736E+01    1.741E+01    1.746E+01
     1.751E+01    1.754E+01    1.758E+01    1.760E+01    1.762E+01    1.764E+01    1.765E+01    1.765E+01    1.764E+01    1.763E+01
     1.762E+01    1.760E+01    1.757E+01    1.753E+01    1.749E+01    1.745E+01    1.739E+01    1.734E+01    1.727E+01    1.720E+01
     1.713E+01    1.704E+01    1.695E+01    1.686E+01    1.676E+01    1.665E+01    1.654E+01    1.642E+01    1.630E+01    1.617E+01
     1.603E+01    1.589E+01    1.574E+01    1.559E+01    1.543E+01    1.526E+01    1.509E+01    1.491E+01    1.472E+01    1.453E+01
     1.434E+01    1.414E+01    1.393E+01    1.371E+01    1.349E+01    1.327E+01    1.304E+01    1.280E+01    1.255E+01    1.231E+01
     1.205E+01    1.179E+01    1.153E+01    1.126E+01    1.099E+01    1.071E+01    1.043E+01    1.015E+01    9.861E+00    9.571E+00
     9.279E+00    8.984E+00    8.687E+00    8.389E+00    8.088E+00    7.787E+00    7.484E+00    7.180E+00    6.875E+00    6.570E+00
     6.265E+00    5.960E+00    5.655E+00    5.351E+00    5.048E+00    4.746E+00    4.445E+00    4.146E+00    3.848E+00    3.553E+00
     3.259E+00    2.969E+00    2.681E+00    2.396E+00    2.114E+00    1.836E+00    1.562E+00    1.291E+00    1.025E+00    7.630E-01
     5.057E-01    2.535E-01    6.283E-03   -2.356E-01   -4.722E-01   -7.034E-01   -9.292E-01   -1.149E+00   -1.364E+00   -1.573E+00
    -1.777E+00   -1.975E+00   -2.167E+00   -2.353E+00   -2.534E+00   -2.708E+00   -2.877E+00   -3.040E+00   -3.196E+00   -3.347E+00
    -3.491E+00   -3.629E+00   -3.761E+00   -3.887E+00   -4.007E+00   -4.120E+00   -4.226E+00   -4.326E+00   -4.420E+00   -4.507E+00
    -4.587E+00   -4.661E+00   -4.728E+00   -4.789E+00   -4.842E+00   -4.889E+00   -4.929E+00   -4.961E+00   -4.987E+00   -5.006E+00
    -5.018E+00   -5.023E+00   -5.020E+00   -5.011E+00   -4.994E+00   -4.970E+00   -4.939E+00   -4.900E+00   -4.854E+00   -4.801E+00
    -4.740E+00   -4.674E+00   -4.600E+00   -4.521E+00   -4.435E+00   -4.344E+00   -4.246E+00   -4.143E+00   -4.035E+00   -3.922E+00
    -3.804E+00   -3.681E+00   -3.554E+00   -3.422E+00   -3.286E+00   -3.147E+00   -3.003E+00   -2.856E+00   -2.706E+00   -2.552E+00
    -2.396E+00   -2.236E+00   -2.074E+00   -1.910E+00   -1.744E+00   -1.575E+00   -1.405E+00   -1.233E+00   -1.059E+00   -8.845E-01
    -7.087E-01   -5.319E-01   -3.544E-01   -1.764E-01    1.944E-03    1.805E-01    3.590E-01    5.373E-01    7.153E-01    8.927E-01
     1.069E+00    1.245E+00    1.420E+00    1.593E+00    1.766E+00    1.937E+00    2.106E+00    2.275E+00    2.443E+00    2.609E+00
     2.774E+00    2.938E+00    3.101E+00    3.263E+00    3.423E+00    3.583E+00    3.741E+00    3.899E+00    4.055E+00    4.210E+00
     4.364E+00    4.517E+00    4.669E+00    4.820E+00    4.970E+00    5.119E+00    5.268E+00    5.415E+00    5.561E+00    5.706E+00
     5.850E+00    5.993E+00    6.136E+00    6.277E+00    6.417E+00    6.557E+00    6.696E+00    6.834E+00    6.970E+00    7.107E+00
     7.242E+00    7.376E+00    7.510E+00    7.642E+00    7.774E+00    7.905E+00    8.036E+00    8.165E+00
 Ala      Conc. = 8.41E+01
