 LCModel (Version 6.3-1L) Copyright: S.W. Provencher.          Ref.: Magn. Reson. Med. 30:672-679 (1993).                
 Slice#3 Row#2 Col#10  K_02_press_1_raw_act
 36 lines in following concentration table = NCONC+1
    Conc.  %SD /Cr+PCr  Metabolite                                         
 1.11E+04  27%   9.559 Ala                                                 
    0.000 999%   0.000 Asp                                                 
    0.000 999%   0.000 Cr                                                  
 1.17E+03   9%   1.000 PCr                                                 
   38.424 361% 3.3E-02 GABA                                                
   77.564 177% 6.7E-02 Glc                                                 
 3.65E+03  39%   3.133 Gln                                                 
 2.34E+03  87%   2.006 Glu                                                 
    0.000 999%   0.000 GPC                                                 
  241.613  22%   0.207 PCh                                                 
   79.584 379% 6.8E-02 GSH                                                 
 1.47E+03  49%   1.259 Ins                                                 
 5.66E+03  55%   4.858 Lac                                                 
    0.000 999%   0.000 NAA                                                 
    0.000 999%   0.000 NAAG                                                
   87.369  46% 7.5E-02 Scyllo                                              
  291.264  75%   0.250 Tau                                                 
  734.901  52%   0.631 -CrCH2                                              
  241.613  22%   0.207 GPC+PCh                                             
    0.000 999%   0.000 NAA+NAAG                                            
 1.17E+03   9%   1.000 Cr+PCr                                              
 5.99E+03  55%   5.140 Glu+Gln                                             
 7.54E+04  10%  64.742 Lip13a                                              
   27.876 999% 2.4E-02 Lip13b                                              
 1.41E+04  18%  12.111 Lip09                                               
 3.52E+03  28%   3.022 MM09                                                
 3.19E+03  18%   2.738-Lip20                                               
    0.000 999%   0.000 MM20                                                
 1.29E+03  65%   1.107 MM12                                                
 1.58E+04  16%  13.565+MM14                                                
 1.21E+04  16%  10.352+MM17                                                
 7.55E+04  10%  64.766 Lip13a+Lip13b                                       
 9.26E+04   8%  79.438 MM14+Lip13a+Lip13b+MM12                             
 1.76E+04  14%  15.133 MM09+Lip09                                          
 3.19E+03  18%   2.738 MM20+Lip20                                          
   6 lines in following misc. output table
  FWHM = 0.168 ppm    S/N =  38                                            
  Data shift = 0.084 ppm                                                   
  Ph: 145 deg      12.8 deg/ppm                                            
  alphaB,S = 4.6E+00,   7.3E+02                                            
    6 spline knots.   Ns = 9(2)                                            
  (13) 2 infls.   ( 1) 1 extrs.                                            
  498 points on ppm-axis = NY
      4.000000     3.992357     3.984714     3.977070     3.969427     3.961784     3.954141     3.946497     3.938854     3.931211
      3.923568     3.915925     3.908281     3.900638     3.892995     3.885352     3.877708     3.870065     3.862422     3.854779
      3.847136     3.839492     3.831849     3.824206     3.816563     3.808919     3.801276     3.793633     3.785990     3.778347
      3.770703     3.763060     3.755417     3.747774     3.740130     3.732487     3.724844     3.717201     3.709558     3.701914
      3.694271     3.686628     3.678985     3.671341     3.663698     3.656055     3.648412     3.640769     3.633125     3.625482
      3.617839     3.610196     3.602552     3.594909     3.587266     3.579623     3.571980     3.564336     3.556693     3.549050
      3.541407     3.533763     3.526120     3.518477     3.510834     3.503191     3.495547     3.487904     3.480261     3.472618
      3.464974     3.457331     3.449688     3.442045     3.434402     3.426758     3.419115     3.411472     3.403829     3.396185
      3.388542     3.380899     3.373256     3.365613     3.357969     3.350326     3.342683     3.335040     3.327396     3.319753
      3.312110     3.304467     3.296824     3.289180     3.281537     3.273894     3.266251     3.258607     3.250964     3.243321
      3.235678     3.228034     3.220391     3.212748     3.205105     3.197462     3.189818     3.182175     3.174532     3.166889
      3.159245     3.151602     3.143959     3.136316     3.128673     3.121029     3.113386     3.105743     3.098100     3.090456
      3.082813     3.075170     3.067527     3.059884     3.052240     3.044597     3.036954     3.029311     3.021667     3.014024
      3.006381     2.998738     2.991095     2.983451     2.975808     2.968165     2.960522     2.952878     2.945235     2.937592
      2.929949     2.922306     2.914662     2.907019     2.899376     2.891733     2.884089     2.876446     2.868803     2.861160
      2.853517     2.845873     2.838230     2.830587     2.822944     2.815300     2.807657     2.800014     2.792371     2.784728
      2.777084     2.769441     2.761798     2.754155     2.746511     2.738868     2.731225     2.723582     2.715939     2.708295
      2.700652     2.693009     2.685366     2.677722     2.670079     2.662436     2.654793     2.647150     2.639506     2.631863
      2.624220     2.616577     2.608933     2.601290     2.593647     2.586004     2.578361     2.570717     2.563074     2.555431
      2.547788     2.540144     2.532501     2.524858     2.517215     2.509572     2.501928     2.494285     2.486642     2.478999
      2.471355     2.463712     2.456069     2.448426     2.440783     2.433139     2.425496     2.417853     2.410210     2.402566
      2.394923     2.387280     2.379637     2.371994     2.364350     2.356707     2.349064     2.341421     2.333777     2.326134
      2.318491     2.310848     2.303205     2.295561     2.287918     2.280275     2.272632     2.264988     2.257345     2.249702
      2.242059     2.234416     2.226772     2.219129     2.211486     2.203843     2.196199     2.188556     2.180913     2.173270
      2.165627     2.157983     2.150340     2.142697     2.135054     2.127410     2.119767     2.112124     2.104481     2.096838
      2.089194     2.081551     2.073908     2.066265     2.058621     2.050978     2.043335     2.035692     2.028049     2.020405
      2.012762     2.005119     1.997476     1.989833     1.982190     1.974546     1.966903     1.959260     1.951617     1.943974
      1.936331     1.928688     1.921045     1.913402     1.905759     1.898115     1.890472     1.882829     1.875186     1.867543
      1.859900     1.852257     1.844614     1.836971     1.829327     1.821684     1.814041     1.806398     1.798755     1.791112
      1.783469     1.775826     1.768183     1.760540     1.752896     1.745253     1.737610     1.729967     1.722324     1.714681
      1.707038     1.699395     1.691752     1.684108     1.676465     1.668822     1.661179     1.653536     1.645893     1.638250
      1.630607     1.622964     1.615321     1.607677     1.600034     1.592391     1.584748     1.577105     1.569462     1.561819
      1.554176     1.546533     1.538890     1.531246     1.523603     1.515960     1.508317     1.500674     1.493031     1.485388
      1.477745     1.470102     1.462458     1.454815     1.447172     1.439529     1.431886     1.424243     1.416600     1.408957
      1.401314     1.393671     1.386027     1.378384     1.370741     1.363098     1.355455     1.347812     1.340169     1.332526
      1.324883     1.317240     1.309596     1.301953     1.294310     1.286667     1.279024     1.271381     1.263738     1.256095
      1.248452     1.240808     1.233165     1.225522     1.217879     1.210236     1.202593     1.194950     1.187307     1.179664
      1.172021     1.164377     1.156734     1.149091     1.141448     1.133805     1.126162     1.118519     1.110876     1.103233
      1.095590     1.087946     1.080303     1.072660     1.065017     1.057374     1.049731     1.042088     1.034445     1.026802
      1.019158     1.011515     1.003872     0.996229     0.988586     0.980943     0.973300     0.965657     0.958014     0.950371
      0.942727     0.935084     0.927441     0.919798     0.912155     0.904512     0.896869     0.889226     0.881583     0.873940
      0.866296     0.858653     0.851010     0.843367     0.835724     0.828081     0.820438     0.812795     0.805152     0.797508
      0.789865     0.782222     0.774579     0.766936     0.759293     0.751650     0.744007     0.736364     0.728721     0.721077
      0.713434     0.705791     0.698148     0.690505     0.682862     0.675219     0.667576     0.659933     0.652290     0.644646
      0.637003     0.629360     0.621717     0.614074     0.606431     0.598788     0.591145     0.583502     0.575858     0.568215
      0.560572     0.552929     0.545286     0.537643     0.530000     0.522357     0.514714     0.507071     0.499427     0.491784
      0.484141     0.476498     0.468855     0.461212     0.453569     0.445925     0.438282     0.430639     0.422996     0.415353
      0.407710     0.400067     0.392424     0.384780     0.377137     0.369494     0.361851     0.354208     0.346565     0.338922
      0.331278     0.323635     0.315992     0.308349     0.300706     0.293063     0.285420     0.277777     0.270133     0.262490
      0.254847     0.247204     0.239561     0.231918     0.224275     0.216631     0.208988     0.201345
 NY phased data points follow
  -4.07612E+01 -4.21064E+01 -4.21444E+01 -4.07903E+01 -4.12514E+01 -4.07780E+01 -4.10187E+01 -4.04300E+01 -4.07790E+01 -3.67907E+01
  -3.51434E+01 -3.77788E+01 -4.14817E+01 -4.27141E+01 -4.00534E+01 -4.17092E+01 -4.19981E+01 -4.36464E+01 -4.39901E+01 -3.99944E+01
  -4.15042E+01 -3.88472E+01 -4.27246E+01 -3.76640E+01 -4.23485E+01 -4.34470E+01 -4.38796E+01 -4.53644E+01 -3.90561E+01 -4.39577E+01
  -4.54525E+01 -4.24300E+01 -4.32491E+01 -4.42881E+01 -4.49618E+01 -4.24785E+01 -4.50511E+01 -4.45564E+01 -4.29992E+01 -4.43062E+01
  -4.45698E+01 -4.51610E+01 -4.75203E+01 -4.50676E+01 -4.37614E+01 -4.16408E+01 -4.57152E+01 -4.35826E+01 -4.31182E+01 -4.28668E+01
  -4.60550E+01 -4.78714E+01 -4.30770E+01 -4.80805E+01 -4.92112E+01 -4.47458E+01 -4.75797E+01 -4.67035E+01 -4.63385E+01 -4.88784E+01
  -4.64865E+01 -4.85641E+01 -4.82834E+01 -5.08051E+01 -4.81613E+01 -5.20162E+01 -5.11302E+01 -5.42792E+01 -5.17106E+01 -5.27544E+01
  -5.14186E+01 -5.07009E+01 -5.28668E+01 -5.18954E+01 -5.89297E+01 -5.63547E+01 -5.55053E+01 -5.10520E+01 -5.46367E+01 -5.77077E+01
  -5.17996E+01 -5.31802E+01 -5.50805E+01 -5.30198E+01 -5.65475E+01 -5.79924E+01 -5.21000E+01 -5.67939E+01 -5.85543E+01 -5.96255E+01
  -5.60059E+01 -5.83129E+01 -5.77951E+01 -5.60696E+01 -5.71914E+01 -5.49415E+01 -5.58955E+01 -5.84170E+01 -6.07970E+01 -5.68966E+01
  -5.74329E+01 -5.64197E+01 -5.95383E+01 -5.66645E+01 -5.92376E+01 -5.93075E+01 -6.35149E+01 -5.56615E+01 -6.01491E+01 -5.48396E+01
  -6.16985E+01 -6.49830E+01 -6.33249E+01 -6.29788E+01 -6.76577E+01 -6.33018E+01 -6.11547E+01 -6.15766E+01 -6.19194E+01 -6.06436E+01
  -5.86038E+01 -6.04737E+01 -5.71971E+01 -5.77307E+01 -6.08170E+01 -5.55987E+01 -5.81674E+01 -5.74697E+01 -5.84081E+01 -6.36821E+01
  -6.21384E+01 -6.30499E+01 -6.67164E+01 -6.18130E+01 -6.70539E+01 -6.21328E+01 -6.43220E+01 -6.24409E+01 -6.71374E+01 -6.19647E+01
  -6.78493E+01 -6.43586E+01 -6.59731E+01 -6.57653E+01 -7.01182E+01 -6.89871E+01 -6.50910E+01 -6.92267E+01 -7.06034E+01 -7.10610E+01
  -6.62605E+01 -6.46251E+01 -6.71535E+01 -6.77278E+01 -7.06293E+01 -7.00098E+01 -7.34741E+01 -6.88979E+01 -7.07616E+01 -6.79977E+01
  -7.12353E+01 -7.50070E+01 -7.42532E+01 -7.32791E+01 -7.43735E+01 -7.44426E+01 -7.92314E+01 -7.66256E+01 -7.53803E+01 -7.58752E+01
  -7.63412E+01 -7.66843E+01 -7.71855E+01 -7.57227E+01 -7.51898E+01 -7.88230E+01 -7.84020E+01 -6.88281E+01 -7.69967E+01 -7.39701E+01
  -7.80419E+01 -8.18370E+01 -8.00591E+01 -7.25511E+01 -8.12434E+01 -7.67275E+01 -7.71982E+01 -7.67851E+01 -6.95328E+01 -7.52433E+01
  -7.40564E+01 -7.05721E+01 -7.23596E+01 -7.28327E+01 -7.33842E+01 -7.57643E+01 -7.16463E+01 -6.98881E+01 -7.02763E+01 -7.40787E+01
  -6.84814E+01 -6.75462E+01 -7.04502E+01 -6.68898E+01 -6.16011E+01 -6.45566E+01 -6.48922E+01 -6.61084E+01 -6.35313E+01 -6.48414E+01
  -5.99820E+01 -6.02979E+01 -5.70991E+01 -5.96126E+01 -5.64538E+01 -5.69082E+01 -5.71673E+01 -5.50670E+01 -5.36087E+01 -5.19411E+01
  -5.17704E+01 -4.94776E+01 -4.90676E+01 -4.96887E+01 -4.68406E+01 -4.52995E+01 -4.74054E+01 -4.72131E+01 -4.48144E+01 -4.25671E+01
  -4.31869E+01 -4.17807E+01 -4.28847E+01 -4.30611E+01 -4.03379E+01 -3.94499E+01 -3.83147E+01 -3.72567E+01 -4.34917E+01 -3.42048E+01
  -3.78195E+01 -3.53657E+01 -3.93281E+01 -3.43854E+01 -3.56870E+01 -3.44911E+01 -3.62657E+01 -2.97708E+01 -2.73299E+01 -2.56593E+01
  -2.58787E+01 -2.15479E+01 -1.99631E+01 -1.81023E+01 -1.39687E+01 -1.88682E+01 -1.40717E+01 -1.52289E+01 -1.30489E+01 -1.49089E+01
  -1.17484E+01 -1.44531E+01 -1.69694E+01 -1.53998E+01 -1.50106E+01 -1.35570E+01 -1.16528E+01 -1.38726E+01 -1.36199E+01 -7.26460E+00
  -7.69670E+00 -8.09970E+00 -7.53684E+00 -7.70344E+00 -1.95725E+00 -3.47412E+00 -4.41330E+00  4.79800E+00  8.68973E+00  5.30499E+00
   6.64986E+00  1.24466E+01  1.48423E+01  1.46826E+01  1.69873E+01  1.61105E+01  2.09758E+01  2.76380E+01  2.84133E+01  3.64851E+01
   3.67352E+01  3.87602E+01  4.03183E+01  4.45810E+01  4.86288E+01  5.17484E+01  5.99587E+01  5.90323E+01  6.84627E+01  6.86688E+01
   7.86159E+01  7.50868E+01  8.50989E+01  9.55931E+01  9.55289E+01  1.06606E+02  1.12129E+02  1.13177E+02  1.19149E+02  1.23018E+02
   1.22873E+02  1.27726E+02  1.30461E+02  1.39048E+02  1.35736E+02  1.47308E+02  1.46478E+02  1.47877E+02  1.51457E+02  1.58934E+02
   1.62717E+02  1.65559E+02  1.71235E+02  1.75771E+02  1.80811E+02  1.86741E+02  1.90005E+02  1.97375E+02  2.06522E+02  2.08583E+02
   2.14032E+02  2.18823E+02  2.28572E+02  2.34427E+02  2.39785E+02  2.43439E+02  2.47834E+02  2.53164E+02  2.52468E+02  2.54809E+02
   2.56886E+02  2.57402E+02  2.53582E+02  2.52340E+02  2.52960E+02  2.45932E+02  2.42383E+02  2.37728E+02  2.36576E+02  2.30491E+02
   2.25446E+02  2.25610E+02  2.24500E+02  2.20045E+02  2.21422E+02  2.11692E+02  2.07875E+02  2.03760E+02  2.06506E+02  1.96413E+02
   2.01232E+02  1.92984E+02  1.89826E+02  1.85583E+02  1.83434E+02  1.81400E+02  1.76505E+02  1.73999E+02  1.72855E+02  1.66622E+02
   1.61527E+02  1.64382E+02  1.59288E+02  1.58263E+02  1.52958E+02  1.52958E+02  1.51333E+02  1.46410E+02  1.43185E+02  1.41798E+02
   1.38033E+02  1.39719E+02  1.35315E+02  1.34081E+02  1.30623E+02  1.23905E+02  1.23079E+02  1.21617E+02  1.20593E+02  1.18012E+02
   1.19180E+02  1.14620E+02  1.10586E+02  1.14125E+02  1.09147E+02  1.09842E+02  1.05472E+02  1.04969E+02  1.06419E+02  1.03278E+02
   9.83322E+01  1.01751E+02  9.96964E+01  9.74441E+01  9.24391E+01  9.16718E+01  9.16285E+01  9.03167E+01  8.65999E+01  8.79887E+01
   8.85859E+01  8.51083E+01  8.13727E+01  7.88531E+01  8.20472E+01  8.01226E+01  7.64501E+01  7.81384E+01  7.55399E+01  7.63031E+01
   7.06111E+01  7.32479E+01  6.73138E+01  6.53541E+01  6.95078E+01  6.88268E+01  6.97819E+01  6.07318E+01  6.35316E+01  6.51166E+01
   6.04886E+01  6.25379E+01  5.72496E+01  5.52425E+01  5.43547E+01  5.96600E+01  5.55886E+01  5.57731E+01  5.72375E+01  5.34198E+01
   5.13923E+01  5.22654E+01  5.36485E+01  5.36995E+01  5.23476E+01  4.88538E+01  4.88150E+01  5.04478E+01  5.01788E+01  4.73429E+01
   4.21144E+01  4.65465E+01  4.38035E+01  4.25776E+01  4.20851E+01  4.63465E+01  4.31486E+01  4.73015E+01  4.36909E+01  4.48321E+01
   3.92852E+01  4.02095E+01  4.17991E+01  4.32203E+01  3.91315E+01  3.85475E+01  4.21895E+01  4.24868E+01  3.62355E+01  4.30933E+01
   3.89333E+01  3.90245E+01  3.46988E+01  3.42443E+01  3.58617E+01  3.43510E+01  3.56659E+01  3.24635E+01  3.13265E+01  3.27877E+01
   3.09748E+01  3.27265E+01  2.97178E+01  3.16852E+01  3.25068E+01  3.22531E+01  3.07259E+01  3.07838E+01  3.13223E+01  3.23607E+01
   3.08325E+01  2.55614E+01  2.78609E+01  3.17583E+01  2.94255E+01  2.57787E+01  2.65166E+01  3.06882E+01
 NY points of the fit to the data follow
  -4.13541E+01 -4.11035E+01 -4.11566E+01 -4.10122E+01 -4.07018E+01 -4.04553E+01 -3.98545E+01 -3.96236E+01 -3.92382E+01 -3.93000E+01
  -3.94243E+01 -3.96867E+01 -4.03056E+01 -4.02147E+01 -4.11997E+01 -4.04945E+01 -4.15492E+01 -4.04268E+01 -4.16157E+01 -4.03677E+01
  -4.17658E+01 -4.04943E+01 -4.21087E+01 -4.10962E+01 -4.27192E+01 -4.20174E+01 -4.33332E+01 -4.29279E+01 -4.36554E+01 -4.34559E+01
  -4.33767E+01 -4.34560E+01 -4.26850E+01 -4.33273E+01 -4.21014E+01 -4.32983E+01 -4.18061E+01 -4.34785E+01 -4.19031E+01 -4.39333E+01
  -4.24609E+01 -4.45230E+01 -4.30093E+01 -4.49025E+01 -4.33054E+01 -4.48882E+01 -4.32863E+01 -4.46256E+01 -4.36640E+01 -4.51717E+01
  -4.47699E+01 -4.62393E+01 -4.62123E+01 -4.73678E+01 -4.74767E+01 -4.81420E+01 -4.80814E+01 -4.85830E+01 -4.85789E+01 -4.90345E+01
  -4.90657E+01 -4.94882E+01 -4.96838E+01 -5.01970E+01 -5.04254E+01 -5.09442E+01 -5.11736E+01 -5.16397E+01 -5.17588E+01 -5.21515E+01
  -5.21743E+01 -5.26185E+01 -5.26769E+01 -5.32245E+01 -5.32951E+01 -5.39411E+01 -5.40155E+01 -5.47468E+01 -5.48023E+01 -5.55892E+01
  -5.56239E+01 -5.64214E+01 -5.64242E+01 -5.72115E+01 -5.70823E+01 -5.75809E+01 -5.75030E+01 -5.77098E+01 -5.77865E+01 -5.76639E+01
  -5.79480E+01 -5.74713E+01 -5.80073E+01 -5.71884E+01 -5.79799E+01 -5.68360E+01 -5.79289E+01 -5.65113E+01 -5.79180E+01 -5.63542E+01
  -5.81015E+01 -5.65569E+01 -5.86087E+01 -5.72253E+01 -5.94623E+01 -5.83162E+01 -6.05727E+01 -5.96427E+01 -6.15839E+01 -6.04338E+01
  -6.21182E+01 -6.08738E+01 -6.23337E+01 -6.10041E+01 -6.22633E+01 -6.08390E+01 -6.19447E+01 -6.04333E+01 -6.14414E+01 -5.98661E+01
  -6.08529E+01 -5.92802E+01 -6.02810E+01 -5.87277E+01 -5.97278E+01 -5.81852E+01 -5.94693E+01 -5.83295E+01 -5.98688E+01 -5.91989E+01
  -6.08718E+01 -6.06237E+01 -6.23010E+01 -6.23740E+01 -6.39449E+01 -6.42417E+01 -6.56221E+01 -6.60424E+01 -6.71797E+01 -6.76395E+01
  -6.85205E+01 -6.89756E+01 -6.96245E+01 -7.00794E+01 -7.05248E+01 -7.09827E+01 -7.12025E+01 -7.15142E+01 -7.14292E+01 -7.12713E+01
  -7.11292E+01 -7.09972E+01 -7.09140E+01 -7.08397E+01 -7.08316E+01 -7.08260E+01 -7.08990E+01 -7.09737E+01 -7.11291E+01 -7.12772E+01
  -7.15034E+01 -7.17048E+01 -7.19785E+01 -7.22133E+01 -7.25103E+01 -7.27588E+01 -7.30572E+01 -7.32998E+01 -7.35770E+01 -7.37916E+01
  -7.40313E+01 -7.42003E+01 -7.43864E+01 -7.44964E+01 -7.46261E+01 -7.47119E+01 -7.47996E+01 -7.48949E+01 -7.49878E+01 -7.50695E+01
  -7.51684E+01 -7.51953E+01 -7.52233E+01 -7.50675E+01 -7.49906E+01 -7.46685E+01 -7.44532E+01 -7.39742E+01 -7.37018E+01 -7.31787E+01
  -7.29886E+01 -7.27034E+01 -7.25941E+01 -7.22759E+01 -7.21628E+01 -7.17049E+01 -7.14933E+01 -7.08108E+01 -7.03949E+01 -6.96602E+01
  -6.91174E+01 -6.84704E+01 -6.78725E+01 -6.74130E+01 -6.68433E+01 -6.65009E+01 -6.57677E+01 -6.53450E+01 -6.43309E+01 -6.37239E+01
  -6.23982E+01 -6.16320E+01 -6.00544E+01 -5.92759E+01 -5.75811E+01 -5.68931E+01 -5.52516E+01 -5.47938E+01 -5.32685E+01 -5.28242E+01
  -5.13138E+01 -5.06995E+01 -4.90903E+01 -4.82324E+01 -4.68032E+01 -4.58571E+01 -4.47328E+01 -4.38009E+01 -4.31632E+01 -4.24151E+01
  -4.23062E+01 -4.18076E+01 -4.20161E+01 -4.12178E+01 -4.15569E+01 -4.03636E+01 -4.06810E+01 -3.90671E+01 -3.92807E+01 -3.74522E+01
  -3.76607E+01 -3.56454E+01 -3.57740E+01 -3.35968E+01 -3.36026E+01 -3.12031E+01 -3.08975E+01 -2.83112E+01 -2.78060E+01 -2.51501E+01
  -2.45894E+01 -2.20218E+01 -2.15569E+01 -1.92381E+01 -1.89804E+01 -1.69973E+01 -1.69768E+01 -1.54573E+01 -1.55390E+01 -1.42472E+01
  -1.42794E+01 -1.31573E+01 -1.30994E+01 -1.21411E+01 -1.21520E+01 -1.13056E+01 -1.12253E+01 -1.03955E+01 -1.01339E+01 -9.21461E+00
  -8.68343E+00 -7.62111E+00 -6.76019E+00 -5.50846E+00 -4.32161E+00 -2.86120E+00 -1.37762E+00  2.67792E-01  1.98870E+00  3.83625E+00
   5.76229E+00  7.87072E+00  1.00811E+01  1.24982E+01  1.50187E+01  1.77681E+01  2.06396E+01  2.37264E+01  2.69657E+01  3.04263E+01
   3.40403E+01  3.78713E+01  4.18467E+01  4.60231E+01  5.03199E+01  5.47946E+01  5.93454E+01  6.40190E+01  6.87084E+01  7.34568E+01
   7.81554E+01  8.28539E+01  8.74496E+01  9.20137E+01  9.64694E+01  1.00924E+02  1.05363E+02  1.10007E+02  1.15092E+02  1.20749E+02
   1.25040E+02  1.30492E+02  1.33578E+02  1.38570E+02  1.40347E+02  1.44700E+02  1.45148E+02  1.50666E+02  1.51478E+02  1.58231E+02
   1.59581E+02  1.67189E+02  1.69025E+02  1.77034E+02  1.79259E+02  1.87129E+02  1.89994E+02  1.97650E+02  2.01931E+02  2.09926E+02
   2.15359E+02  2.22589E+02  2.28884E+02  2.34442E+02  2.40799E+02  2.43673E+02  2.49161E+02  2.50027E+02  2.54485E+02  2.53318E+02
   2.56335E+02  2.53255E+02  2.54715E+02  2.50006E+02  2.50150E+02  2.44360E+02  2.43978E+02  2.38277E+02  2.38053E+02  2.33283E+02
   2.31850E+02  2.26706E+02  2.24647E+02  2.19400E+02  2.16697E+02  2.11494E+02  2.08430E+02  2.04735E+02  2.02608E+02  1.99179E+02
   1.97045E+02  1.93503E+02  1.91119E+02  1.87358E+02  1.84730E+02  1.80897E+02  1.78258E+02  1.74798E+02  1.72341E+02  1.69546E+02
   1.66621E+02  1.63188E+02  1.60042E+02  1.56252E+02  1.53026E+02  1.49263E+02  1.46232E+02  1.43686E+02  1.41370E+02  1.39267E+02
   1.37267E+02  1.35396E+02  1.33562E+02  1.31798E+02  1.30021E+02  1.28271E+02  1.26471E+02  1.24672E+02  1.22806E+02  1.20930E+02
   1.18988E+02  1.17046E+02  1.15053E+02  1.13080E+02  1.11081E+02  1.09129E+02  1.07178E+02  1.05300E+02  1.03445E+02  1.01680E+02
   9.99514E+01  9.83212E+01  9.67301E+01  9.52351E+01  9.37727E+01  9.23962E+01  9.10396E+01  8.97542E+01  8.84732E+01  8.72475E+01
   8.60111E+01  8.48159E+01  8.35976E+01  8.24101E+01  8.11910E+01  7.99963E+01  7.87661E+01  7.75581E+01  7.63144E+01  7.50941E+01
   7.38411E+01  7.26155E+01  7.13619E+01  7.01411E+01  6.88985E+01  6.76946E+01  6.64751E+01  6.53002E+01  6.41153E+01  6.29804E+01
   6.18405E+01  6.07546E+01  5.96675E+01  5.86375E+01  5.76088E+01  5.66392E+01  5.56724E+01  5.47653E+01  5.38615E+01  5.30173E+01
   5.21759E+01  5.13933E+01  5.06124E+01  4.98887E+01  4.91652E+01  4.84970E+01  4.78271E+01  4.72104E+01  4.65899E+01  4.60203E+01
   4.54447E+01  4.49177E+01  4.43826E+01  4.38938E+01  4.33948E+01  4.29398E+01  4.24726E+01  4.20474E+01  4.16079E+01  4.12086E+01
   4.07932E+01  4.04161E+01  4.00214E+01  3.96633E+01  3.92861E+01  3.89438E+01  3.85812E+01  3.82521E+01  3.79013E+01  3.75829E+01
   3.72416E+01  3.69315E+01  3.65976E+01  3.62937E+01  3.59652E+01  3.56657E+01  3.53408E+01  3.50440E+01  3.47210E+01  3.44254E+01
   3.41030E+01  3.38072E+01  3.34840E+01  3.31868E+01  3.28618E+01  3.25621E+01  3.22341E+01  3.19311E+01  3.15993E+01  3.12921E+01
   3.09558E+01  3.06438E+01  3.03025E+01  2.99852E+01  2.96387E+01  2.93160E+01  2.89643E+01  2.86367E+01
 NY background values follow
    -5.067E+01   -5.056E+01   -5.046E+01   -5.038E+01   -5.030E+01   -5.024E+01   -5.018E+01   -5.013E+01   -5.009E+01   -5.007E+01
    -5.005E+01   -5.004E+01   -5.004E+01   -5.005E+01   -5.007E+01   -5.009E+01   -5.013E+01   -5.017E+01   -5.023E+01   -5.029E+01
    -5.036E+01   -5.043E+01   -5.052E+01   -5.061E+01   -5.071E+01   -5.082E+01   -5.093E+01   -5.106E+01   -5.119E+01   -5.132E+01
    -5.147E+01   -5.162E+01   -5.178E+01   -5.194E+01   -5.211E+01   -5.229E+01   -5.248E+01   -5.267E+01   -5.286E+01   -5.306E+01
    -5.327E+01   -5.348E+01   -5.370E+01   -5.393E+01   -5.416E+01   -5.439E+01   -5.463E+01   -5.488E+01   -5.513E+01   -5.538E+01
    -5.564E+01   -5.591E+01   -5.618E+01   -5.645E+01   -5.673E+01   -5.701E+01   -5.729E+01   -5.758E+01   -5.787E+01   -5.817E+01
    -5.847E+01   -5.877E+01   -5.908E+01   -5.939E+01   -5.970E+01   -6.001E+01   -6.033E+01   -6.065E+01   -6.097E+01   -6.130E+01
    -6.162E+01   -6.195E+01   -6.229E+01   -6.262E+01   -6.295E+01   -6.329E+01   -6.363E+01   -6.397E+01   -6.431E+01   -6.465E+01
    -6.500E+01   -6.534E+01   -6.569E+01   -6.603E+01   -6.638E+01   -6.672E+01   -6.707E+01   -6.742E+01   -6.777E+01   -6.812E+01
    -6.846E+01   -6.881E+01   -6.916E+01   -6.950E+01   -6.985E+01   -7.020E+01   -7.054E+01   -7.088E+01   -7.123E+01   -7.157E+01
    -7.191E+01   -7.225E+01   -7.258E+01   -7.292E+01   -7.325E+01   -7.359E+01   -7.391E+01   -7.424E+01   -7.457E+01   -7.489E+01
    -7.521E+01   -7.553E+01   -7.585E+01   -7.616E+01   -7.647E+01   -7.678E+01   -7.708E+01   -7.738E+01   -7.768E+01   -7.797E+01
    -7.826E+01   -7.854E+01   -7.883E+01   -7.910E+01   -7.938E+01   -7.965E+01   -7.991E+01   -8.017E+01   -8.043E+01   -8.068E+01
    -8.093E+01   -8.117E+01   -8.141E+01   -8.164E+01   -8.186E+01   -8.208E+01   -8.230E+01   -8.251E+01   -8.271E+01   -8.291E+01
    -8.310E+01   -8.329E+01   -8.347E+01   -8.364E+01   -8.381E+01   -8.397E+01   -8.412E+01   -8.427E+01   -8.441E+01   -8.454E+01
    -8.467E+01   -8.478E+01   -8.490E+01   -8.500E+01   -8.509E+01   -8.518E+01   -8.526E+01   -8.533E+01   -8.540E+01   -8.545E+01
    -8.550E+01   -8.554E+01   -8.557E+01   -8.559E+01   -8.560E+01   -8.561E+01   -8.560E+01   -8.559E+01   -8.556E+01   -8.553E+01
    -8.549E+01   -8.544E+01   -8.538E+01   -8.531E+01   -8.524E+01   -8.515E+01   -8.506E+01   -8.495E+01   -8.484E+01   -8.473E+01
    -8.460E+01   -8.446E+01   -8.432E+01   -8.417E+01   -8.401E+01   -8.384E+01   -8.367E+01   -8.349E+01   -8.330E+01   -8.310E+01
    -8.290E+01   -8.268E+01   -8.246E+01   -8.224E+01   -8.200E+01   -8.176E+01   -8.151E+01   -8.125E+01   -8.099E+01   -8.072E+01
    -8.045E+01   -8.016E+01   -7.987E+01   -7.958E+01   -7.927E+01   -7.896E+01   -7.865E+01   -7.832E+01   -7.800E+01   -7.766E+01
    -7.732E+01   -7.697E+01   -7.662E+01   -7.626E+01   -7.589E+01   -7.552E+01   -7.515E+01   -7.476E+01   -7.438E+01   -7.398E+01
    -7.358E+01   -7.318E+01   -7.277E+01   -7.236E+01   -7.194E+01   -7.151E+01   -7.108E+01   -7.065E+01   -7.021E+01   -6.976E+01
    -6.931E+01   -6.886E+01   -6.840E+01   -6.793E+01   -6.747E+01   -6.699E+01   -6.652E+01   -6.604E+01   -6.555E+01   -6.506E+01
    -6.457E+01   -6.407E+01   -6.357E+01   -6.306E+01   -6.255E+01   -6.204E+01   -6.152E+01   -6.100E+01   -6.048E+01   -5.995E+01
    -5.942E+01   -5.889E+01   -5.835E+01   -5.781E+01   -5.727E+01   -5.672E+01   -5.617E+01   -5.562E+01   -5.506E+01   -5.450E+01
    -5.394E+01   -5.338E+01   -5.281E+01   -5.225E+01   -5.168E+01   -5.110E+01   -5.053E+01   -4.995E+01   -4.937E+01   -4.879E+01
    -4.820E+01   -4.762E+01   -4.703E+01   -4.644E+01   -4.585E+01   -4.525E+01   -4.466E+01   -4.406E+01   -4.346E+01   -4.286E+01
    -4.226E+01   -4.166E+01   -4.106E+01   -4.045E+01   -3.985E+01   -3.924E+01   -3.864E+01   -3.803E+01   -3.742E+01   -3.681E+01
    -3.620E+01   -3.559E+01   -3.498E+01   -3.436E+01   -3.375E+01   -3.314E+01   -3.253E+01   -3.191E+01   -3.130E+01   -3.069E+01
    -3.007E+01   -2.946E+01   -2.885E+01   -2.824E+01   -2.762E+01   -2.701E+01   -2.640E+01   -2.579E+01   -2.518E+01   -2.457E+01
    -2.396E+01   -2.335E+01   -2.274E+01   -2.214E+01   -2.153E+01   -2.093E+01   -2.032E+01   -1.972E+01   -1.912E+01   -1.852E+01
    -1.792E+01   -1.732E+01   -1.673E+01   -1.614E+01   -1.554E+01   -1.495E+01   -1.436E+01   -1.378E+01   -1.319E+01   -1.261E+01
    -1.203E+01   -1.145E+01   -1.087E+01   -1.030E+01   -9.729E+00   -9.159E+00   -8.592E+00   -8.027E+00   -7.465E+00   -6.905E+00
    -6.347E+00   -5.792E+00   -5.240E+00   -4.690E+00   -4.143E+00   -3.599E+00   -3.057E+00   -2.518E+00   -1.982E+00   -1.448E+00
    -9.177E-01   -3.899E-01    1.349E-01    6.568E-01    1.176E+00    1.692E+00    2.204E+00    2.714E+00    3.221E+00    3.724E+00
     4.225E+00    4.722E+00    5.216E+00    5.706E+00    6.193E+00    6.677E+00    7.158E+00    7.635E+00    8.108E+00    8.579E+00
     9.045E+00    9.508E+00    9.967E+00    1.042E+01    1.088E+01    1.132E+01    1.177E+01    1.221E+01    1.265E+01    1.308E+01
     1.351E+01    1.393E+01    1.436E+01    1.477E+01    1.519E+01    1.560E+01    1.600E+01    1.640E+01    1.680E+01    1.719E+01
     1.758E+01    1.797E+01    1.835E+01    1.872E+01    1.909E+01    1.946E+01    1.982E+01    2.018E+01    2.054E+01    2.088E+01
     2.123E+01    2.157E+01    2.190E+01    2.224E+01    2.256E+01    2.288E+01    2.320E+01    2.351E+01    2.382E+01    2.412E+01
     2.442E+01    2.471E+01    2.500E+01    2.528E+01    2.556E+01    2.583E+01    2.609E+01    2.636E+01    2.661E+01    2.686E+01
     2.711E+01    2.735E+01    2.759E+01    2.782E+01    2.804E+01    2.826E+01    2.848E+01    2.868E+01    2.889E+01    2.908E+01
     2.928E+01    2.946E+01    2.964E+01    2.982E+01    2.999E+01    3.015E+01    3.031E+01    3.046E+01    3.060E+01    3.074E+01
     3.088E+01    3.101E+01    3.113E+01    3.124E+01    3.135E+01    3.146E+01    3.156E+01    3.165E+01    3.173E+01    3.181E+01
     3.189E+01    3.195E+01    3.201E+01    3.207E+01    3.211E+01    3.216E+01    3.219E+01    3.222E+01    3.224E+01    3.225E+01
     3.226E+01    3.226E+01    3.226E+01    3.225E+01    3.223E+01    3.220E+01    3.217E+01    3.213E+01    3.209E+01    3.204E+01
     3.198E+01    3.191E+01    3.184E+01    3.176E+01    3.167E+01    3.157E+01    3.147E+01    3.136E+01    3.125E+01    3.112E+01
     3.099E+01    3.085E+01    3.071E+01    3.055E+01    3.039E+01    3.023E+01    3.005E+01    2.987E+01    2.968E+01    2.948E+01
     2.928E+01    2.906E+01    2.884E+01    2.861E+01    2.838E+01    2.813E+01    2.788E+01    2.762E+01
 Ala      Conc. = 1.11E+04
