 LCModel (Version 6.3-1L) Copyright: S.W. Provencher.          Ref.: Magn. Reson. Med. 30:672-679 (1993).                
 Slice#1 Row#2 Col#5  K_02_press_1_raw_act
 36 lines in following concentration table = NCONC+1
    Conc.  %SD /Cr+PCr  Metabolite                                         
 8.82E+03  10%   0.000 Ala                                                 
    0.000 999%   0.000 Asp                                                 
    0.000 999%   0.000 Cr                                                  
    0.000 999%   0.000 PCr                                                 
    0.000 999%   0.000 GABA                                                
 2.86E-04 999%   0.000 Glc                                                 
    0.000 999%   0.000 Gln                                                 
 2.74E+03  42%   0.000 Glu                                                 
    0.000 999%   0.000 GPC                                                 
    0.000 999%   0.000 PCh                                                 
  100.801 143%   0.000 GSH                                                 
 1.53E+03  20%   0.000 Ins                                                 
 9.76E+03   8%   0.000 Lac                                                 
    0.000 999%   0.000 NAA                                                 
    0.000 999%   0.000 NAAG                                                
 1.13E-04 999%   0.000 Scyllo                                              
    0.000 999%   0.000 Tau                                                 
    0.000 999%   0.000 -CrCH2                                              
    0.000 999%   0.000 GPC+PCh                                             
    0.000 999%   0.000 NAA+NAAG                                            
    0.000 999%   0.000 Cr+PCr                                              
 2.74E+03  42%   0.000 Glu+Gln                                             
    0.000 999%   0.000 Lip13a                                              
    0.000 999%   0.000 Lip13b                                              
    0.000 999%   0.000 Lip09                                               
 3.44E+03   5%   0.000 MM09                                                
    0.000 999%   0.000 Lip20                                               
 4.95E+03   5%   0.000 MM20                                                
 1.03E+03   6%   0.000 MM12                                                
 3.11E+03   5%   0.000+MM14                                                
 1.54E+03   7%   0.000 MM17                                                
    0.000 999%   0.000 Lip13a+Lip13b                                       
 4.14E+03   4%   0.000 MM14+Lip13a+Lip13b+MM12                             
 3.44E+03   5%   0.000 MM09+Lip09                                          
 4.95E+03   5%   0.000 MM20+Lip20                                          
   6 lines in following misc. output table
  FWHM = 0.168 ppm    S/N =   8                                            
  Data shift = 0.191 ppm                                                   
  Ph:  -4 deg     115.7 deg/ppm                                            
  alphaB,S = 1.1E+00,   1.7E+02                                            
    7 spline knots.   Ns = 9(2)                                            
  (15) 9 infls.   ( 7) 1 extrs.                                            
  498 points on ppm-axis = NY
      4.000000     3.992357     3.984714     3.977070     3.969427     3.961784     3.954141     3.946497     3.938854     3.931211
      3.923568     3.915925     3.908281     3.900638     3.892995     3.885352     3.877708     3.870065     3.862422     3.854779
      3.847136     3.839492     3.831849     3.824206     3.816563     3.808919     3.801276     3.793633     3.785990     3.778347
      3.770703     3.763060     3.755417     3.747774     3.740130     3.732487     3.724844     3.717201     3.709558     3.701914
      3.694271     3.686628     3.678985     3.671341     3.663698     3.656055     3.648412     3.640769     3.633125     3.625482
      3.617839     3.610196     3.602552     3.594909     3.587266     3.579623     3.571980     3.564336     3.556693     3.549050
      3.541407     3.533763     3.526120     3.518477     3.510834     3.503191     3.495547     3.487904     3.480261     3.472618
      3.464974     3.457331     3.449688     3.442045     3.434402     3.426758     3.419115     3.411472     3.403829     3.396185
      3.388542     3.380899     3.373256     3.365613     3.357969     3.350326     3.342683     3.335040     3.327396     3.319753
      3.312110     3.304467     3.296824     3.289180     3.281537     3.273894     3.266251     3.258607     3.250964     3.243321
      3.235678     3.228034     3.220391     3.212748     3.205105     3.197462     3.189818     3.182175     3.174532     3.166889
      3.159245     3.151602     3.143959     3.136316     3.128673     3.121029     3.113386     3.105743     3.098100     3.090456
      3.082813     3.075170     3.067527     3.059884     3.052240     3.044597     3.036954     3.029311     3.021667     3.014024
      3.006381     2.998738     2.991095     2.983451     2.975808     2.968165     2.960522     2.952878     2.945235     2.937592
      2.929949     2.922306     2.914662     2.907019     2.899376     2.891733     2.884089     2.876446     2.868803     2.861160
      2.853517     2.845873     2.838230     2.830587     2.822944     2.815300     2.807657     2.800014     2.792371     2.784728
      2.777084     2.769441     2.761798     2.754155     2.746511     2.738868     2.731225     2.723582     2.715939     2.708295
      2.700652     2.693009     2.685366     2.677722     2.670079     2.662436     2.654793     2.647150     2.639506     2.631863
      2.624220     2.616577     2.608933     2.601290     2.593647     2.586004     2.578361     2.570717     2.563074     2.555431
      2.547788     2.540144     2.532501     2.524858     2.517215     2.509572     2.501928     2.494285     2.486642     2.478999
      2.471355     2.463712     2.456069     2.448426     2.440783     2.433139     2.425496     2.417853     2.410210     2.402566
      2.394923     2.387280     2.379637     2.371994     2.364350     2.356707     2.349064     2.341421     2.333777     2.326134
      2.318491     2.310848     2.303205     2.295561     2.287918     2.280275     2.272632     2.264988     2.257345     2.249702
      2.242059     2.234416     2.226772     2.219129     2.211486     2.203843     2.196199     2.188556     2.180913     2.173270
      2.165627     2.157983     2.150340     2.142697     2.135054     2.127410     2.119767     2.112124     2.104481     2.096838
      2.089194     2.081551     2.073908     2.066265     2.058621     2.050978     2.043335     2.035692     2.028049     2.020405
      2.012762     2.005119     1.997476     1.989833     1.982190     1.974546     1.966903     1.959260     1.951617     1.943974
      1.936331     1.928688     1.921045     1.913402     1.905759     1.898115     1.890472     1.882829     1.875186     1.867543
      1.859900     1.852257     1.844614     1.836971     1.829327     1.821684     1.814041     1.806398     1.798755     1.791112
      1.783469     1.775826     1.768183     1.760540     1.752896     1.745253     1.737610     1.729967     1.722324     1.714681
      1.707038     1.699395     1.691752     1.684108     1.676465     1.668822     1.661179     1.653536     1.645893     1.638250
      1.630607     1.622964     1.615321     1.607677     1.600034     1.592391     1.584748     1.577105     1.569462     1.561819
      1.554176     1.546533     1.538890     1.531246     1.523603     1.515960     1.508317     1.500674     1.493031     1.485388
      1.477745     1.470102     1.462458     1.454815     1.447172     1.439529     1.431886     1.424243     1.416600     1.408957
      1.401314     1.393671     1.386027     1.378384     1.370741     1.363098     1.355455     1.347812     1.340169     1.332526
      1.324883     1.317240     1.309596     1.301953     1.294310     1.286667     1.279024     1.271381     1.263738     1.256095
      1.248452     1.240808     1.233165     1.225522     1.217879     1.210236     1.202593     1.194950     1.187307     1.179664
      1.172021     1.164377     1.156734     1.149091     1.141448     1.133805     1.126162     1.118519     1.110876     1.103233
      1.095590     1.087946     1.080303     1.072660     1.065017     1.057374     1.049731     1.042088     1.034445     1.026802
      1.019158     1.011515     1.003872     0.996229     0.988586     0.980943     0.973300     0.965657     0.958014     0.950371
      0.942727     0.935084     0.927441     0.919798     0.912155     0.904512     0.896869     0.889226     0.881583     0.873940
      0.866296     0.858653     0.851010     0.843367     0.835724     0.828081     0.820438     0.812795     0.805152     0.797508
      0.789865     0.782222     0.774579     0.766936     0.759293     0.751650     0.744007     0.736364     0.728721     0.721077
      0.713434     0.705791     0.698148     0.690505     0.682862     0.675219     0.667576     0.659933     0.652290     0.644646
      0.637003     0.629360     0.621717     0.614074     0.606431     0.598788     0.591145     0.583502     0.575858     0.568215
      0.560572     0.552929     0.545286     0.537643     0.530000     0.522357     0.514714     0.507071     0.499427     0.491784
      0.484141     0.476498     0.468855     0.461212     0.453569     0.445925     0.438282     0.430639     0.422996     0.415353
      0.407710     0.400067     0.392424     0.384780     0.377137     0.369494     0.361851     0.354208     0.346565     0.338922
      0.331278     0.323635     0.315992     0.308349     0.300706     0.293063     0.285420     0.277777     0.270133     0.262490
      0.254847     0.247204     0.239561     0.231918     0.224275     0.216631     0.208988     0.201345
 NY phased data points follow
   8.50370E+00  1.32007E+01  1.14471E+01  1.43789E+01  1.14115E+01  1.07542E+01  1.22249E+01  4.38382E+00  5.62605E+00  3.61659E+00
   8.36578E+00  2.46844E+00  8.77050E+00  7.41557E+00  8.74121E+00  6.38451E+00  5.87402E+00  4.76768E+00  7.27917E+00  9.03708E+00
   9.93203E+00  2.66884E+00  5.17428E+00  6.08308E+00  5.97433E+00  6.09467E+00  9.24718E+00  7.91268E+00  8.34645E+00  5.57747E+00
   7.54647E+00  8.82950E+00  6.99090E+00  9.60631E+00  7.41769E+00  8.18899E+00  6.43761E+00  5.74440E+00  6.71939E+00  8.11897E+00
   6.08114E+00  9.14792E+00  5.07298E+00  1.20126E+01  6.21104E+00  8.11970E+00  5.24855E+00  7.11005E+00  2.44204E+00  3.06043E+00
   6.60412E+00  6.42718E+00  7.07567E+00  3.78718E+00  1.83270E+00  8.57105E+00  2.19562E+00  5.97692E+00  8.33206E+00  1.02462E+01
   5.57970E+00  3.72285E+00  5.42668E+00  1.30992E+00  1.37772E+00  3.40388E+00  3.60816E+00  5.09121E+00  2.43757E+00  6.67316E+00
   2.83544E+00  2.43424E+00  2.50860E+00  3.99434E+00  8.78703E+00  3.43132E+00 -4.58588E-01  8.43255E-01  9.59866E-01  4.58421E+00
  -2.40041E-01 -2.37723E+00  9.32602E-01 -1.12030E-01 -4.15440E-01  1.78136E+00  2.97183E+00  4.94476E+00  3.01818E+00  4.04569E+00
   3.37213E+00  3.35843E+00  6.63846E+00  3.63343E+00  8.43297E+00  2.14977E+00  5.83000E-01  1.01283E+00  3.86878E+00  3.59558E+00
   3.80920E+00  3.11635E+00  3.28995E-01 -1.14790E+00 -1.04210E+00  2.01165E+00  2.89418E+00  4.54020E+00  1.96145E+00 -1.28885E+00
   2.45305E+00  3.28079E+00  5.90919E+00  4.57566E+00  8.30422E-01  6.39914E+00  9.19427E+00  3.63956E+00  6.28509E+00  3.40735E+00
   5.71121E+00  6.18062E+00  5.13951E-01 -2.50957E+00  3.53406E+00  7.08084E+00  2.76271E+00  1.29370E+00  4.10068E+00 -3.85173E+00
   5.19701E+00  3.31936E+00  6.13179E+00 -3.54462E+00  5.56624E+00 -1.46622E+00  1.52999E+00  4.31745E+00  9.43159E-01  2.53400E-01
   3.16050E+00  2.39382E+00  2.36116E+00  2.36058E+00  8.57654E-01  5.64612E-02  3.60270E-01  8.43440E-01 -2.51044E+00 -7.86801E-01
   1.32781E+00  4.02173E+00 -2.69871E+00 -2.28707E+00 -2.01507E+00  2.37477E+00  9.18686E-01 -1.73033E+00  2.50306E-01 -5.72579E+00
  -4.51539E+00 -1.07676E+00 -1.29385E+00  3.75382E+00  5.72364E-02 -2.45884E+00 -2.09125E+00  3.36579E-01  8.37456E-01 -1.50047E+00
  -5.49016E+00 -1.51305E-01 -6.48145E+00 -3.87634E+00 -1.50317E+00  1.80275E+00 -6.15371E+00 -8.54990E+00 -4.24457E+00 -3.99009E+00
  -4.83052E+00 -5.23965E+00 -1.27313E+00 -6.64850E+00 -5.41819E+00 -2.76584E+00 -3.31327E+00 -8.16019E+00 -5.37997E+00 -2.34826E+00
  -6.86772E+00  2.11696E+00 -6.93390E+00 -9.25418E+00 -7.34816E-01 -4.29422E+00 -7.01854E+00 -2.94004E+00 -8.33165E+00 -9.65115E+00
  -5.38432E+00 -5.03648E+00 -3.46810E+00 -6.07264E+00 -7.63574E+00 -4.68557E+00 -5.91085E+00  5.86586E-01 -5.61409E+00 -7.92129E+00
  -5.34536E+00 -6.87417E+00 -3.64771E+00 -1.05106E+01 -4.11402E+00 -1.13512E+01 -9.59813E+00 -8.74069E+00 -1.03667E+01 -7.93914E+00
  -4.52792E+00 -1.05580E+01 -1.07368E+01 -9.32186E+00 -8.55097E+00 -9.89315E+00 -1.13760E+01 -8.96363E+00 -8.48666E+00 -6.09155E+00
  -9.44825E+00 -6.53236E+00 -6.72351E+00 -1.19353E+01 -9.47819E+00 -4.56212E+00 -4.76213E+00 -5.10760E+00 -1.11534E+00 -7.49575E+00
  -6.83457E+00 -7.87530E+00 -4.41972E+00  1.96374E+00  6.39845E-01  1.19062E+00  4.31332E+00  1.19505E+00  1.96133E+00  3.01920E+00
  -2.60230E+00 -6.90478E+00 -5.27315E+00 -9.20832E+00 -6.53489E+00 -5.33879E+00 -6.92697E+00 -6.77329E+00 -1.46250E+01 -9.66947E+00
  -5.15098E+00 -7.75000E+00 -1.24157E+01 -8.02033E+00 -1.04425E+01 -8.85556E+00 -1.15745E+01 -1.25222E+01 -7.57707E+00 -1.13229E+01
  -1.28454E+01 -1.37303E+01 -1.69788E+01 -1.51239E+01 -1.45312E+01 -1.43911E+01 -1.88880E+01 -1.70573E+01 -1.88762E+01 -1.73375E+01
  -2.18119E+01 -1.87447E+01 -1.53202E+01 -1.85509E+01 -1.43397E+01 -1.76314E+01 -2.03010E+01 -1.87450E+01 -2.24582E+01 -2.12464E+01
  -1.91431E+01 -2.11237E+01 -1.90563E+01 -1.71583E+01 -1.85341E+01 -1.61847E+01 -1.89274E+01 -1.42883E+01 -1.29656E+01 -9.10158E+00
  -1.05603E+01 -9.71952E+00 -8.98581E+00 -2.91889E+00 -2.87703E+00  2.67912E+00  2.16985E+00  7.03428E+00  5.69637E+00  8.51076E+00
   1.10868E+01  1.08520E+01  1.72550E+01  1.87420E+01  2.27755E+01  2.40322E+01  2.43231E+01  2.81937E+01  2.95736E+01  2.86603E+01
   2.88371E+01  3.47575E+01  3.13357E+01  3.14503E+01  3.51316E+01  2.65091E+01  2.86448E+01  2.80589E+01  2.41676E+01  2.76159E+01
   2.72218E+01  3.00795E+01  2.09096E+01  2.06709E+01  1.76681E+01  2.19046E+01  1.74225E+01  1.64341E+01  2.00843E+01  1.51419E+01
   1.41422E+01  1.34096E+01  9.82523E+00  1.34850E+01  1.21580E+01  1.36716E+01  8.05157E+00  4.10936E+00  6.57718E+00  3.64128E+00
   1.18920E+01  1.28010E+01  5.88078E+00  4.52571E+00  6.80527E+00  9.95767E+00  9.42145E+00  6.26647E+00  8.09440E+00  6.63777E+00
   4.07355E+00  2.54952E+00  6.22920E+00  5.12258E+00  8.72456E+00  6.07403E+00  8.31601E+00  8.75805E+00  4.66114E+00  7.32333E+00
   8.23477E+00  8.93724E+00  2.80520E+00  6.97879E+00  9.04100E+00  7.47504E+00  7.04962E+00  5.22339E+00  5.85107E+00  2.64179E+00
   7.27442E+00  6.63519E+00  4.56482E+00  5.37484E+00  4.56531E+00  2.23801E+00  1.51693E+00  6.51092E-01  2.64411E+00  2.20269E+00
   3.45063E-01  3.00246E+00  1.19655E+00  3.96744E+00  1.04699E+00  1.52590E+00  2.21024E+00  2.11053E+00  8.61905E-01 -2.38929E+00
   1.25937E+00  5.82119E+00  2.60030E+00 -5.33503E-01  9.06212E-01 -2.86526E+00  8.42600E-01 -9.84761E-01 -3.00099E-02 -4.40829E-01
  -1.29858E+00 -8.04099E-01 -1.52388E+00  3.86956E+00 -2.42164E+00 -2.15853E+00  2.48391E-01 -1.68492E+00 -9.67384E-01  5.91707E-01
   6.20057E-01  2.25346E+00 -1.38077E+00 -3.47498E+00  2.67398E+00 -1.53506E+00  2.29588E-01 -1.73153E-01 -9.25529E-01 -7.95853E-01
   5.50131E-01  1.90605E+00 -4.07272E-01 -3.90831E+00  1.04416E-01 -3.53645E+00 -5.30598E+00 -5.32261E+00 -1.37304E-01 -9.76279E-01
  -1.60673E+00  1.31129E-01 -1.26599E+00  1.57089E+00 -4.31039E+00 -2.05540E+00 -4.20953E+00 -1.58001E+00  6.75410E-01 -2.69998E+00
  -6.40695E+00 -4.59223E+00 -3.40685E-01  6.56914E-01 -8.58728E-01 -1.67326E+00  2.34512E-01 -5.58209E-01 -1.13889E+00 -1.16702E+00
  -5.06997E+00 -5.18873E+00 -4.23711E+00 -2.81858E+00 -2.22554E+00 -2.41225E+00  3.00754E+00 -1.98561E+00  8.69907E-01 -1.61715E+00
  -3.21958E+00 -1.81697E+00 -2.27741E+00 -3.62370E-01 -3.50737E-02 -1.82630E+00 -6.85339E+00 -8.97782E-01 -1.83846E+00  8.24751E-01
  -8.83861E-01 -4.46433E+00 -2.91170E+00 -4.58738E+00 -1.29699E-01 -3.42280E+00  8.03261E-01  4.55215E-01  2.57885E+00  7.75889E-01
  -2.40300E+00  4.19716E-01 -2.51195E+00 -2.49735E+00 -3.89450E+00 -1.37223E+00 -2.00275E+00  5.59550E-01
 NY points of the fit to the data follow
   6.56907E+00  7.60369E+00  6.93544E+00  8.13312E+00  7.71843E+00  8.04937E+00  7.51469E+00  7.33218E+00  6.49503E+00  6.53359E+00
   5.77575E+00  6.35233E+00  6.49066E+00  7.39475E+00  7.74961E+00  8.95281E+00  8.50047E+00  9.52787E+00  8.43971E+00  9.18582E+00
   7.86435E+00  8.92305E+00  7.30614E+00  8.81642E+00  7.14538E+00  8.94541E+00  7.43629E+00  9.71593E+00  8.10782E+00  1.03744E+01
   8.37009E+00  1.03836E+01  8.26075E+00  9.91022E+00  7.51936E+00  9.07601E+00  7.00276E+00  8.61186E+00  6.69948E+00  8.08689E+00
   6.90054E+00  8.40355E+00  7.16330E+00  8.10329E+00  6.84603E+00  7.67052E+00  6.80791E+00  7.04812E+00  5.97109E+00  6.06782E+00
   5.30581E+00  5.48772E+00  4.76336E+00  4.89318E+00  4.85375E+00  5.34995E+00  5.14064E+00  5.35693E+00  5.04231E+00  5.17892E+00
   4.84807E+00  4.84334E+00  4.45466E+00  4.53217E+00  4.22429E+00  4.31719E+00  4.01305E+00  4.07216E+00  3.85154E+00  3.97045E+00
   3.70429E+00  3.69921E+00  3.42249E+00  3.38549E+00  3.15263E+00  3.12967E+00  2.95588E+00  2.94736E+00  2.81687E+00  2.75270E+00
   2.68646E+00  2.64509E+00  2.66207E+00  2.62756E+00  2.68908E+00  2.63169E+00  2.74757E+00  2.70379E+00  2.88706E+00  2.85381E+00
   3.07929E+00  3.02037E+00  3.26854E+00  3.24115E+00  3.48606E+00  3.43344E+00  3.67769E+00  3.64194E+00  3.90193E+00  3.89295E+00
   4.14702E+00  4.14762E+00  4.37268E+00  4.37754E+00  4.56623E+00  4.55262E+00  4.70815E+00  4.69243E+00  4.78618E+00  4.74781E+00
   4.79721E+00  4.77045E+00  4.80618E+00  4.79216E+00  4.80924E+00  4.79851E+00  4.76836E+00  4.73441E+00  4.67511E+00  4.58968E+00
   4.48552E+00  4.37480E+00  4.23876E+00  4.09725E+00  3.92385E+00  3.74306E+00  3.54574E+00  3.35050E+00  3.12786E+00  2.90754E+00
   2.66632E+00  2.42657E+00  2.17338E+00  1.92389E+00  1.66468E+00  1.40928E+00  1.14992E+00  8.92921E-01  6.38926E-01  3.82699E-01
   1.38890E-01 -1.10276E-01 -3.46436E-01 -5.91370E-01 -8.12704E-01 -1.04277E+00 -1.24261E+00 -1.44992E+00 -1.62899E+00 -1.81314E+00
  -1.97413E+00 -2.14337E+00 -2.29120E+00 -2.44851E+00 -2.57694E+00 -2.71007E+00 -2.83135E+00 -2.96194E+00 -3.07972E+00 -3.20620E+00
  -3.31790E+00 -3.43315E+00 -3.53711E+00 -3.63834E+00 -3.73603E+00 -3.83490E+00 -3.93108E+00 -4.03253E+00 -4.12454E+00 -4.22289E+00
  -4.30689E+00 -4.39848E+00 -4.47279E+00 -4.56242E+00 -4.63357E+00 -4.72843E+00 -4.79850E+00 -4.89328E+00 -4.95756E+00 -5.05418E+00
  -5.10343E+00 -5.17946E+00 -5.22120E+00 -5.28630E+00 -5.31888E+00 -5.36793E+00 -5.38701E+00 -5.41456E+00 -5.45890E+00 -5.56356E+00
  -5.56845E+00 -5.77015E+00 -5.78377E+00 -5.94309E+00 -5.87800E+00 -5.95076E+00 -5.69564E+00 -5.62200E+00 -5.22660E+00 -5.62700E+00
  -5.24485E+00 -5.91959E+00 -5.49760E+00 -6.52114E+00 -6.13115E+00 -7.20133E+00 -6.36540E+00 -7.46477E+00 -6.47216E+00 -7.61828E+00
  -6.55130E+00 -7.83292E+00 -6.66195E+00 -8.05640E+00 -6.89615E+00 -8.32315E+00 -7.19274E+00 -8.49475E+00 -7.31989E+00 -8.33942E+00
  -7.19776E+00 -7.94636E+00 -6.91857E+00 -7.26572E+00 -6.31216E+00 -6.62427E+00 -5.79383E+00 -5.91970E+00 -5.30860E+00 -5.37669E+00
  -4.94118E+00 -4.93133E+00 -4.54950E+00 -4.39711E+00 -4.04663E+00 -3.79626E+00 -3.49900E+00 -3.00441E+00 -2.65208E+00 -2.39778E+00
  -2.19578E+00 -1.96683E+00 -1.73777E+00 -1.74767E+00 -1.88552E+00 -1.97590E+00 -2.09735E+00 -2.25236E+00 -2.46363E+00 -2.60232E+00
  -2.98146E+00 -3.14597E+00 -3.64366E+00 -3.87591E+00 -4.51545E+00 -4.74954E+00 -5.47030E+00 -5.74728E+00 -6.57123E+00 -6.89474E+00
  -7.71665E+00 -8.04091E+00 -8.89628E+00 -9.21658E+00 -1.00964E+01 -1.04663E+01 -1.12755E+01 -1.15763E+01 -1.22961E+01 -1.25587E+01
  -1.31371E+01 -1.33836E+01 -1.39214E+01 -1.42413E+01 -1.46974E+01 -1.49884E+01 -1.53634E+01 -1.56035E+01 -1.58711E+01 -1.61119E+01
  -1.63713E+01 -1.65506E+01 -1.67097E+01 -1.68183E+01 -1.69163E+01 -1.69334E+01 -1.69505E+01 -1.69469E+01 -1.69004E+01 -1.68325E+01
  -1.67193E+01 -1.65750E+01 -1.63788E+01 -1.61585E+01 -1.58716E+01 -1.55168E+01 -1.50759E+01 -1.45466E+01 -1.39080E+01 -1.31442E+01
  -1.22292E+01 -1.11434E+01 -9.86032E+00 -8.33541E+00 -6.52930E+00 -4.37467E+00 -1.77826E+00  1.45527E+00  5.73739E+00  1.06493E+01
   1.24619E+01  1.58123E+01  1.69242E+01  2.00986E+01  2.04887E+01  2.30776E+01  2.15813E+01  2.61437E+01  2.57985E+01  2.96797E+01
   2.84279E+01  3.14707E+01  2.84475E+01  3.06447E+01  2.73550E+01  2.84753E+01  2.50169E+01  2.56817E+01  2.37068E+01  2.69882E+01
   2.43618E+01  2.44122E+01  2.21302E+01  2.11157E+01  2.02492E+01  1.89633E+01  1.69861E+01  1.73274E+01  1.66328E+01  1.61742E+01
   1.57538E+01  1.47359E+01  1.31417E+01  1.29316E+01  1.25444E+01  1.18231E+01  1.08308E+01  8.86678E+00  8.82732E+00  9.12570E+00
   9.23812E+00  9.32935E+00  9.07122E+00  9.05709E+00  9.78196E+00  9.84966E+00  8.80876E+00  8.02079E+00  7.69829E+00  6.74425E+00
   6.98242E+00  5.15464E+00  5.21673E+00  4.89588E+00  5.98521E+00  5.98220E+00  6.70978E+00  5.35919E+00  6.93321E+00  8.10555E+00
   8.92456E+00  8.60142E+00  8.66165E+00  8.14339E+00  8.05265E+00  5.28283E+00  3.62377E+00  2.71131E+00  2.17098E+00  1.85918E+00
   1.70496E+00  1.66666E+00  1.71657E+00  1.83463E+00  2.00466E+00  2.21277E+00  2.44619E+00  2.69344E+00  2.94408E+00  3.18871E+00
   3.41864E+00  3.62592E+00  3.80358E+00  3.94590E+00  4.04855E+00  4.10849E+00  4.12381E+00  4.09366E+00  4.01845E+00  3.89978E+00
   3.74035E+00  3.54357E+00  3.31338E+00  3.05411E+00  2.77051E+00  2.46757E+00  2.15029E+00  1.82344E+00  1.49140E+00  1.15824E+00
   8.27740E-01  5.03266E-01  1.87718E-01 -1.16617E-01 -4.07933E-01 -6.84831E-01 -9.46172E-01 -1.19119E+00 -1.41948E+00 -1.63102E+00
  -1.82596E+00 -2.00462E+00 -2.16731E+00 -2.31457E+00 -2.44703E+00 -2.56546E+00 -2.67061E+00 -2.76316E+00 -2.84376E+00 -2.91312E+00
  -2.97200E+00 -3.02114E+00 -3.06118E+00 -3.09268E+00 -3.11616E+00 -3.13220E+00 -3.14140E+00 -3.14425E+00 -3.14119E+00 -3.13257E+00
  -3.11878E+00 -3.10023E+00 -3.07733E+00 -3.05039E+00 -3.01967E+00 -2.98539E+00 -2.94785E+00 -2.90734E+00 -2.86413E+00 -2.81838E+00
  -2.77027E+00 -2.71994E+00 -2.66764E+00 -2.61357E+00 -2.55789E+00 -2.50071E+00 -2.44212E+00 -2.38226E+00 -2.32133E+00 -2.25947E+00
  -2.19676E+00 -2.13327E+00 -2.06909E+00 -2.00435E+00 -1.93919E+00 -1.87372E+00 -1.80797E+00 -1.74201E+00 -1.67592E+00 -1.60985E+00
  -1.54388E+00 -1.47810E+00 -1.41253E+00 -1.34725E+00 -1.28236E+00 -1.21798E+00 -1.15420E+00 -1.09109E+00 -1.02868E+00 -9.67092E-01
  -9.06439E-01 -8.46861E-01 -7.88439E-01 -7.31267E-01 -6.75446E-01 -6.21144E-01 -5.68534E-01 -5.17797E-01 -4.69090E-01 -4.22610E-01
  -3.78598E-01 -3.37373E-01 -2.99283E-01 -2.64721E-01 -2.34148E-01 -2.08155E-01 -1.87508E-01 -1.73193E-01
 NY background values follow
     2.259E+00    2.249E+00    2.238E+00    2.226E+00    2.214E+00    2.200E+00    2.186E+00    2.171E+00    2.154E+00    2.137E+00
     2.120E+00    2.101E+00    2.081E+00    2.061E+00    2.040E+00    2.017E+00    1.994E+00    1.971E+00    1.946E+00    1.920E+00
     1.894E+00    1.867E+00    1.839E+00    1.810E+00    1.780E+00    1.750E+00    1.719E+00    1.687E+00    1.654E+00    1.620E+00
     1.585E+00    1.550E+00    1.514E+00    1.477E+00    1.439E+00    1.400E+00    1.361E+00    1.321E+00    1.279E+00    1.238E+00
     1.195E+00    1.151E+00    1.107E+00    1.062E+00    1.016E+00    9.690E-01    9.213E-01    8.729E-01    8.236E-01    7.735E-01
     7.226E-01    6.708E-01    6.182E-01    5.648E-01    5.105E-01    4.554E-01    3.994E-01    3.426E-01    2.850E-01    2.265E-01
     1.671E-01    1.069E-01    4.579E-02   -1.617E-02   -7.900E-02   -1.427E-01   -2.073E-01   -2.727E-01   -3.391E-01   -4.064E-01
    -4.745E-01   -5.436E-01   -6.135E-01   -6.844E-01   -7.562E-01   -8.289E-01   -9.025E-01   -9.771E-01   -1.053E+00   -1.129E+00
    -1.207E+00   -1.285E+00   -1.364E+00   -1.445E+00   -1.526E+00   -1.608E+00   -1.692E+00   -1.776E+00   -1.861E+00   -1.947E+00
    -2.035E+00   -2.123E+00   -2.213E+00   -2.303E+00   -2.394E+00   -2.487E+00   -2.581E+00   -2.675E+00   -2.771E+00   -2.868E+00
    -2.966E+00   -3.065E+00   -3.165E+00   -3.267E+00   -3.369E+00   -3.473E+00   -3.578E+00   -3.684E+00   -3.791E+00   -3.899E+00
    -4.008E+00   -4.119E+00   -4.231E+00   -4.344E+00   -4.459E+00   -4.574E+00   -4.691E+00   -4.809E+00   -4.929E+00   -5.049E+00
    -5.171E+00   -5.295E+00   -5.419E+00   -5.545E+00   -5.672E+00   -5.801E+00   -5.931E+00   -6.062E+00   -6.195E+00   -6.329E+00
    -6.464E+00   -6.600E+00   -6.738E+00   -6.878E+00   -7.018E+00   -7.160E+00   -7.303E+00   -7.448E+00   -7.594E+00   -7.741E+00
    -7.889E+00   -8.038E+00   -8.189E+00   -8.341E+00   -8.495E+00   -8.649E+00   -8.805E+00   -8.962E+00   -9.120E+00   -9.279E+00
    -9.439E+00   -9.601E+00   -9.763E+00   -9.927E+00   -1.009E+01   -1.026E+01   -1.042E+01   -1.059E+01   -1.076E+01   -1.093E+01
    -1.110E+01   -1.127E+01   -1.144E+01   -1.162E+01   -1.179E+01   -1.197E+01   -1.214E+01   -1.232E+01   -1.250E+01   -1.268E+01
    -1.285E+01   -1.303E+01   -1.321E+01   -1.339E+01   -1.358E+01   -1.376E+01   -1.394E+01   -1.412E+01   -1.431E+01   -1.449E+01
    -1.468E+01   -1.486E+01   -1.504E+01   -1.523E+01   -1.542E+01   -1.560E+01   -1.579E+01   -1.597E+01   -1.616E+01   -1.635E+01
    -1.653E+01   -1.672E+01   -1.691E+01   -1.709E+01   -1.728E+01   -1.747E+01   -1.765E+01   -1.784E+01   -1.802E+01   -1.821E+01
    -1.840E+01   -1.858E+01   -1.876E+01   -1.895E+01   -1.913E+01   -1.932E+01   -1.950E+01   -1.968E+01   -1.986E+01   -2.004E+01
    -2.022E+01   -2.040E+01   -2.058E+01   -2.076E+01   -2.093E+01   -2.111E+01   -2.129E+01   -2.146E+01   -2.163E+01   -2.180E+01
    -2.197E+01   -2.214E+01   -2.231E+01   -2.248E+01   -2.264E+01   -2.281E+01   -2.297E+01   -2.313E+01   -2.329E+01   -2.345E+01
    -2.361E+01   -2.376E+01   -2.392E+01   -2.407E+01   -2.422E+01   -2.437E+01   -2.451E+01   -2.466E+01   -2.480E+01   -2.494E+01
    -2.508E+01   -2.521E+01   -2.535E+01   -2.548E+01   -2.561E+01   -2.574E+01   -2.586E+01   -2.598E+01   -2.611E+01   -2.622E+01
    -2.634E+01   -2.645E+01   -2.656E+01   -2.667E+01   -2.678E+01   -2.688E+01   -2.698E+01   -2.708E+01   -2.717E+01   -2.726E+01
    -2.735E+01   -2.744E+01   -2.753E+01   -2.761E+01   -2.769E+01   -2.777E+01   -2.784E+01   -2.791E+01   -2.798E+01   -2.805E+01
    -2.812E+01   -2.818E+01   -2.824E+01   -2.829E+01   -2.835E+01   -2.840E+01   -2.845E+01   -2.849E+01   -2.854E+01   -2.858E+01
    -2.862E+01   -2.865E+01   -2.869E+01   -2.872E+01   -2.875E+01   -2.877E+01   -2.880E+01   -2.882E+01   -2.884E+01   -2.885E+01
    -2.887E+01   -2.888E+01   -2.889E+01   -2.889E+01   -2.890E+01   -2.890E+01   -2.890E+01   -2.889E+01   -2.889E+01   -2.888E+01
    -2.887E+01   -2.886E+01   -2.884E+01   -2.882E+01   -2.880E+01   -2.878E+01   -2.876E+01   -2.873E+01   -2.870E+01   -2.867E+01
    -2.864E+01   -2.860E+01   -2.856E+01   -2.852E+01   -2.848E+01   -2.844E+01   -2.839E+01   -2.834E+01   -2.829E+01   -2.824E+01
    -2.818E+01   -2.813E+01   -2.807E+01   -2.801E+01   -2.794E+01   -2.788E+01   -2.781E+01   -2.774E+01   -2.767E+01   -2.760E+01
    -2.753E+01   -2.745E+01   -2.737E+01   -2.729E+01   -2.721E+01   -2.713E+01   -2.705E+01   -2.696E+01   -2.687E+01   -2.678E+01
    -2.669E+01   -2.660E+01   -2.650E+01   -2.641E+01   -2.631E+01   -2.621E+01   -2.611E+01   -2.601E+01   -2.591E+01   -2.580E+01
    -2.570E+01   -2.559E+01   -2.548E+01   -2.537E+01   -2.526E+01   -2.515E+01   -2.504E+01   -2.492E+01   -2.481E+01   -2.469E+01
    -2.457E+01   -2.445E+01   -2.433E+01   -2.421E+01   -2.409E+01   -2.397E+01   -2.385E+01   -2.372E+01   -2.360E+01   -2.347E+01
    -2.334E+01   -2.321E+01   -2.309E+01   -2.296E+01   -2.283E+01   -2.269E+01   -2.256E+01   -2.243E+01   -2.230E+01   -2.216E+01
    -2.203E+01   -2.190E+01   -2.176E+01   -2.163E+01   -2.149E+01   -2.135E+01   -2.121E+01   -2.108E+01   -2.094E+01   -2.080E+01
    -2.066E+01   -2.052E+01   -2.038E+01   -2.024E+01   -2.010E+01   -1.996E+01   -1.982E+01   -1.967E+01   -1.953E+01   -1.939E+01
    -1.925E+01   -1.910E+01   -1.896E+01   -1.882E+01   -1.867E+01   -1.853E+01   -1.839E+01   -1.824E+01   -1.810E+01   -1.795E+01
    -1.781E+01   -1.766E+01   -1.752E+01   -1.737E+01   -1.723E+01   -1.708E+01   -1.694E+01   -1.679E+01   -1.665E+01   -1.650E+01
    -1.636E+01   -1.622E+01   -1.607E+01   -1.593E+01   -1.578E+01   -1.564E+01   -1.549E+01   -1.535E+01   -1.520E+01   -1.506E+01
    -1.492E+01   -1.477E+01   -1.463E+01   -1.449E+01   -1.435E+01   -1.420E+01   -1.406E+01   -1.392E+01   -1.378E+01   -1.364E+01
    -1.350E+01   -1.336E+01   -1.322E+01   -1.308E+01   -1.294E+01   -1.280E+01   -1.266E+01   -1.252E+01   -1.239E+01   -1.225E+01
    -1.211E+01   -1.198E+01   -1.184E+01   -1.171E+01   -1.157E+01   -1.144E+01   -1.130E+01   -1.117E+01   -1.104E+01   -1.091E+01
    -1.078E+01   -1.065E+01   -1.052E+01   -1.039E+01   -1.026E+01   -1.013E+01   -1.000E+01   -9.877E+00   -9.751E+00   -9.625E+00
    -9.501E+00   -9.377E+00   -9.254E+00   -9.131E+00   -9.010E+00   -8.889E+00   -8.769E+00   -8.649E+00   -8.530E+00   -8.413E+00
    -8.295E+00   -8.179E+00   -8.064E+00   -7.949E+00   -7.835E+00   -7.722E+00   -7.609E+00   -7.498E+00   -7.387E+00   -7.278E+00
    -7.169E+00   -7.061E+00   -6.953E+00   -6.847E+00   -6.742E+00   -6.637E+00   -6.533E+00   -6.431E+00
 Ala      Conc. = 8.82E+03
