 LCModel (Version 6.3-1L) Copyright: S.W. Provencher.          Ref.: Magn. Reson. Med. 30:672-679 (1993).                
 Slice#2 Row#6 Col#7  K_02_press_1_raw_act
 36 lines in following concentration table = NCONC+1
    Conc.  %SD /Cr+PCr  Metabolite                                         
    0.000 999%   0.000 Ala                                                 
    0.000 999%   0.000 Asp                                                 
 1.22E+03  21%   0.564 Cr                                                  
  942.873  29%   0.436 PCr                                                 
    0.000 999%   0.000 GABA                                                
    0.000 999%   0.000 Glc                                                 
  430.990  61%   0.199 Gln                                                 
 2.01E+03  15%   0.931 Glu                                                 
  770.621   4%   0.357 GPC                                                 
    0.000 999%   0.000 PCh                                                 
  689.912  14%   0.319 GSH                                                 
 1.70E+03  19%   0.788 Ins                                                 
   75.161 186% 3.5E-02 Lac                                                 
 2.63E+03   5%   1.219 NAA                                                 
  249.643  59%   0.116 NAAG                                                
   37.391  93% 1.7E-02 Scyllo                                              
    0.000 999%   0.000 Tau                                                 
  153.605  99% 7.1E-02 -CrCH2                                              
  770.621   4%   0.357 GPC+PCh                                             
 2.88E+03   4%   1.335 NAA+NAAG                                            
 2.16E+03   4%   1.000 Cr+PCr                                              
 2.44E+03  17%   1.130 Glu+Gln                                             
 2.52E+03  33%   1.165 Lip13a                                              
    0.000 999%   0.000 Lip13b                                              
  343.863 112%   0.159 Lip09                                               
 2.10E+03  21%   0.970 MM09                                                
  448.326  57%   0.207 Lip20                                               
 4.99E+03  11%   2.311 MM20                                                
  735.739  40%   0.340 MM12                                                
 2.26E+03  25%   1.044 MM14                                                
    0.000 999%   0.000 MM17                                                
 2.52E+03  33%   1.165 Lip13a+Lip13b                                       
 5.51E+03  12%   2.549 MM14+Lip13a+Lip13b+MM12                             
 2.44E+03  13%   1.129 MM09+Lip09                                          
 5.44E+03  10%   2.518 MM20+Lip20                                          
   6 lines in following misc. output table
  FWHM = 0.054 ppm    S/N =  11                                            
  Data shift = 0.008 ppm                                                   
  Ph: -17 deg      -2.6 deg/ppm                                            
  alphaB,S = 1.6E+00,   2.3E+01                                            
   14 spline knots.   Ns = 6(1)                                            
  ( 4) 2 infls.   ( 3) 1 extrs.                                            
  498 points on ppm-axis = NY
      4.000000     3.992357     3.984714     3.977070     3.969427     3.961784     3.954141     3.946497     3.938854     3.931211
      3.923568     3.915925     3.908281     3.900638     3.892995     3.885352     3.877708     3.870065     3.862422     3.854779
      3.847136     3.839492     3.831849     3.824206     3.816563     3.808919     3.801276     3.793633     3.785990     3.778347
      3.770703     3.763060     3.755417     3.747774     3.740130     3.732487     3.724844     3.717201     3.709558     3.701914
      3.694271     3.686628     3.678985     3.671341     3.663698     3.656055     3.648412     3.640769     3.633125     3.625482
      3.617839     3.610196     3.602552     3.594909     3.587266     3.579623     3.571980     3.564336     3.556693     3.549050
      3.541407     3.533763     3.526120     3.518477     3.510834     3.503191     3.495547     3.487904     3.480261     3.472618
      3.464974     3.457331     3.449688     3.442045     3.434402     3.426758     3.419115     3.411472     3.403829     3.396185
      3.388542     3.380899     3.373256     3.365613     3.357969     3.350326     3.342683     3.335040     3.327396     3.319753
      3.312110     3.304467     3.296824     3.289180     3.281537     3.273894     3.266251     3.258607     3.250964     3.243321
      3.235678     3.228034     3.220391     3.212748     3.205105     3.197462     3.189818     3.182175     3.174532     3.166889
      3.159245     3.151602     3.143959     3.136316     3.128673     3.121029     3.113386     3.105743     3.098100     3.090456
      3.082813     3.075170     3.067527     3.059884     3.052240     3.044597     3.036954     3.029311     3.021667     3.014024
      3.006381     2.998738     2.991095     2.983451     2.975808     2.968165     2.960522     2.952878     2.945235     2.937592
      2.929949     2.922306     2.914662     2.907019     2.899376     2.891733     2.884089     2.876446     2.868803     2.861160
      2.853517     2.845873     2.838230     2.830587     2.822944     2.815300     2.807657     2.800014     2.792371     2.784728
      2.777084     2.769441     2.761798     2.754155     2.746511     2.738868     2.731225     2.723582     2.715939     2.708295
      2.700652     2.693009     2.685366     2.677722     2.670079     2.662436     2.654793     2.647150     2.639506     2.631863
      2.624220     2.616577     2.608933     2.601290     2.593647     2.586004     2.578361     2.570717     2.563074     2.555431
      2.547788     2.540144     2.532501     2.524858     2.517215     2.509572     2.501928     2.494285     2.486642     2.478999
      2.471355     2.463712     2.456069     2.448426     2.440783     2.433139     2.425496     2.417853     2.410210     2.402566
      2.394923     2.387280     2.379637     2.371994     2.364350     2.356707     2.349064     2.341421     2.333777     2.326134
      2.318491     2.310848     2.303205     2.295561     2.287918     2.280275     2.272632     2.264988     2.257345     2.249702
      2.242059     2.234416     2.226772     2.219129     2.211486     2.203843     2.196199     2.188556     2.180913     2.173270
      2.165627     2.157983     2.150340     2.142697     2.135054     2.127410     2.119767     2.112124     2.104481     2.096838
      2.089194     2.081551     2.073908     2.066265     2.058621     2.050978     2.043335     2.035692     2.028049     2.020405
      2.012762     2.005119     1.997476     1.989833     1.982190     1.974546     1.966903     1.959260     1.951617     1.943974
      1.936331     1.928688     1.921045     1.913402     1.905759     1.898115     1.890472     1.882829     1.875186     1.867543
      1.859900     1.852257     1.844614     1.836971     1.829327     1.821684     1.814041     1.806398     1.798755     1.791112
      1.783469     1.775826     1.768183     1.760540     1.752896     1.745253     1.737610     1.729967     1.722324     1.714681
      1.707038     1.699395     1.691752     1.684108     1.676465     1.668822     1.661179     1.653536     1.645893     1.638250
      1.630607     1.622964     1.615321     1.607677     1.600034     1.592391     1.584748     1.577105     1.569462     1.561819
      1.554176     1.546533     1.538890     1.531246     1.523603     1.515960     1.508317     1.500674     1.493031     1.485388
      1.477745     1.470102     1.462458     1.454815     1.447172     1.439529     1.431886     1.424243     1.416600     1.408957
      1.401314     1.393671     1.386027     1.378384     1.370741     1.363098     1.355455     1.347812     1.340169     1.332526
      1.324883     1.317240     1.309596     1.301953     1.294310     1.286667     1.279024     1.271381     1.263738     1.256095
      1.248452     1.240808     1.233165     1.225522     1.217879     1.210236     1.202593     1.194950     1.187307     1.179664
      1.172021     1.164377     1.156734     1.149091     1.141448     1.133805     1.126162     1.118519     1.110876     1.103233
      1.095590     1.087946     1.080303     1.072660     1.065017     1.057374     1.049731     1.042088     1.034445     1.026802
      1.019158     1.011515     1.003872     0.996229     0.988586     0.980943     0.973300     0.965657     0.958014     0.950371
      0.942727     0.935084     0.927441     0.919798     0.912155     0.904512     0.896869     0.889226     0.881583     0.873940
      0.866296     0.858653     0.851010     0.843367     0.835724     0.828081     0.820438     0.812795     0.805152     0.797508
      0.789865     0.782222     0.774579     0.766936     0.759293     0.751650     0.744007     0.736364     0.728721     0.721077
      0.713434     0.705791     0.698148     0.690505     0.682862     0.675219     0.667576     0.659933     0.652290     0.644646
      0.637003     0.629360     0.621717     0.614074     0.606431     0.598788     0.591145     0.583502     0.575858     0.568215
      0.560572     0.552929     0.545286     0.537643     0.530000     0.522357     0.514714     0.507071     0.499427     0.491784
      0.484141     0.476498     0.468855     0.461212     0.453569     0.445925     0.438282     0.430639     0.422996     0.415353
      0.407710     0.400067     0.392424     0.384780     0.377137     0.369494     0.361851     0.354208     0.346565     0.338922
      0.331278     0.323635     0.315992     0.308349     0.300706     0.293063     0.285420     0.277777     0.270133     0.262490
      0.254847     0.247204     0.239561     0.231918     0.224275     0.216631     0.208988     0.201345
 NY phased data points follow
  -1.62131E+01 -1.24422E+01 -6.25348E+00 -7.54822E+00  4.41714E-01  3.75191E+00  1.47788E+01  2.43880E+01  3.63356E+01  4.13034E+01
   4.57610E+01  3.90267E+01  2.98423E+01  2.57734E+01  2.02045E+01  1.47825E+01  2.25495E+00 -8.40554E+00 -1.04910E+01 -1.33005E+01
  -1.97534E+00 -1.14096E+01 -6.11143E+00 -5.90927E+00 -3.39489E+00  2.86797E+00  5.69438E+00  1.53780E+00  6.62541E+00  1.23654E+01
   1.29945E+01  1.21358E+01  1.02888E+01  8.22568E+00  4.14368E+00 -1.86223E+00  5.77735E+00  6.14156E+00  3.40026E+00  6.17733E-01
   8.77451E+00  1.06502E+01  9.28597E+00  6.43710E+00  9.51850E+00  1.08888E+01  1.78768E+01  2.03251E+01  1.59580E+01  7.75365E+00
   7.59039E+00 -6.03187E-01  2.88437E+00  2.51908E+00  6.19353E+00  8.47342E+00  3.14769E+00 -2.57144E+00  1.39501E-01 -1.41213E-01
  -3.94988E+00 -9.82256E+00 -7.52462E+00 -9.05273E+00 -8.88900E+00 -2.00117E+01 -1.51192E+01 -1.48125E+01 -1.39652E+01 -1.35126E+01
  -7.53567E+00 -7.04864E+00 -5.49958E+00 -1.14726E+01 -7.13236E+00 -1.06736E+01 -2.47045E+00 -9.45562E+00 -1.33755E+01 -1.00522E+01
  -1.43188E+01 -9.12286E+00 -1.68933E+01 -1.08078E+01 -8.35166E+00 -9.37968E+00 -3.63088E+00 -9.09509E+00 -1.03049E+01 -1.01745E+01
  -4.40249E+00 -2.47948E+00 -4.11149E+00  1.69176E+00 -4.65816E+00  2.28960E+00 -1.60388E+00  8.12175E+00  1.71342E+01  3.02077E+01
   4.51932E+01  6.03169E+01  7.21112E+01  7.41136E+01  5.90566E+01  4.34144E+01  2.53785E+01  1.28421E+01  6.65892E+00  5.93563E+00
   3.81674E+00 -4.16541E+00  1.47237E-01  1.23924E+00  6.15342E-01 -2.79943E+00 -3.95277E+00 -1.98749E+00  5.65843E+00  7.26563E+00
   1.52539E+00  1.55109E+01  8.65095E+00  3.85763E+01  4.63360E+01  6.10666E+01  7.17781E+01  7.07425E+01  7.51518E+01  5.57728E+01
   3.96729E+01  1.66745E+01  5.44977E+00  2.40258E+00 -1.51945E+00 -1.24382E+00 -2.65624E+00 -9.32192E+00 -6.76829E+00 -2.31449E+00
  -2.34663E+00  1.01994E-01 -2.42952E+00 -6.46465E-01  1.33141E+00 -1.71362E+00 -6.92246E+00 -1.03587E+01 -9.15759E+00  1.59723E+00
  -5.26802E+00 -6.75651E+00 -6.46746E+00 -9.30806E+00 -1.09025E+01 -3.46306E+00 -4.16606E+00 -8.61279E+00 -1.12206E+01 -6.06554E+00
  -7.52353E+00 -5.48003E+00 -1.20945E+01 -6.44296E+00 -2.65073E+00 -9.84356E-01 -8.19528E-01 -6.67819E+00 -1.34262E+01 -1.74378E+01
  -1.24085E+01 -1.96290E+01 -2.44524E+01 -2.35723E+01 -2.46581E+01 -2.61975E+01 -2.05591E+01 -2.51467E+01 -2.33952E+01 -2.51686E+01
  -2.41096E+01 -2.26485E+01 -1.68324E+01 -1.72161E+01 -1.93047E+01 -2.36139E+01 -1.28623E+01 -1.54555E+01 -1.27084E+01 -5.60560E+00
  -7.38363E+00 -9.08225E+00 -2.07163E-01 -1.13843E+00 -2.51167E+00 -7.72331E+00 -8.27070E+00 -1.27782E+01 -1.29534E+01 -1.18178E+01
  -1.21011E+01 -1.09221E+01 -7.74285E+00  1.04978E+00 -3.55132E+00 -5.66641E+00 -3.83633E-01 -1.13761E+01 -7.13567E+00 -1.88844E+01
  -1.39992E+01 -6.24147E+00 -4.21108E+00  7.02302E+00  5.15833E+00  7.49570E+00  1.57503E+01  3.68783E+00  2.98626E+00 -1.01468E+01
  -1.42281E+01 -1.33873E+01 -1.13419E+01 -1.07758E+01 -5.90520E+00  6.49617E-01  6.27342E+00  9.88542E+00  7.24008E+00  3.37316E+00
   5.12983E+00  6.38056E+00 -2.50152E+00 -2.54251E+00  1.94883E+00  5.83956E+00  3.00199E+00  5.47385E-01  9.28769E-01 -3.51509E+00
  -3.37349E+00 -2.45282E-01 -6.52370E-01  2.50156E+00  2.91663E+00  1.34517E+01  1.13116E+01  1.52294E+01  8.56971E+00  5.32539E+00
   2.57113E+01  2.58958E+01  3.07445E+01  2.73992E+01  2.87183E+01  2.89882E+01  5.78033E+01  8.83679E+01  1.01823E+02  1.09663E+02
   1.12112E+02  9.62737E+01  8.10444E+01  5.37096E+01  3.04482E+01  1.96376E+01  1.44121E+01  5.38143E+00  9.40026E-01  3.25424E+00
   6.89526E+00  2.89903E+00  1.27867E+01  6.44041E+00  5.40297E+00 -3.99562E-01  2.49768E+00 -1.12607E-01  2.68289E+00 -4.81189E+00
   5.68214E-01 -4.66859E+00  2.98369E+00 -2.87528E+00 -5.24333E+00 -5.54375E+00 -1.85438E+00 -1.67648E+00 -3.42829E+00 -7.16735E+00
  -3.82939E+00 -2.29973E+00 -4.69918E+00 -5.14360E+00 -1.19837E+01 -1.14154E+01 -6.21818E+00 -3.72426E+00 -8.10166E+00 -5.42356E+00
  -6.44234E+00 -8.94160E+00 -1.34438E+01 -5.91296E+00 -9.03302E+00 -9.16700E+00 -1.54801E+00 -3.27076E+00 -4.70074E+00 -2.20232E+00
   1.76083E+00 -2.31936E+00 -6.03374E+00 -5.01651E+00 -5.15207E+00 -4.87211E+00 -3.04060E+00 -3.66670E+00 -1.01826E+00 -9.78544E-01
  -3.41964E+00 -3.77285E+00  8.31283E+00 -2.86541E+00 -4.91219E+00  9.64496E-01 -2.22211E+00  1.84886E+00  7.24693E+00  8.65383E+00
   2.62443E+00  7.04844E+00  1.56830E+01  9.67402E+00  1.47841E+01  8.52980E+00  1.77192E+01  1.28198E+01  1.14885E+01  1.93482E+01
   5.21722E+00  1.62420E+01  1.87753E+01  1.21191E+01  1.20891E+01  1.69757E+01  1.23086E+01  1.62856E+01  1.64607E+01  1.85152E+01
   4.95318E+00  1.61242E+01  1.46902E+01  1.24842E+01  1.28018E+01  1.39317E+01  1.61639E+01  9.04690E+00  1.20001E+01  1.82444E+01
   1.04789E+01  1.94298E+01  1.84915E+01  7.66925E+00  3.35352E+00  1.04087E+01  1.21740E+01  9.82759E+00  1.06429E+01  1.01565E+01
   1.74125E+01  1.34034E+01  8.79288E+00  4.37261E+00  1.45794E+01  3.50597E+00  2.02040E+00  1.20580E+01  3.85411E+00  3.72528E+00
   1.04957E+01  6.67622E+00  6.91590E+00  3.48417E+00  2.81886E+00 -2.17448E+00 -8.83483E-02  1.18713E+01  1.37977E+00  9.01366E+00
   6.56351E+00  2.64375E+00  1.24321E+01  7.02384E+00  1.10748E+01  8.55907E+00  1.20349E+01  1.16285E+01  1.06456E+01  1.36808E+01
   1.19034E+01  1.55256E+01  2.10471E+01  1.58633E+01  1.64028E+01  1.81489E+01  2.11760E+01  1.65070E+01  1.68374E+01  1.62898E+01
   1.70663E+01  1.46655E+01  1.52356E+01  1.81099E+01  1.85890E+01  1.09542E+01  1.19288E+01  9.14763E+00  1.08196E+01  1.57383E+01
   1.24469E+01  6.79435E+00  1.02962E+01  1.07620E+01  1.01639E+01  7.01937E+00  5.80971E+00  4.34372E+00  8.40499E+00  2.94475E+00
   5.16202E+00  1.08769E+01  6.53708E+00  4.40498E+00  6.94145E+00  1.01315E+00  7.89066E+00  2.64072E+00  5.37723E+00  7.19316E+00
   5.90911E+00  4.24600E+00  2.03660E+00  6.56085E+00  6.12201E+00  1.52103E+00  5.29136E+00  4.44163E+00  2.24983E+00  7.53138E+00
   2.87304E+00  8.81759E+00  5.38844E+00  4.15873E+00  9.07917E+00  7.42750E+00  5.62653E+00  5.39867E+00  9.49734E+00  5.10676E+00
   4.76682E+00  5.47786E+00 -5.62322E-01  7.99532E+00  4.36335E+00  1.18758E+01  7.35897E+00  1.02379E+01  4.64885E+00  1.29320E+01
   6.71322E+00  6.11755E+00  6.00937E+00  1.07489E+01  7.93512E+00  9.51741E+00  5.83229E+00  3.26285E+00  1.00532E+01  1.27345E+01
   8.29268E+00  3.69930E+00  7.41347E-01  1.07635E+01  8.37939E+00  7.51420E+00  2.53602E+00  3.95328E+00  8.25107E+00  4.60890E+00
   6.65951E+00  7.15273E+00 -1.32280E+00  4.37392E-01  6.35489E+00  5.34644E+00  2.60502E+00  4.52247E+00
 NY points of the fit to the data follow
  -6.55918E+00 -6.38972E+00 -5.54623E+00 -3.44086E+00  1.28544E-01  6.58554E+00  1.51406E+01  2.46273E+01  3.43418E+01  4.06497E+01
   4.27997E+01  4.06957E+01  3.42343E+01  2.52880E+01  1.61888E+01  8.71110E+00  3.92553E+00  1.56688E+00 -6.18865E-02 -1.48558E+00
  -2.42737E+00 -3.07097E+00 -3.65453E+00 -4.00944E+00 -3.79192E+00 -2.68579E+00  6.64423E-01  4.66613E+00  8.48972E+00  1.22680E+01
   1.47444E+01  1.52486E+01  1.31699E+01  9.09786E+00  4.70708E+00  1.03560E+00 -1.68358E+00 -3.77787E+00 -4.69604E+00 -4.31406E+00
  -3.25446E+00 -1.64197E+00  8.80972E-01  4.19729E+00  7.33689E+00  9.54952E+00  1.06627E+01  1.03174E+01  8.36940E+00  4.96109E+00
   8.72605E-01 -2.50116E+00 -4.32606E+00 -4.93818E+00 -4.92873E+00 -4.19838E+00 -3.00856E+00 -1.83913E+00 -9.89855E-01 -7.74005E-01
  -1.22090E+00 -2.28274E+00 -3.82918E+00 -5.31247E+00 -6.30239E+00 -6.52494E+00 -6.13982E+00 -5.32752E+00 -4.31851E+00 -3.53590E+00
  -3.08339E+00 -2.96352E+00 -3.14092E+00 -3.54873E+00 -4.12157E+00 -4.71115E+00 -5.15336E+00 -5.37868E+00 -5.51960E+00 -5.64472E+00
  -5.72356E+00 -5.80833E+00 -6.00610E+00 -6.39978E+00 -7.14479E+00 -8.05046E+00 -8.91225E+00 -9.61528E+00 -9.96228E+00 -9.78687E+00
  -9.00186E+00 -7.87816E+00 -6.69628E+00 -5.88450E+00 -5.46190E+00 -4.95529E+00 -2.91307E+00  3.38478E+00  1.40390E+01  3.17621E+01
   4.97201E+01  6.30828E+01  7.14452E+01  7.15738E+01  6.23608E+01  4.59142E+01  2.67375E+01  1.14075E+01  3.44210E+00 -2.36137E-01
  -3.24153E+00 -4.85740E+00 -5.31659E+00 -5.44989E+00 -5.47371E+00 -5.44032E+00 -5.38073E+00 -5.23978E+00 -4.92780E+00 -4.24292E+00
  -2.21924E+00  3.96215E+00  1.41979E+01  3.11799E+01  5.00542E+01  6.41085E+01  7.33955E+01  7.55162E+01  6.85278E+01  5.39993E+01
   3.56602E+01  1.93318E+01  9.59893E+00  4.57200E+00 -1.10978E-01 -3.79301E+00 -5.54176E+00 -6.04747E+00 -5.28766E+00 -3.88528E+00
  -2.58641E+00 -1.78737E+00 -1.63387E+00 -2.10770E+00 -2.95874E+00 -3.84155E+00 -4.59436E+00 -5.16361E+00 -5.64397E+00 -6.13396E+00
  -6.59899E+00 -7.04671E+00 -7.38557E+00 -7.57104E+00 -7.65907E+00 -7.78805E+00 -8.02503E+00 -8.59640E+00 -9.22439E+00 -9.67977E+00
  -1.00228E+01 -9.95863E+00 -9.75883E+00 -9.55742E+00 -9.39344E+00 -9.63205E+00 -1.04159E+01 -1.14155E+01 -1.22524E+01 -1.28169E+01
  -1.32199E+01 -1.37002E+01 -1.43902E+01 -1.49910E+01 -1.51991E+01 -1.53109E+01 -1.52511E+01 -1.50964E+01 -1.48068E+01 -1.45112E+01
  -1.45151E+01 -1.49698E+01 -1.53774E+01 -1.54444E+01 -1.49149E+01 -1.38177E+01 -1.22888E+01 -1.02348E+01 -7.77471E+00 -5.51294E+00
  -4.07248E+00 -3.77173E+00 -4.67654E+00 -6.22779E+00 -8.11009E+00 -9.56854E+00 -1.02307E+01 -1.00870E+01 -9.10436E+00 -7.42420E+00
  -5.19259E+00 -3.05695E+00 -1.55084E+00 -1.08794E+00 -1.86520E+00 -3.43490E+00 -6.12334E+00 -9.21891E+00 -1.16094E+01 -1.30719E+01
  -1.25788E+01 -1.01691E+01 -6.00467E+00 -1.31697E+00  2.28700E+00  4.15605E+00  3.53366E+00  2.21985E-01 -5.34386E+00 -1.15558E+01
  -1.60075E+01 -1.74017E+01 -1.63149E+01 -1.32689E+01 -8.61832E+00 -3.54875E+00  5.33888E-01  2.54381E+00  2.58608E+00  2.02444E+00
   1.54659E+00  1.37200E+00  1.76316E+00  3.01648E+00  4.80423E+00  6.24189E+00  6.82257E+00  6.32713E+00  5.23243E+00  3.64992E+00
   2.30536E+00  1.94385E+00  2.91195E+00  4.92235E+00  7.46609E+00  9.97682E+00  1.19057E+01  1.29682E+01  1.31479E+01  1.31831E+01
   1.39981E+01  1.56882E+01  1.86316E+01  2.27757E+01  3.09212E+01  4.30911E+01  6.20486E+01  8.40370E+01  9.93121E+01  1.08635E+02
   1.10183E+02  1.00909E+02  8.17210E+01  5.67085E+01  3.38693E+01  2.01968E+01  1.40282E+01  9.19085E+00  5.35739E+00  3.69420E+00
   2.76869E+00  2.10107E+00  1.63595E+00  1.31157E+00  9.76422E-01  5.63214E-01  2.00057E-02 -6.53467E-01 -1.33478E+00 -1.91697E+00
  -2.39878E+00 -2.81099E+00 -3.15548E+00 -3.43501E+00 -3.67794E+00 -3.92269E+00 -4.17799E+00 -4.41959E+00 -4.61664E+00 -4.77271E+00
  -4.89183E+00 -4.97320E+00 -5.02594E+00 -5.06709E+00 -5.10699E+00 -5.15317E+00 -5.19614E+00 -5.22508E+00 -5.23678E+00 -5.22740E+00
  -5.19398E+00 -5.13904E+00 -5.06667E+00 -4.98366E+00 -4.89461E+00 -4.79706E+00 -4.68765E+00 -4.56534E+00 -4.42669E+00 -4.26835E+00
  -4.08894E+00 -3.88593E+00 -3.65670E+00 -3.39878E+00 -3.10952E+00 -2.78572E+00 -2.42424E+00 -2.02198E+00 -1.57685E+00 -1.08715E+00
  -5.51804E-01  2.99864E-02  6.57773E-01  1.33004E+00  2.04362E+00  2.79435E+00  3.57676E+00  4.38455E+00  5.20995E+00  6.04433E+00
   6.87803E+00  7.70148E+00  8.50514E+00  9.28025E+00  1.00185E+01  1.07131E+01  1.13586E+01  1.19523E+01  1.24946E+01  1.29904E+01
   1.34537E+01  1.39126E+01  1.43438E+01  1.47392E+01  1.50144E+01  1.50636E+01  1.49510E+01  1.46813E+01  1.42715E+01  1.38598E+01
   1.35490E+01  1.35167E+01  1.37709E+01  1.41084E+01  1.44194E+01  1.46633E+01  1.47724E+01  1.46754E+01  1.43644E+01  1.39150E+01
   1.34486E+01  1.30044E+01  1.25347E+01  1.20397E+01  1.15368E+01  1.10218E+01  1.04957E+01  9.96336E+00  9.43042E+00  8.90331E+00
   8.38842E+00  7.89241E+00  7.42144E+00  6.98135E+00  6.57707E+00  6.21322E+00  5.89372E+00  5.62235E+00  5.40216E+00  5.23594E+00
   5.12584E+00  5.07408E+00  5.08258E+00  5.15348E+00  5.28845E+00  5.48915E+00  5.75670E+00  6.09228E+00  6.49638E+00  6.96902E+00
   7.50890E+00  8.11363E+00  8.77908E+00  9.49974E+00  1.02679E+01  1.10742E+01  1.19063E+01  1.27505E+01  1.35909E+01  1.44105E+01
   1.51913E+01  1.59149E+01  1.65633E+01  1.71196E+01  1.75689E+01  1.78994E+01  1.81019E+01  1.81715E+01  1.81066E+01  1.79103E+01
   1.75892E+01  1.71536E+01  1.66168E+01  1.59944E+01  1.53030E+01  1.45608E+01  1.37855E+01  1.29944E+01  1.22031E+01  1.14257E+01
   1.06741E+01  9.95806E+00  9.28501E+00  8.66034E+00  8.08700E+00  7.56640E+00  7.09824E+00  6.68134E+00  6.31333E+00  5.99134E+00
   5.71174E+00  5.47097E+00  5.26526E+00  5.09123E+00  4.94537E+00  4.82453E+00  4.72557E+00  4.64594E+00  4.58321E+00  4.53549E+00
   4.50082E+00  4.47762E+00  4.46428E+00  4.45974E+00  4.46288E+00  4.47297E+00  4.48904E+00  4.51042E+00  4.53635E+00  4.56649E+00
   4.60033E+00  4.63761E+00  4.67777E+00  4.72056E+00  4.76559E+00  4.81284E+00  4.86203E+00  4.91309E+00  4.96562E+00  5.01957E+00
   5.07472E+00  5.13117E+00  5.18872E+00  5.24735E+00  5.30675E+00  5.36698E+00  5.42791E+00  5.48968E+00  5.55209E+00  5.61513E+00
   5.67857E+00  5.74256E+00  5.80699E+00  5.87202E+00  5.93742E+00  6.00322E+00  6.06924E+00  6.13565E+00  6.20238E+00  6.26953E+00
   6.33689E+00  6.40451E+00  6.47227E+00  6.54038E+00  6.60874E+00  6.67743E+00  6.74624E+00  6.81526E+00  6.88442E+00  6.95393E+00
   7.02366E+00  7.09368E+00  7.16379E+00  7.23415E+00  7.30471E+00  7.37567E+00  7.44688E+00  7.51842E+00
 NY background values follow
    -1.025E+01   -1.022E+01   -1.019E+01   -1.016E+01   -1.014E+01   -1.011E+01   -1.008E+01   -1.005E+01   -1.002E+01   -9.996E+00
    -9.968E+00   -9.940E+00   -9.913E+00   -9.885E+00   -9.858E+00   -9.831E+00   -9.804E+00   -9.777E+00   -9.751E+00   -9.724E+00
    -9.698E+00   -9.672E+00   -9.647E+00   -9.622E+00   -9.597E+00   -9.572E+00   -9.547E+00   -9.523E+00   -9.499E+00   -9.476E+00
    -9.453E+00   -9.430E+00   -9.408E+00   -9.386E+00   -9.364E+00   -9.343E+00   -9.323E+00   -9.302E+00   -9.283E+00   -9.264E+00
    -9.245E+00   -9.226E+00   -9.209E+00   -9.192E+00   -9.175E+00   -9.159E+00   -9.143E+00   -9.128E+00   -9.114E+00   -9.100E+00
    -9.087E+00   -9.074E+00   -9.062E+00   -9.050E+00   -9.039E+00   -9.028E+00   -9.018E+00   -9.008E+00   -8.999E+00   -8.991E+00
    -8.983E+00   -8.975E+00   -8.968E+00   -8.961E+00   -8.955E+00   -8.949E+00   -8.944E+00   -8.940E+00   -8.935E+00   -8.931E+00
    -8.928E+00   -8.925E+00   -8.923E+00   -8.921E+00   -8.919E+00   -8.918E+00   -8.917E+00   -8.917E+00   -8.917E+00   -8.917E+00
    -8.918E+00   -8.919E+00   -8.921E+00   -8.923E+00   -8.925E+00   -8.928E+00   -8.931E+00   -8.935E+00   -8.939E+00   -8.943E+00
    -8.947E+00   -8.952E+00   -8.957E+00   -8.963E+00   -8.969E+00   -8.975E+00   -8.982E+00   -8.989E+00   -8.996E+00   -9.004E+00
    -9.012E+00   -9.020E+00   -9.029E+00   -9.038E+00   -9.048E+00   -9.058E+00   -9.068E+00   -9.079E+00   -9.090E+00   -9.101E+00
    -9.113E+00   -9.125E+00   -9.138E+00   -9.151E+00   -9.165E+00   -9.178E+00   -9.193E+00   -9.207E+00   -9.222E+00   -9.238E+00
    -9.254E+00   -9.270E+00   -9.287E+00   -9.304E+00   -9.321E+00   -9.339E+00   -9.358E+00   -9.377E+00   -9.396E+00   -9.416E+00
    -9.436E+00   -9.456E+00   -9.478E+00   -9.499E+00   -9.521E+00   -9.543E+00   -9.566E+00   -9.590E+00   -9.613E+00   -9.637E+00
    -9.662E+00   -9.687E+00   -9.712E+00   -9.737E+00   -9.763E+00   -9.788E+00   -9.814E+00   -9.840E+00   -9.866E+00   -9.893E+00
    -9.919E+00   -9.945E+00   -9.971E+00   -9.997E+00   -1.002E+01   -1.005E+01   -1.007E+01   -1.010E+01   -1.013E+01   -1.015E+01
    -1.018E+01   -1.020E+01   -1.022E+01   -1.025E+01   -1.027E+01   -1.029E+01   -1.032E+01   -1.034E+01   -1.036E+01   -1.038E+01
    -1.040E+01   -1.042E+01   -1.044E+01   -1.046E+01   -1.048E+01   -1.049E+01   -1.051E+01   -1.052E+01   -1.054E+01   -1.055E+01
    -1.057E+01   -1.058E+01   -1.059E+01   -1.060E+01   -1.061E+01   -1.061E+01   -1.062E+01   -1.063E+01   -1.063E+01   -1.064E+01
    -1.064E+01   -1.064E+01   -1.064E+01   -1.065E+01   -1.065E+01   -1.065E+01   -1.064E+01   -1.064E+01   -1.064E+01   -1.064E+01
    -1.063E+01   -1.063E+01   -1.062E+01   -1.062E+01   -1.061E+01   -1.060E+01   -1.059E+01   -1.059E+01   -1.058E+01   -1.057E+01
    -1.056E+01   -1.055E+01   -1.053E+01   -1.052E+01   -1.051E+01   -1.050E+01   -1.048E+01   -1.047E+01   -1.046E+01   -1.044E+01
    -1.043E+01   -1.041E+01   -1.040E+01   -1.038E+01   -1.036E+01   -1.035E+01   -1.033E+01   -1.031E+01   -1.029E+01   -1.028E+01
    -1.026E+01   -1.024E+01   -1.022E+01   -1.020E+01   -1.018E+01   -1.016E+01   -1.014E+01   -1.012E+01   -1.010E+01   -1.008E+01
    -1.006E+01   -1.004E+01   -1.001E+01   -9.990E+00   -9.967E+00   -9.944E+00   -9.920E+00   -9.896E+00   -9.872E+00   -9.847E+00
    -9.821E+00   -9.796E+00   -9.770E+00   -9.743E+00   -9.716E+00   -9.689E+00   -9.662E+00   -9.634E+00   -9.605E+00   -9.576E+00
    -9.547E+00   -9.517E+00   -9.487E+00   -9.457E+00   -9.426E+00   -9.394E+00   -9.362E+00   -9.330E+00   -9.297E+00   -9.264E+00
    -9.231E+00   -9.197E+00   -9.162E+00   -9.127E+00   -9.092E+00   -9.056E+00   -9.020E+00   -8.983E+00   -8.945E+00   -8.908E+00
    -8.869E+00   -8.831E+00   -8.791E+00   -8.752E+00   -8.711E+00   -8.671E+00   -8.629E+00   -8.588E+00   -8.545E+00   -8.503E+00
    -8.459E+00   -8.416E+00   -8.371E+00   -8.326E+00   -8.281E+00   -8.235E+00   -8.189E+00   -8.142E+00   -8.094E+00   -8.046E+00
    -7.997E+00   -7.948E+00   -7.898E+00   -7.848E+00   -7.797E+00   -7.746E+00   -7.694E+00   -7.641E+00   -7.588E+00   -7.534E+00
    -7.480E+00   -7.425E+00   -7.369E+00   -7.313E+00   -7.256E+00   -7.199E+00   -7.141E+00   -7.082E+00   -7.023E+00   -6.964E+00
    -6.903E+00   -6.842E+00   -6.781E+00   -6.719E+00   -6.656E+00   -6.593E+00   -6.529E+00   -6.465E+00   -6.400E+00   -6.335E+00
    -6.269E+00   -6.202E+00   -6.136E+00   -6.068E+00   -6.000E+00   -5.932E+00   -5.863E+00   -5.794E+00   -5.724E+00   -5.654E+00
    -5.584E+00   -5.513E+00   -5.441E+00   -5.369E+00   -5.297E+00   -5.224E+00   -5.151E+00   -5.078E+00   -5.004E+00   -4.930E+00
    -4.855E+00   -4.780E+00   -4.705E+00   -4.630E+00   -4.554E+00   -4.477E+00   -4.401E+00   -4.324E+00   -4.247E+00   -4.169E+00
    -4.091E+00   -4.013E+00   -3.935E+00   -3.856E+00   -3.778E+00   -3.698E+00   -3.619E+00   -3.539E+00   -3.460E+00   -3.379E+00
    -3.299E+00   -3.218E+00   -3.137E+00   -3.056E+00   -2.975E+00   -2.893E+00   -2.811E+00   -2.729E+00   -2.647E+00   -2.564E+00
    -2.481E+00   -2.398E+00   -2.315E+00   -2.232E+00   -2.148E+00   -2.064E+00   -1.980E+00   -1.895E+00   -1.811E+00   -1.726E+00
    -1.641E+00   -1.556E+00   -1.471E+00   -1.385E+00   -1.299E+00   -1.213E+00   -1.127E+00   -1.041E+00   -9.540E-01   -8.672E-01
    -7.802E-01   -6.931E-01   -6.058E-01   -5.183E-01   -4.306E-01   -3.428E-01   -2.548E-01   -1.666E-01   -7.822E-02    1.028E-02
     9.893E-02    1.877E-01    2.766E-01    3.656E-01    4.547E-01    5.439E-01    6.332E-01    7.225E-01    8.119E-01    9.013E-01
     9.908E-01    1.080E+00    1.170E+00    1.259E+00    1.349E+00    1.438E+00    1.528E+00    1.617E+00    1.706E+00    1.795E+00
     1.885E+00    1.974E+00    2.063E+00    2.151E+00    2.240E+00    2.329E+00    2.417E+00    2.505E+00    2.594E+00    2.681E+00
     2.769E+00    2.857E+00    2.944E+00    3.031E+00    3.118E+00    3.204E+00    3.291E+00    3.377E+00    3.463E+00    3.548E+00
     3.633E+00    3.718E+00    3.803E+00    3.887E+00    3.971E+00    4.054E+00    4.138E+00    4.221E+00    4.303E+00    4.385E+00
     4.468E+00    4.549E+00    4.631E+00    4.712E+00    4.793E+00    4.874E+00    4.954E+00    5.034E+00    5.114E+00    5.194E+00
     5.273E+00    5.353E+00    5.432E+00    5.510E+00    5.589E+00    5.668E+00    5.746E+00    5.824E+00    5.902E+00    5.980E+00
     6.057E+00    6.135E+00    6.212E+00    6.289E+00    6.366E+00    6.443E+00    6.520E+00    6.596E+00    6.673E+00    6.749E+00
     6.825E+00    6.902E+00    6.978E+00    7.054E+00    7.130E+00    7.206E+00    7.281E+00    7.357E+00
 Cr       Conc. = 1.22E+03
