 LCModel (Version 6.3-1L) Copyright: S.W. Provencher.          Ref.: Magn. Reson. Med. 30:672-679 (1993).                
 Slice#2 Row#10 Col#13  K_02_press_1_raw_act
 36 lines in following concentration table = NCONC+1
    Conc.  %SD /Cr+PCr  Metabolite                                         
   31.087 137%   0.000 Ala                                                 
   24.919  85%   0.000 Asp                                                 
    0.000 999%   0.000 Cr                                                  
    0.000 999%   0.000 PCr                                                 
   10.730 118%   0.000 GABA                                                
   13.559  94%   0.000 Glc                                                 
    0.000 999%   0.000 Gln                                                 
  253.292  38%   0.000 Glu                                                 
    0.000 999%   0.000 GPC                                                 
    0.000 999%   0.000 PCh                                                 
   31.556  83%   0.000 GSH                                                 
  212.895  38%   0.000 Ins                                                 
  113.429  55%   0.000 Lac                                                 
  371.674  12%   0.000 NAA                                                 
   32.265 163%   0.000 NAAG                                                
    1.031 383%   0.000 Scyllo                                              
   10.073 205%   0.000 Tau                                                 
    0.000 999%   0.000 -CrCH2                                              
    0.000 999%   0.000 GPC+PCh                                             
  403.940   8%   0.000 NAA+NAAG                                            
    0.000 999%   0.000 Cr+PCr                                              
  253.292  38%   0.000 Glu+Gln                                             
 8.48E+03   7%   0.000 Lip13a                                              
  444.486  20%   0.000 Lip13b                                              
    0.000 999%   0.000 Lip09                                               
  583.198  20%   0.000 MM09                                                
  757.721  28%   0.000 Lip20                                               
  602.541  30%   0.000 MM20                                                
  192.750  45%   0.000 MM12                                                
  671.095  39%   0.000 MM14                                                
  445.121  29%   0.000 MM17                                                
 8.92E+03   7%   0.000 Lip13a+Lip13b                                       
 9.78E+03   5%   0.000 MM14+Lip13a+Lip13b+MM12                             
  583.198  20%   0.000 MM09+Lip09                                          
 1.36E+03  13%   0.000 MM20+Lip20                                          
   6 lines in following misc. output table
  FWHM = 0.046 ppm    S/N =  12                                            
  Data shift =-0.023 ppm                                                   
  Ph:  69 deg      26.9 deg/ppm                                            
  alphaB,S = 8.5E+01,   4.6E+01                                            
   14 spline knots.   Ns = 6(1)                                            
   2 inflections.     1 extrema                                            
  498 points on ppm-axis = NY
      4.000000     3.992357     3.984714     3.977070     3.969427     3.961784     3.954141     3.946497     3.938854     3.931211
      3.923568     3.915925     3.908281     3.900638     3.892995     3.885352     3.877708     3.870065     3.862422     3.854779
      3.847136     3.839492     3.831849     3.824206     3.816563     3.808919     3.801276     3.793633     3.785990     3.778347
      3.770703     3.763060     3.755417     3.747774     3.740130     3.732487     3.724844     3.717201     3.709558     3.701914
      3.694271     3.686628     3.678985     3.671341     3.663698     3.656055     3.648412     3.640769     3.633125     3.625482
      3.617839     3.610196     3.602552     3.594909     3.587266     3.579623     3.571980     3.564336     3.556693     3.549050
      3.541407     3.533763     3.526120     3.518477     3.510834     3.503191     3.495547     3.487904     3.480261     3.472618
      3.464974     3.457331     3.449688     3.442045     3.434402     3.426758     3.419115     3.411472     3.403829     3.396185
      3.388542     3.380899     3.373256     3.365613     3.357969     3.350326     3.342683     3.335040     3.327396     3.319753
      3.312110     3.304467     3.296824     3.289180     3.281537     3.273894     3.266251     3.258607     3.250964     3.243321
      3.235678     3.228034     3.220391     3.212748     3.205105     3.197462     3.189818     3.182175     3.174532     3.166889
      3.159245     3.151602     3.143959     3.136316     3.128673     3.121029     3.113386     3.105743     3.098100     3.090456
      3.082813     3.075170     3.067527     3.059884     3.052240     3.044597     3.036954     3.029311     3.021667     3.014024
      3.006381     2.998738     2.991095     2.983451     2.975808     2.968165     2.960522     2.952878     2.945235     2.937592
      2.929949     2.922306     2.914662     2.907019     2.899376     2.891733     2.884089     2.876446     2.868803     2.861160
      2.853517     2.845873     2.838230     2.830587     2.822944     2.815300     2.807657     2.800014     2.792371     2.784728
      2.777084     2.769441     2.761798     2.754155     2.746511     2.738868     2.731225     2.723582     2.715939     2.708295
      2.700652     2.693009     2.685366     2.677722     2.670079     2.662436     2.654793     2.647150     2.639506     2.631863
      2.624220     2.616577     2.608933     2.601290     2.593647     2.586004     2.578361     2.570717     2.563074     2.555431
      2.547788     2.540144     2.532501     2.524858     2.517215     2.509572     2.501928     2.494285     2.486642     2.478999
      2.471355     2.463712     2.456069     2.448426     2.440783     2.433139     2.425496     2.417853     2.410210     2.402566
      2.394923     2.387280     2.379637     2.371994     2.364350     2.356707     2.349064     2.341421     2.333777     2.326134
      2.318491     2.310848     2.303205     2.295561     2.287918     2.280275     2.272632     2.264988     2.257345     2.249702
      2.242059     2.234416     2.226772     2.219129     2.211486     2.203843     2.196199     2.188556     2.180913     2.173270
      2.165627     2.157983     2.150340     2.142697     2.135054     2.127410     2.119767     2.112124     2.104481     2.096838
      2.089194     2.081551     2.073908     2.066265     2.058621     2.050978     2.043335     2.035692     2.028049     2.020405
      2.012762     2.005119     1.997476     1.989833     1.982190     1.974546     1.966903     1.959260     1.951617     1.943974
      1.936331     1.928688     1.921045     1.913402     1.905759     1.898115     1.890472     1.882829     1.875186     1.867543
      1.859900     1.852257     1.844614     1.836971     1.829327     1.821684     1.814041     1.806398     1.798755     1.791112
      1.783469     1.775826     1.768183     1.760540     1.752896     1.745253     1.737610     1.729967     1.722324     1.714681
      1.707038     1.699395     1.691752     1.684108     1.676465     1.668822     1.661179     1.653536     1.645893     1.638250
      1.630607     1.622964     1.615321     1.607677     1.600034     1.592391     1.584748     1.577105     1.569462     1.561819
      1.554176     1.546533     1.538890     1.531246     1.523603     1.515960     1.508317     1.500674     1.493031     1.485388
      1.477745     1.470102     1.462458     1.454815     1.447172     1.439529     1.431886     1.424243     1.416600     1.408957
      1.401314     1.393671     1.386027     1.378384     1.370741     1.363098     1.355455     1.347812     1.340169     1.332526
      1.324883     1.317240     1.309596     1.301953     1.294310     1.286667     1.279024     1.271381     1.263738     1.256095
      1.248452     1.240808     1.233165     1.225522     1.217879     1.210236     1.202593     1.194950     1.187307     1.179664
      1.172021     1.164377     1.156734     1.149091     1.141448     1.133805     1.126162     1.118519     1.110876     1.103233
      1.095590     1.087946     1.080303     1.072660     1.065017     1.057374     1.049731     1.042088     1.034445     1.026802
      1.019158     1.011515     1.003872     0.996229     0.988586     0.980943     0.973300     0.965657     0.958014     0.950371
      0.942727     0.935084     0.927441     0.919798     0.912155     0.904512     0.896869     0.889226     0.881583     0.873940
      0.866296     0.858653     0.851010     0.843367     0.835724     0.828081     0.820438     0.812795     0.805152     0.797508
      0.789865     0.782222     0.774579     0.766936     0.759293     0.751650     0.744007     0.736364     0.728721     0.721077
      0.713434     0.705791     0.698148     0.690505     0.682862     0.675219     0.667576     0.659933     0.652290     0.644646
      0.637003     0.629360     0.621717     0.614074     0.606431     0.598788     0.591145     0.583502     0.575858     0.568215
      0.560572     0.552929     0.545286     0.537643     0.530000     0.522357     0.514714     0.507071     0.499427     0.491784
      0.484141     0.476498     0.468855     0.461212     0.453569     0.445925     0.438282     0.430639     0.422996     0.415353
      0.407710     0.400067     0.392424     0.384780     0.377137     0.369494     0.361851     0.354208     0.346565     0.338922
      0.331278     0.323635     0.315992     0.308349     0.300706     0.293063     0.285420     0.277777     0.270133     0.262490
      0.254847     0.247204     0.239561     0.231918     0.224275     0.216631     0.208988     0.201345
 NY phased data points follow
   7.85817E+00  7.27027E+00  8.25381E+00  6.31096E+00  5.88540E+00  9.06195E+00  4.85113E+00  8.21346E+00  6.96786E+00  6.86218E+00
   5.83163E+00  4.81887E+00  8.35256E+00  6.24655E+00  6.20807E+00  6.11063E+00  6.23007E+00  8.46785E+00  7.59200E+00  6.94111E+00
   6.72733E+00  8.05842E+00  6.42306E+00  6.93026E+00  6.56061E+00  6.23623E+00  5.52494E+00  6.73338E+00  7.69392E+00  4.82676E+00
   7.47366E+00  5.90997E+00  6.90154E+00  6.02980E+00  6.62134E+00  6.11876E+00  4.75065E+00  5.70465E+00  4.93568E+00  8.32134E+00
   3.82118E+00  3.99302E+00  6.03517E+00  2.34662E+00  5.68632E+00  4.23582E+00  5.50128E+00  4.94927E+00  4.06782E+00  3.76173E+00
   6.27971E+00  5.59636E+00  4.50843E+00  3.38824E+00  3.49610E+00  5.54810E+00  6.80971E+00  2.57771E+00  6.78559E+00  5.46920E+00
   4.32401E+00  6.46440E+00  4.49634E+00  5.05955E+00  5.37330E+00  7.22868E+00  3.99846E+00  5.30243E+00  5.98780E+00  5.84926E+00
   3.76422E+00  5.14955E+00  5.91768E+00  5.85701E+00  4.66358E+00  5.04004E+00  2.22162E+00  5.01903E+00  1.80548E+00  6.50465E+00
   4.03300E+00  4.24585E+00  5.61314E+00  3.91037E+00  5.05545E+00  4.13462E+00  5.98763E-01  2.20983E+00  3.87217E+00  2.71344E+00
   1.05395E+00  2.74684E+00  1.79800E+00  4.33838E+00  6.13502E+00  2.54695E+00  4.11408E+00  1.72164E+00  2.39116E+00  3.15525E+00
   1.53116E+00  3.60835E+00  4.09793E+00  2.60548E+00  2.80952E+00  1.13316E-01  1.43855E+00  4.28569E+00  4.25104E+00  4.88886E+00
   4.38692E+00  4.97930E+00  4.25144E+00  3.09628E+00  6.87462E+00  1.90876E+00  2.13806E+00  2.76010E+00  3.36695E+00  2.81352E+00
   2.07187E+00  1.47449E+00  2.56325E+00  2.29199E+00  1.29795E+00  3.75900E+00  3.10314E+00  4.43954E+00  9.52136E-01  7.70023E-01
   2.88297E+00  3.65140E+00  4.28756E+00  5.10224E+00  3.09426E+00  5.06564E+00  3.44304E+00  3.11551E+00  6.12551E+00  2.72928E+00
   4.11132E+00  3.82886E+00  2.27618E+00  4.24481E+00  2.22509E+00  1.85978E+00  4.17138E+00  5.28939E+00  2.67706E+00  2.38135E+00
   3.36294E+00  3.13611E+00  2.71736E+00  3.08800E+00  2.83748E+00  3.55306E+00  3.23862E+00  5.33021E+00  2.31120E+00  4.06966E+00
   5.31685E+00  3.38357E+00  1.63145E+00  3.85131E+00  5.25122E+00  4.60495E+00  3.42492E+00  2.38954E+00  1.22908E+00  2.75371E+00
   3.04354E+00  2.64488E+00  6.16755E+00  3.83263E+00  4.82891E+00  1.74909E+00  5.58622E+00  1.56387E+00  8.68045E-01  2.83646E+00
   4.50584E+00  4.76519E+00  4.69411E+00  1.24216E+00  2.16140E+00  8.38070E-01  1.23131E+00  2.74179E+00  1.81331E+00  1.92867E+00
   2.70052E+00 -3.71720E-02  1.84065E+00  2.33747E+00  2.16357E+00  1.50417E+00  3.02583E+00  3.93481E+00  1.78808E+00  3.59109E+00
   4.81635E+00  1.81859E+00  1.83743E+00  2.70386E+00  3.00534E+00  4.14206E+00  2.95131E+00  4.13455E+00  2.58222E+00  3.10397E+00
   2.82080E+00  3.19948E+00  2.46995E+00  2.79477E+00  3.03275E+00  4.40616E+00  4.19978E+00  3.99043E+00  5.17823E+00  5.47567E+00
   1.73141E+00  2.37388E+00  3.04345E+00  1.30285E+00  3.07416E+00  2.28909E+00  3.69134E+00  4.13947E+00  2.75985E+00  4.86308E+00
   4.06396E+00  3.41751E+00  3.51849E+00  3.84796E+00  5.59041E+00  5.56269E+00  1.58464E+00  1.79852E+00  5.66951E+00  5.98812E+00
   2.60234E+00  4.35338E+00  4.60400E+00  5.99718E+00  7.73122E+00  6.00335E+00  6.94722E+00  4.89617E+00  7.93674E+00  7.69922E+00
   5.57521E+00  7.24954E+00  8.18730E+00  7.41729E+00  7.32934E+00  9.75597E+00  1.06708E+01  1.08912E+01  1.31984E+01  1.63250E+01
   1.94932E+01  1.97645E+01  1.64143E+01  1.48369E+01  1.29881E+01  1.09272E+01  6.92557E+00  4.80278E+00  4.05522E+00  3.11345E+00
   2.27778E-01  2.08252E+00  4.51023E+00  7.12219E-01 -4.48996E-01  3.81069E+00  1.30114E+00  2.60245E+00  1.14040E+00  3.31673E+00
   2.19065E+00  1.18254E+00  1.91199E+00  1.09762E+00  2.72693E+00  2.94597E+00  3.78498E+00  2.45575E+00  4.07356E+00  2.24373E+00
   2.44832E+00  3.71335E+00  3.90400E+00  4.00443E+00  1.01545E+00  4.59742E+00  8.08209E-01  3.00656E+00  2.49458E+00  4.27576E+00
   3.68927E+00  3.65688E+00  5.13192E+00  3.91285E+00  3.85876E+00  4.13861E+00  5.28148E+00  5.63618E+00  5.44123E+00  6.38079E+00
   5.04381E+00  3.81069E+00  6.84956E+00  7.42789E+00  5.76669E+00  5.47983E+00  4.75986E+00  3.88709E+00  6.05124E+00  5.13295E+00
   6.08285E+00  4.43858E+00  8.08696E+00  5.62785E+00  9.04926E+00  9.20643E+00  1.01675E+01  8.13975E+00  7.12977E+00  1.02077E+01
   9.19641E+00  8.00617E+00  1.06531E+01  1.21033E+01  1.26848E+01  1.15415E+01  1.10135E+01  1.29653E+01  1.35444E+01  1.44002E+01
   1.54376E+01  1.75710E+01  1.94106E+01  1.79703E+01  1.78785E+01  2.04289E+01  1.96040E+01  2.08116E+01  2.08327E+01  2.20114E+01
   2.34360E+01  2.58037E+01  2.55014E+01  2.72548E+01  2.83191E+01  3.22279E+01  3.18817E+01  3.48529E+01  3.22278E+01  3.31335E+01
   3.27745E+01  3.29010E+01  3.13836E+01  2.74481E+01  2.90766E+01  2.72869E+01  2.67890E+01  2.39608E+01  2.31580E+01  2.30506E+01
   2.27690E+01  1.97633E+01  2.04122E+01  1.88388E+01  1.65183E+01  1.66999E+01  1.70540E+01  1.39055E+01  1.45814E+01  1.44253E+01
   1.31743E+01  1.15400E+01  1.36041E+01  1.00377E+01  1.15317E+01  1.05255E+01  1.21721E+01  1.12615E+01  8.61839E+00  8.33110E+00
   7.28167E+00  1.04665E+01  1.09746E+01  8.83978E+00  7.44550E+00  8.87239E+00  6.67815E+00  5.12225E+00  7.52173E+00  6.98183E+00
   6.30130E+00  6.83786E+00  4.89612E+00  3.38792E+00  5.22889E+00  4.74711E+00  4.73738E+00  3.34804E+00  3.88155E+00  3.93702E+00
   4.16266E+00  4.69500E+00  4.51897E+00  1.57844E+00  2.47970E+00  1.48597E+00  5.26023E-01  2.10762E+00  9.59233E-01  8.38976E-01
  -1.31078E+00 -6.32072E-01 -1.21742E+00  2.45097E-01 -1.05072E+00 -5.77142E-01 -1.03678E+00  8.16703E-01 -1.05924E+00  1.88224E+00
  -1.07536E+00 -3.05971E-01 -1.23617E+00 -2.29250E+00 -8.00474E-01 -1.81516E+00 -4.19023E+00 -3.03643E+00 -1.65576E+00 -6.02967E-01
  -8.66102E-03 -5.10749E+00 -1.43354E+00 -2.20422E+00 -1.81347E+00 -1.81528E+00 -8.63549E-01 -1.94876E+00 -3.55455E+00 -1.75973E+00
  -3.95987E+00 -2.12588E+00 -3.36997E+00 -3.55886E+00 -3.11525E+00 -1.41844E+00 -4.12486E-01 -3.38057E+00 -2.83839E+00 -4.26974E+00
  -3.99869E+00 -2.51439E+00 -4.06755E+00 -3.11580E+00 -2.52325E+00 -3.18799E+00 -3.03470E+00 -2.95272E+00 -4.00713E+00 -2.95506E+00
  -4.53981E+00 -2.78125E+00 -1.94569E+00 -1.93468E+00 -3.70131E+00 -4.14798E+00 -2.14401E+00 -2.89165E+00 -3.92134E+00 -2.12459E+00
  -2.97459E+00 -3.11981E+00 -3.50307E+00 -3.21155E+00 -3.34510E+00 -4.43769E+00 -8.18048E-01 -2.35323E+00 -3.14610E+00 -6.45651E-01
  -2.40699E+00 -3.77168E+00 -4.40049E+00 -2.60110E+00 -3.72412E+00 -4.43749E+00 -1.53228E+00 -3.55536E+00
 NY points of the fit to the data follow
   5.98388E+00  5.86631E+00  5.78357E+00  5.73538E+00  5.71360E+00  5.69424E+00  5.66794E+00  5.63776E+00  5.60971E+00  5.59005E+00
   5.58003E+00  5.57348E+00  5.56450E+00  5.55507E+00  5.54749E+00  5.54073E+00  5.53222E+00  5.52411E+00  5.52576E+00  5.55153E+00
   5.60316E+00  5.66402E+00  5.70501E+00  5.73641E+00  5.78372E+00  5.81048E+00  5.79428E+00  5.78645E+00  5.84594E+00  5.97074E+00
   6.10716E+00  6.22625E+00  6.32055E+00  6.35258E+00  6.27681E+00  6.07508E+00  5.78549E+00  5.48710E+00  5.23326E+00  5.04603E+00
   4.96128E+00  5.01268E+00  5.18346E+00  5.41325E+00  5.67110E+00  5.96342E+00  6.25026E+00  6.42714E+00  6.40445E+00  6.17665E+00
   5.82599E+00  5.44264E+00  5.07427E+00  4.76948E+00  4.59349E+00  4.57941E+00  4.69401E+00  4.86155E+00  5.03005E+00  5.16827E+00
   5.24180E+00  5.23007E+00  5.14097E+00  5.00638E+00  4.86004E+00  4.73133E+00  4.65385E+00  4.63994E+00  4.67814E+00  4.75074E+00
   4.83828E+00  4.91173E+00  4.94692E+00  4.93643E+00  4.89099E+00  4.82614E+00  4.74906E+00  4.66262E+00  4.57494E+00  4.49905E+00
   4.43880E+00  4.37607E+00  4.30148E+00  4.21434E+00  4.11207E+00  3.98684E+00  3.84198E+00  3.70215E+00  3.60358E+00  3.56781E+00
   3.59569E+00  3.67077E+00  3.77051E+00  3.87577E+00  3.96122E+00  3.99957E+00  3.97921E+00  3.90713E+00  3.80684E+00  3.70499E+00
   3.61907E+00  3.55408E+00  3.51542E+00  3.50853E+00  3.53338E+00  3.57765E+00  3.62550E+00  3.66908E+00  3.70678E+00  3.73918E+00
   3.76498E+00  3.78328E+00  3.79630E+00  3.80679E+00  3.81457E+00  3.81948E+00  3.82210E+00  3.82069E+00  3.81632E+00  3.81312E+00
   3.81471E+00  3.82310E+00  3.83872E+00  3.86133E+00  3.89128E+00  3.92715E+00  3.96538E+00  4.00526E+00  4.04563E+00  4.07958E+00
   4.10510E+00  4.12173E+00  4.12268E+00  4.10071E+00  4.05486E+00  3.99640E+00  3.94593E+00  3.91895E+00  3.92411E+00  3.96089E+00
   4.02132E+00  4.08970E+00  4.14833E+00  4.18746E+00  4.20584E+00  4.20362E+00  4.18456E+00  4.15775E+00  4.13056E+00  4.10551E+00
   4.08229E+00  4.05850E+00  4.03480E+00  4.01309E+00  3.99022E+00  3.95395E+00  3.90583E+00  3.84866E+00  3.77275E+00  3.67842E+00
   3.57221E+00  3.48075E+00  3.43334E+00  3.42325E+00  3.41335E+00  3.37395E+00  3.30181E+00  3.20446E+00  3.08204E+00  2.93284E+00
   2.76664E+00  2.60850E+00  2.48518E+00  2.38240E+00  2.27374E+00  2.16459E+00  2.09152E+00  2.07149E+00  2.07429E+00  2.06038E+00
   2.02650E+00  1.99509E+00  1.98925E+00  1.99922E+00  1.99863E+00  2.00312E+00  2.05818E+00  2.17912E+00  2.34283E+00  2.50645E+00
   2.64550E+00  2.75615E+00  2.82350E+00  2.84211E+00  2.81771E+00  2.75970E+00  2.68470E+00  2.61360E+00  2.57211E+00  2.56635E+00
   2.59356E+00  2.64998E+00  2.73444E+00  2.83714E+00  2.90985E+00  2.91378E+00  2.83995E+00  2.70036E+00  2.53000E+00  2.37124E+00
   2.28886E+00  2.31338E+00  2.45524E+00  2.73632E+00  3.12826E+00  3.50381E+00  3.69599E+00  3.62932E+00  3.36385E+00  2.98660E+00
   2.53137E+00  2.08698E+00  1.83356E+00  1.90807E+00  2.28578E+00  2.80141E+00  3.31833E+00  3.78606E+00  4.15687E+00  4.37299E+00
   4.42537E+00  4.39277E+00  4.37405E+00  4.40716E+00  4.47770E+00  4.56802E+00  4.66147E+00  4.72230E+00  4.73211E+00  4.70165E+00
   4.66364E+00  4.65419E+00  4.71434E+00  4.87047E+00  5.10817E+00  5.38114E+00  5.64126E+00  5.85765E+00  6.01024E+00  6.10249E+00
   6.18646E+00  6.29702E+00  6.47449E+00  6.81571E+00  7.62451E+00  8.96755E+00  1.04239E+01  1.20485E+01  1.41398E+01  1.64620E+01
   1.81334E+01  1.83749E+01  1.71988E+01  1.52041E+01  1.28376E+01  1.02131E+01  7.57320E+00  5.47516E+00  4.29889E+00  3.80017E+00
   3.50389E+00  3.28534E+00  3.12252E+00  2.99762E+00  2.89362E+00  2.79910E+00  2.70560E+00  2.61066E+00  2.51345E+00  2.41476E+00
   2.32112E+00  2.24389E+00  2.19060E+00  2.16103E+00  2.15197E+00  2.16096E+00  2.18681E+00  2.22773E+00  2.28182E+00  2.34936E+00
   2.43261E+00  2.53253E+00  2.64832E+00  2.77834E+00  2.92124E+00  3.07511E+00  3.23741E+00  3.40551E+00  3.57714E+00  3.75036E+00
   3.92317E+00  4.09265E+00  4.25560E+00  4.40923E+00  4.55124E+00  4.67984E+00  4.79400E+00  4.89379E+00  4.98048E+00  5.05612E+00
   5.12345E+00  5.18587E+00  5.24721E+00  5.31159E+00  5.38339E+00  5.46702E+00  5.56681E+00  5.68692E+00  5.83145E+00  6.00477E+00
   6.21300E+00  6.46447E+00  6.74841E+00  7.05223E+00  7.38133E+00  7.72933E+00  8.06666E+00  8.36465E+00  8.62502E+00  8.89274E+00
   9.21262E+00  9.58788E+00  1.00249E+01  1.05557E+01  1.12021E+01  1.19339E+01  1.26852E+01  1.34172E+01  1.41360E+01  1.48595E+01
   1.56089E+01  1.64130E+01  1.72380E+01  1.80846E+01  1.89940E+01  1.99315E+01  2.07864E+01  2.14739E+01  2.20509E+01  2.27248E+01
   2.35981E+01  2.46635E+01  2.59477E+01  2.75078E+01  2.92785E+01  3.09995E+01  3.23560E+01  3.32066E+01  3.35518E+01  3.34109E+01
   3.28109E+01  3.18457E+01  3.06790E+01  2.94587E+01  2.82340E+01  2.70255E+01  2.58535E+01  2.47285E+01  2.36513E+01  2.26162E+01
   2.16148E+01  2.06395E+01  1.96851E+01  1.87496E+01  1.78339E+01  1.69413E+01  1.60763E+01  1.52442E+01  1.44503E+01  1.36994E+01
   1.29956E+01  1.23419E+01  1.17405E+01  1.11923E+01  1.06973E+01  1.02541E+01  9.86070E+00  9.51367E+00  9.20880E+00  8.94102E+00
   8.70453E+00  8.49297E+00  8.29962E+00  8.11757E+00  7.94002E+00  7.76053E+00  7.57324E+00  7.37310E+00  7.15604E+00  6.91912E+00
   6.66062E+00  6.38009E+00  6.07824E+00  5.75686E+00  5.41865E+00  5.06703E+00  4.70590E+00  4.33946E+00  3.97195E+00  3.60741E+00
   3.24957E+00  2.90169E+00  2.56650E+00  2.24614E+00  1.94216E+00  1.65550E+00  1.38659E+00  1.13542E+00  9.01608E-01  6.84472E-01
   4.83115E-01  2.96490E-01  1.23471E-01 -3.70850E-02 -1.86299E-01 -3.25250E-01 -4.54966E-01 -5.76396E-01 -6.90402E-01 -7.97750E-01
  -8.99121E-01 -9.95124E-01 -1.08630E+00 -1.17314E+00 -1.25606E+00 -1.33540E+00 -1.41149E+00 -1.48461E+00 -1.55501E+00 -1.62293E+00
  -1.68855E+00 -1.75204E+00 -1.81355E+00 -1.87322E+00 -1.93119E+00 -1.98757E+00 -2.04246E+00 -2.09594E+00 -2.14811E+00 -2.19904E+00
  -2.24881E+00 -2.29750E+00 -2.34513E+00 -2.39178E+00 -2.43750E+00 -2.48234E+00 -2.52634E+00 -2.56955E+00 -2.61200E+00 -2.65371E+00
  -2.69474E+00 -2.73512E+00 -2.77488E+00 -2.81404E+00 -2.85262E+00 -2.89065E+00 -2.92816E+00 -2.96518E+00 -3.00171E+00 -3.03778E+00
  -3.07340E+00 -3.10859E+00 -3.14339E+00 -3.17779E+00 -3.21181E+00 -3.24547E+00 -3.27876E+00 -3.31173E+00 -3.34438E+00 -3.37671E+00
  -3.40875E+00 -3.44048E+00 -3.47194E+00 -3.50313E+00 -3.53406E+00 -3.56475E+00 -3.59518E+00 -3.62538E+00 -3.65535E+00 -3.68512E+00
  -3.71467E+00 -3.74402E+00 -3.77317E+00 -3.80213E+00 -3.83091E+00 -3.85952E+00 -3.88797E+00 -3.91625E+00
 NY background values follow
     4.931E+00    4.912E+00    4.893E+00    4.874E+00    4.855E+00    4.836E+00    4.817E+00    4.798E+00    4.779E+00    4.760E+00
     4.741E+00    4.721E+00    4.702E+00    4.683E+00    4.664E+00    4.645E+00    4.626E+00    4.607E+00    4.588E+00    4.568E+00
     4.549E+00    4.530E+00    4.511E+00    4.492E+00    4.473E+00    4.453E+00    4.434E+00    4.415E+00    4.396E+00    4.377E+00
     4.357E+00    4.338E+00    4.319E+00    4.300E+00    4.280E+00    4.261E+00    4.242E+00    4.223E+00    4.203E+00    4.184E+00
     4.165E+00    4.146E+00    4.126E+00    4.107E+00    4.088E+00    4.068E+00    4.049E+00    4.030E+00    4.010E+00    3.991E+00
     3.972E+00    3.952E+00    3.933E+00    3.914E+00    3.894E+00    3.875E+00    3.856E+00    3.836E+00    3.817E+00    3.797E+00
     3.778E+00    3.759E+00    3.739E+00    3.720E+00    3.700E+00    3.681E+00    3.661E+00    3.642E+00    3.623E+00    3.603E+00
     3.584E+00    3.564E+00    3.545E+00    3.525E+00    3.506E+00    3.486E+00    3.467E+00    3.447E+00    3.428E+00    3.408E+00
     3.389E+00    3.369E+00    3.350E+00    3.330E+00    3.311E+00    3.291E+00    3.272E+00    3.252E+00    3.233E+00    3.213E+00
     3.194E+00    3.174E+00    3.154E+00    3.135E+00    3.115E+00    3.096E+00    3.076E+00    3.057E+00    3.037E+00    3.017E+00
     2.998E+00    2.978E+00    2.959E+00    2.939E+00    2.919E+00    2.900E+00    2.880E+00    2.860E+00    2.841E+00    2.821E+00
     2.802E+00    2.782E+00    2.762E+00    2.743E+00    2.723E+00    2.703E+00    2.684E+00    2.664E+00    2.644E+00    2.625E+00
     2.605E+00    2.585E+00    2.565E+00    2.546E+00    2.526E+00    2.506E+00    2.487E+00    2.467E+00    2.447E+00    2.428E+00
     2.408E+00    2.388E+00    2.368E+00    2.349E+00    2.329E+00    2.309E+00    2.289E+00    2.270E+00    2.250E+00    2.230E+00
     2.210E+00    2.191E+00    2.171E+00    2.151E+00    2.131E+00    2.111E+00    2.092E+00    2.072E+00    2.052E+00    2.032E+00
     2.013E+00    1.993E+00    1.973E+00    1.953E+00    1.933E+00    1.913E+00    1.894E+00    1.874E+00    1.854E+00    1.834E+00
     1.814E+00    1.795E+00    1.775E+00    1.755E+00    1.735E+00    1.715E+00    1.695E+00    1.675E+00    1.656E+00    1.636E+00
     1.616E+00    1.596E+00    1.576E+00    1.556E+00    1.536E+00    1.517E+00    1.497E+00    1.477E+00    1.457E+00    1.437E+00
     1.417E+00    1.397E+00    1.377E+00    1.358E+00    1.338E+00    1.318E+00    1.298E+00    1.278E+00    1.258E+00    1.238E+00
     1.218E+00    1.198E+00    1.178E+00    1.158E+00    1.139E+00    1.119E+00    1.099E+00    1.079E+00    1.059E+00    1.039E+00
     1.019E+00    9.991E-01    9.791E-01    9.592E-01    9.392E-01    9.193E-01    8.994E-01    8.794E-01    8.595E-01    8.395E-01
     8.196E-01    7.996E-01    7.796E-01    7.597E-01    7.397E-01    7.198E-01    6.998E-01    6.798E-01    6.599E-01    6.399E-01
     6.199E-01    6.000E-01    5.800E-01    5.600E-01    5.400E-01    5.201E-01    5.001E-01    4.801E-01    4.601E-01    4.401E-01
     4.202E-01    4.002E-01    3.802E-01    3.602E-01    3.402E-01    3.202E-01    3.002E-01    2.802E-01    2.602E-01    2.402E-01
     2.202E-01    2.002E-01    1.802E-01    1.602E-01    1.402E-01    1.202E-01    1.002E-01    8.022E-02    6.022E-02    4.021E-02
     2.020E-02    1.967E-04   -1.981E-02   -3.982E-02   -5.983E-02   -7.984E-02   -9.986E-02   -1.199E-01   -1.399E-01   -1.599E-01
    -1.799E-01   -1.999E-01   -2.199E-01   -2.400E-01   -2.600E-01   -2.800E-01   -3.000E-01   -3.200E-01   -3.401E-01   -3.601E-01
    -3.801E-01   -4.001E-01   -4.201E-01   -4.402E-01   -4.602E-01   -4.802E-01   -5.002E-01   -5.202E-01   -5.403E-01   -5.603E-01
    -5.803E-01   -6.003E-01   -6.204E-01   -6.404E-01   -6.604E-01   -6.804E-01   -7.004E-01   -7.205E-01   -7.405E-01   -7.605E-01
    -7.805E-01   -8.006E-01   -8.206E-01   -8.406E-01   -8.606E-01   -8.807E-01   -9.007E-01   -9.207E-01   -9.407E-01   -9.607E-01
    -9.808E-01   -1.001E+00   -1.021E+00   -1.041E+00   -1.061E+00   -1.081E+00   -1.101E+00   -1.121E+00   -1.141E+00   -1.161E+00
    -1.181E+00   -1.201E+00   -1.221E+00   -1.241E+00   -1.261E+00   -1.281E+00   -1.301E+00   -1.321E+00   -1.341E+00   -1.361E+00
    -1.381E+00   -1.401E+00   -1.421E+00   -1.441E+00   -1.461E+00   -1.481E+00   -1.501E+00   -1.521E+00   -1.541E+00   -1.561E+00
    -1.581E+00   -1.601E+00   -1.621E+00   -1.641E+00   -1.661E+00   -1.681E+00   -1.701E+00   -1.721E+00   -1.741E+00   -1.761E+00
    -1.781E+00   -1.801E+00   -1.821E+00   -1.841E+00   -1.861E+00   -1.881E+00   -1.901E+00   -1.921E+00   -1.941E+00   -1.961E+00
    -1.981E+00   -2.001E+00   -2.021E+00   -2.041E+00   -2.061E+00   -2.081E+00   -2.101E+00   -2.121E+00   -2.141E+00   -2.161E+00
    -2.180E+00   -2.200E+00   -2.220E+00   -2.240E+00   -2.260E+00   -2.280E+00   -2.300E+00   -2.320E+00   -2.340E+00   -2.360E+00
    -2.380E+00   -2.400E+00   -2.420E+00   -2.440E+00   -2.460E+00   -2.480E+00   -2.500E+00   -2.519E+00   -2.539E+00   -2.559E+00
    -2.579E+00   -2.599E+00   -2.619E+00   -2.639E+00   -2.659E+00   -2.679E+00   -2.699E+00   -2.719E+00   -2.738E+00   -2.758E+00
    -2.778E+00   -2.798E+00   -2.818E+00   -2.838E+00   -2.858E+00   -2.878E+00   -2.898E+00   -2.917E+00   -2.937E+00   -2.957E+00
    -2.977E+00   -2.997E+00   -3.017E+00   -3.037E+00   -3.056E+00   -3.076E+00   -3.096E+00   -3.116E+00   -3.136E+00   -3.156E+00
    -3.175E+00   -3.195E+00   -3.215E+00   -3.235E+00   -3.255E+00   -3.275E+00   -3.294E+00   -3.314E+00   -3.334E+00   -3.354E+00
    -3.374E+00   -3.393E+00   -3.413E+00   -3.433E+00   -3.453E+00   -3.473E+00   -3.492E+00   -3.512E+00   -3.532E+00   -3.552E+00
    -3.571E+00   -3.591E+00   -3.611E+00   -3.631E+00   -3.651E+00   -3.670E+00   -3.690E+00   -3.710E+00   -3.730E+00   -3.749E+00
    -3.769E+00   -3.789E+00   -3.808E+00   -3.828E+00   -3.848E+00   -3.868E+00   -3.887E+00   -3.907E+00   -3.927E+00   -3.946E+00
    -3.966E+00   -3.986E+00   -4.005E+00   -4.025E+00   -4.045E+00   -4.064E+00   -4.084E+00   -4.104E+00   -4.123E+00   -4.143E+00
    -4.163E+00   -4.182E+00   -4.202E+00   -4.222E+00   -4.241E+00   -4.261E+00   -4.281E+00   -4.300E+00   -4.320E+00   -4.339E+00
    -4.359E+00   -4.379E+00   -4.398E+00   -4.418E+00   -4.437E+00   -4.457E+00   -4.477E+00   -4.496E+00   -4.516E+00   -4.535E+00
    -4.555E+00   -4.574E+00   -4.594E+00   -4.614E+00   -4.633E+00   -4.653E+00   -4.672E+00   -4.692E+00   -4.711E+00   -4.731E+00
    -4.750E+00   -4.770E+00   -4.789E+00   -4.809E+00   -4.828E+00   -4.848E+00   -4.867E+00   -4.887E+00
 Ala      Conc. = 3.11E+01
