 LCModel (Version 6.3-1L) Copyright: S.W. Provencher.          Ref.: Magn. Reson. Med. 30:672-679 (1993).                
 Slice#2 Row#1 Col#5  K_02_press_1_raw_act
 36 lines in following concentration table = NCONC+1
    Conc.  %SD /Cr+PCr  Metabolite                                         
   19.545 273%   0.150 Ala                                                 
   22.277  92%   0.171 Asp                                                 
  130.224  20%   1.000 Cr                                                  
    0.000 999%   0.000 PCr                                                 
   10.217 120% 7.8E-02 GABA                                                
   13.668  90%   0.105 Glc                                                 
   30.186 341%   0.232 Gln                                                 
  301.742  39%   2.317 Glu                                                 
   39.728  27%   0.305 GPC                                                 
    0.000 999%   0.000 PCh                                                 
   56.307  66%   0.432 GSH                                                 
  276.271  42%   2.122 Ins                                                 
   56.773 102%   0.436 Lac                                                 
  158.903  19%   1.220 NAA                                                 
    0.000 999%   0.000 NAAG                                                
    5.942  67% 4.6E-02 Scyllo                                              
   19.624 103%   0.151 Tau                                                 
    0.000 999%   0.000 -CrCH2                                              
   39.728  27%   0.305 GPC+PCh                                             
  158.903  19%   1.220 NAA+NAAG                                            
  130.224  20%   1.000 Cr+PCr                                              
  331.928  46%   2.549 Glu+Gln                                             
 2.44E+03  13%  18.707 Lip13a                                              
    0.000 999%   0.000 Lip13b                                              
  603.145  23%   4.632 Lip09                                               
    0.000 999%   0.000 MM09                                                
    0.000 999%   0.000 Lip20                                               
    0.000 999%   0.000 MM20                                                
    0.000 999%   0.000 MM12                                                
  168.720 103%   1.296 MM14                                                
  286.042  35%   2.197 MM17                                                
 2.44E+03  13%  18.707 Lip13a+Lip13b                                       
 2.60E+03  10%  20.003 MM14+Lip13a+Lip13b+MM12                             
  603.145  23%   4.632 MM09+Lip09                                          
    0.000 999%   0.000 MM20+Lip20                                          
   6 lines in following misc. output table
  FWHM = 0.038 ppm    S/N =   2                                            
  Data shift = 0.015 ppm                                                   
  Ph:  77 deg      19.1 deg/ppm                                            
  alphaB,S = 8.5E+01,   2.2E+01                                            
   14 spline knots.   Ns = 5(1)                                            
  ( 9) 2 infls.   (11) 1 extrs.                                            
  498 points on ppm-axis = NY
      4.000000     3.992357     3.984714     3.977070     3.969427     3.961784     3.954141     3.946497     3.938854     3.931211
      3.923568     3.915925     3.908281     3.900638     3.892995     3.885352     3.877708     3.870065     3.862422     3.854779
      3.847136     3.839492     3.831849     3.824206     3.816563     3.808919     3.801276     3.793633     3.785990     3.778347
      3.770703     3.763060     3.755417     3.747774     3.740130     3.732487     3.724844     3.717201     3.709558     3.701914
      3.694271     3.686628     3.678985     3.671341     3.663698     3.656055     3.648412     3.640769     3.633125     3.625482
      3.617839     3.610196     3.602552     3.594909     3.587266     3.579623     3.571980     3.564336     3.556693     3.549050
      3.541407     3.533763     3.526120     3.518477     3.510834     3.503191     3.495547     3.487904     3.480261     3.472618
      3.464974     3.457331     3.449688     3.442045     3.434402     3.426758     3.419115     3.411472     3.403829     3.396185
      3.388542     3.380899     3.373256     3.365613     3.357969     3.350326     3.342683     3.335040     3.327396     3.319753
      3.312110     3.304467     3.296824     3.289180     3.281537     3.273894     3.266251     3.258607     3.250964     3.243321
      3.235678     3.228034     3.220391     3.212748     3.205105     3.197462     3.189818     3.182175     3.174532     3.166889
      3.159245     3.151602     3.143959     3.136316     3.128673     3.121029     3.113386     3.105743     3.098100     3.090456
      3.082813     3.075170     3.067527     3.059884     3.052240     3.044597     3.036954     3.029311     3.021667     3.014024
      3.006381     2.998738     2.991095     2.983451     2.975808     2.968165     2.960522     2.952878     2.945235     2.937592
      2.929949     2.922306     2.914662     2.907019     2.899376     2.891733     2.884089     2.876446     2.868803     2.861160
      2.853517     2.845873     2.838230     2.830587     2.822944     2.815300     2.807657     2.800014     2.792371     2.784728
      2.777084     2.769441     2.761798     2.754155     2.746511     2.738868     2.731225     2.723582     2.715939     2.708295
      2.700652     2.693009     2.685366     2.677722     2.670079     2.662436     2.654793     2.647150     2.639506     2.631863
      2.624220     2.616577     2.608933     2.601290     2.593647     2.586004     2.578361     2.570717     2.563074     2.555431
      2.547788     2.540144     2.532501     2.524858     2.517215     2.509572     2.501928     2.494285     2.486642     2.478999
      2.471355     2.463712     2.456069     2.448426     2.440783     2.433139     2.425496     2.417853     2.410210     2.402566
      2.394923     2.387280     2.379637     2.371994     2.364350     2.356707     2.349064     2.341421     2.333777     2.326134
      2.318491     2.310848     2.303205     2.295561     2.287918     2.280275     2.272632     2.264988     2.257345     2.249702
      2.242059     2.234416     2.226772     2.219129     2.211486     2.203843     2.196199     2.188556     2.180913     2.173270
      2.165627     2.157983     2.150340     2.142697     2.135054     2.127410     2.119767     2.112124     2.104481     2.096838
      2.089194     2.081551     2.073908     2.066265     2.058621     2.050978     2.043335     2.035692     2.028049     2.020405
      2.012762     2.005119     1.997476     1.989833     1.982190     1.974546     1.966903     1.959260     1.951617     1.943974
      1.936331     1.928688     1.921045     1.913402     1.905759     1.898115     1.890472     1.882829     1.875186     1.867543
      1.859900     1.852257     1.844614     1.836971     1.829327     1.821684     1.814041     1.806398     1.798755     1.791112
      1.783469     1.775826     1.768183     1.760540     1.752896     1.745253     1.737610     1.729967     1.722324     1.714681
      1.707038     1.699395     1.691752     1.684108     1.676465     1.668822     1.661179     1.653536     1.645893     1.638250
      1.630607     1.622964     1.615321     1.607677     1.600034     1.592391     1.584748     1.577105     1.569462     1.561819
      1.554176     1.546533     1.538890     1.531246     1.523603     1.515960     1.508317     1.500674     1.493031     1.485388
      1.477745     1.470102     1.462458     1.454815     1.447172     1.439529     1.431886     1.424243     1.416600     1.408957
      1.401314     1.393671     1.386027     1.378384     1.370741     1.363098     1.355455     1.347812     1.340169     1.332526
      1.324883     1.317240     1.309596     1.301953     1.294310     1.286667     1.279024     1.271381     1.263738     1.256095
      1.248452     1.240808     1.233165     1.225522     1.217879     1.210236     1.202593     1.194950     1.187307     1.179664
      1.172021     1.164377     1.156734     1.149091     1.141448     1.133805     1.126162     1.118519     1.110876     1.103233
      1.095590     1.087946     1.080303     1.072660     1.065017     1.057374     1.049731     1.042088     1.034445     1.026802
      1.019158     1.011515     1.003872     0.996229     0.988586     0.980943     0.973300     0.965657     0.958014     0.950371
      0.942727     0.935084     0.927441     0.919798     0.912155     0.904512     0.896869     0.889226     0.881583     0.873940
      0.866296     0.858653     0.851010     0.843367     0.835724     0.828081     0.820438     0.812795     0.805152     0.797508
      0.789865     0.782222     0.774579     0.766936     0.759293     0.751650     0.744007     0.736364     0.728721     0.721077
      0.713434     0.705791     0.698148     0.690505     0.682862     0.675219     0.667576     0.659933     0.652290     0.644646
      0.637003     0.629360     0.621717     0.614074     0.606431     0.598788     0.591145     0.583502     0.575858     0.568215
      0.560572     0.552929     0.545286     0.537643     0.530000     0.522357     0.514714     0.507071     0.499427     0.491784
      0.484141     0.476498     0.468855     0.461212     0.453569     0.445925     0.438282     0.430639     0.422996     0.415353
      0.407710     0.400067     0.392424     0.384780     0.377137     0.369494     0.361851     0.354208     0.346565     0.338922
      0.331278     0.323635     0.315992     0.308349     0.300706     0.293063     0.285420     0.277777     0.270133     0.262490
      0.254847     0.247204     0.239561     0.231918     0.224275     0.216631     0.208988     0.201345
 NY phased data points follow
   3.89470E+00  5.43044E-01  1.99240E+00  1.42866E+00  6.19079E+00  1.51001E+00  6.82945E+00  3.88442E+00  2.18247E+00  6.23443E+00
   6.48965E+00  9.02811E+00  6.80803E+00  7.66274E+00 -8.88180E-01  3.06238E+00 -3.92455E-01  1.43324E+00  2.81287E+00 -3.51835E-01
   5.97686E-01  2.37746E+00  8.95444E-01 -2.55336E-01  8.85789E-01  4.88861E+00  1.75422E+00 -2.20213E-01  5.09679E+00  2.44486E+00
   9.56237E-01  9.49919E-01  3.59524E+00  2.18695E+00 -4.63467E-01  3.20257E+00  3.76734E-01  8.94557E-01  1.02690E+00  2.70060E+00
   1.84926E+00  3.36889E+00  1.02269E+00  4.03904E-01  6.36349E+00 -1.23384E+00  3.48817E+00 -4.22112E-01  3.73460E+00  1.93594E+00
   3.67977E+00 -2.97311E-01  2.79342E-01  5.35076E+00  2.06161E+00 -4.71325E-01 -8.27026E-01  2.68093E+00  1.12683E+00  1.46162E+00
   1.23200E+00  1.20087E+00  5.44570E+00  3.63494E+00  1.11563E+00  3.92916E-01  2.85129E+00 -1.73213E+00  2.32490E+00  3.66490E+00
  -3.87031E+00 -4.25370E-01  1.71662E+00  1.59368E-01 -1.01184E-01  1.92369E-01 -9.89896E-01  3.76572E-01  1.66412E+00  1.20456E+00
   5.44260E+00  3.55806E+00  3.08809E+00 -2.37577E-01  2.03692E-01  4.81655E-01  1.60152E+00  2.13465E+00  2.16382E+00  6.44381E-01
   3.05102E-01 -1.25808E+00  3.91956E+00  4.26641E+00  2.99687E+00 -3.83022E+00 -4.98644E+00  9.95084E-01  1.39708E+00  8.07462E-01
  -4.12093E-01  1.38936E+00  3.55675E+00  4.20255E+00  5.76531E+00  1.85613E+00  1.82279E+00 -4.25860E-01  8.89941E-01 -3.09963E+00
   1.47797E-01 -1.65089E+00 -1.05906E+00 -3.34823E+00 -1.62638E+00 -1.13953E+00 -4.91488E-01  2.51692E+00 -3.24037E+00 -3.74995E-01
  -1.50717E+00 -1.06425E+00 -1.37734E+00 -2.73856E-01  2.19820E+00 -1.97739E+00  4.26675E+00  4.19755E+00  1.90128E+00  3.73010E+00
   3.12849E+00  1.62366E+00  8.83401E-01 -8.43894E-01 -7.15785E-01 -2.58477E-01 -2.41601E-01 -3.55808E+00 -5.66040E-01  6.43099E-01
  -1.31551E+00  6.79775E-01 -3.76855E+00 -1.53025E-01  3.86456E-01 -2.86144E+00 -2.74533E+00  1.68065E+00  1.70590E+00  1.68855E+00
  -1.58159E+00 -7.33687E-01 -1.80300E+00  2.95365E+00  1.42821E+00  1.71425E+00  1.06334E+00 -5.24716E-01 -4.89741E+00 -2.43335E+00
   1.32716E+00 -1.55359E-01 -9.49152E-01  3.71605E-01 -2.67905E+00 -2.27060E+00 -1.26735E+00 -2.55403E+00 -1.03789E+00 -1.73682E+00
  -1.75257E+00 -1.84800E+00  1.13170E+00  3.92591E+00 -1.31501E+00 -3.61554E+00  9.36123E-02  5.04981E-01 -4.71441E+00 -2.35118E+00
   1.13258E+00 -3.68496E+00 -4.16905E+00 -3.82826E-01 -1.90657E+00 -1.29296E+00 -2.25025E+00  1.01250E+00 -1.78741E-01  3.44466E+00
  -1.52601E+00 -3.71210E-01 -4.37679E+00 -3.04804E+00 -1.66289E+00 -4.89074E+00  3.81952E-01 -2.50272E+00 -4.88270E-01 -8.02107E-01
   1.70400E+00 -1.68046E+00 -2.52604E+00 -1.57646E+00 -4.28081E+00  2.35307E+00  3.88256E+00  8.18349E-01 -3.69498E+00 -5.20665E-01
  -2.67254E+00  1.11772E+00 -1.40133E-02 -4.71880E-01  8.67602E-01  1.15871E+00 -1.62908E+00  4.50391E+00  1.08946E+00 -1.98900E-01
  -1.21647E+00 -7.79377E-01 -3.30850E+00 -4.93062E+00  4.61760E-01 -2.39643E+00  1.36340E+00 -3.73343E+00  2.81772E+00  2.19411E-01
   2.98626E+00  2.47896E-01  3.48568E-01 -3.82096E-01  2.32953E+00 -3.63348E+00 -5.58835E-02  1.48754E+00  1.94148E+00 -8.59542E-01
  -6.86094E+00 -1.26643E+00 -4.91550E+00  4.37046E+00 -8.80336E-02 -1.06775E+00 -2.10206E+00 -1.17396E+00 -4.63659E-01 -1.51754E+00
   1.76402E+00 -4.09072E+00  2.18658E+00 -2.76411E+00  1.54518E+00 -2.55668E+00  2.56443E+00  1.08582E+00  4.19706E+00  3.25513E+00
   8.91920E+00  9.90819E+00  6.15456E+00  8.60193E-01 -3.44633E+00 -6.71478E-01  6.13622E-01 -1.74817E+00 -1.90850E+00  3.02357E-01
   9.75224E-01 -1.26281E+00  1.72837E+00 -2.05525E+00 -1.92245E+00  2.80104E+00  3.49973E-01  3.64788E+00  2.58601E+00 -8.37833E-02
   2.11589E+00 -8.43954E-01  1.82809E+00  2.31607E+00  1.40103E+00  9.23972E-01  2.59063E+00 -5.52177E-01  1.16559E+00 -3.78320E+00
   2.30649E+00  5.99210E+00  2.36808E+00 -1.24832E+00 -2.20145E-01 -1.03903E+00 -4.80198E-02 -4.31083E+00  2.53620E+00  1.67612E+00
   3.22228E-01  1.77993E-01  3.41655E+00  1.95603E+00 -3.71513E-01  2.04529E+00  2.21006E+00  1.08943E+00  5.20296E+00  4.87859E+00
   2.26182E+00  3.04734E+00  2.23417E+00  4.62996E+00  2.16281E+00  3.84282E-01  4.06965E+00  4.41582E+00  3.84744E+00  5.53509E+00
   7.00623E+00  6.41024E-01  3.16209E+00  1.46784E+00  4.51924E+00  2.16079E+00  5.86070E-01 -9.20487E-01  9.31941E-01  2.14301E+00
   3.92140E+00  1.39671E+00  1.64527E+00  4.13348E+00  8.27026E-01  3.92861E+00  2.97948E+00  7.82991E+00  3.59850E+00  2.04818E+00
   4.44111E+00  2.90381E+00  6.90514E+00  1.02126E+01  6.83239E+00  8.66337E+00  8.43069E+00  1.36740E+01  1.04594E+01  8.21890E+00
   1.13129E+01  9.08146E+00  8.29496E+00  7.79271E+00  9.22246E+00  7.54710E+00  4.15311E+00  8.33295E+00  9.88807E+00  8.66025E+00
   9.34708E+00  1.09320E+01  6.95156E+00  6.41061E+00  5.95917E+00  5.15883E+00  3.35817E+00  8.31296E+00  7.87560E+00  9.28042E+00
   4.38395E+00  1.04498E+00  2.77146E+00  2.22922E+00  7.33161E+00  1.68191E+00  5.90097E+00  4.06678E+00  8.35270E+00  6.91064E+00
   2.25624E+00  9.80569E+00  6.27444E+00  1.05986E+00  5.97782E+00 -4.60443E-01  5.96588E+00  2.81103E+00  5.99204E+00  3.46817E+00
   6.79560E+00  6.08405E+00  2.69105E+00  7.48642E+00  4.42610E+00  2.04125E+00  4.38413E+00  5.46436E+00  6.27242E+00  1.30487E+00
   3.74827E+00  7.00343E+00  4.62222E+00  4.61089E+00  5.42340E+00  2.27884E+00  3.63631E+00  1.45952E+00  1.56779E+00  4.89549E+00
  -3.58719E-01  3.27585E+00  1.11893E+00  1.15749E+00 -8.41206E-01  2.38905E+00  1.77781E+00 -8.84708E-01  5.57221E+00 -3.68483E+00
   2.59699E+00  6.16297E-01  1.67256E+00 -1.50536E-01 -1.04167E+00  7.21283E+00  2.35417E+00  3.54628E+00  3.18339E+00  2.49610E+00
   2.08902E+00  5.29439E+00 -3.05389E+00  1.89780E+00  2.06729E+00  4.66673E+00  2.82908E+00  2.88691E+00  3.71227E-01  7.98552E-03
   1.95456E+00 -1.22957E+00  3.38979E+00 -3.00057E+00  8.66657E-01  1.56769E+00 -6.35377E-01 -1.19028E-04  3.49282E+00  2.30465E+00
   1.84619E+00 -2.95456E-01  3.35705E+00  1.63917E+00  4.52346E+00 -4.75171E-01  7.92786E-01  2.12108E+00  3.68539E+00  5.55801E-01
   2.05314E+00 -2.59708E+00 -1.88233E+00 -1.91343E-01 -2.84683E-01 -1.25125E+00 -3.48996E-01 -1.45742E+00  4.04592E+00  7.02495E-01
   2.64787E+00  5.10690E-02  1.08843E+00 -1.17857E+00  2.85853E-01 -3.58596E+00 -6.08734E-01  1.17950E+00 -8.07612E-01  1.19204E+00
   2.60749E+00 -5.23880E+00 -7.82192E-01  1.00262E+00 -1.55098E+00  1.72484E+00  2.83914E+00  1.74911E+00 -1.45061E+00 -6.37129E-01
  -1.25759E-01 -7.26767E-01  7.11809E-01 -1.88216E+00 -2.60957E+00  2.03461E+00 -8.26149E-01 -1.09901E+00
 NY points of the fit to the data follow
   1.01912E+00  1.00252E+00  1.04689E+00  1.13690E+00  1.26451E+00  1.44437E+00  1.76835E+00  2.22786E+00  2.74034E+00  3.36634E+00
   4.06328E+00  4.51147E+00  4.34764E+00  3.52320E+00  2.40654E+00  1.49225E+00  9.85093E-01  7.58980E-01  6.90000E-01  7.22526E-01
   8.00430E-01  9.04597E-01  9.98573E-01  1.04491E+00  1.09708E+00  1.20095E+00  1.28822E+00  1.39875E+00  1.64986E+00  2.04115E+00
   2.41364E+00  2.58840E+00  2.52458E+00  2.29008E+00  1.93109E+00  1.45871E+00  9.61071E-01  5.91590E-01  4.06195E-01  3.89437E-01
   4.96424E-01  7.03165E-01  1.00005E+00  1.35772E+00  1.74876E+00  2.18812E+00  2.66352E+00  3.02518E+00  3.00475E+00  2.46782E+00
   1.59069E+00  7.41909E-01  1.96703E-01 -9.53388E-03  3.87061E-02  2.44946E-01  5.07693E-01  7.76448E-01  1.03344E+00  1.25723E+00
   1.38700E+00  1.34771E+00  1.12694E+00  8.09016E-01  5.24528E-01  3.63481E-01  3.57763E-01  4.89878E-01  6.77896E-01  8.53252E-01
   9.92594E-01  1.09592E+00  1.14852E+00  1.13411E+00  1.05758E+00  9.44499E-01  8.28797E-01  7.23953E-01  6.28879E-01  5.62148E-01
   5.36241E-01  5.51726E-01  5.71892E-01  5.68567E-01  5.33827E-01  4.51891E-01  2.91017E-01  5.71165E-02 -1.70001E-01 -2.70398E-01
  -1.86657E-01  3.22701E-02  2.81885E-01  4.88830E-01  6.29039E-01  7.07056E-01  7.45009E-01  8.20790E-01  1.10768E+00  1.57241E+00
   2.21611E+00  3.14386E+00  4.16784E+00  4.75806E+00  4.46709E+00  3.34175E+00  1.94522E+00  8.70757E-01  2.75256E-01 -1.19164E-02
  -8.71795E-02 -6.49829E-02 -2.96679E-02  5.66247E-03  3.43837E-02  5.60553E-02  7.41577E-02  9.20858E-02  1.12497E-01  1.46733E-01
   2.18067E-01  3.83981E-01  8.11292E-01  1.49183E+00  2.32125E+00  3.38977E+00  4.60740E+00  5.47070E+00  5.42574E+00  4.36932E+00
   2.80216E+00  1.44816E+00  6.16985E-01  1.26795E-01 -1.86888E-01 -4.00680E-01 -5.54610E-01 -5.92152E-01 -4.97235E-01 -3.12602E-01
  -1.06414E-01  5.13146E-02  1.14343E-01  9.41301E-02  3.47052E-02 -2.83170E-02 -7.75557E-02 -1.17441E-01 -1.51939E-01 -1.81739E-01
  -2.08481E-01 -2.29823E-01 -2.45088E-01 -2.52749E-01 -2.52387E-01 -2.48309E-01 -2.49398E-01 -2.59576E-01 -2.85912E-01 -3.30818E-01
  -3.76377E-01 -4.00121E-01 -3.78529E-01 -3.12586E-01 -2.41300E-01 -2.08346E-01 -2.23874E-01 -2.66805E-01 -3.10322E-01 -3.38965E-01
  -3.58905E-01 -3.83673E-01 -4.10534E-01 -4.38880E-01 -4.74358E-01 -5.10174E-01 -5.27026E-01 -5.05540E-01 -4.59500E-01 -4.30151E-01
  -4.43107E-01 -4.77233E-01 -4.96682E-01 -4.85859E-01 -4.60528E-01 -4.34477E-01 -3.89114E-01 -2.85775E-01 -1.19013E-01  7.64574E-02
   2.35721E-01  2.98419E-01  2.44331E-01  1.03440E-01 -5.91821E-02 -1.96386E-01 -2.88650E-01 -3.19571E-01 -2.65807E-01 -1.24323E-01
   6.70437E-02  2.58771E-01  4.09847E-01  5.05996E-01  5.36143E-01  4.43830E-01  2.31454E-01 -6.10496E-02 -3.89804E-01 -6.72656E-01
  -8.07714E-01 -6.83638E-01 -3.06270E-01  2.53847E-01  9.11991E-01  1.49134E+00  1.72089E+00  1.36433E+00  4.73919E-01 -6.20419E-01
  -1.60188E+00 -2.32438E+00 -2.66674E+00 -2.46373E+00 -1.73992E+00 -7.80388E-01  4.26675E-02  5.13277E-01  6.60261E-01  5.82292E-01
   3.64489E-01  1.26195E-01 -1.07926E-04  2.20432E-02  1.43965E-01  2.82578E-01  3.69666E-01  3.65858E-01  2.15608E-01 -6.33679E-02
  -3.74436E-01 -6.19558E-01 -7.36412E-01 -6.79982E-01 -4.55245E-01 -1.51914E-01  9.82029E-02  2.01004E-01  1.49183E-01 -2.55444E-04
  -1.89674E-01 -3.34306E-01 -3.48537E-01 -2.22122E-01  2.31480E-02  5.26629E-01  1.26837E+00  2.15054E+00  3.38270E+00  4.99584E+00
   6.42400E+00  6.85665E+00  5.96903E+00  4.23748E+00  2.53809E+00  1.35880E+00  6.25378E-01  2.20503E-01  4.80021E-02 -4.52208E-02
  -1.08074E-01 -1.37657E-01 -1.19002E-01 -5.71484E-02  3.12231E-02  1.12463E-01  1.57526E-01  1.62638E-01  1.41824E-01  1.07326E-01
   7.05215E-02  4.42058E-02  3.59658E-02  4.63319E-02  7.07310E-02  1.03013E-01  1.39072E-01  1.77086E-01  2.16405E-01  2.59197E-01
   3.07970E-01  3.64031E-01  4.27879E-01  5.00111E-01  5.81358E-01  6.71521E-01  7.69892E-01  8.75668E-01  9.87647E-01  1.10413E+00
   1.22326E+00  1.34293E+00  1.46096E+00  1.57495E+00  1.68225E+00  1.78023E+00  1.86677E+00  1.94043E+00  2.00041E+00  2.04629E+00
   2.07817E+00  2.09674E+00  2.10321E+00  2.09941E+00  2.08770E+00  2.07086E+00  2.05196E+00  2.03420E+00  2.02094E+00  2.01579E+00
   2.02295E+00  2.04868E+00  2.10184E+00  2.17464E+00  2.25892E+00  2.35697E+00  2.45136E+00  2.50677E+00  2.50684E+00  2.47819E+00
   2.48817E+00  2.58950E+00  2.77561E+00  3.03194E+00  3.36694E+00  3.76897E+00  4.18938E+00  4.57472E+00  4.90150E+00  5.19362E+00
   5.49217E+00  5.82057E+00  6.20129E+00  6.63485E+00  7.06876E+00  7.49771E+00  7.89385E+00  8.15392E+00  8.17837E+00  7.98107E+00
   7.73032E+00  7.62101E+00  7.69236E+00  7.91001E+00  8.27114E+00  8.74611E+00  9.18870E+00  9.44204E+00  9.43667E+00  9.23743E+00
   8.95990E+00  8.66037E+00  8.35429E+00  8.05590E+00  7.75570E+00  7.44950E+00  7.13818E+00  6.82432E+00  6.51108E+00  6.20176E+00
   5.89959E+00  5.60756E+00  5.32830E+00  5.06403E+00  4.81652E+00  4.58720E+00  4.37720E+00  4.18733E+00  4.01807E+00  3.86965E+00
   3.74205E+00  3.63512E+00  3.54853E+00  3.48181E+00  3.43430E+00  3.40514E+00  3.39333E+00  3.39771E+00  3.41697E+00  3.44953E+00
   3.49363E+00  3.54725E+00  3.60824E+00  3.67430E+00  3.74299E+00  3.81174E+00  3.87796E+00  3.93909E+00  3.99270E+00  4.03656E+00
   4.06867E+00  4.08731E+00  4.09113E+00  4.07921E+00  4.05108E+00  4.00671E+00  3.94646E+00  3.87107E+00  3.78166E+00  3.67965E+00
   3.56668E+00  3.44458E+00  3.31521E+00  3.18045E+00  3.04215E+00  2.90208E+00  2.76188E+00  2.62299E+00  2.48663E+00  2.35383E+00
   2.22543E+00  2.10209E+00  1.98428E+00  1.87228E+00  1.76621E+00  1.66608E+00  1.57183E+00  1.48333E+00  1.40036E+00  1.32263E+00
   1.24985E+00  1.18173E+00  1.11796E+00  1.05827E+00  1.00235E+00  9.49894E-01  9.00625E-01  8.54306E-01  8.10723E-01  7.69664E-01
   7.30912E-01  6.94270E-01  6.59574E-01  6.26694E-01  5.95503E-01  5.65865E-01  5.37647E-01  5.10736E-01  4.85048E-01  4.60515E-01
   4.37061E-01  4.14599E-01  3.93045E-01  3.72342E-01  3.52451E-01  3.33335E-01  3.14941E-01  2.97209E-01  2.80087E-01  2.63549E-01
   2.47576E-01  2.32144E-01  2.17209E-01  2.02728E-01  1.88677E-01  1.75046E-01  1.61828E-01  1.48998E-01  1.36519E-01  1.24362E-01
   1.12518E-01  1.00989E-01  8.97688E-02  7.88302E-02  6.81437E-02  5.76949E-02  4.74866E-02  3.75215E-02  2.77857E-02  1.82520E-02
   8.89899E-03 -2.75471E-04 -9.26310E-03 -1.80646E-02 -2.66996E-02 -3.51931E-02 -4.35561E-02 -5.17821E-02 -5.98642E-02 -6.78114E-02
  -7.56477E-02 -8.33931E-02 -9.10493E-02 -9.86065E-02 -1.06064E-01 -1.13441E-01 -1.20763E-01 -1.28045E-01
 NY background values follow
    -5.317E-02   -5.469E-02   -5.621E-02   -5.774E-02   -5.927E-02   -6.079E-02   -6.232E-02   -6.385E-02   -6.539E-02   -6.692E-02
    -6.846E-02   -6.999E-02   -7.153E-02   -7.307E-02   -7.461E-02   -7.616E-02   -7.770E-02   -7.925E-02   -8.080E-02   -8.235E-02
    -8.390E-02   -8.545E-02   -8.700E-02   -8.856E-02   -9.011E-02   -9.167E-02   -9.323E-02   -9.479E-02   -9.635E-02   -9.792E-02
    -9.948E-02   -1.010E-01   -1.026E-01   -1.042E-01   -1.058E-01   -1.073E-01   -1.089E-01   -1.105E-01   -1.120E-01   -1.136E-01
    -1.152E-01   -1.168E-01   -1.184E-01   -1.199E-01   -1.215E-01   -1.231E-01   -1.247E-01   -1.263E-01   -1.279E-01   -1.295E-01
    -1.310E-01   -1.326E-01   -1.342E-01   -1.358E-01   -1.374E-01   -1.390E-01   -1.406E-01   -1.422E-01   -1.438E-01   -1.454E-01
    -1.470E-01   -1.486E-01   -1.502E-01   -1.518E-01   -1.534E-01   -1.550E-01   -1.566E-01   -1.582E-01   -1.599E-01   -1.615E-01
    -1.631E-01   -1.647E-01   -1.663E-01   -1.679E-01   -1.695E-01   -1.711E-01   -1.728E-01   -1.744E-01   -1.760E-01   -1.776E-01
    -1.792E-01   -1.809E-01   -1.825E-01   -1.841E-01   -1.857E-01   -1.873E-01   -1.890E-01   -1.906E-01   -1.922E-01   -1.938E-01
    -1.955E-01   -1.971E-01   -1.987E-01   -2.004E-01   -2.020E-01   -2.036E-01   -2.053E-01   -2.069E-01   -2.085E-01   -2.102E-01
    -2.118E-01   -2.134E-01   -2.151E-01   -2.167E-01   -2.183E-01   -2.200E-01   -2.216E-01   -2.232E-01   -2.249E-01   -2.265E-01
    -2.282E-01   -2.298E-01   -2.315E-01   -2.331E-01   -2.347E-01   -2.364E-01   -2.380E-01   -2.397E-01   -2.413E-01   -2.430E-01
    -2.446E-01   -2.462E-01   -2.479E-01   -2.495E-01   -2.512E-01   -2.528E-01   -2.545E-01   -2.561E-01   -2.578E-01   -2.594E-01
    -2.611E-01   -2.627E-01   -2.644E-01   -2.660E-01   -2.677E-01   -2.693E-01   -2.710E-01   -2.726E-01   -2.743E-01   -2.759E-01
    -2.776E-01   -2.792E-01   -2.809E-01   -2.825E-01   -2.842E-01   -2.858E-01   -2.875E-01   -2.891E-01   -2.908E-01   -2.924E-01
    -2.941E-01   -2.957E-01   -2.974E-01   -2.990E-01   -3.007E-01   -3.024E-01   -3.040E-01   -3.057E-01   -3.073E-01   -3.090E-01
    -3.106E-01   -3.123E-01   -3.139E-01   -3.156E-01   -3.172E-01   -3.189E-01   -3.205E-01   -3.222E-01   -3.238E-01   -3.255E-01
    -3.272E-01   -3.288E-01   -3.305E-01   -3.321E-01   -3.338E-01   -3.354E-01   -3.371E-01   -3.387E-01   -3.404E-01   -3.420E-01
    -3.437E-01   -3.453E-01   -3.470E-01   -3.486E-01   -3.503E-01   -3.519E-01   -3.536E-01   -3.552E-01   -3.569E-01   -3.585E-01
    -3.602E-01   -3.618E-01   -3.635E-01   -3.651E-01   -3.668E-01   -3.684E-01   -3.700E-01   -3.717E-01   -3.733E-01   -3.750E-01
    -3.766E-01   -3.783E-01   -3.799E-01   -3.816E-01   -3.832E-01   -3.848E-01   -3.865E-01   -3.881E-01   -3.898E-01   -3.914E-01
    -3.930E-01   -3.947E-01   -3.963E-01   -3.980E-01   -3.996E-01   -4.012E-01   -4.029E-01   -4.045E-01   -4.061E-01   -4.078E-01
    -4.094E-01   -4.110E-01   -4.127E-01   -4.143E-01   -4.159E-01   -4.176E-01   -4.192E-01   -4.208E-01   -4.225E-01   -4.241E-01
    -4.257E-01   -4.273E-01   -4.290E-01   -4.306E-01   -4.322E-01   -4.338E-01   -4.355E-01   -4.371E-01   -4.387E-01   -4.403E-01
    -4.419E-01   -4.436E-01   -4.452E-01   -4.468E-01   -4.484E-01   -4.500E-01   -4.516E-01   -4.532E-01   -4.549E-01   -4.565E-01
    -4.581E-01   -4.597E-01   -4.613E-01   -4.629E-01   -4.645E-01   -4.661E-01   -4.677E-01   -4.693E-01   -4.709E-01   -4.725E-01
    -4.741E-01   -4.757E-01   -4.773E-01   -4.789E-01   -4.805E-01   -4.821E-01   -4.837E-01   -4.853E-01   -4.869E-01   -4.885E-01
    -4.901E-01   -4.916E-01   -4.932E-01   -4.948E-01   -4.964E-01   -4.980E-01   -4.996E-01   -5.011E-01   -5.027E-01   -5.043E-01
    -5.059E-01   -5.075E-01   -5.090E-01   -5.106E-01   -5.122E-01   -5.137E-01   -5.153E-01   -5.169E-01   -5.184E-01   -5.200E-01
    -5.216E-01   -5.231E-01   -5.247E-01   -5.263E-01   -5.278E-01   -5.294E-01   -5.309E-01   -5.325E-01   -5.340E-01   -5.356E-01
    -5.371E-01   -5.387E-01   -5.402E-01   -5.418E-01   -5.433E-01   -5.449E-01   -5.464E-01   -5.479E-01   -5.495E-01   -5.510E-01
    -5.525E-01   -5.541E-01   -5.556E-01   -5.571E-01   -5.587E-01   -5.602E-01   -5.617E-01   -5.632E-01   -5.648E-01   -5.663E-01
    -5.678E-01   -5.693E-01   -5.708E-01   -5.723E-01   -5.738E-01   -5.754E-01   -5.769E-01   -5.784E-01   -5.799E-01   -5.814E-01
    -5.829E-01   -5.844E-01   -5.859E-01   -5.874E-01   -5.889E-01   -5.904E-01   -5.918E-01   -5.933E-01   -5.948E-01   -5.963E-01
    -5.978E-01   -5.993E-01   -6.007E-01   -6.022E-01   -6.037E-01   -6.052E-01   -6.066E-01   -6.081E-01   -6.096E-01   -6.110E-01
    -6.125E-01   -6.140E-01   -6.154E-01   -6.169E-01   -6.183E-01   -6.198E-01   -6.212E-01   -6.227E-01   -6.241E-01   -6.256E-01
    -6.270E-01   -6.285E-01   -6.299E-01   -6.313E-01   -6.328E-01   -6.342E-01   -6.356E-01   -6.371E-01   -6.385E-01   -6.399E-01
    -6.413E-01   -6.428E-01   -6.442E-01   -6.456E-01   -6.470E-01   -6.484E-01   -6.498E-01   -6.512E-01   -6.526E-01   -6.540E-01
    -6.554E-01   -6.568E-01   -6.582E-01   -6.596E-01   -6.610E-01   -6.624E-01   -6.638E-01   -6.652E-01   -6.665E-01   -6.679E-01
    -6.693E-01   -6.707E-01   -6.720E-01   -6.734E-01   -6.748E-01   -6.761E-01   -6.775E-01   -6.789E-01   -6.802E-01   -6.816E-01
    -6.829E-01   -6.843E-01   -6.856E-01   -6.870E-01   -6.883E-01   -6.897E-01   -6.910E-01   -6.923E-01   -6.937E-01   -6.950E-01
    -6.963E-01   -6.976E-01   -6.990E-01   -7.003E-01   -7.016E-01   -7.029E-01   -7.042E-01   -7.055E-01   -7.068E-01   -7.081E-01
    -7.094E-01   -7.107E-01   -7.120E-01   -7.133E-01   -7.146E-01   -7.159E-01   -7.172E-01   -7.185E-01   -7.197E-01   -7.210E-01
    -7.223E-01   -7.236E-01   -7.248E-01   -7.261E-01   -7.274E-01   -7.286E-01   -7.299E-01   -7.311E-01   -7.324E-01   -7.336E-01
    -7.349E-01   -7.361E-01   -7.374E-01   -7.386E-01   -7.398E-01   -7.411E-01   -7.423E-01   -7.435E-01   -7.447E-01   -7.460E-01
    -7.472E-01   -7.484E-01   -7.496E-01   -7.508E-01   -7.520E-01   -7.532E-01   -7.544E-01   -7.556E-01   -7.568E-01   -7.580E-01
    -7.592E-01   -7.604E-01   -7.615E-01   -7.627E-01   -7.639E-01   -7.651E-01   -7.662E-01   -7.674E-01   -7.685E-01   -7.697E-01
    -7.709E-01   -7.720E-01   -7.732E-01   -7.743E-01   -7.755E-01   -7.766E-01   -7.777E-01   -7.789E-01   -7.800E-01   -7.811E-01
    -7.822E-01   -7.834E-01   -7.845E-01   -7.856E-01   -7.867E-01   -7.878E-01   -7.889E-01   -7.900E-01   -7.911E-01   -7.922E-01
    -7.933E-01   -7.944E-01   -7.955E-01   -7.966E-01   -7.976E-01   -7.987E-01   -7.998E-01   -8.008E-01
 Ala      Conc. = 1.95E+01
