 LCModel (Version 6.3-1L) Copyright: S.W. Provencher.          Ref.: Magn. Reson. Med. 30:672-679 (1993).                
 Slice#3 Row#9 Col#8  K_02_press_1_raw_act
 36 lines in following concentration table = NCONC+1
    Conc.  %SD /Cr+PCr  Metabolite                                         
    0.000 999%   0.000 Ala                                                 
    0.000 999%   0.000 Asp                                                 
 1.24E+03  18%   0.578 Cr                                                  
  905.086  25%   0.422 PCr                                                 
    0.000 999%   0.000 GABA                                                
    0.000 999%   0.000 Glc                                                 
  558.015  41%   0.260 Gln                                                 
 1.63E+03  16%   0.763 Glu                                                 
  508.829   5%   0.237 GPC                                                 
    0.000 999%   0.000 PCh                                                 
  673.112  12%   0.314 GSH                                                 
 1.30E+03  19%   0.607 Ins                                                 
    0.000 999%   0.000 Lac                                                 
 2.16E+03   5%   1.007 NAA                                                 
  494.927  22%   0.231 NAAG                                                
    0.000 999%   0.000 Scyllo                                              
    0.000 999%   0.000 Tau                                                 
    0.000 999%   0.000 -CrCH2                                              
  508.829   5%   0.237 GPC+PCh                                             
 2.65E+03   4%   1.238 NAA+NAAG                                            
 2.14E+03   3%   1.000 Cr+PCr                                              
 2.19E+03  16%   1.023 Glu+Gln                                             
 2.25E+03  32%   1.048 Lip13a                                              
    0.000 999%   0.000 Lip13b                                              
  337.955 101%   0.158 Lip09                                               
 1.75E+03  22%   0.818 MM09                                                
  237.057 102%   0.111 Lip20                                               
 3.35E+03  15%   1.561 MM20                                                
  649.956  41%   0.303 MM12                                                
 1.50E+03  32%   0.702 MM14                                                
 1.66E+03  20%   0.772 MM17                                                
 2.25E+03  32%   1.048 Lip13a+Lip13b                                       
 4.40E+03  12%   2.053 MM14+Lip13a+Lip13b+MM12                             
 2.09E+03  12%   0.975 MM09+Lip09                                          
 3.58E+03  13%   1.672 MM20+Lip20                                          
   6 lines in following misc. output table
  FWHM = 0.046 ppm    S/N =  11                                            
  Data shift = 0.023 ppm                                                   
  Ph:  -1 deg      -4.1 deg/ppm                                            
  alphaB,S = 2.5E+00,   7.8E+01                                            
   14 spline knots.   Ns = 6(1)                                            
  ( 7) 2 infls.   ( 7) 1 extrs.                                            
  498 points on ppm-axis = NY
      4.000000     3.992357     3.984714     3.977070     3.969427     3.961784     3.954141     3.946497     3.938854     3.931211
      3.923568     3.915925     3.908281     3.900638     3.892995     3.885352     3.877708     3.870065     3.862422     3.854779
      3.847136     3.839492     3.831849     3.824206     3.816563     3.808919     3.801276     3.793633     3.785990     3.778347
      3.770703     3.763060     3.755417     3.747774     3.740130     3.732487     3.724844     3.717201     3.709558     3.701914
      3.694271     3.686628     3.678985     3.671341     3.663698     3.656055     3.648412     3.640769     3.633125     3.625482
      3.617839     3.610196     3.602552     3.594909     3.587266     3.579623     3.571980     3.564336     3.556693     3.549050
      3.541407     3.533763     3.526120     3.518477     3.510834     3.503191     3.495547     3.487904     3.480261     3.472618
      3.464974     3.457331     3.449688     3.442045     3.434402     3.426758     3.419115     3.411472     3.403829     3.396185
      3.388542     3.380899     3.373256     3.365613     3.357969     3.350326     3.342683     3.335040     3.327396     3.319753
      3.312110     3.304467     3.296824     3.289180     3.281537     3.273894     3.266251     3.258607     3.250964     3.243321
      3.235678     3.228034     3.220391     3.212748     3.205105     3.197462     3.189818     3.182175     3.174532     3.166889
      3.159245     3.151602     3.143959     3.136316     3.128673     3.121029     3.113386     3.105743     3.098100     3.090456
      3.082813     3.075170     3.067527     3.059884     3.052240     3.044597     3.036954     3.029311     3.021667     3.014024
      3.006381     2.998738     2.991095     2.983451     2.975808     2.968165     2.960522     2.952878     2.945235     2.937592
      2.929949     2.922306     2.914662     2.907019     2.899376     2.891733     2.884089     2.876446     2.868803     2.861160
      2.853517     2.845873     2.838230     2.830587     2.822944     2.815300     2.807657     2.800014     2.792371     2.784728
      2.777084     2.769441     2.761798     2.754155     2.746511     2.738868     2.731225     2.723582     2.715939     2.708295
      2.700652     2.693009     2.685366     2.677722     2.670079     2.662436     2.654793     2.647150     2.639506     2.631863
      2.624220     2.616577     2.608933     2.601290     2.593647     2.586004     2.578361     2.570717     2.563074     2.555431
      2.547788     2.540144     2.532501     2.524858     2.517215     2.509572     2.501928     2.494285     2.486642     2.478999
      2.471355     2.463712     2.456069     2.448426     2.440783     2.433139     2.425496     2.417853     2.410210     2.402566
      2.394923     2.387280     2.379637     2.371994     2.364350     2.356707     2.349064     2.341421     2.333777     2.326134
      2.318491     2.310848     2.303205     2.295561     2.287918     2.280275     2.272632     2.264988     2.257345     2.249702
      2.242059     2.234416     2.226772     2.219129     2.211486     2.203843     2.196199     2.188556     2.180913     2.173270
      2.165627     2.157983     2.150340     2.142697     2.135054     2.127410     2.119767     2.112124     2.104481     2.096838
      2.089194     2.081551     2.073908     2.066265     2.058621     2.050978     2.043335     2.035692     2.028049     2.020405
      2.012762     2.005119     1.997476     1.989833     1.982190     1.974546     1.966903     1.959260     1.951617     1.943974
      1.936331     1.928688     1.921045     1.913402     1.905759     1.898115     1.890472     1.882829     1.875186     1.867543
      1.859900     1.852257     1.844614     1.836971     1.829327     1.821684     1.814041     1.806398     1.798755     1.791112
      1.783469     1.775826     1.768183     1.760540     1.752896     1.745253     1.737610     1.729967     1.722324     1.714681
      1.707038     1.699395     1.691752     1.684108     1.676465     1.668822     1.661179     1.653536     1.645893     1.638250
      1.630607     1.622964     1.615321     1.607677     1.600034     1.592391     1.584748     1.577105     1.569462     1.561819
      1.554176     1.546533     1.538890     1.531246     1.523603     1.515960     1.508317     1.500674     1.493031     1.485388
      1.477745     1.470102     1.462458     1.454815     1.447172     1.439529     1.431886     1.424243     1.416600     1.408957
      1.401314     1.393671     1.386027     1.378384     1.370741     1.363098     1.355455     1.347812     1.340169     1.332526
      1.324883     1.317240     1.309596     1.301953     1.294310     1.286667     1.279024     1.271381     1.263738     1.256095
      1.248452     1.240808     1.233165     1.225522     1.217879     1.210236     1.202593     1.194950     1.187307     1.179664
      1.172021     1.164377     1.156734     1.149091     1.141448     1.133805     1.126162     1.118519     1.110876     1.103233
      1.095590     1.087946     1.080303     1.072660     1.065017     1.057374     1.049731     1.042088     1.034445     1.026802
      1.019158     1.011515     1.003872     0.996229     0.988586     0.980943     0.973300     0.965657     0.958014     0.950371
      0.942727     0.935084     0.927441     0.919798     0.912155     0.904512     0.896869     0.889226     0.881583     0.873940
      0.866296     0.858653     0.851010     0.843367     0.835724     0.828081     0.820438     0.812795     0.805152     0.797508
      0.789865     0.782222     0.774579     0.766936     0.759293     0.751650     0.744007     0.736364     0.728721     0.721077
      0.713434     0.705791     0.698148     0.690505     0.682862     0.675219     0.667576     0.659933     0.652290     0.644646
      0.637003     0.629360     0.621717     0.614074     0.606431     0.598788     0.591145     0.583502     0.575858     0.568215
      0.560572     0.552929     0.545286     0.537643     0.530000     0.522357     0.514714     0.507071     0.499427     0.491784
      0.484141     0.476498     0.468855     0.461212     0.453569     0.445925     0.438282     0.430639     0.422996     0.415353
      0.407710     0.400067     0.392424     0.384780     0.377137     0.369494     0.361851     0.354208     0.346565     0.338922
      0.331278     0.323635     0.315992     0.308349     0.300706     0.293063     0.285420     0.277777     0.270133     0.262490
      0.254847     0.247204     0.239561     0.231918     0.224275     0.216631     0.208988     0.201345
 NY phased data points follow
   4.07510E+01  3.63859E+01  4.68994E+01  4.14430E+01  4.49233E+01  5.15614E+01  6.73919E+01  6.44414E+01  8.18834E+01  8.42794E+01
   9.32829E+01  9.50651E+01  8.43953E+01  7.60344E+01  6.72831E+01  6.07287E+01  5.19819E+01  5.27810E+01  4.00897E+01  4.26803E+01
   4.35443E+01  4.07802E+01  3.83285E+01  4.23848E+01  3.80707E+01  4.30417E+01  4.58313E+01  4.72394E+01  5.09828E+01  5.29550E+01
   5.45976E+01  5.21389E+01  5.12654E+01  5.22321E+01  4.66792E+01  4.00386E+01  3.52895E+01  3.52134E+01  4.23784E+01  3.77612E+01
   4.45836E+01  3.63080E+01  3.79075E+01  3.58089E+01  4.04332E+01  4.48574E+01  4.77576E+01  5.15435E+01  4.62486E+01  4.71322E+01
   3.71279E+01  3.71345E+01  3.19356E+01  3.67758E+01  3.74384E+01  3.50604E+01  3.75133E+01  3.24777E+01  3.83899E+01  3.90360E+01
   2.75105E+01  2.72626E+01  2.99813E+01  2.53850E+01  2.51841E+01  2.46878E+01  2.88640E+01  2.11251E+01  1.78192E+01  2.49485E+01
   2.47047E+01  3.28024E+01  2.26832E+01  2.31787E+01  2.59582E+01  2.74568E+01  2.17892E+01  2.16161E+01  2.33561E+01  3.20651E+01
   2.23788E+01  2.94945E+01  2.25571E+01  2.20006E+01  1.67253E+01  2.20029E+01  1.76630E+01  1.56792E+01  1.84923E+01  2.64410E+01
   2.56881E+01  2.57974E+01  2.40558E+01  2.21191E+01  2.28319E+01  2.83366E+01  2.69262E+01  2.66766E+01  3.51555E+01  3.64534E+01
   4.77346E+01  6.35806E+01  7.21678E+01  7.96931E+01  7.12587E+01  6.08186E+01  5.11963E+01  4.20916E+01  4.19889E+01  3.69251E+01
   3.00684E+01  3.19733E+01  2.55468E+01  2.63310E+01  2.75255E+01  2.41519E+01  2.66157E+01  2.84012E+01  2.82998E+01  2.40766E+01
   2.74811E+01  2.97873E+01  3.14098E+01  4.52428E+01  5.59803E+01  8.42605E+01  9.09604E+01  9.93376E+01  9.40949E+01  8.84619E+01
   6.83573E+01  5.16481E+01  4.36469E+01  3.23190E+01  3.61423E+01  2.93220E+01  2.78468E+01  2.81882E+01  2.81688E+01  2.87852E+01
   2.25869E+01  2.32014E+01  1.94307E+01  1.72657E+01  2.44234E+01  2.30117E+01  2.13541E+01  1.35149E+01  1.74916E+01  2.14951E+01
   2.38188E+01  2.38966E+01  2.09252E+01  1.19405E+01  1.88502E+01  1.47185E+01  2.00979E+01  1.84620E+01  1.14817E+01  1.42289E+01
   1.81894E+01  1.37302E+01  1.25438E+01  1.40575E+01  1.03832E+01  1.98830E+01  1.90249E+01  1.65349E+01  1.30880E+01  1.05579E+01
   1.08133E+01  1.04459E+01  1.52531E+01 -1.10840E+00  4.22054E+00 -4.46377E-01  5.32509E-01  9.34354E+00  4.05048E+00  4.00679E+00
   3.27132E+00  2.53639E+00  3.35074E+00  1.29912E+00  3.76597E+00  9.31158E+00  1.89146E+00  1.00653E+01  1.08223E+01  1.51135E+01
   2.70896E+01  1.91459E+01  2.41125E+01  2.63661E+01  2.73372E+01  2.16616E+01  1.94992E+01  1.86022E+01  9.80350E+00  1.04649E+01
   1.34611E+01  2.23544E+01  2.22457E+01  1.58564E+01  1.20070E+01  1.62197E+01  9.95412E+00  1.22782E+01  7.23908E+00  8.40584E+00
   9.98224E+00  1.02425E+01  1.59779E+01  2.10101E+01  2.55234E+01  2.86876E+01  2.16645E+01  2.70493E+01  1.87097E+01  1.55949E+01
   1.24028E+01  6.86956E+00  1.04243E+01  1.58315E+01  1.61633E+01  2.08956E+01  2.38078E+01  2.54520E+01  2.44830E+01  2.31374E+01
   2.48002E+01  1.85137E+01  2.03023E+01  2.54442E+01  1.95730E+01  2.04610E+01  2.39279E+01  2.09762E+01  2.12637E+01  1.78095E+01
   1.54832E+01  1.38413E+01  1.56855E+01  2.09773E+01  2.28222E+01  2.80321E+01  1.99409E+01  2.62547E+01  2.50823E+01  2.98593E+01
   2.69702E+01  3.44499E+01  3.95968E+01  4.50133E+01  5.14203E+01  5.00817E+01  5.71845E+01  7.43339E+01  9.81701E+01  1.14671E+02
   1.09698E+02  1.03330E+02  8.98144E+01  6.95033E+01  4.88211E+01  4.26410E+01  2.41528E+01  2.57885E+01  2.34623E+01  1.65476E+01
   2.90097E+01  1.67857E+01  1.87846E+01  2.42880E+01  1.84349E+01  1.71213E+01  1.94944E+01  1.93875E+01  1.77856E+01  1.92105E+01
   1.87319E+01  2.16446E+01  1.31037E+01  1.68511E+01  2.42993E+01  1.13919E+01  1.89064E+01  1.55534E+01  1.65966E+01  1.52018E+01
   1.30053E+01  1.50904E+01  2.01291E+01  1.61507E+01  1.88668E+01  1.85290E+01  1.47381E+01  2.21463E+01  1.70486E+01  2.04565E+01
   1.76554E+01  1.68357E+01  2.26221E+01  2.10502E+01  2.26762E+01  2.11274E+01  2.59564E+01  2.49833E+01  2.09808E+01  2.29651E+01
   2.44290E+01  1.78749E+01  2.18483E+01  2.35697E+01  2.09882E+01  2.53261E+01  2.58130E+01  2.69572E+01  1.89237E+01  1.60927E+01
   2.14899E+01  1.69930E+01  1.73860E+01  1.60496E+01  1.76263E+01  1.90713E+01  1.92547E+01  1.31398E+01  2.08183E+01  2.19213E+01
   1.93372E+01  2.01394E+01  1.69621E+01  2.39732E+01  2.48048E+01  2.31208E+01  1.75400E+01  2.16564E+01  2.48572E+01  2.22645E+01
   1.77032E+01  1.77405E+01  2.64589E+01  2.59950E+01  2.14928E+01  2.37401E+01  2.91892E+01  2.52422E+01  1.81140E+01  2.71113E+01
   2.22992E+01  3.15916E+01  2.75811E+01  1.92195E+01  2.63704E+01  2.15667E+01  1.90263E+01  2.45612E+01  2.32871E+01  2.15333E+01
   2.42964E+01  2.56573E+01  2.05489E+01  2.40186E+01  2.38402E+01  2.42061E+01  2.56928E+01  2.22549E+01  1.93844E+01  2.00145E+01
   2.10683E+01  2.01840E+01  2.43233E+01  2.26017E+01  2.01794E+01  8.15284E+00  2.23537E+01  2.09058E+01  2.02935E+01  1.96626E+01
   2.03676E+01  1.71854E+01  1.36303E+01  2.21142E+01  2.03702E+01  1.94301E+01  1.80239E+01  1.76730E+01  1.95625E+01  2.33351E+01
   1.92608E+01  1.56384E+01  2.09690E+01  2.41876E+01  2.34266E+01  2.66845E+01  2.32007E+01  1.96533E+01  1.99958E+01  2.20090E+01
   2.54994E+01  2.21744E+01  1.75196E+01  2.40227E+01  2.66433E+01  2.67549E+01  2.19269E+01  2.87784E+01  2.35837E+01  1.52300E+01
   1.31144E+01  1.86036E+01  1.95581E+01  2.16547E+01  2.30378E+01  2.03182E+01  1.90494E+01  1.61448E+01  1.73420E+01  1.32858E+01
   1.31076E+01  1.25879E+01  1.49705E+01  1.31833E+01  1.97429E+01  1.10479E+01  6.66739E+00  1.17140E+01  1.99214E+01  1.20988E+01
   1.77351E+01  1.49155E+01  1.29743E+01  1.34742E+01  1.79347E+01  1.67928E+01  9.91065E+00  9.65814E+00  1.63443E+01  1.09733E+01
   7.86446E+00  1.03885E+01  1.62722E+01  5.80937E+00  8.61004E+00  1.15304E+01  1.19692E+01  1.16034E+01  7.30485E+00  1.41367E+01
   7.15851E+00  9.40536E+00  9.89952E+00  8.68501E+00  8.89631E+00  1.02978E+01  1.30799E+01  9.92913E+00  1.16172E+01  1.56905E+01
   1.12357E+01  9.20423E+00  1.19086E+01  1.21910E+01  1.00836E+01  6.44705E+00  1.00993E+01  6.52571E+00  8.45322E+00  6.87139E+00
   9.00418E+00  1.23005E+01  9.60857E+00  5.14720E+00  1.19403E+01  9.15154E+00  1.26738E+01  6.16609E+00  5.58515E+00  5.83243E+00
   8.72765E+00  8.80609E+00  8.05763E+00  1.10064E+01  6.91369E+00  7.53456E+00  9.70694E+00  1.16305E+01  7.15651E+00  4.08222E+00
   9.82852E+00  6.93497E+00  1.09352E+01  6.87813E+00  1.08700E+01  1.04402E+01  1.03996E+01  3.55175E+00
 NY points of the fit to the data follow
   4.10865E+01  4.08394E+01  4.10607E+01  4.21168E+01  4.46266E+01  4.90720E+01  5.64316E+01  6.59313E+01  7.60191E+01  8.45168E+01
   8.89203E+01  8.78181E+01  8.19320E+01  7.35002E+01  6.46751E+01  5.69297E+01  5.09391E+01  4.66926E+01  4.38621E+01  4.17348E+01
   4.05847E+01  3.98353E+01  3.90315E+01  3.82698E+01  3.79814E+01  3.84748E+01  4.05896E+01  4.46677E+01  4.95933E+01  5.36426E+01
   5.56895E+01  5.53508E+01  5.26095E+01  4.83063E+01  4.38612E+01  4.01221E+01  3.72942E+01  3.54818E+01  3.49187E+01  3.50484E+01
   3.54800E+01  3.62715E+01  3.74552E+01  3.91341E+01  4.13795E+01  4.37028E+01  4.50503E+01  4.47820E+01  4.31254E+01  4.05580E+01
   3.76736E+01  3.51615E+01  3.34433E+01  3.24314E+01  3.18859E+01  3.18594E+01  3.24256E+01  3.32925E+01  3.40458E+01  3.43739E+01
   3.40863E+01  3.32091E+01  3.19525E+01  3.06859E+01  2.97490E+01  2.92896E+01  2.92596E+01  2.95198E+01  2.99638E+01  3.04505E+01
   3.08250E+01  3.09288E+01  3.07408E+01  3.03382E+01  2.98075E+01  2.92670E+01  2.88019E+01  2.84354E+01  2.81232E+01  2.78206E+01
   2.75321E+01  2.71752E+01  2.66679E+01  2.59100E+01  2.48754E+01  2.36856E+01  2.25989E+01  2.18874E+01  2.17054E+01  2.20413E+01
   2.27785E+01  2.36961E+01  2.45632E+01  2.52370E+01  2.56327E+01  2.57301E+01  2.58434E+01  2.72471E+01  3.13896E+01  3.88449E+01
   5.04334E+01  6.38167E+01  7.39149E+01  7.70890E+01  7.33300E+01  6.46988E+01  5.38789E+01  4.38835E+01  3.65143E+01  3.14752E+01
   2.75964E+01  2.48433E+01  2.38970E+01  2.36215E+01  2.35117E+01  2.34644E+01  2.34465E+01  2.34584E+01  2.35619E+01  2.38967E+01
   2.48269E+01  2.78478E+01  3.47571E+01  4.61168E+01  6.29822E+01  8.22837E+01  9.70178E+01  1.02074E+02  9.73650E+01  8.57503E+01
   7.09668E+01  5.69674E+01  4.59190E+01  3.73509E+01  2.99251E+01  2.40276E+01  2.12993E+01  2.05600E+01  2.10333E+01  2.21249E+01
   2.31880E+01  2.38263E+01  2.39719E+01  2.36590E+01  2.30374E+01  2.23328E+01  2.16644E+01  2.10513E+01  2.04678E+01  1.98727E+01
   1.93143E+01  1.87740E+01  1.83133E+01  1.80343E+01  1.79557E+01  1.79518E+01  1.78756E+01  1.75619E+01  1.69201E+01  1.61708E+01
   1.56242E+01  1.54920E+01  1.57195E+01  1.59759E+01  1.59309E+01  1.54805E+01  1.47467E+01  1.39744E+01  1.34004E+01  1.30389E+01
   1.27343E+01  1.23071E+01  1.16896E+01  1.09695E+01  1.03891E+01  1.01533E+01  1.02782E+01  1.05201E+01  1.06025E+01  1.04864E+01
   1.03162E+01  1.01835E+01  1.01325E+01  1.01628E+01  1.02983E+01  1.07683E+01  1.19442E+01  1.38397E+01  1.61241E+01  1.82067E+01
   1.94649E+01  1.96105E+01  1.87249E+01  1.72342E+01  1.55528E+01  1.40395E+01  1.31581E+01  1.32353E+01  1.42211E+01  1.58279E+01
   1.77849E+01  1.96916E+01  2.10702E+01  2.15107E+01  2.07407E+01  1.89287E+01  1.62396E+01  1.31944E+01  1.07304E+01  9.58470E+00
   1.01022E+01  1.21146E+01  1.54939E+01  1.94737E+01  2.26677E+01  2.39493E+01  2.30026E+01  2.01402E+01  1.58971E+01  1.13512E+01
   7.89526E+00  6.52374E+00  7.40243E+00  9.97213E+00  1.35635E+01  1.70844E+01  1.96437E+01  2.09093E+01  2.10379E+01  2.05193E+01
   1.98378E+01  1.94887E+01  1.98016E+01  2.07625E+01  2.21141E+01  2.34392E+01  2.41111E+01  2.37859E+01  2.26847E+01  2.10974E+01
   1.94485E+01  1.84396E+01  1.86113E+01  1.98473E+01  2.15756E+01  2.33268E+01  2.47366E+01  2.55370E+01  2.58422E+01  2.63745E+01
   2.79323E+01  3.06596E+01  3.48680E+01  4.01931E+01  4.66368E+01  5.46943E+01  6.50350E+01  8.00698E+01  9.71341E+01  1.09148E+02
   1.11235E+02  1.03523E+02  8.86962E+01  7.07145E+01  5.46439E+01  4.29363E+01  3.47146E+01  2.80345E+01  2.30885E+01  2.11457E+01
   2.02607E+01  1.97471E+01  1.94466E+01  1.91789E+01  1.88244E+01  1.83879E+01  1.78920E+01  1.73823E+01  1.69153E+01  1.65419E+01
   1.62669E+01  1.60707E+01  1.59355E+01  1.58427E+01  1.57628E+01  1.56798E+01  1.56111E+01  1.55870E+01  1.56333E+01  1.57644E+01
   1.59831E+01  1.62801E+01  1.66325E+01  1.70165E+01  1.74187E+01  1.78318E+01  1.82585E+01  1.87093E+01  1.91858E+01  1.96817E+01
   2.01890E+01  2.06900E+01  2.11621E+01  2.15840E+01  2.19414E+01  2.22258E+01  2.24310E+01  2.25511E+01  2.25878E+01  2.25441E+01
   2.24245E+01  2.22372E+01  2.19926E+01  2.17032E+01  2.13825E+01  2.10446E+01  2.07034E+01  2.03726E+01  2.00646E+01  1.97899E+01
   1.95571E+01  1.93722E+01  1.92393E+01  1.91606E+01  1.91363E+01  1.91645E+01  1.92417E+01  1.93629E+01  1.95228E+01  1.97154E+01
   1.99346E+01  2.01740E+01  2.04271E+01  2.06884E+01  2.09532E+01  2.12175E+01  2.14781E+01  2.17324E+01  2.19787E+01  2.22159E+01
   2.24442E+01  2.26637E+01  2.28749E+01  2.30780E+01  2.32732E+01  2.34609E+01  2.36406E+01  2.38118E+01  2.39725E+01  2.41205E+01
   2.42530E+01  2.43669E+01  2.44588E+01  2.45247E+01  2.45608E+01  2.45632E+01  2.45289E+01  2.44554E+01  2.43411E+01  2.41848E+01
   2.39864E+01  2.37469E+01  2.34685E+01  2.31545E+01  2.28088E+01  2.24360E+01  2.20413E+01  2.16307E+01  2.12107E+01  2.07879E+01
   2.03686E+01  1.99592E+01  1.95661E+01  1.91954E+01  1.88530E+01  1.85442E+01  1.82740E+01  1.80466E+01  1.78661E+01  1.77362E+01
   1.76600E+01  1.76398E+01  1.76773E+01  1.77735E+01  1.79287E+01  1.81426E+01  1.84132E+01  1.87377E+01  1.91116E+01  1.95294E+01
   1.99841E+01  2.04672E+01  2.09690E+01  2.14781E+01  2.19824E+01  2.24692E+01  2.29257E+01  2.33391E+01  2.36970E+01  2.39884E+01
   2.42036E+01  2.43353E+01  2.43785E+01  2.43303E+01  2.41904E+01  2.39613E+01  2.36479E+01  2.32571E+01  2.27977E+01  2.22798E+01
   2.17141E+01  2.11121E+01  2.04850E+01  1.98440E+01  1.91992E+01  1.85596E+01  1.79331E+01  1.73262E+01  1.67443E+01  1.61915E+01
   1.56703E+01  1.51824E+01  1.47282E+01  1.43076E+01  1.39200E+01  1.35641E+01  1.32380E+01  1.29397E+01  1.26673E+01  1.24187E+01
   1.21919E+01  1.19849E+01  1.17957E+01  1.16224E+01  1.14635E+01  1.13175E+01  1.11832E+01  1.10593E+01  1.09446E+01  1.08381E+01
   1.07390E+01  1.06468E+01  1.05606E+01  1.04798E+01  1.04038E+01  1.03321E+01  1.02646E+01  1.02007E+01  1.01402E+01  1.00826E+01
   1.00277E+01  9.97535E+00  9.92538E+00  9.87762E+00  9.83181E+00  9.78772E+00  9.74527E+00  9.70441E+00  9.66508E+00  9.62713E+00
   9.59037E+00  9.55468E+00  9.52007E+00  9.48655E+00  9.45407E+00  9.42247E+00  9.39162E+00  9.36150E+00  9.33213E+00  9.30356E+00
   9.27569E+00  9.24839E+00  9.22160E+00  9.19534E+00  9.16967E+00  9.14459E+00  9.11998E+00  9.09575E+00  9.07187E+00  9.04842E+00
   9.02543E+00  9.00286E+00  8.98061E+00  8.95861E+00  8.93688E+00  8.91552E+00  8.89453E+00  8.87384E+00  8.85334E+00  8.83302E+00
   8.81295E+00  8.79318E+00  8.77370E+00  8.75442E+00  8.73525E+00  8.71624E+00  8.69745E+00  8.67893E+00
 NY background values follow
     3.695E+01    3.680E+01    3.664E+01    3.649E+01    3.634E+01    3.618E+01    3.603E+01    3.587E+01    3.572E+01    3.557E+01
     3.541E+01    3.526E+01    3.511E+01    3.495E+01    3.480E+01    3.464E+01    3.449E+01    3.434E+01    3.418E+01    3.403E+01
     3.388E+01    3.372E+01    3.357E+01    3.342E+01    3.326E+01    3.311E+01    3.296E+01    3.280E+01    3.265E+01    3.250E+01
     3.235E+01    3.219E+01    3.204E+01    3.189E+01    3.174E+01    3.159E+01    3.143E+01    3.128E+01    3.113E+01    3.098E+01
     3.083E+01    3.068E+01    3.053E+01    3.038E+01    3.023E+01    3.008E+01    2.993E+01    2.978E+01    2.963E+01    2.948E+01
     2.933E+01    2.919E+01    2.904E+01    2.889E+01    2.874E+01    2.860E+01    2.845E+01    2.830E+01    2.816E+01    2.801E+01
     2.787E+01    2.772E+01    2.758E+01    2.743E+01    2.729E+01    2.715E+01    2.701E+01    2.686E+01    2.672E+01    2.658E+01
     2.644E+01    2.630E+01    2.616E+01    2.602E+01    2.588E+01    2.574E+01    2.560E+01    2.546E+01    2.533E+01    2.519E+01
     2.505E+01    2.492E+01    2.478E+01    2.465E+01    2.451E+01    2.438E+01    2.425E+01    2.411E+01    2.398E+01    2.385E+01
     2.372E+01    2.359E+01    2.346E+01    2.333E+01    2.320E+01    2.308E+01    2.295E+01    2.282E+01    2.270E+01    2.257E+01
     2.245E+01    2.232E+01    2.220E+01    2.208E+01    2.196E+01    2.184E+01    2.171E+01    2.159E+01    2.147E+01    2.136E+01
     2.124E+01    2.112E+01    2.100E+01    2.089E+01    2.077E+01    2.065E+01    2.054E+01    2.043E+01    2.031E+01    2.020E+01
     2.009E+01    1.998E+01    1.987E+01    1.976E+01    1.965E+01    1.954E+01    1.943E+01    1.932E+01    1.921E+01    1.911E+01
     1.900E+01    1.890E+01    1.879E+01    1.869E+01    1.858E+01    1.848E+01    1.838E+01    1.828E+01    1.818E+01    1.808E+01
     1.798E+01    1.788E+01    1.778E+01    1.768E+01    1.759E+01    1.749E+01    1.740E+01    1.730E+01    1.721E+01    1.711E+01
     1.702E+01    1.693E+01    1.684E+01    1.675E+01    1.666E+01    1.657E+01    1.648E+01    1.639E+01    1.630E+01    1.622E+01
     1.613E+01    1.605E+01    1.596E+01    1.588E+01    1.579E+01    1.571E+01    1.563E+01    1.555E+01    1.547E+01    1.539E+01
     1.531E+01    1.523E+01    1.516E+01    1.508E+01    1.501E+01    1.493E+01    1.486E+01    1.478E+01    1.471E+01    1.464E+01
     1.457E+01    1.450E+01    1.443E+01    1.436E+01    1.429E+01    1.422E+01    1.416E+01    1.409E+01    1.403E+01    1.396E+01
     1.390E+01    1.384E+01    1.377E+01    1.371E+01    1.365E+01    1.359E+01    1.353E+01    1.347E+01    1.341E+01    1.336E+01
     1.330E+01    1.324E+01    1.319E+01    1.313E+01    1.308E+01    1.303E+01    1.297E+01    1.292E+01    1.287E+01    1.282E+01
     1.276E+01    1.271E+01    1.266E+01    1.262E+01    1.257E+01    1.252E+01    1.247E+01    1.242E+01    1.238E+01    1.233E+01
     1.229E+01    1.224E+01    1.220E+01    1.215E+01    1.211E+01    1.206E+01    1.202E+01    1.198E+01    1.194E+01    1.190E+01
     1.185E+01    1.181E+01    1.177E+01    1.173E+01    1.169E+01    1.165E+01    1.162E+01    1.158E+01    1.154E+01    1.150E+01
     1.147E+01    1.143E+01    1.139E+01    1.136E+01    1.132E+01    1.129E+01    1.125E+01    1.122E+01    1.118E+01    1.115E+01
     1.112E+01    1.108E+01    1.105E+01    1.102E+01    1.099E+01    1.096E+01    1.093E+01    1.090E+01    1.087E+01    1.084E+01
     1.081E+01    1.078E+01    1.075E+01    1.072E+01    1.069E+01    1.066E+01    1.064E+01    1.061E+01    1.058E+01    1.056E+01
     1.053E+01    1.050E+01    1.048E+01    1.045E+01    1.043E+01    1.040E+01    1.038E+01    1.035E+01    1.033E+01    1.031E+01
     1.028E+01    1.026E+01    1.024E+01    1.021E+01    1.019E+01    1.017E+01    1.015E+01    1.013E+01    1.011E+01    1.008E+01
     1.006E+01    1.004E+01    1.002E+01    1.000E+01    9.984E+00    9.964E+00    9.945E+00    9.926E+00    9.907E+00    9.889E+00
     9.870E+00    9.852E+00    9.834E+00    9.817E+00    9.799E+00    9.782E+00    9.765E+00    9.748E+00    9.731E+00    9.715E+00
     9.699E+00    9.683E+00    9.667E+00    9.651E+00    9.635E+00    9.620E+00    9.605E+00    9.590E+00    9.575E+00    9.560E+00
     9.546E+00    9.531E+00    9.517E+00    9.503E+00    9.489E+00    9.475E+00    9.462E+00    9.448E+00    9.435E+00    9.422E+00
     9.409E+00    9.396E+00    9.383E+00    9.371E+00    9.358E+00    9.346E+00    9.334E+00    9.322E+00    9.310E+00    9.298E+00
     9.286E+00    9.275E+00    9.263E+00    9.252E+00    9.241E+00    9.230E+00    9.218E+00    9.208E+00    9.197E+00    9.186E+00
     9.175E+00    9.165E+00    9.154E+00    9.144E+00    9.134E+00    9.124E+00    9.114E+00    9.104E+00    9.094E+00    9.084E+00
     9.074E+00    9.065E+00    9.055E+00    9.045E+00    9.036E+00    9.027E+00    9.017E+00    9.008E+00    8.999E+00    8.990E+00
     8.981E+00    8.972E+00    8.963E+00    8.954E+00    8.945E+00    8.936E+00    8.927E+00    8.919E+00    8.910E+00    8.902E+00
     8.893E+00    8.885E+00    8.876E+00    8.868E+00    8.859E+00    8.851E+00    8.843E+00    8.835E+00    8.826E+00    8.818E+00
     8.810E+00    8.802E+00    8.794E+00    8.786E+00    8.778E+00    8.770E+00    8.762E+00    8.754E+00    8.746E+00    8.738E+00
     8.730E+00    8.723E+00    8.715E+00    8.707E+00    8.699E+00    8.691E+00    8.684E+00    8.676E+00    8.668E+00    8.660E+00
     8.653E+00    8.645E+00    8.637E+00    8.629E+00    8.622E+00    8.614E+00    8.606E+00    8.599E+00    8.591E+00    8.583E+00
     8.575E+00    8.568E+00    8.560E+00    8.552E+00    8.544E+00    8.537E+00    8.529E+00    8.521E+00    8.513E+00    8.505E+00
     8.497E+00    8.490E+00    8.482E+00    8.474E+00    8.466E+00    8.458E+00    8.450E+00    8.442E+00    8.434E+00    8.426E+00
     8.418E+00    8.410E+00    8.401E+00    8.393E+00    8.385E+00    8.377E+00    8.368E+00    8.360E+00    8.352E+00    8.343E+00
     8.335E+00    8.326E+00    8.318E+00    8.309E+00    8.300E+00    8.292E+00    8.283E+00    8.274E+00    8.265E+00    8.256E+00
     8.247E+00    8.239E+00    8.230E+00    8.221E+00    8.212E+00    8.202E+00    8.193E+00    8.184E+00    8.175E+00    8.166E+00
     8.157E+00    8.147E+00    8.138E+00    8.129E+00    8.120E+00    8.110E+00    8.101E+00    8.092E+00    8.082E+00    8.073E+00
     8.064E+00    8.054E+00    8.045E+00    8.035E+00    8.026E+00    8.017E+00    8.007E+00    7.998E+00    7.988E+00    7.979E+00
     7.969E+00    7.960E+00    7.951E+00    7.941E+00    7.932E+00    7.922E+00    7.913E+00    7.903E+00
 Cr       Conc. = 1.24E+03
