 LCModel (Version 6.3-1L) Copyright: S.W. Provencher.          Ref.: Magn. Reson. Med. 30:672-679 (1993).                
 Slice#1 Row#9 Col#8  K_02_press_1_raw_act
 36 lines in following concentration table = NCONC+1
    Conc.  %SD /Cr+PCr  Metabolite                                         
  250.666  56%   0.213 Ala                                                 
    0.000 999%   0.000 Asp                                                 
  729.136  20%   0.619 Cr                                                  
  448.103  32%   0.381 PCr                                                 
  126.028 120%   0.107 GABA                                                
   79.361 189% 6.7E-02 Glc                                                 
  636.058  46%   0.540 Gln                                                 
 1.55E+03  22%   1.317 Glu                                                 
  323.993   8%   0.275 GPC                                                 
    0.000 999%   0.000 PCh                                                 
  376.007  25%   0.319 GSH                                                 
 1.49E+03  20%   1.266 Ins                                                 
    0.000 999%   0.000 Lac                                                 
 2.20E+03   6%   1.870 NAA                                                 
  458.585  32%   0.390 NAAG                                                
    0.000 999%   0.000 Scyllo                                              
    0.000 999%   0.000 Tau                                                 
    0.000 999%   0.000 -CrCH2                                              
  323.993   8%   0.275 GPC+PCh                                             
 2.66E+03   4%   2.260 NAA+NAAG                                            
 1.18E+03   6%   1.000 Cr+PCr                                              
 2.19E+03  22%   1.857 Glu+Gln                                             
    0.000 999%   0.000 Lip13a                                              
    0.000 999%   0.000 Lip13b                                              
 6.50E-03 999% 5.5E-06 Lip09                                               
 1.39E+03  13%   1.182 MM09                                                
 1.72E-04 999% 1.5E-07 Lip20                                               
 2.08E+03  19%   1.771 MM20                                                
  263.636  59%   0.224 MM12                                                
    0.000 999%   0.000 MM14                                                
  757.621  28%   0.644 MM17                                                
    0.000 999%   0.000 Lip13a+Lip13b                                       
  263.636  59%   0.224 MM14+Lip13a+Lip13b+MM12                             
 1.39E+03  13%   1.182 MM09+Lip09                                          
 2.08E+03  19%   1.771 MM20+Lip20                                          
   6 lines in following misc. output table
  FWHM = 0.046 ppm    S/N =   9                                            
  Data shift = 0.015 ppm                                                   
  Ph:  -1 deg       0.8 deg/ppm                                            
  alphaB,S = 4.6E+00,   4.7E+01                                            
   14 spline knots.   Ns = 7(1)                                            
  (13) 5 infls.   (15) 1 extrs.                                            
  498 points on ppm-axis = NY
      4.000000     3.992357     3.984714     3.977070     3.969427     3.961784     3.954141     3.946497     3.938854     3.931211
      3.923568     3.915925     3.908281     3.900638     3.892995     3.885352     3.877708     3.870065     3.862422     3.854779
      3.847136     3.839492     3.831849     3.824206     3.816563     3.808919     3.801276     3.793633     3.785990     3.778347
      3.770703     3.763060     3.755417     3.747774     3.740130     3.732487     3.724844     3.717201     3.709558     3.701914
      3.694271     3.686628     3.678985     3.671341     3.663698     3.656055     3.648412     3.640769     3.633125     3.625482
      3.617839     3.610196     3.602552     3.594909     3.587266     3.579623     3.571980     3.564336     3.556693     3.549050
      3.541407     3.533763     3.526120     3.518477     3.510834     3.503191     3.495547     3.487904     3.480261     3.472618
      3.464974     3.457331     3.449688     3.442045     3.434402     3.426758     3.419115     3.411472     3.403829     3.396185
      3.388542     3.380899     3.373256     3.365613     3.357969     3.350326     3.342683     3.335040     3.327396     3.319753
      3.312110     3.304467     3.296824     3.289180     3.281537     3.273894     3.266251     3.258607     3.250964     3.243321
      3.235678     3.228034     3.220391     3.212748     3.205105     3.197462     3.189818     3.182175     3.174532     3.166889
      3.159245     3.151602     3.143959     3.136316     3.128673     3.121029     3.113386     3.105743     3.098100     3.090456
      3.082813     3.075170     3.067527     3.059884     3.052240     3.044597     3.036954     3.029311     3.021667     3.014024
      3.006381     2.998738     2.991095     2.983451     2.975808     2.968165     2.960522     2.952878     2.945235     2.937592
      2.929949     2.922306     2.914662     2.907019     2.899376     2.891733     2.884089     2.876446     2.868803     2.861160
      2.853517     2.845873     2.838230     2.830587     2.822944     2.815300     2.807657     2.800014     2.792371     2.784728
      2.777084     2.769441     2.761798     2.754155     2.746511     2.738868     2.731225     2.723582     2.715939     2.708295
      2.700652     2.693009     2.685366     2.677722     2.670079     2.662436     2.654793     2.647150     2.639506     2.631863
      2.624220     2.616577     2.608933     2.601290     2.593647     2.586004     2.578361     2.570717     2.563074     2.555431
      2.547788     2.540144     2.532501     2.524858     2.517215     2.509572     2.501928     2.494285     2.486642     2.478999
      2.471355     2.463712     2.456069     2.448426     2.440783     2.433139     2.425496     2.417853     2.410210     2.402566
      2.394923     2.387280     2.379637     2.371994     2.364350     2.356707     2.349064     2.341421     2.333777     2.326134
      2.318491     2.310848     2.303205     2.295561     2.287918     2.280275     2.272632     2.264988     2.257345     2.249702
      2.242059     2.234416     2.226772     2.219129     2.211486     2.203843     2.196199     2.188556     2.180913     2.173270
      2.165627     2.157983     2.150340     2.142697     2.135054     2.127410     2.119767     2.112124     2.104481     2.096838
      2.089194     2.081551     2.073908     2.066265     2.058621     2.050978     2.043335     2.035692     2.028049     2.020405
      2.012762     2.005119     1.997476     1.989833     1.982190     1.974546     1.966903     1.959260     1.951617     1.943974
      1.936331     1.928688     1.921045     1.913402     1.905759     1.898115     1.890472     1.882829     1.875186     1.867543
      1.859900     1.852257     1.844614     1.836971     1.829327     1.821684     1.814041     1.806398     1.798755     1.791112
      1.783469     1.775826     1.768183     1.760540     1.752896     1.745253     1.737610     1.729967     1.722324     1.714681
      1.707038     1.699395     1.691752     1.684108     1.676465     1.668822     1.661179     1.653536     1.645893     1.638250
      1.630607     1.622964     1.615321     1.607677     1.600034     1.592391     1.584748     1.577105     1.569462     1.561819
      1.554176     1.546533     1.538890     1.531246     1.523603     1.515960     1.508317     1.500674     1.493031     1.485388
      1.477745     1.470102     1.462458     1.454815     1.447172     1.439529     1.431886     1.424243     1.416600     1.408957
      1.401314     1.393671     1.386027     1.378384     1.370741     1.363098     1.355455     1.347812     1.340169     1.332526
      1.324883     1.317240     1.309596     1.301953     1.294310     1.286667     1.279024     1.271381     1.263738     1.256095
      1.248452     1.240808     1.233165     1.225522     1.217879     1.210236     1.202593     1.194950     1.187307     1.179664
      1.172021     1.164377     1.156734     1.149091     1.141448     1.133805     1.126162     1.118519     1.110876     1.103233
      1.095590     1.087946     1.080303     1.072660     1.065017     1.057374     1.049731     1.042088     1.034445     1.026802
      1.019158     1.011515     1.003872     0.996229     0.988586     0.980943     0.973300     0.965657     0.958014     0.950371
      0.942727     0.935084     0.927441     0.919798     0.912155     0.904512     0.896869     0.889226     0.881583     0.873940
      0.866296     0.858653     0.851010     0.843367     0.835724     0.828081     0.820438     0.812795     0.805152     0.797508
      0.789865     0.782222     0.774579     0.766936     0.759293     0.751650     0.744007     0.736364     0.728721     0.721077
      0.713434     0.705791     0.698148     0.690505     0.682862     0.675219     0.667576     0.659933     0.652290     0.644646
      0.637003     0.629360     0.621717     0.614074     0.606431     0.598788     0.591145     0.583502     0.575858     0.568215
      0.560572     0.552929     0.545286     0.537643     0.530000     0.522357     0.514714     0.507071     0.499427     0.491784
      0.484141     0.476498     0.468855     0.461212     0.453569     0.445925     0.438282     0.430639     0.422996     0.415353
      0.407710     0.400067     0.392424     0.384780     0.377137     0.369494     0.361851     0.354208     0.346565     0.338922
      0.331278     0.323635     0.315992     0.308349     0.300706     0.293063     0.285420     0.277777     0.270133     0.262490
      0.254847     0.247204     0.239561     0.231918     0.224275     0.216631     0.208988     0.201345
 NY phased data points follow
   3.46683E+01  3.21062E+01  3.93371E+01  3.83916E+01  3.88201E+01  4.36164E+01  4.67063E+01  4.88730E+01  4.45179E+01  4.97751E+01
   5.29004E+01  5.65001E+01  4.59277E+01  4.68457E+01  5.17054E+01  4.58072E+01  3.13746E+01  3.76705E+01  4.22856E+01  4.00710E+01
   3.33330E+01  4.21908E+01  3.22268E+01  3.41866E+01  3.25790E+01  2.78173E+01  3.54044E+01  3.23177E+01  2.79252E+01  3.66897E+01
   3.36438E+01  3.32583E+01  3.79133E+01  3.53884E+01  4.11147E+01  3.12448E+01  2.57150E+01  2.83128E+01  3.54578E+01  3.45145E+01
   2.89828E+01  3.20993E+01  3.48557E+01  2.80260E+01  3.15154E+01  4.06293E+01  2.83185E+01  3.82002E+01  3.72041E+01  3.29528E+01
   3.66353E+01  2.76463E+01  3.31256E+01  3.22621E+01  2.70955E+01  3.07608E+01  3.79307E+01  2.99047E+01  3.27724E+01  3.41529E+01
   2.67443E+01  3.02773E+01  2.44472E+01  3.14107E+01  2.33747E+01  2.16034E+01  2.04167E+01  2.45583E+01  1.80160E+01  1.71754E+01
   1.58437E+01  2.12973E+01  2.06678E+01  2.88632E+01  2.37546E+01  2.68844E+01  2.38357E+01  2.81956E+01  1.57133E+01  1.87509E+01
   2.30195E+01  1.88893E+01  2.00682E+01  2.02874E+01  1.99411E+01  1.45998E+01  2.17276E+01  1.92787E+01  1.79680E+01  1.16532E+01
   2.07762E+01  2.06631E+01  2.06404E+01  2.57079E+01  2.52025E+01  2.12719E+01  2.17973E+01  2.04856E+01  2.13730E+01  3.02264E+01
   3.70266E+01  4.26784E+01  4.98182E+01  4.88475E+01  4.45490E+01  4.11540E+01  4.52750E+01  3.35485E+01  2.02154E+01  2.60454E+01
   2.38853E+01  2.44023E+01  2.38562E+01  1.85883E+01  2.03648E+01  1.24263E+01  2.30144E+01  2.29451E+01  2.32413E+01  1.77762E+01
   3.29270E+01  2.58733E+01  2.13293E+01  3.06102E+01  4.01239E+01  4.89686E+01  4.78170E+01  6.51796E+01  5.77229E+01  4.77509E+01
   4.28581E+01  3.44649E+01  2.97741E+01  3.24493E+01  2.30515E+01  2.59774E+01  2.40047E+01  2.07004E+01  2.60088E+01  1.97551E+01
   1.79717E+01  1.52767E+01  2.23012E+01  1.98602E+01  2.14320E+01  1.71453E+01  2.24448E+01  1.86849E+01  1.54055E+01  1.43121E+01
   2.37599E+01  1.99864E+01  1.79151E+01  1.65654E+01  2.25409E+01  1.91621E+01  1.93580E+01  2.02896E+01  1.91305E+01  1.77131E+01
   1.26913E+01  1.43664E+01  1.46395E+01  1.14558E+01  2.65330E+01  1.55926E+01  1.58414E+01  8.25462E+00  1.14791E+01  8.98725E+00
   1.29047E+01  1.66894E+01  5.03146E+00 -8.44839E-01  4.29524E-01  7.86090E+00  5.53712E-01  3.43235E+00  6.15945E+00  5.35896E-01
  -8.32937E-01  7.41834E+00  2.51517E+00  6.81377E+00  4.48264E+00  6.95504E+00  8.84576E+00  1.08451E+01  1.19159E+01  1.29903E+01
   1.30755E+01  1.29017E+01  2.83539E+00  1.51053E+01  1.04323E+01  5.34950E+00  9.80027E+00  2.23730E+00  1.70549E+00  6.22704E+00
   3.01230E+00  3.35619E+00  1.64672E+01  1.69150E+01  1.44431E+01  9.23280E+00  1.38577E+01  8.27152E+00  8.51080E+00  1.64590E+01
   1.33081E+01  1.80024E+01  1.39780E+01  1.55828E+01  2.28586E+01  3.47986E+01  2.72882E+01  1.93701E+01  1.27313E+01  1.26576E+01
   1.29793E+01  1.29470E+01  7.95659E+00  1.13533E+01  1.69597E+01  1.17367E+01  1.50916E+01  2.30549E+01  1.35851E+01  1.47966E+01
   7.34085E+00  1.60219E+01  1.93515E+01  1.73945E+01  1.93728E+01  1.27303E+01  1.99772E+01  1.76196E+01  1.38222E+01  9.75193E+00
   1.54700E+01  9.90091E+00  1.76248E+01  1.28559E+01  1.32715E+01  1.84200E+01  1.59395E+01  2.17740E+01  1.94001E+01  2.37397E+01
   2.13548E+01  2.96093E+01  3.19522E+01  3.55009E+01  3.97109E+01  5.32570E+01  5.54028E+01  6.10242E+01  7.40085E+01  9.29534E+01
   1.03040E+02  9.90903E+01  9.01199E+01  7.45200E+01  5.00923E+01  3.76454E+01  3.58189E+01  2.01740E+01  2.23173E+01  2.42982E+01
   1.23507E+01  1.06020E+01  1.24602E+01  1.42414E+01  1.53345E+01  9.40980E+00  1.64082E+01  1.29739E+01  1.49776E+01  1.22615E+01
   1.44257E+01  1.74805E+01  1.54117E+01  8.79407E+00  8.05930E+00  1.31577E+01  9.47701E+00  1.26722E+01  1.22764E+01  1.01682E+01
   8.91870E+00  1.18782E+01  1.83994E+01  1.36356E+01  1.10139E+01  1.62033E+01  1.92986E+01  6.81100E+00  1.47412E+01  1.07374E+01
   1.57007E+01  1.59959E+01  6.28912E+00  1.36604E+01  1.44610E+01  1.22626E+01  1.43375E+01  1.93598E+01  1.23011E+01  1.45436E+01
   1.73086E+01  1.07127E+01  1.52764E+01  1.22426E+01  1.41499E+01  1.42866E+01  7.74563E+00  9.81981E+00  1.51927E+01  1.78658E+01
   1.14715E+01  1.58308E+01  1.76580E+01  1.31559E+01  1.34371E+01  1.36988E+01  6.94095E+00  1.26363E+01  1.16053E+01  9.44101E+00
   6.69915E+00  5.33499E+00  6.11485E+00  6.34948E+00  4.39117E+00  6.85720E+00  5.62914E+00 -1.96585E+00  7.82512E+00  8.19988E+00
   6.32952E+00  1.43888E+01  6.85734E+00  1.01564E+01  1.06118E+01  1.23612E+01  1.04133E+01  1.13175E+01  4.82855E+00  1.17702E+01
   1.26661E+01  1.00320E+01  5.60215E+00  1.06638E+01  7.68069E-01  6.48885E+00  8.68287E+00 -7.95094E-01  4.53409E+00  6.07803E+00
   1.10779E+00  1.18151E+01  5.18946E+00  6.42751E+00  8.99538E+00  4.04603E+00  1.22003E+01  9.38137E+00  9.41680E+00  4.37269E+00
   2.90809E+00  7.75222E+00  2.79143E+00  1.48690E+01  1.28103E+01  8.94524E+00  1.14737E+01  4.73128E+00  9.96650E+00  1.60542E+01
   9.76230E+00  1.00015E+01  1.01326E+01  3.64659E+00  6.72440E+00  1.44260E+01  1.05823E+01  1.60598E+01  1.71211E+01  1.12720E+01
   9.80712E+00  1.23918E+01  1.04538E+01  1.96898E+01  1.19932E+01  1.63839E+01  1.85247E+01  2.31420E+01  1.27659E+01  1.85019E+01
   1.18963E+01  1.78458E+01  1.24567E+01  1.82278E+01  1.69038E+01  1.86200E+01  1.10517E+01  2.12407E+01  8.06147E+00  1.20002E+01
   1.84392E+01  1.59961E+01  1.55106E+01  1.00767E+01  1.08473E+01  1.27388E+01  8.05197E+00  1.44628E+01  5.33563E+00  1.47862E+01
   1.67172E+01  9.73620E+00  8.23156E+00  1.52732E+01  1.24797E+01  8.03854E+00  1.01700E+01  7.02834E+00  1.29433E+01  6.95678E+00
   5.43356E+00  7.22302E+00  8.10476E+00  3.83991E+00  1.24205E+01  1.70053E+01  8.96618E+00  6.83613E+00  6.95316E+00  7.80089E+00
   9.48312E+00  3.89712E+00  9.16428E+00  4.69915E+00  1.09607E+01  9.20182E+00  7.68205E+00  5.37932E+00  2.73515E+00  1.16493E+01
   8.06154E+00  8.26809E+00  9.16901E+00  3.87713E+00  5.73483E+00  7.53085E+00  4.62958E+00  2.95066E+00  6.54072E+00  6.39435E+00
   7.87720E+00  6.09600E+00  8.45953E+00  9.76219E+00  1.01835E+00  4.58599E+00  8.08894E-01  4.46489E+00  3.27012E+00  8.98894E+00
   7.16727E+00  8.47221E+00  1.54201E+00  5.07940E+00  6.26194E+00  9.22509E+00  8.71221E+00  2.32107E+00  6.20819E+00  2.82243E+00
   7.78776E+00  7.36493E+00  1.32033E+01  9.40958E+00  8.05560E+00  5.06689E+00  2.83254E+00  5.62975E+00  7.45192E+00  4.05520E+00
   7.61909E+00  8.97182E+00  3.04358E+00  7.17094E+00  4.29054E+00  5.78283E+00  4.36794E+00  5.94642E+00
 NY points of the fit to the data follow
   3.22135E+01  3.20267E+01  3.27116E+01  3.36407E+01  3.50072E+01  3.77705E+01  4.13396E+01  4.48475E+01  4.78891E+01  5.04207E+01
   5.23461E+01  5.26817E+01  5.06721E+01  4.72490E+01  4.34690E+01  3.95397E+01  3.60585E+01  3.38382E+01  3.28936E+01  3.21219E+01
   3.10375E+01  3.03697E+01  3.02085E+01  3.04618E+01  3.06277E+01  3.04300E+01  3.03466E+01  3.11644E+01  3.31226E+01  3.56483E+01
   3.79095E+01  3.92953E+01  3.92928E+01  3.76322E+01  3.48943E+01  3.22270E+01  3.02441E+01  2.88442E+01  2.78695E+01  2.76422E+01
   2.80997E+01  2.89685E+01  2.98875E+01  3.08490E+01  3.22821E+01  3.43664E+01  3.64714E+01  3.75022E+01  3.68676E+01  3.48853E+01
   3.20660E+01  2.91192E+01  2.70179E+01  2.61915E+01  2.60789E+01  2.60654E+01  2.61115E+01  2.65652E+01  2.73764E+01  2.80993E+01
   2.83836E+01  2.81013E+01  2.72685E+01  2.60971E+01  2.50117E+01  2.44527E+01  2.44535E+01  2.47402E+01  2.51162E+01  2.55614E+01
   2.59931E+01  2.63277E+01  2.64234E+01  2.62771E+01  2.59664E+01  2.55246E+01  2.50530E+01  2.46728E+01  2.43781E+01  2.40718E+01
   2.35969E+01  2.30472E+01  2.24634E+01  2.18297E+01  2.10586E+01  2.00871E+01  1.90267E+01  1.81580E+01  1.77222E+01  1.78379E+01
   1.84488E+01  1.93017E+01  2.01580E+01  2.08736E+01  2.14219E+01  2.20418E+01  2.36538E+01  2.59839E+01  2.78868E+01  3.03730E+01
   3.49068E+01  4.15674E+01  4.80444E+01  5.10419E+01  4.94420E+01  4.46373E+01  3.81486E+01  3.17169E+01  2.74557E+01  2.54341E+01
   2.40029E+01  2.19944E+01  2.03448E+01  1.99155E+01  1.98057E+01  1.97806E+01  1.97798E+01  1.98141E+01  2.00121E+01  2.09071E+01
   2.30177E+01  2.62342E+01  2.97331E+01  3.40855E+01  4.04224E+01  4.84099E+01  5.56608E+01  5.91612E+01  5.75603E+01  5.19534E+01
   4.44036E+01  3.70371E+01  3.16039E+01  2.81550E+01  2.51414E+01  2.19290E+01  1.91594E+01  1.78756E+01  1.77520E+01  1.82419E+01
   1.89012E+01  1.93630E+01  1.94767E+01  1.93273E+01  1.90021E+01  1.86064E+01  1.82451E+01  1.79154E+01  1.75773E+01  1.72469E+01
   1.68980E+01  1.65858E+01  1.62969E+01  1.60266E+01  1.57560E+01  1.55685E+01  1.55081E+01  1.54483E+01  1.52491E+01  1.47254E+01
   1.40130E+01  1.35588E+01  1.35673E+01  1.38603E+01  1.41258E+01  1.40363E+01  1.34818E+01  1.26657E+01  1.18573E+01  1.12853E+01
   1.09855E+01  1.08683E+01  1.06367E+01  1.01013E+01  9.40193E+00  8.87703E+00  8.84916E+00  9.25806E+00  9.64977E+00  9.72334E+00
   9.50240E+00  9.27492E+00  9.34080E+00  9.69653E+00  1.01970E+01  1.07265E+01  1.12658E+01  1.21217E+01  1.34188E+01  1.49337E+01
   1.62146E+01  1.67040E+01  1.63578E+01  1.55999E+01  1.48180E+01  1.41735E+01  1.36978E+01  1.36186E+01  1.41041E+01  1.49856E+01
   1.60225E+01  1.71785E+01  1.81885E+01  1.84501E+01  1.79303E+01  1.66814E+01  1.46990E+01  1.22017E+01  9.89728E+00  8.76073E+00
   8.86534E+00  9.94904E+00  1.19354E+01  1.48068E+01  1.76300E+01  1.90045E+01  1.85058E+01  1.68087E+01  1.43078E+01  1.09579E+01
   7.81744E+00  6.21544E+00  6.47559E+00  8.17911E+00  1.04957E+01  1.31129E+01  1.53782E+01  1.65921E+01  1.67053E+01  1.62462E+01
   1.58879E+01  1.57968E+01  1.58439E+01  1.60557E+01  1.65838E+01  1.72483E+01  1.77297E+01  1.79070E+01  1.77652E+01  1.73571E+01
   1.65863E+01  1.55866E+01  1.49125E+01  1.49784E+01  1.56480E+01  1.65064E+01  1.74009E+01  1.81370E+01  1.88008E+01  1.99471E+01
   2.13271E+01  2.30098E+01  2.57726E+01  3.22065E+01  4.23435E+01  5.06230E+01  5.68663E+01  6.52147E+01  7.80143E+01  9.18179E+01
   9.96092E+01  9.75273E+01  8.73839E+01  7.17795E+01  5.43068E+01  4.14647E+01  3.49237E+01  3.06464E+01  2.51542E+01  1.95650E+01
   1.73774E+01  1.65182E+01  1.60909E+01  1.59079E+01  1.57486E+01  1.54777E+01  1.51149E+01  1.46725E+01  1.42007E+01  1.37651E+01
   1.34098E+01  1.31219E+01  1.28850E+01  1.27036E+01  1.25770E+01  1.24877E+01  1.24044E+01  1.23243E+01  1.22710E+01  1.22579E+01
   1.22854E+01  1.23538E+01  1.24503E+01  1.25610E+01  1.26751E+01  1.27890E+01  1.29033E+01  1.30252E+01  1.31656E+01  1.33238E+01
   1.34883E+01  1.36564E+01  1.38223E+01  1.39682E+01  1.40798E+01  1.41533E+01  1.41894E+01  1.41879E+01  1.41439E+01  1.40599E+01
   1.39386E+01  1.37822E+01  1.35961E+01  1.33867E+01  1.31616E+01  1.29289E+01  1.26978E+01  1.24799E+01  1.22928E+01  1.21707E+01
   1.21812E+01  1.22338E+01  1.21666E+01  1.21149E+01  1.21708E+01  1.21877E+01  1.18211E+01  1.08054E+01  9.37215E+00  8.06127E+00
   6.96626E+00  6.18408E+00  5.98907E+00  6.47658E+00  7.46063E+00  8.58848E+00  9.58792E+00  1.03456E+01  1.06465E+01  1.04898E+01
   1.01404E+01  9.89717E+00  9.77997E+00  9.62239E+00  9.34189E+00  9.13778E+00  9.01025E+00  8.92298E+00  8.86116E+00  8.81728E+00
   8.78686E+00  8.76714E+00  8.75640E+00  8.75324E+00  8.75616E+00  8.76362E+00  8.77432E+00  8.78735E+00  8.80196E+00  8.81720E+00
   8.83191E+00  8.84498E+00  8.85568E+00  8.86374E+00  8.86900E+00  8.87122E+00  8.87019E+00  8.86607E+00  8.85959E+00  8.85192E+00
   8.84431E+00  8.83798E+00  8.83436E+00  8.83536E+00  8.84340E+00  8.86115E+00  8.89119E+00  8.93610E+00  8.99866E+00  9.08206E+00
   9.18972E+00  9.32491E+00  9.49050E+00  9.68906E+00  9.92296E+00  1.01943E+01  1.05044E+01  1.08536E+01  1.12407E+01  1.16633E+01
   1.21177E+01  1.25988E+01  1.31000E+01  1.36125E+01  1.41263E+01  1.46302E+01  1.51126E+01  1.55615E+01  1.59650E+01  1.63115E+01
   1.65907E+01  1.67943E+01  1.69164E+01  1.69532E+01  1.69037E+01  1.67692E+01  1.65539E+01  1.62641E+01  1.59087E+01  1.54975E+01
   1.50414E+01  1.45512E+01  1.40385E+01  1.35140E+01  1.29879E+01  1.24688E+01  1.19640E+01  1.14791E+01  1.10189E+01  1.05865E+01
   1.01840E+01  9.81194E+00  9.46995E+00  9.15715E+00  8.87229E+00  8.61376E+00  8.37952E+00  8.16728E+00  7.97476E+00  7.79997E+00
   7.64115E+00  7.49660E+00  7.36459E+00  7.24343E+00  7.13176E+00  7.02856E+00  6.93299E+00  6.84420E+00  6.76123E+00  6.68327E+00
   6.60979E+00  6.54045E+00  6.47496E+00  6.41284E+00  6.35358E+00  6.29681E+00  6.24240E+00  6.19029E+00  6.14033E+00  6.09219E+00
   6.04555E+00  6.00030E+00  5.95647E+00  5.91408E+00  5.87299E+00  5.83293E+00  5.79373E+00  5.75539E+00  5.71803E+00  5.68163E+00
   5.64603E+00  5.61100E+00  5.57649E+00  5.54260E+00  5.50944E+00  5.47693E+00  5.44489E+00  5.41317E+00  5.38179E+00  5.35091E+00
   5.32058E+00  5.29067E+00  5.26100E+00  5.23151E+00  5.20231E+00  5.17353E+00  5.14515E+00  5.11700E+00  5.08893E+00  5.06098E+00
   5.03328E+00  5.00593E+00  4.97882E+00  4.95178E+00  4.92474E+00  4.89779E+00  4.87107E+00  4.84459E+00  4.81821E+00  4.79177E+00
   4.76526E+00  4.73883E+00  4.71258E+00  4.68643E+00  4.66021E+00  4.63381E+00  4.60729E+00  4.58080E+00
 NY background values follow
     2.701E+01    2.693E+01    2.685E+01    2.677E+01    2.670E+01    2.662E+01    2.654E+01    2.646E+01    2.638E+01    2.630E+01
     2.623E+01    2.615E+01    2.607E+01    2.599E+01    2.591E+01    2.583E+01    2.576E+01    2.568E+01    2.560E+01    2.552E+01
     2.544E+01    2.536E+01    2.528E+01    2.521E+01    2.513E+01    2.505E+01    2.497E+01    2.489E+01    2.481E+01    2.474E+01
     2.466E+01    2.458E+01    2.450E+01    2.442E+01    2.434E+01    2.427E+01    2.419E+01    2.411E+01    2.403E+01    2.395E+01
     2.387E+01    2.380E+01    2.372E+01    2.364E+01    2.356E+01    2.348E+01    2.341E+01    2.333E+01    2.325E+01    2.317E+01
     2.309E+01    2.302E+01    2.294E+01    2.286E+01    2.278E+01    2.271E+01    2.263E+01    2.255E+01    2.247E+01    2.240E+01
     2.232E+01    2.224E+01    2.216E+01    2.209E+01    2.201E+01    2.193E+01    2.185E+01    2.178E+01    2.170E+01    2.162E+01
     2.155E+01    2.147E+01    2.139E+01    2.132E+01    2.124E+01    2.117E+01    2.109E+01    2.101E+01    2.094E+01    2.086E+01
     2.078E+01    2.071E+01    2.063E+01    2.056E+01    2.048E+01    2.041E+01    2.033E+01    2.026E+01    2.018E+01    2.011E+01
     2.003E+01    1.996E+01    1.988E+01    1.981E+01    1.973E+01    1.966E+01    1.959E+01    1.951E+01    1.944E+01    1.936E+01
     1.929E+01    1.922E+01    1.914E+01    1.907E+01    1.900E+01    1.892E+01    1.885E+01    1.878E+01    1.871E+01    1.863E+01
     1.856E+01    1.849E+01    1.842E+01    1.835E+01    1.827E+01    1.820E+01    1.813E+01    1.806E+01    1.799E+01    1.792E+01
     1.785E+01    1.777E+01    1.770E+01    1.763E+01    1.756E+01    1.749E+01    1.742E+01    1.735E+01    1.728E+01    1.721E+01
     1.714E+01    1.707E+01    1.700E+01    1.694E+01    1.687E+01    1.680E+01    1.673E+01    1.666E+01    1.659E+01    1.652E+01
     1.646E+01    1.639E+01    1.632E+01    1.625E+01    1.619E+01    1.612E+01    1.605E+01    1.599E+01    1.592E+01    1.585E+01
     1.579E+01    1.572E+01    1.565E+01    1.559E+01    1.552E+01    1.546E+01    1.539E+01    1.533E+01    1.526E+01    1.520E+01
     1.513E+01    1.507E+01    1.501E+01    1.494E+01    1.488E+01    1.482E+01    1.475E+01    1.469E+01    1.463E+01    1.456E+01
     1.450E+01    1.444E+01    1.438E+01    1.432E+01    1.425E+01    1.419E+01    1.413E+01    1.407E+01    1.401E+01    1.395E+01
     1.389E+01    1.383E+01    1.377E+01    1.371E+01    1.365E+01    1.359E+01    1.353E+01    1.348E+01    1.342E+01    1.336E+01
     1.330E+01    1.325E+01    1.319E+01    1.313E+01    1.307E+01    1.302E+01    1.296E+01    1.290E+01    1.285E+01    1.279E+01
     1.274E+01    1.268E+01    1.263E+01    1.257E+01    1.252E+01    1.246E+01    1.241E+01    1.236E+01    1.230E+01    1.225E+01
     1.220E+01    1.214E+01    1.209E+01    1.204E+01    1.199E+01    1.193E+01    1.188E+01    1.183E+01    1.178E+01    1.173E+01
     1.168E+01    1.163E+01    1.158E+01    1.152E+01    1.147E+01    1.142E+01    1.138E+01    1.133E+01    1.128E+01    1.123E+01
     1.118E+01    1.113E+01    1.108E+01    1.103E+01    1.099E+01    1.094E+01    1.089E+01    1.084E+01    1.080E+01    1.075E+01
     1.070E+01    1.066E+01    1.061E+01    1.056E+01    1.052E+01    1.047E+01    1.043E+01    1.038E+01    1.034E+01    1.029E+01
     1.025E+01    1.020E+01    1.016E+01    1.012E+01    1.007E+01    1.003E+01    9.985E+00    9.942E+00    9.899E+00    9.857E+00
     9.814E+00    9.772E+00    9.730E+00    9.688E+00    9.647E+00    9.605E+00    9.564E+00    9.523E+00    9.482E+00    9.442E+00
     9.401E+00    9.361E+00    9.321E+00    9.281E+00    9.242E+00    9.202E+00    9.163E+00    9.124E+00    9.086E+00    9.047E+00
     9.009E+00    8.970E+00    8.932E+00    8.895E+00    8.857E+00    8.820E+00    8.782E+00    8.745E+00    8.709E+00    8.672E+00
     8.636E+00    8.599E+00    8.563E+00    8.527E+00    8.492E+00    8.456E+00    8.421E+00    8.386E+00    8.351E+00    8.316E+00
     8.281E+00    8.247E+00    8.213E+00    8.179E+00    8.145E+00    8.111E+00    8.078E+00    8.044E+00    8.011E+00    7.978E+00
     7.946E+00    7.913E+00    7.881E+00    7.848E+00    7.816E+00    7.784E+00    7.753E+00    7.721E+00    7.690E+00    7.658E+00
     7.627E+00    7.596E+00    7.566E+00    7.535E+00    7.505E+00    7.475E+00    7.445E+00    7.415E+00    7.385E+00    7.355E+00
     7.326E+00    7.297E+00    7.268E+00    7.239E+00    7.210E+00    7.181E+00    7.153E+00    7.125E+00    7.096E+00    7.069E+00
     7.041E+00    7.013E+00    6.985E+00    6.958E+00    6.931E+00    6.904E+00    6.877E+00    6.850E+00    6.823E+00    6.797E+00
     6.771E+00    6.744E+00    6.718E+00    6.692E+00    6.667E+00    6.641E+00    6.616E+00    6.590E+00    6.565E+00    6.540E+00
     6.515E+00    6.490E+00    6.466E+00    6.441E+00    6.417E+00    6.392E+00    6.368E+00    6.344E+00    6.320E+00    6.297E+00
     6.273E+00    6.250E+00    6.226E+00    6.203E+00    6.180E+00    6.157E+00    6.134E+00    6.111E+00    6.088E+00    6.066E+00
     6.043E+00    6.021E+00    5.999E+00    5.977E+00    5.955E+00    5.933E+00    5.911E+00    5.889E+00    5.867E+00    5.846E+00
     5.825E+00    5.803E+00    5.782E+00    5.761E+00    5.740E+00    5.719E+00    5.698E+00    5.677E+00    5.656E+00    5.635E+00
     5.615E+00    5.594E+00    5.574E+00    5.554E+00    5.533E+00    5.513E+00    5.493E+00    5.473E+00    5.453E+00    5.433E+00
     5.413E+00    5.393E+00    5.373E+00    5.354E+00    5.334E+00    5.315E+00    5.295E+00    5.276E+00    5.256E+00    5.237E+00
     5.218E+00    5.198E+00    5.179E+00    5.160E+00    5.141E+00    5.122E+00    5.103E+00    5.084E+00    5.065E+00    5.046E+00
     5.028E+00    5.009E+00    4.990E+00    4.971E+00    4.953E+00    4.934E+00    4.916E+00    4.897E+00    4.879E+00    4.860E+00
     4.842E+00    4.823E+00    4.805E+00    4.787E+00    4.768E+00    4.750E+00    4.732E+00    4.713E+00    4.695E+00    4.677E+00
     4.659E+00    4.641E+00    4.623E+00    4.604E+00    4.586E+00    4.568E+00    4.550E+00    4.532E+00    4.514E+00    4.496E+00
     4.478E+00    4.460E+00    4.442E+00    4.424E+00    4.406E+00    4.388E+00    4.370E+00    4.353E+00    4.335E+00    4.317E+00
     4.299E+00    4.281E+00    4.263E+00    4.245E+00    4.228E+00    4.210E+00    4.192E+00    4.174E+00    4.156E+00    4.138E+00
     4.121E+00    4.103E+00    4.085E+00    4.067E+00    4.050E+00    4.032E+00    4.014E+00    3.996E+00    3.979E+00    3.961E+00
     3.943E+00    3.925E+00    3.908E+00    3.890E+00    3.872E+00    3.854E+00    3.837E+00    3.819E+00
 Ala      Conc. = 2.51E+02
