 LCModel (Version 6.3-1L) Copyright: S.W. Provencher.          Ref.: Magn. Reson. Med. 30:672-679 (1993).                
 Slice#2 Row#5 Col#1  K_02_press_1_raw_act
 36 lines in following concentration table = NCONC+1
    Conc.  %SD /Cr+PCr  Metabolite                                         
    0.000 999%   0.000 Ala                                                 
   13.810 104%   0.184 Asp                                                 
   75.038  26%   1.000 Cr                                                  
    0.000 999%   0.000 PCr                                                 
    7.652 113%   0.102 GABA                                                
    6.637 131% 8.8E-02 Glc                                                 
    0.000 999%   0.000 Gln                                                 
  110.085  59%   1.467 Glu                                                 
   15.109  45%   0.201 GPC                                                 
    0.000 999%   0.000 PCh                                                 
    0.000 999%   0.000 GSH                                                 
    0.000 999%   0.000 Ins                                                 
    0.000 999%   0.000 Lac                                                 
  108.452  23%   1.445 NAA                                                 
   40.235  58%   0.536 NAAG                                                
    1.528 183% 2.0E-02 Scyllo                                              
    1.986 718% 2.6E-02 Tau                                                 
    0.000 999%   0.000 -CrCH2                                              
   15.109  45%   0.201 GPC+PCh                                             
  148.687  21%   1.981 NAA+NAAG                                            
   75.038  26%   1.000 Cr+PCr                                              
  110.085  59%   1.467 Glu+Gln                                             
    0.000 999%   0.000 Lip13a                                              
  195.188  28%   2.601 Lip13b                                              
   38.771 144%   0.517 Lip09                                               
  272.165  36%   3.627 MM09                                                
   51.865  77%   0.691 Lip20                                               
  652.465  25%   8.695 MM20                                                
   84.734  72%   1.129 MM12                                                
    0.105 999% 1.4E-03 MM14                                                
   88.207 119%   1.176 MM17                                                
  195.188  28%   2.601 Lip13a+Lip13b                                       
  280.027  60%   3.732 MM14+Lip13a+Lip13b+MM12                             
  310.936  29%   4.144 MM09+Lip09                                          
  704.331  23%   9.386 MM20+Lip20                                          
   6 lines in following misc. output table
  FWHM = 0.031 ppm    S/N =   2                                            
  Data shift = 0.023 ppm                                                   
  Ph: 107 deg      -9.1 deg/ppm                                            
  alphaB,S = 8.1E-01,   6.1E+00                                            
   14 spline knots.   Ns = 5(1)                                            
   2 inflections.     2 extrema                                            
  498 points on ppm-axis = NY
      4.000000     3.992357     3.984714     3.977070     3.969427     3.961784     3.954141     3.946497     3.938854     3.931211
      3.923568     3.915925     3.908281     3.900638     3.892995     3.885352     3.877708     3.870065     3.862422     3.854779
      3.847136     3.839492     3.831849     3.824206     3.816563     3.808919     3.801276     3.793633     3.785990     3.778347
      3.770703     3.763060     3.755417     3.747774     3.740130     3.732487     3.724844     3.717201     3.709558     3.701914
      3.694271     3.686628     3.678985     3.671341     3.663698     3.656055     3.648412     3.640769     3.633125     3.625482
      3.617839     3.610196     3.602552     3.594909     3.587266     3.579623     3.571980     3.564336     3.556693     3.549050
      3.541407     3.533763     3.526120     3.518477     3.510834     3.503191     3.495547     3.487904     3.480261     3.472618
      3.464974     3.457331     3.449688     3.442045     3.434402     3.426758     3.419115     3.411472     3.403829     3.396185
      3.388542     3.380899     3.373256     3.365613     3.357969     3.350326     3.342683     3.335040     3.327396     3.319753
      3.312110     3.304467     3.296824     3.289180     3.281537     3.273894     3.266251     3.258607     3.250964     3.243321
      3.235678     3.228034     3.220391     3.212748     3.205105     3.197462     3.189818     3.182175     3.174532     3.166889
      3.159245     3.151602     3.143959     3.136316     3.128673     3.121029     3.113386     3.105743     3.098100     3.090456
      3.082813     3.075170     3.067527     3.059884     3.052240     3.044597     3.036954     3.029311     3.021667     3.014024
      3.006381     2.998738     2.991095     2.983451     2.975808     2.968165     2.960522     2.952878     2.945235     2.937592
      2.929949     2.922306     2.914662     2.907019     2.899376     2.891733     2.884089     2.876446     2.868803     2.861160
      2.853517     2.845873     2.838230     2.830587     2.822944     2.815300     2.807657     2.800014     2.792371     2.784728
      2.777084     2.769441     2.761798     2.754155     2.746511     2.738868     2.731225     2.723582     2.715939     2.708295
      2.700652     2.693009     2.685366     2.677722     2.670079     2.662436     2.654793     2.647150     2.639506     2.631863
      2.624220     2.616577     2.608933     2.601290     2.593647     2.586004     2.578361     2.570717     2.563074     2.555431
      2.547788     2.540144     2.532501     2.524858     2.517215     2.509572     2.501928     2.494285     2.486642     2.478999
      2.471355     2.463712     2.456069     2.448426     2.440783     2.433139     2.425496     2.417853     2.410210     2.402566
      2.394923     2.387280     2.379637     2.371994     2.364350     2.356707     2.349064     2.341421     2.333777     2.326134
      2.318491     2.310848     2.303205     2.295561     2.287918     2.280275     2.272632     2.264988     2.257345     2.249702
      2.242059     2.234416     2.226772     2.219129     2.211486     2.203843     2.196199     2.188556     2.180913     2.173270
      2.165627     2.157983     2.150340     2.142697     2.135054     2.127410     2.119767     2.112124     2.104481     2.096838
      2.089194     2.081551     2.073908     2.066265     2.058621     2.050978     2.043335     2.035692     2.028049     2.020405
      2.012762     2.005119     1.997476     1.989833     1.982190     1.974546     1.966903     1.959260     1.951617     1.943974
      1.936331     1.928688     1.921045     1.913402     1.905759     1.898115     1.890472     1.882829     1.875186     1.867543
      1.859900     1.852257     1.844614     1.836971     1.829327     1.821684     1.814041     1.806398     1.798755     1.791112
      1.783469     1.775826     1.768183     1.760540     1.752896     1.745253     1.737610     1.729967     1.722324     1.714681
      1.707038     1.699395     1.691752     1.684108     1.676465     1.668822     1.661179     1.653536     1.645893     1.638250
      1.630607     1.622964     1.615321     1.607677     1.600034     1.592391     1.584748     1.577105     1.569462     1.561819
      1.554176     1.546533     1.538890     1.531246     1.523603     1.515960     1.508317     1.500674     1.493031     1.485388
      1.477745     1.470102     1.462458     1.454815     1.447172     1.439529     1.431886     1.424243     1.416600     1.408957
      1.401314     1.393671     1.386027     1.378384     1.370741     1.363098     1.355455     1.347812     1.340169     1.332526
      1.324883     1.317240     1.309596     1.301953     1.294310     1.286667     1.279024     1.271381     1.263738     1.256095
      1.248452     1.240808     1.233165     1.225522     1.217879     1.210236     1.202593     1.194950     1.187307     1.179664
      1.172021     1.164377     1.156734     1.149091     1.141448     1.133805     1.126162     1.118519     1.110876     1.103233
      1.095590     1.087946     1.080303     1.072660     1.065017     1.057374     1.049731     1.042088     1.034445     1.026802
      1.019158     1.011515     1.003872     0.996229     0.988586     0.980943     0.973300     0.965657     0.958014     0.950371
      0.942727     0.935084     0.927441     0.919798     0.912155     0.904512     0.896869     0.889226     0.881583     0.873940
      0.866296     0.858653     0.851010     0.843367     0.835724     0.828081     0.820438     0.812795     0.805152     0.797508
      0.789865     0.782222     0.774579     0.766936     0.759293     0.751650     0.744007     0.736364     0.728721     0.721077
      0.713434     0.705791     0.698148     0.690505     0.682862     0.675219     0.667576     0.659933     0.652290     0.644646
      0.637003     0.629360     0.621717     0.614074     0.606431     0.598788     0.591145     0.583502     0.575858     0.568215
      0.560572     0.552929     0.545286     0.537643     0.530000     0.522357     0.514714     0.507071     0.499427     0.491784
      0.484141     0.476498     0.468855     0.461212     0.453569     0.445925     0.438282     0.430639     0.422996     0.415353
      0.407710     0.400067     0.392424     0.384780     0.377137     0.369494     0.361851     0.354208     0.346565     0.338922
      0.331278     0.323635     0.315992     0.308349     0.300706     0.293063     0.285420     0.277777     0.270133     0.262490
      0.254847     0.247204     0.239561     0.231918     0.224275     0.216631     0.208988     0.201345
 NY phased data points follow
   5.63231E+01  5.82500E+01  5.90866E+01  5.83824E+01  5.74779E+01  5.41077E+01  5.42004E+01  5.67122E+01  5.54146E+01  5.35373E+01
   5.57915E+01  5.65682E+01  5.83486E+01  5.32625E+01  5.48664E+01  5.17820E+01  4.92787E+01  5.29788E+01  4.79532E+01  5.15521E+01
   5.03679E+01  4.60381E+01  4.73557E+01  4.70089E+01  4.85548E+01  4.87553E+01  4.62982E+01  4.80295E+01  4.63392E+01  4.43708E+01
   4.21828E+01  4.23839E+01  4.11830E+01  4.23848E+01  4.63803E+01  4.08761E+01  4.09631E+01  4.51241E+01  4.20047E+01  4.18556E+01
   4.08465E+01  4.11692E+01  3.87449E+01  3.98855E+01  3.85524E+01  3.87954E+01  4.25883E+01  3.93596E+01  3.96284E+01  3.73231E+01
   3.80416E+01  3.76061E+01  4.00524E+01  3.53448E+01  3.75977E+01  3.44109E+01  3.76258E+01  3.62704E+01  3.80587E+01  3.57366E+01
   3.13831E+01  3.32485E+01  3.28794E+01  3.16369E+01  3.21483E+01  2.94277E+01  3.13794E+01  3.42303E+01  3.38294E+01  3.19368E+01
   2.98608E+01  3.22277E+01  3.29176E+01  2.99962E+01  2.94900E+01  2.78613E+01  2.72532E+01  2.99924E+01  3.20979E+01  2.78934E+01
   3.04018E+01  2.98639E+01  2.81404E+01  2.68478E+01  2.73475E+01  2.93619E+01  2.70896E+01  2.70727E+01  2.70440E+01  2.72961E+01
   2.67407E+01  2.55140E+01  2.52625E+01  2.89461E+01  2.53399E+01  2.80076E+01  2.32231E+01  2.35325E+01  2.81841E+01  2.51365E+01
   2.86486E+01  2.91822E+01  2.73992E+01  2.59641E+01  2.60147E+01  2.19002E+01  2.43516E+01  2.23817E+01  2.58310E+01  2.20525E+01
   2.35499E+01  2.30427E+01  2.56564E+01  2.16033E+01  2.11849E+01  2.12535E+01  2.47034E+01  2.38531E+01  2.06942E+01  2.04666E+01
   1.77933E+01  2.27829E+01  1.88796E+01  2.03680E+01  2.21629E+01  2.63277E+01  2.40219E+01  2.27867E+01  2.23483E+01  2.06429E+01
   2.41687E+01  2.09869E+01  2.08499E+01  1.99415E+01  1.71711E+01  1.77896E+01  2.19978E+01  1.98473E+01  2.43589E+01  1.91872E+01
   1.89437E+01  1.56306E+01  1.69079E+01  1.74374E+01  2.35013E+01  2.06054E+01  1.97750E+01  2.00698E+01  1.89465E+01  2.04086E+01
   2.13300E+01  1.95640E+01  1.81248E+01  2.04331E+01  1.87388E+01  1.89155E+01  1.87499E+01  2.02101E+01  1.59661E+01  1.73393E+01
   1.90522E+01  1.80560E+01  1.46975E+01  1.66783E+01  1.93856E+01  1.83871E+01  1.69768E+01  1.98790E+01  1.63551E+01  1.56447E+01
   1.69117E+01  1.82784E+01  1.44547E+01  1.51907E+01  1.44615E+01  1.68771E+01  1.54763E+01  1.77079E+01  1.53078E+01  1.53057E+01
   1.66416E+01  1.32751E+01  1.56998E+01  1.15615E+01  1.77495E+01  1.40435E+01  1.72501E+01  1.65639E+01  1.62412E+01  1.49918E+01
   1.39524E+01  1.45039E+01  1.72949E+01  1.71695E+01  1.61282E+01  1.61161E+01  1.51685E+01  1.24260E+01  1.57965E+01  1.45127E+01
   1.31289E+01  1.60985E+01  1.62254E+01  1.22386E+01  1.67197E+01  1.63501E+01  1.68537E+01  1.44738E+01  1.49682E+01  1.83169E+01
   1.31148E+01  1.08440E+01  1.22107E+01  1.75874E+01  1.64339E+01  1.67983E+01  1.73359E+01  1.59291E+01  1.87999E+01  1.52728E+01
   1.43390E+01  1.57568E+01  1.45994E+01  1.43227E+01  1.42250E+01  1.47478E+01  1.99184E+01  1.61563E+01  1.83903E+01  1.45546E+01
   1.54751E+01  1.78808E+01  1.59334E+01  1.46248E+01  1.64048E+01  1.71500E+01  1.69665E+01  1.61982E+01  1.38724E+01  1.69552E+01
   1.48594E+01  1.45766E+01  1.49583E+01  1.70214E+01  1.84610E+01  1.52764E+01  1.30789E+01  1.64222E+01  1.95885E+01  1.95509E+01
   1.66788E+01  1.80650E+01  1.70445E+01  1.65561E+01  1.76397E+01  2.14061E+01  1.64340E+01  1.65931E+01  2.08766E+01  2.40198E+01
   2.03205E+01  2.06189E+01  1.75912E+01  1.61221E+01  1.43615E+01  1.36575E+01  1.35841E+01  1.42510E+01  1.68442E+01  1.43661E+01
   1.41265E+01  1.26629E+01  1.33224E+01  1.45592E+01  9.50677E+00  1.50505E+01  1.56839E+01  1.56756E+01  1.27883E+01  1.03764E+01
   1.28047E+01  1.40892E+01  1.24750E+01  1.12563E+01  1.10884E+01  1.34588E+01  1.49131E+01  1.25221E+01  1.18168E+01  1.31147E+01
   1.10541E+01  1.14492E+01  1.24611E+01  1.11752E+01  1.39808E+01  1.05686E+01  1.58089E+01  1.42517E+01  1.71809E+01  1.29876E+01
   1.34354E+01  1.54952E+01  1.07842E+01  1.16786E+01  1.31978E+01  9.44314E+00  1.39524E+01  9.41453E+00  1.23254E+01  1.19039E+01
   1.30463E+01  1.09739E+01  1.23113E+01  1.33263E+01  1.20470E+01  1.41683E+01  1.40105E+01  1.36230E+01  1.38491E+01  1.04596E+01
   1.43535E+01  1.04949E+01  1.28628E+01  1.53972E+01  1.26555E+01  1.44341E+01  1.14766E+01  1.31618E+01  1.05442E+01  1.47261E+01
   1.35838E+01  1.50753E+01  1.30972E+01  1.36726E+01  1.33266E+01  1.32583E+01  1.12773E+01  1.06193E+01  7.18169E+00  9.97656E+00
   6.60618E+00  1.00302E+01  1.10904E+01  8.31152E+00  1.10156E+01  1.25407E+01  1.20060E+01  1.04347E+01  1.48440E+01  1.47375E+01
   1.12280E+01  1.58748E+01  1.36797E+01  1.46460E+01  1.16610E+01  1.31858E+01  1.44658E+01  1.54523E+01  1.38591E+01  1.38348E+01
   1.69514E+01  1.28559E+01  1.62616E+01  1.18684E+01  1.37087E+01  1.14385E+01  1.13213E+01  1.09206E+01  1.26060E+01  9.70005E+00
   1.44029E+01  9.57906E+00  1.16471E+01  1.29869E+01  1.24742E+01  1.50140E+01  1.19758E+01  9.68064E+00  1.05702E+01  1.26779E+01
   1.27974E+01  1.09243E+01  1.18368E+01  1.19512E+01  1.14722E+01  1.62197E+01  1.34578E+01  1.24939E+01  1.25662E+01  1.27934E+01
   7.20795E+00  1.18366E+01  1.37407E+01  1.09200E+01  1.46081E+01  1.17996E+01  1.12177E+01  1.13208E+01  1.30668E+01  1.11888E+01
   1.21347E+01  1.33349E+01  1.31103E+01  1.29699E+01  1.26958E+01  1.29879E+01  1.32674E+01  1.22278E+01  1.29766E+01  1.06433E+01
   1.11789E+01  1.24425E+01  1.02216E+01  1.14219E+01  1.09374E+01  1.16163E+01  1.14694E+01  9.60651E+00  1.18918E+01  1.03756E+01
   1.10091E+01  1.14953E+01  1.11460E+01  1.22949E+01  1.18117E+01  1.12173E+01  1.17058E+01  1.20594E+01  1.04324E+01  1.17411E+01
   9.31762E+00  1.01116E+01  1.22440E+01  9.12755E+00  1.19379E+01  1.01646E+01  9.71887E+00  9.47546E+00  1.08643E+01  1.41697E+01
   7.81893E+00  9.65744E+00  9.30385E+00  1.58976E+01  9.95107E+00  6.17470E+00  8.63357E+00  1.01023E+01  9.97406E+00  1.14513E+01
   8.42130E+00  8.42748E+00  9.79197E+00  1.12358E+01  8.61436E+00  8.64004E+00  9.24634E+00  9.65482E+00  8.98964E+00  1.04253E+01
   7.22768E+00  7.85840E+00  9.40224E+00  8.62608E+00  6.44148E+00  7.21102E+00  9.32759E+00  1.00091E+01  7.38638E+00  9.49287E+00
   6.72697E+00  1.07815E+01  1.01286E+01  8.58562E+00  4.92323E+00  8.09780E+00  6.77521E+00  6.18745E+00  6.82908E+00  8.89561E+00
   9.21560E+00  4.48909E+00  7.09597E+00  7.46538E+00  6.79151E+00  7.99093E+00  7.53775E+00  7.36992E+00  8.55324E+00  6.95171E+00
   8.87684E+00  7.24732E+00  5.98349E+00  7.26568E+00  9.51601E+00  6.26486E+00  7.34757E+00  8.47876E+00
 NY points of the fit to the data follow
   5.47629E+01  5.44397E+01  5.41261E+01  5.38296E+01  5.35407E+01  5.32100E+01  5.27497E+01  5.24369E+01  5.28519E+01  5.38185E+01
   5.43141E+01  5.38549E+01  5.28951E+01  5.19062E+01  5.09669E+01  5.00372E+01  4.93191E+01  4.89452E+01  4.86651E+01  4.83419E+01
   4.80238E+01  4.77124E+01  4.74153E+01  4.71687E+01  4.69407E+01  4.65930E+01  4.60739E+01  4.55130E+01  4.50317E+01  4.46839E+01
   4.45054E+01  4.44836E+01  4.44895E+01  4.43206E+01  4.38998E+01  4.33237E+01  4.27042E+01  4.21610E+01  4.17994E+01  4.16050E+01
   4.14685E+01  4.12770E+01  4.10083E+01  4.07086E+01  4.03641E+01  3.99704E+01  3.95959E+01  3.92844E+01  3.90121E+01  3.87269E+01
   3.84144E+01  3.81021E+01  3.77960E+01  3.74806E+01  3.71580E+01  3.68398E+01  3.65282E+01  3.62240E+01  3.59271E+01  3.56337E+01
   3.53432E+01  3.50562E+01  3.47718E+01  3.44903E+01  3.42114E+01  3.39334E+01  3.36553E+01  3.33771E+01  3.30998E+01  3.28258E+01
   3.25555E+01  3.22903E+01  3.20376E+01  3.17978E+01  3.15588E+01  3.13084E+01  3.10469E+01  3.07815E+01  3.05162E+01  3.02541E+01
   2.99989E+01  2.97482E+01  2.95130E+01  2.93216E+01  2.91618E+01  2.89738E+01  2.87309E+01  2.84611E+01  2.81942E+01  2.79367E+01
   2.76840E+01  2.74446E+01  2.72262E+01  2.70166E+01  2.68104E+01  2.66139E+01  2.64172E+01  2.61541E+01  2.59482E+01  2.62996E+01
   2.72509E+01  2.79691E+01  2.78267E+01  2.71133E+01  2.63022E+01  2.55388E+01  2.48071E+01  2.42511E+01  2.40455E+01  2.39835E+01
   2.38552E+01  2.37056E+01  2.35569E+01  2.34120E+01  2.32713E+01  2.31351E+01  2.30005E+01  2.28634E+01  2.27289E+01  2.26036E+01
   2.24786E+01  2.23078E+01  2.20150E+01  2.21055E+01  2.33282E+01  2.51521E+01  2.60513E+01  2.55732E+01  2.44639E+01  2.33193E+01
   2.22235E+01  2.11968E+01  2.06060E+01  2.05331E+01  2.05178E+01  2.03976E+01  2.02662E+01  2.01472E+01  2.00302E+01  1.98972E+01
   1.97474E+01  1.96018E+01  1.94768E+01  1.93688E+01  1.92631E+01  1.91446E+01  1.90137E+01  1.88798E+01  1.87482E+01  1.86245E+01
   1.85069E+01  1.83825E+01  1.82480E+01  1.81193E+01  1.80151E+01  1.79443E+01  1.78970E+01  1.78179E+01  1.76549E+01  1.74435E+01
   1.72686E+01  1.71858E+01  1.71813E+01  1.71840E+01  1.71402E+01  1.70541E+01  1.69297E+01  1.67741E+01  1.66314E+01  1.65406E+01
   1.65048E+01  1.64820E+01  1.64080E+01  1.62552E+01  1.60865E+01  1.60049E+01  1.60260E+01  1.60566E+01  1.60092E+01  1.58928E+01
   1.57903E+01  1.57522E+01  1.57650E+01  1.57718E+01  1.57233E+01  1.56650E+01  1.56685E+01  1.57120E+01  1.57441E+01  1.57558E+01
   1.57473E+01  1.57021E+01  1.56187E+01  1.55518E+01  1.55420E+01  1.55347E+01  1.54816E+01  1.54161E+01  1.53566E+01  1.52847E+01
   1.52369E+01  1.52640E+01  1.53506E+01  1.54219E+01  1.54142E+01  1.53331E+01  1.52018E+01  1.50236E+01  1.48236E+01  1.46516E+01
   1.45243E+01  1.44803E+01  1.46543E+01  1.51281E+01  1.57083E+01  1.60073E+01  1.58936E+01  1.55762E+01  1.51707E+01  1.46097E+01
   1.39412E+01  1.35394E+01  1.36989E+01  1.42050E+01  1.47170E+01  1.51326E+01  1.54524E+01  1.56279E+01  1.55876E+01  1.54098E+01
   1.52751E+01  1.52437E+01  1.52865E+01  1.53878E+01  1.55042E+01  1.55975E+01  1.56616E+01  1.56871E+01  1.56665E+01  1.55974E+01
   1.55143E+01  1.55038E+01  1.56416E+01  1.58770E+01  1.61025E+01  1.62810E+01  1.64113E+01  1.64563E+01  1.63658E+01  1.61999E+01
   1.60809E+01  1.60278E+01  1.62779E+01  1.71271E+01  1.81460E+01  1.83367E+01  1.79497E+01  1.86929E+01  2.08206E+01  2.22397E+01
   2.16195E+01  2.00026E+01  1.84638E+01  1.69899E+01  1.54928E+01  1.44677E+01  1.42847E+01  1.43607E+01  1.42566E+01  1.41214E+01
   1.40158E+01  1.39432E+01  1.39054E+01  1.38816E+01  1.38302E+01  1.37427E+01  1.36414E+01  1.35381E+01  1.34285E+01  1.33244E+01
   1.32478E+01  1.31987E+01  1.31598E+01  1.31222E+01  1.30880E+01  1.30557E+01  1.30201E+01  1.29795E+01  1.29414E+01  1.29165E+01
   1.29064E+01  1.29039E+01  1.29025E+01  1.29001E+01  1.28981E+01  1.28942E+01  1.28837E+01  1.28706E+01  1.28630E+01  1.28605E+01
   1.28594E+01  1.28579E+01  1.28546E+01  1.28480E+01  1.28359E+01  1.28177E+01  1.27954E+01  1.27694E+01  1.27398E+01  1.27072E+01
   1.26720E+01  1.26344E+01  1.25947E+01  1.25537E+01  1.25119E+01  1.24701E+01  1.24286E+01  1.23880E+01  1.23488E+01  1.23111E+01
   1.22753E+01  1.22414E+01  1.22095E+01  1.21798E+01  1.21523E+01  1.21268E+01  1.21033E+01  1.20817E+01  1.20618E+01  1.20436E+01
   1.20270E+01  1.20119E+01  1.19983E+01  1.19860E+01  1.19750E+01  1.19655E+01  1.19574E+01  1.19511E+01  1.19470E+01  1.19458E+01
   1.19488E+01  1.19580E+01  1.19765E+01  1.20085E+01  1.20598E+01  1.21376E+01  1.22497E+01  1.24036E+01  1.26049E+01  1.28548E+01
   1.31483E+01  1.34725E+01  1.38067E+01  1.41230E+01  1.43906E+01  1.45798E+01  1.46676E+01  1.46418E+01  1.45036E+01  1.42677E+01
   1.39591E+01  1.36088E+01  1.32484E+01  1.29056E+01  1.26004E+01  1.23444E+01  1.21408E+01  1.19866E+01  1.18747E+01  1.17964E+01
   1.17428E+01  1.17065E+01  1.16818E+01  1.16644E+01  1.16520E+01  1.16432E+01  1.16375E+01  1.16349E+01  1.16357E+01  1.16403E+01
   1.16494E+01  1.16635E+01  1.16832E+01  1.17089E+01  1.17412E+01  1.17803E+01  1.18265E+01  1.18798E+01  1.19402E+01  1.20072E+01
   1.20802E+01  1.21584E+01  1.22406E+01  1.23252E+01  1.24105E+01  1.24943E+01  1.25744E+01  1.26485E+01  1.27140E+01  1.27685E+01
   1.28099E+01  1.28360E+01  1.28454E+01  1.28368E+01  1.28095E+01  1.27636E+01  1.26993E+01  1.26178E+01  1.25206E+01  1.24094E+01
   1.22866E+01  1.21546E+01  1.20158E+01  1.18729E+01  1.17280E+01  1.15836E+01  1.14414E+01  1.13032E+01  1.11701E+01  1.10433E+01
   1.09233E+01  1.08106E+01  1.07052E+01  1.06070E+01  1.05158E+01  1.04312E+01  1.03528E+01  1.02799E+01  1.02121E+01  1.01489E+01
   1.00896E+01  1.00337E+01  9.98097E+00  9.93080E+00  9.88287E+00  9.83685E+00  9.79245E+00  9.74943E+00  9.70757E+00  9.66668E+00
   9.62659E+00  9.58717E+00  9.54831E+00  9.50991E+00  9.47188E+00  9.43414E+00  9.39662E+00  9.35928E+00  9.32207E+00  9.28496E+00
   9.24789E+00  9.21083E+00  9.17377E+00  9.13668E+00  9.09955E+00  9.06237E+00  9.02512E+00  8.98779E+00  8.95038E+00  8.91290E+00
   8.87533E+00  8.83768E+00  8.79994E+00  8.76210E+00  8.72418E+00  8.68618E+00  8.64810E+00  8.60993E+00  8.57167E+00  8.53334E+00
   8.49495E+00  8.45649E+00  8.41797E+00  8.37938E+00  8.34074E+00  8.30205E+00  8.26332E+00  8.22456E+00  8.18577E+00  8.14694E+00
   8.10809E+00  8.06923E+00  8.03037E+00  7.99150E+00  7.95264E+00  7.91378E+00  7.87495E+00  7.83615E+00  7.79738E+00  7.75865E+00
   7.71996E+00  7.68133E+00  7.64276E+00  7.60426E+00  7.56585E+00  7.52751E+00  7.48926E+00  7.45111E+00
 NY background values follow
     5.468E+01    5.434E+01    5.400E+01    5.366E+01    5.332E+01    5.298E+01    5.264E+01    5.230E+01    5.196E+01    5.162E+01
     5.129E+01    5.095E+01    5.061E+01    5.027E+01    4.993E+01    4.959E+01    4.926E+01    4.892E+01    4.858E+01    4.825E+01
     4.791E+01    4.757E+01    4.724E+01    4.690E+01    4.657E+01    4.624E+01    4.591E+01    4.557E+01    4.524E+01    4.491E+01
     4.458E+01    4.426E+01    4.393E+01    4.360E+01    4.328E+01    4.295E+01    4.263E+01    4.231E+01    4.198E+01    4.166E+01
     4.135E+01    4.103E+01    4.071E+01    4.040E+01    4.008E+01    3.977E+01    3.946E+01    3.915E+01    3.884E+01    3.854E+01
     3.823E+01    3.793E+01    3.763E+01    3.732E+01    3.703E+01    3.673E+01    3.643E+01    3.614E+01    3.585E+01    3.556E+01
     3.527E+01    3.498E+01    3.470E+01    3.442E+01    3.413E+01    3.385E+01    3.358E+01    3.330E+01    3.303E+01    3.276E+01
     3.249E+01    3.222E+01    3.195E+01    3.169E+01    3.143E+01    3.117E+01    3.091E+01    3.066E+01    3.041E+01    3.015E+01
     2.991E+01    2.966E+01    2.942E+01    2.918E+01    2.894E+01    2.870E+01    2.847E+01    2.823E+01    2.800E+01    2.778E+01
     2.755E+01    2.733E+01    2.711E+01    2.689E+01    2.668E+01    2.647E+01    2.626E+01    2.605E+01    2.584E+01    2.564E+01
     2.544E+01    2.524E+01    2.505E+01    2.486E+01    2.467E+01    2.448E+01    2.429E+01    2.411E+01    2.393E+01    2.375E+01
     2.357E+01    2.339E+01    2.322E+01    2.305E+01    2.288E+01    2.272E+01    2.255E+01    2.239E+01    2.223E+01    2.208E+01
     2.192E+01    2.177E+01    2.162E+01    2.147E+01    2.132E+01    2.118E+01    2.103E+01    2.089E+01    2.076E+01    2.062E+01
     2.048E+01    2.035E+01    2.022E+01    2.009E+01    1.997E+01    1.984E+01    1.972E+01    1.960E+01    1.948E+01    1.936E+01
     1.924E+01    1.913E+01    1.902E+01    1.891E+01    1.880E+01    1.869E+01    1.859E+01    1.848E+01    1.838E+01    1.828E+01
     1.818E+01    1.809E+01    1.799E+01    1.790E+01    1.781E+01    1.772E+01    1.763E+01    1.754E+01    1.745E+01    1.737E+01
     1.729E+01    1.720E+01    1.712E+01    1.704E+01    1.697E+01    1.689E+01    1.681E+01    1.674E+01    1.667E+01    1.660E+01
     1.653E+01    1.646E+01    1.639E+01    1.632E+01    1.626E+01    1.619E+01    1.613E+01    1.607E+01    1.601E+01    1.595E+01
     1.589E+01    1.583E+01    1.577E+01    1.572E+01    1.566E+01    1.561E+01    1.555E+01    1.550E+01    1.545E+01    1.540E+01
     1.535E+01    1.530E+01    1.525E+01    1.521E+01    1.516E+01    1.511E+01    1.507E+01    1.502E+01    1.498E+01    1.494E+01
     1.490E+01    1.485E+01    1.481E+01    1.477E+01    1.473E+01    1.469E+01    1.465E+01    1.462E+01    1.458E+01    1.454E+01
     1.451E+01    1.447E+01    1.443E+01    1.440E+01    1.437E+01    1.433E+01    1.430E+01    1.426E+01    1.423E+01    1.420E+01
     1.417E+01    1.413E+01    1.410E+01    1.407E+01    1.404E+01    1.401E+01    1.398E+01    1.395E+01    1.392E+01    1.389E+01
     1.386E+01    1.383E+01    1.380E+01    1.377E+01    1.374E+01    1.372E+01    1.369E+01    1.366E+01    1.363E+01    1.360E+01
     1.358E+01    1.355E+01    1.352E+01    1.350E+01    1.347E+01    1.344E+01    1.342E+01    1.339E+01    1.336E+01    1.334E+01
     1.331E+01    1.329E+01    1.326E+01    1.324E+01    1.321E+01    1.319E+01    1.317E+01    1.314E+01    1.312E+01    1.310E+01
     1.307E+01    1.305E+01    1.303E+01    1.300E+01    1.298E+01    1.296E+01    1.294E+01    1.291E+01    1.289E+01    1.287E+01
     1.285E+01    1.283E+01    1.281E+01    1.279E+01    1.277E+01    1.275E+01    1.273E+01    1.271E+01    1.269E+01    1.267E+01
     1.265E+01    1.263E+01    1.261E+01    1.259E+01    1.257E+01    1.255E+01    1.253E+01    1.251E+01    1.250E+01    1.248E+01
     1.246E+01    1.244E+01    1.242E+01    1.241E+01    1.239E+01    1.237E+01    1.235E+01    1.234E+01    1.232E+01    1.230E+01
     1.229E+01    1.227E+01    1.225E+01    1.224E+01    1.222E+01    1.220E+01    1.219E+01    1.217E+01    1.215E+01    1.214E+01
     1.212E+01    1.211E+01    1.209E+01    1.207E+01    1.206E+01    1.204E+01    1.203E+01    1.201E+01    1.200E+01    1.198E+01
     1.197E+01    1.195E+01    1.193E+01    1.192E+01    1.190E+01    1.189E+01    1.187E+01    1.186E+01    1.184E+01    1.183E+01
     1.181E+01    1.180E+01    1.178E+01    1.177E+01    1.175E+01    1.174E+01    1.172E+01    1.171E+01    1.169E+01    1.168E+01
     1.166E+01    1.165E+01    1.163E+01    1.162E+01    1.160E+01    1.159E+01    1.157E+01    1.156E+01    1.154E+01    1.153E+01
     1.151E+01    1.150E+01    1.148E+01    1.147E+01    1.145E+01    1.143E+01    1.142E+01    1.140E+01    1.139E+01    1.137E+01
     1.136E+01    1.134E+01    1.133E+01    1.131E+01    1.129E+01    1.128E+01    1.126E+01    1.125E+01    1.123E+01    1.121E+01
     1.120E+01    1.118E+01    1.117E+01    1.115E+01    1.113E+01    1.112E+01    1.110E+01    1.108E+01    1.106E+01    1.105E+01
     1.103E+01    1.101E+01    1.099E+01    1.098E+01    1.096E+01    1.094E+01    1.092E+01    1.090E+01    1.088E+01    1.087E+01
     1.085E+01    1.083E+01    1.081E+01    1.079E+01    1.077E+01    1.075E+01    1.073E+01    1.071E+01    1.069E+01    1.067E+01
     1.064E+01    1.062E+01    1.060E+01    1.058E+01    1.056E+01    1.054E+01    1.051E+01    1.049E+01    1.047E+01    1.044E+01
     1.042E+01    1.040E+01    1.037E+01    1.035E+01    1.032E+01    1.030E+01    1.027E+01    1.025E+01    1.022E+01    1.020E+01
     1.017E+01    1.014E+01    1.012E+01    1.009E+01    1.006E+01    1.003E+01    1.001E+01    9.978E+00    9.950E+00    9.921E+00
     9.892E+00    9.863E+00    9.834E+00    9.804E+00    9.774E+00    9.744E+00    9.714E+00    9.683E+00    9.653E+00    9.621E+00
     9.590E+00    9.558E+00    9.526E+00    9.494E+00    9.462E+00    9.429E+00    9.396E+00    9.363E+00    9.330E+00    9.296E+00
     9.262E+00    9.228E+00    9.193E+00    9.159E+00    9.124E+00    9.089E+00    9.053E+00    9.018E+00    8.982E+00    8.946E+00
     8.909E+00    8.873E+00    8.836E+00    8.799E+00    8.763E+00    8.725E+00    8.688E+00    8.651E+00    8.613E+00    8.575E+00
     8.538E+00    8.500E+00    8.462E+00    8.423E+00    8.385E+00    8.347E+00    8.308E+00    8.270E+00    8.231E+00    8.193E+00
     8.154E+00    8.116E+00    8.077E+00    8.038E+00    7.999E+00    7.961E+00    7.922E+00    7.883E+00    7.844E+00    7.806E+00
     7.767E+00    7.728E+00    7.690E+00    7.651E+00    7.613E+00    7.574E+00    7.536E+00    7.498E+00
 Asp      Conc. = 1.38E+01
