 LCModel (Version 6.3-1L) Copyright: S.W. Provencher.          Ref.: Magn. Reson. Med. 30:672-679 (1993).                
 Slice#2 Row#11 Col#2  K_02_press_1_raw_act
 36 lines in following concentration table = NCONC+1
    Conc.  %SD /Cr+PCr  Metabolite                                         
   22.266 780% 7.4E-02 Ala                                                 
    0.000 999%   0.000 Asp                                                 
    0.000 999%   0.000 Cr                                                  
  302.199  16%   1.000 PCr                                                 
   27.838 151% 9.2E-02 GABA                                                
    0.462 999% 1.5E-03 Glc                                                 
  510.088  63%   1.688 Gln                                                 
    0.000 999%   0.000 Glu                                                 
  118.961  16%   0.394 GPC                                                 
    0.000 999%   0.000 PCh                                                 
    0.000 999%   0.000 GSH                                                 
 1.89E+03  13%   6.238 Ins                                                 
    0.000 999%   0.000 Lac                                                 
  118.505  65%   0.392 NAA                                                 
   81.666  94%   0.270 NAAG                                                
   33.766  39%   0.112 Scyllo                                              
   33.994 202%   0.112 Tau                                                 
    0.000 999%   0.000 -CrCH2                                              
  118.961  16%   0.394 GPC+PCh                                             
  200.171  23%   0.662 NAA+NAAG                                            
  302.199  16%   1.000 Cr+PCr                                              
  510.088  63%   1.688 Glu+Gln                                             
    0.000 999%   0.000 Lip13a                                              
    8.019 394% 2.7E-02 Lip13b                                              
    0.000 999%   0.000 Lip09                                               
    0.000 999%   0.000 MM09                                                
    1.750 485% 5.8E-03 Lip20                                               
    0.000 999%   0.000 MM20                                                
 1.10E-04 999% 3.6E-07 MM12                                                
 3.04E-02 999% 1.0E-04 MM14                                                
 2.73E-02 999% 9.0E-05 MM17                                                
    8.019 394% 2.7E-02 Lip13a+Lip13b                                       
    8.050 395% 2.7E-02 MM14+Lip13a+Lip13b+MM12                             
    0.000 999%   0.000 MM09+Lip09                                          
    1.750 485% 5.8E-03 MM20+Lip20                                          
   6 lines in following misc. output table
  FWHM = 0.145 ppm    S/N =   2                                            
  Data shift =-0.008 ppm                                                   
  Ph:  98 deg      34.7 deg/ppm                                            
  alphaB,S = 5.1E-01,   4.8E+00                                            
   14 spline knots.   Ns =11(1)                                            
  ( 6) 2 infls.   ( 1) 1 extrs.                                            
  498 points on ppm-axis = NY
      4.000000     3.992357     3.984714     3.977070     3.969427     3.961784     3.954141     3.946497     3.938854     3.931211
      3.923568     3.915925     3.908281     3.900638     3.892995     3.885352     3.877708     3.870065     3.862422     3.854779
      3.847136     3.839492     3.831849     3.824206     3.816563     3.808919     3.801276     3.793633     3.785990     3.778347
      3.770703     3.763060     3.755417     3.747774     3.740130     3.732487     3.724844     3.717201     3.709558     3.701914
      3.694271     3.686628     3.678985     3.671341     3.663698     3.656055     3.648412     3.640769     3.633125     3.625482
      3.617839     3.610196     3.602552     3.594909     3.587266     3.579623     3.571980     3.564336     3.556693     3.549050
      3.541407     3.533763     3.526120     3.518477     3.510834     3.503191     3.495547     3.487904     3.480261     3.472618
      3.464974     3.457331     3.449688     3.442045     3.434402     3.426758     3.419115     3.411472     3.403829     3.396185
      3.388542     3.380899     3.373256     3.365613     3.357969     3.350326     3.342683     3.335040     3.327396     3.319753
      3.312110     3.304467     3.296824     3.289180     3.281537     3.273894     3.266251     3.258607     3.250964     3.243321
      3.235678     3.228034     3.220391     3.212748     3.205105     3.197462     3.189818     3.182175     3.174532     3.166889
      3.159245     3.151602     3.143959     3.136316     3.128673     3.121029     3.113386     3.105743     3.098100     3.090456
      3.082813     3.075170     3.067527     3.059884     3.052240     3.044597     3.036954     3.029311     3.021667     3.014024
      3.006381     2.998738     2.991095     2.983451     2.975808     2.968165     2.960522     2.952878     2.945235     2.937592
      2.929949     2.922306     2.914662     2.907019     2.899376     2.891733     2.884089     2.876446     2.868803     2.861160
      2.853517     2.845873     2.838230     2.830587     2.822944     2.815300     2.807657     2.800014     2.792371     2.784728
      2.777084     2.769441     2.761798     2.754155     2.746511     2.738868     2.731225     2.723582     2.715939     2.708295
      2.700652     2.693009     2.685366     2.677722     2.670079     2.662436     2.654793     2.647150     2.639506     2.631863
      2.624220     2.616577     2.608933     2.601290     2.593647     2.586004     2.578361     2.570717     2.563074     2.555431
      2.547788     2.540144     2.532501     2.524858     2.517215     2.509572     2.501928     2.494285     2.486642     2.478999
      2.471355     2.463712     2.456069     2.448426     2.440783     2.433139     2.425496     2.417853     2.410210     2.402566
      2.394923     2.387280     2.379637     2.371994     2.364350     2.356707     2.349064     2.341421     2.333777     2.326134
      2.318491     2.310848     2.303205     2.295561     2.287918     2.280275     2.272632     2.264988     2.257345     2.249702
      2.242059     2.234416     2.226772     2.219129     2.211486     2.203843     2.196199     2.188556     2.180913     2.173270
      2.165627     2.157983     2.150340     2.142697     2.135054     2.127410     2.119767     2.112124     2.104481     2.096838
      2.089194     2.081551     2.073908     2.066265     2.058621     2.050978     2.043335     2.035692     2.028049     2.020405
      2.012762     2.005119     1.997476     1.989833     1.982190     1.974546     1.966903     1.959260     1.951617     1.943974
      1.936331     1.928688     1.921045     1.913402     1.905759     1.898115     1.890472     1.882829     1.875186     1.867543
      1.859900     1.852257     1.844614     1.836971     1.829327     1.821684     1.814041     1.806398     1.798755     1.791112
      1.783469     1.775826     1.768183     1.760540     1.752896     1.745253     1.737610     1.729967     1.722324     1.714681
      1.707038     1.699395     1.691752     1.684108     1.676465     1.668822     1.661179     1.653536     1.645893     1.638250
      1.630607     1.622964     1.615321     1.607677     1.600034     1.592391     1.584748     1.577105     1.569462     1.561819
      1.554176     1.546533     1.538890     1.531246     1.523603     1.515960     1.508317     1.500674     1.493031     1.485388
      1.477745     1.470102     1.462458     1.454815     1.447172     1.439529     1.431886     1.424243     1.416600     1.408957
      1.401314     1.393671     1.386027     1.378384     1.370741     1.363098     1.355455     1.347812     1.340169     1.332526
      1.324883     1.317240     1.309596     1.301953     1.294310     1.286667     1.279024     1.271381     1.263738     1.256095
      1.248452     1.240808     1.233165     1.225522     1.217879     1.210236     1.202593     1.194950     1.187307     1.179664
      1.172021     1.164377     1.156734     1.149091     1.141448     1.133805     1.126162     1.118519     1.110876     1.103233
      1.095590     1.087946     1.080303     1.072660     1.065017     1.057374     1.049731     1.042088     1.034445     1.026802
      1.019158     1.011515     1.003872     0.996229     0.988586     0.980943     0.973300     0.965657     0.958014     0.950371
      0.942727     0.935084     0.927441     0.919798     0.912155     0.904512     0.896869     0.889226     0.881583     0.873940
      0.866296     0.858653     0.851010     0.843367     0.835724     0.828081     0.820438     0.812795     0.805152     0.797508
      0.789865     0.782222     0.774579     0.766936     0.759293     0.751650     0.744007     0.736364     0.728721     0.721077
      0.713434     0.705791     0.698148     0.690505     0.682862     0.675219     0.667576     0.659933     0.652290     0.644646
      0.637003     0.629360     0.621717     0.614074     0.606431     0.598788     0.591145     0.583502     0.575858     0.568215
      0.560572     0.552929     0.545286     0.537643     0.530000     0.522357     0.514714     0.507071     0.499427     0.491784
      0.484141     0.476498     0.468855     0.461212     0.453569     0.445925     0.438282     0.430639     0.422996     0.415353
      0.407710     0.400067     0.392424     0.384780     0.377137     0.369494     0.361851     0.354208     0.346565     0.338922
      0.331278     0.323635     0.315992     0.308349     0.300706     0.293063     0.285420     0.277777     0.270133     0.262490
      0.254847     0.247204     0.239561     0.231918     0.224275     0.216631     0.208988     0.201345
 NY phased data points follow
   2.00707E+02  1.98226E+02  1.95796E+02  1.95435E+02  1.88786E+02  1.84147E+02  1.86937E+02  1.79204E+02  1.78209E+02  1.73888E+02
   1.69178E+02  1.70085E+02  1.66379E+02  1.64245E+02  1.58911E+02  1.57206E+02  1.53586E+02  1.50153E+02  1.49018E+02  1.45083E+02
   1.40757E+02  1.38105E+02  1.37762E+02  1.34456E+02  1.34915E+02  1.31689E+02  1.30619E+02  1.28745E+02  1.25545E+02  1.23629E+02
   1.21053E+02  1.19925E+02  1.18630E+02  1.18024E+02  1.15244E+02  1.16905E+02  1.14721E+02  1.13031E+02  1.09654E+02  1.09277E+02
   1.07992E+02  1.05747E+02  1.07955E+02  1.01656E+02  1.00427E+02  9.91091E+01  9.68069E+01  9.59691E+01  9.62895E+01  9.05533E+01
   9.42955E+01  8.90621E+01  9.03186E+01  8.89726E+01  8.44524E+01  8.31627E+01  8.29802E+01  7.89316E+01  7.86229E+01  7.64438E+01
   7.75131E+01  7.24408E+01  7.33464E+01  7.21470E+01  6.81556E+01  7.13241E+01  6.75745E+01  6.71503E+01  6.52345E+01  6.38319E+01
   6.37062E+01  5.95089E+01  6.24085E+01  5.81693E+01  5.88785E+01  6.01152E+01  5.54940E+01  5.82213E+01  5.52251E+01  5.31559E+01
   5.27158E+01  5.12301E+01  5.20077E+01  5.25101E+01  4.98262E+01  4.82762E+01  4.87082E+01  4.43252E+01  4.83718E+01  4.45914E+01
   4.44835E+01  4.29727E+01  4.18620E+01  4.04906E+01  4.05214E+01  4.00078E+01  4.13785E+01  3.90545E+01  4.18963E+01  3.85016E+01
   4.00106E+01  3.62430E+01  3.69140E+01  3.71259E+01  3.74810E+01  3.24865E+01  3.34842E+01  3.16155E+01  3.32128E+01  3.08442E+01
   3.15074E+01  2.89941E+01  3.16194E+01  2.50284E+01  2.57015E+01  2.72834E+01  2.58486E+01  2.92383E+01  2.72262E+01  2.63968E+01
   2.72876E+01  2.41480E+01  2.19126E+01  2.27703E+01  2.24068E+01  2.29621E+01  2.28269E+01  1.97478E+01  2.15702E+01  2.14576E+01
   2.02525E+01  1.76146E+01  1.87558E+01  1.60799E+01  1.47154E+01  1.69093E+01  1.69639E+01  1.40336E+01  1.44751E+01  1.34642E+01
   1.32685E+01  1.12152E+01  1.44183E+01  1.26601E+01  8.38342E+00  9.32356E+00  1.05005E+01  7.53115E+00  8.69495E+00  7.04058E+00
   8.84653E+00  7.77214E+00  9.59610E+00  8.80556E+00  7.75424E+00  6.84304E+00  5.29552E+00  6.40035E+00  6.47990E+00  6.70406E+00
   3.46482E+00  3.88144E+00  1.78260E+00  3.84772E+00  2.17601E+00  3.70069E+00  2.23242E+00 -1.08950E-01  1.07624E+00 -2.93942E+00
  -1.77988E+00 -1.09387E+00 -1.24299E+00 -2.81983E+00 -2.51590E+00 -4.64878E+00 -5.30700E+00 -5.70272E+00 -5.52804E+00 -5.31358E+00
  -5.05684E+00 -5.59991E+00 -7.61873E+00 -8.35356E+00 -7.30016E+00 -8.50963E+00 -8.35271E+00 -9.47292E+00 -9.25789E+00 -1.02218E+01
  -1.06668E+01 -1.21655E+01 -1.02308E+01 -9.03820E+00 -1.14848E+01 -1.26752E+01 -1.27072E+01 -1.55033E+01 -1.12704E+01 -1.29123E+01
  -1.48358E+01 -1.34819E+01 -1.56216E+01 -1.45663E+01 -1.55162E+01 -1.38403E+01 -1.56370E+01 -1.29137E+01 -1.70080E+01 -1.70386E+01
  -1.67150E+01 -2.04179E+01 -1.79708E+01 -1.82096E+01 -1.44394E+01 -1.71591E+01 -1.91903E+01 -1.74710E+01 -1.75822E+01 -2.05946E+01
  -1.95642E+01 -1.93194E+01 -2.08802E+01 -1.96563E+01 -2.05054E+01 -1.92313E+01 -2.22965E+01 -1.89913E+01 -2.09905E+01 -2.00854E+01
  -2.45660E+01 -2.49391E+01 -2.13428E+01 -2.36008E+01 -2.40232E+01 -2.03170E+01 -2.23717E+01 -2.36635E+01 -2.48299E+01 -2.39107E+01
  -2.59343E+01 -2.71682E+01 -2.85609E+01 -2.57243E+01 -2.90416E+01 -2.36408E+01 -2.52132E+01 -2.78205E+01 -2.86209E+01 -2.58207E+01
  -2.62809E+01 -2.55333E+01 -2.79648E+01 -2.72211E+01 -2.55899E+01 -2.42455E+01 -2.30959E+01 -2.53957E+01 -2.70015E+01 -2.48856E+01
  -2.69690E+01 -2.65656E+01 -2.67452E+01 -2.79619E+01 -3.01366E+01 -2.99323E+01 -2.77246E+01 -3.13292E+01 -2.89850E+01 -2.88312E+01
  -3.09539E+01 -3.08324E+01 -3.30976E+01 -2.95295E+01 -3.44411E+01 -3.09011E+01 -3.23762E+01 -3.02194E+01 -3.50873E+01 -3.14140E+01
  -3.07367E+01 -3.32274E+01 -3.35544E+01 -3.24266E+01 -3.42226E+01 -3.48539E+01 -3.42826E+01 -3.25907E+01 -3.41436E+01 -3.27848E+01
  -3.30471E+01 -3.39219E+01 -3.56120E+01 -3.31540E+01 -3.36141E+01 -3.22908E+01 -3.58804E+01 -3.49202E+01 -3.36142E+01 -3.47849E+01
  -3.57585E+01 -3.17733E+01 -3.45890E+01 -3.40465E+01 -3.34943E+01 -3.36413E+01 -3.36079E+01 -3.82884E+01 -3.71436E+01 -3.37026E+01
  -3.42982E+01 -3.64325E+01 -3.62143E+01 -3.51458E+01 -3.52974E+01 -3.59900E+01 -4.05503E+01 -3.43113E+01 -3.72754E+01 -3.65348E+01
  -3.47957E+01 -3.74922E+01 -3.87665E+01 -3.49458E+01 -3.71415E+01 -3.67420E+01 -3.67548E+01 -3.64377E+01 -3.84045E+01 -4.02774E+01
  -3.64675E+01 -3.96699E+01 -3.83834E+01 -3.97354E+01 -3.81488E+01 -4.21350E+01 -4.01530E+01 -4.06674E+01 -4.19135E+01 -3.99259E+01
  -4.20013E+01 -4.11523E+01 -4.06118E+01 -4.20632E+01 -4.13601E+01 -4.27174E+01 -4.00706E+01 -4.21327E+01 -4.10194E+01 -4.41973E+01
  -4.42044E+01 -4.22066E+01 -4.10130E+01 -4.30409E+01 -4.27182E+01 -4.16035E+01 -4.28487E+01 -4.39902E+01 -4.52213E+01 -4.17789E+01
  -4.46614E+01 -4.35877E+01 -4.38803E+01 -4.56639E+01 -4.60776E+01 -4.54757E+01 -4.54616E+01 -4.41264E+01 -4.45419E+01 -4.58356E+01
  -4.49874E+01 -4.36076E+01 -4.48929E+01 -4.65659E+01 -4.52005E+01 -4.43554E+01 -4.50148E+01 -4.57128E+01 -4.64341E+01 -4.58727E+01
  -4.66698E+01 -4.63881E+01 -4.59707E+01 -4.31796E+01 -4.42643E+01 -4.57166E+01 -4.42373E+01 -4.30859E+01 -4.51601E+01 -4.89445E+01
  -4.54769E+01 -4.60352E+01 -4.65023E+01 -4.80400E+01 -4.80503E+01 -4.84661E+01 -4.93868E+01 -4.67667E+01 -4.75057E+01 -4.90266E+01
  -4.49243E+01 -4.75112E+01 -4.59745E+01 -4.65828E+01 -4.50563E+01 -4.63229E+01 -4.46180E+01 -4.54318E+01 -4.52894E+01 -4.77505E+01
  -4.49768E+01 -4.25045E+01 -4.25304E+01 -4.59747E+01 -4.53909E+01 -4.53749E+01 -4.20242E+01 -4.13154E+01 -4.42151E+01 -4.56821E+01
  -4.39726E+01 -4.37950E+01 -4.29130E+01 -4.10461E+01 -4.50934E+01 -4.38256E+01 -4.21068E+01 -4.17371E+01 -4.24139E+01 -4.04299E+01
  -4.14250E+01 -4.25287E+01 -4.13618E+01 -4.15182E+01 -4.28697E+01 -3.96887E+01 -3.89655E+01 -3.80510E+01 -3.88271E+01 -3.64355E+01
  -3.76123E+01 -3.82198E+01 -3.43893E+01 -3.67223E+01 -4.31224E+01 -3.83725E+01 -3.89401E+01 -3.95821E+01 -3.86773E+01 -3.79545E+01
  -4.14132E+01 -3.49377E+01 -3.85559E+01 -3.67896E+01 -3.72537E+01 -3.53214E+01 -3.75394E+01 -3.76246E+01 -3.50769E+01 -3.66315E+01
  -3.65536E+01 -3.64405E+01 -3.77840E+01 -3.85019E+01 -3.67172E+01 -3.42934E+01 -3.78204E+01 -3.55341E+01 -3.63441E+01 -3.60042E+01
  -3.42182E+01 -3.37754E+01 -3.22871E+01 -3.16801E+01 -3.37384E+01 -3.64884E+01 -3.57272E+01 -3.23129E+01 -3.07147E+01 -3.01400E+01
  -3.45149E+01 -3.32788E+01 -3.20606E+01 -3.07877E+01 -3.11842E+01 -3.07372E+01 -3.11303E+01 -2.81175E+01 -3.06854E+01 -2.68036E+01
  -2.79112E+01 -2.97073E+01 -2.78469E+01 -2.73739E+01 -2.76622E+01 -2.68338E+01 -2.68546E+01 -2.81253E+01
 NY points of the fit to the data follow
   1.98118E+02  1.94894E+02  1.92220E+02  1.90241E+02  1.86191E+02  1.83156E+02  1.81397E+02  1.77966E+02  1.75428E+02  1.72938E+02
   1.70417E+02  1.68118E+02  1.65515E+02  1.62718E+02  1.60387E+02  1.57580E+02  1.54566E+02  1.52751E+02  1.50355E+02  1.47043E+02
   1.44793E+02  1.42072E+02  1.39892E+02  1.37834E+02  1.35700E+02  1.33724E+02  1.31784E+02  1.29682E+02  1.27684E+02  1.25683E+02
   1.23729E+02  1.21720E+02  1.19862E+02  1.17961E+02  1.16001E+02  1.13945E+02  1.12193E+02  1.11075E+02  1.10080E+02  1.09187E+02
   1.07866E+02  1.06849E+02  1.05892E+02  1.03845E+02  1.01272E+02  9.88369E+01  9.72842E+01  9.58248E+01  9.48283E+01  9.33815E+01
   9.19230E+01  9.13020E+01  9.00471E+01  8.79688E+01  8.63076E+01  8.45380E+01  8.19009E+01  8.01771E+01  7.95904E+01  7.74774E+01
   7.55654E+01  7.38363E+01  7.24750E+01  7.15035E+01  7.07939E+01  6.96545E+01  6.88916E+01  6.77447E+01  6.62297E+01  6.50107E+01
   6.42122E+01  6.29082E+01  6.21661E+01  6.07428E+01  5.96574E+01  5.87190E+01  5.77747E+01  5.66656E+01  5.55470E+01  5.43325E+01
   5.31621E+01  5.14127E+01  5.03279E+01  4.89653E+01  4.81229E+01  4.70955E+01  4.61543E+01  4.52116E+01  4.43007E+01  4.34304E+01
   4.23639E+01  4.17357E+01  4.17319E+01  4.10417E+01  4.06604E+01  4.08607E+01  4.11221E+01  4.00789E+01  3.90224E+01  3.77170E+01
   3.82934E+01  3.74459E+01  3.70360E+01  3.64505E+01  3.60855E+01  3.55756E+01  3.49172E+01  3.35336E+01  3.24434E+01  3.13778E+01
   2.95613E+01  2.92153E+01  2.96933E+01  2.72381E+01  2.71028E+01  2.65724E+01  2.63374E+01  2.61913E+01  2.61310E+01  2.62875E+01
   2.62686E+01  2.55010E+01  2.43991E+01  2.43398E+01  2.41975E+01  2.35455E+01  2.32701E+01  2.28223E+01  2.25135E+01  2.22495E+01
   2.12177E+01  2.01562E+01  1.95268E+01  1.81640E+01  1.68773E+01  1.74149E+01  1.61685E+01  1.46428E+01  1.41127E+01  1.28159E+01
   1.21592E+01  1.16671E+01  1.12064E+01  1.07336E+01  1.02694E+01  9.83096E+00  9.36437E+00  8.91578E+00  8.47518E+00  8.01835E+00
   7.56794E+00  7.11051E+00  6.65180E+00  6.19963E+00  5.74008E+00  5.28312E+00  4.84297E+00  4.39417E+00  3.94024E+00  3.48487E+00
   3.02510E+00  2.57547E+00  2.14486E+00  1.67707E+00  1.22075E+00  7.90255E-01  3.43856E-01 -9.15276E-02 -5.14195E-01 -9.73280E-01
  -1.43260E+00 -1.84266E+00 -2.27538E+00 -2.69801E+00 -3.09289E+00 -3.51641E+00 -3.93657E+00 -4.31873E+00 -4.72407E+00 -5.12790E+00
  -5.50341E+00 -5.86041E+00 -6.24165E+00 -6.63420E+00 -7.07361E+00 -7.52084E+00 -7.95371E+00 -8.38967E+00 -8.85126E+00 -9.23833E+00
  -9.61788E+00 -9.91031E+00 -1.01812E+01 -1.04106E+01 -1.06942E+01 -1.09146E+01 -1.12788E+01 -1.17290E+01 -1.22739E+01 -1.28790E+01
  -1.34764E+01 -1.39079E+01 -1.43189E+01 -1.47428E+01 -1.50578E+01 -1.50950E+01 -1.53010E+01 -1.56663E+01 -1.61994E+01 -1.64642E+01
  -1.69529E+01 -1.72091E+01 -1.76321E+01 -1.80984E+01 -1.81630E+01 -1.82657E+01 -1.86445E+01 -1.86713E+01 -1.87982E+01 -1.94264E+01
  -1.95845E+01 -1.93555E+01 -1.97760E+01 -1.98687E+01 -2.01811E+01 -2.07086E+01 -2.11470E+01 -2.15136E+01 -2.18546E+01 -2.21947E+01
  -2.24642E+01 -2.25877E+01 -2.27659E+01 -2.31011E+01 -2.35193E+01 -2.38194E+01 -2.43620E+01 -2.48079E+01 -2.51547E+01 -2.53767E+01
  -2.56555E+01 -2.56729E+01 -2.58505E+01 -2.58709E+01 -2.58596E+01 -2.61137E+01 -2.62722E+01 -2.61918E+01 -2.63873E+01 -2.60762E+01
  -2.57949E+01 -2.58499E+01 -2.63607E+01 -2.58820E+01 -2.58822E+01 -2.60916E+01 -2.63434E+01 -2.63152E+01 -2.62349E+01 -2.64883E+01
  -2.66788E+01 -2.69563E+01 -2.71978E+01 -2.75648E+01 -2.80498E+01 -2.82298E+01 -2.88745E+01 -2.93957E+01 -3.00650E+01 -3.00507E+01
  -3.03275E+01 -3.09969E+01 -3.10884E+01 -3.15402E+01 -3.17522E+01 -3.18831E+01 -3.20065E+01 -3.21154E+01 -3.22359E+01 -3.23583E+01
  -3.24651E+01 -3.25739E+01 -3.26839E+01 -3.27853E+01 -3.28934E+01 -3.29934E+01 -3.30978E+01 -3.32026E+01 -3.33089E+01 -3.34043E+01
  -3.35084E+01 -3.36080E+01 -3.37044E+01 -3.38063E+01 -3.39074E+01 -3.39985E+01 -3.41066E+01 -3.42100E+01 -3.43117E+01 -3.44197E+01
  -3.45301E+01 -3.46320E+01 -3.47426E+01 -3.48529E+01 -3.49634E+01 -3.50783E+01 -3.51920E+01 -3.53084E+01 -3.54299E+01 -3.55479E+01
  -3.56704E+01 -3.57948E+01 -3.59201E+01 -3.60484E+01 -3.61771E+01 -3.63029E+01 -3.64258E+01 -3.65739E+01 -3.67299E+01 -3.68945E+01
  -3.70568E+01 -3.72449E+01 -3.74507E+01 -3.76489E+01 -3.77916E+01 -3.79595E+01 -3.81341E+01 -3.83029E+01 -3.84691E+01 -3.86228E+01
  -3.88071E+01 -3.90410E+01 -3.92314E+01 -3.94014E+01 -3.96099E+01 -3.97764E+01 -3.99175E+01 -4.01352E+01 -4.02953E+01 -4.04615E+01
  -4.06566E+01 -4.08076E+01 -4.09872E+01 -4.11930E+01 -4.13287E+01 -4.14915E+01 -4.16916E+01 -4.18543E+01 -4.20446E+01 -4.22212E+01
  -4.23879E+01 -4.25493E+01 -4.27077E+01 -4.28643E+01 -4.30204E+01 -4.31766E+01 -4.33332E+01 -4.34902E+01 -4.36467E+01 -4.38019E+01
  -4.39544E+01 -4.41030E+01 -4.42465E+01 -4.43841E+01 -4.45153E+01 -4.46400E+01 -4.47582E+01 -4.48702E+01 -4.49763E+01 -4.50767E+01
  -4.51719E+01 -4.52619E+01 -4.53469E+01 -4.54271E+01 -4.55026E+01 -4.55732E+01 -4.56392E+01 -4.57004E+01 -4.57568E+01 -4.58085E+01
  -4.58553E+01 -4.58974E+01 -4.59346E+01 -4.59669E+01 -4.59944E+01 -4.60169E+01 -4.60346E+01 -4.60472E+01 -4.60549E+01 -4.60577E+01
  -4.60554E+01 -4.60481E+01 -4.60357E+01 -4.60182E+01 -4.59957E+01 -4.59680E+01 -4.59352E+01 -4.58972E+01 -4.58541E+01 -4.58057E+01
  -4.57522E+01 -4.56934E+01 -4.56293E+01 -4.55600E+01 -4.54853E+01 -4.54053E+01 -4.53200E+01 -4.52293E+01 -4.51333E+01 -4.50320E+01
  -4.49258E+01 -4.48145E+01 -4.46985E+01 -4.45778E+01 -4.44526E+01 -4.43230E+01 -4.41891E+01 -4.40511E+01 -4.39090E+01 -4.37631E+01
  -4.36135E+01 -4.34602E+01 -4.33035E+01 -4.31435E+01 -4.29802E+01 -4.28138E+01 -4.26445E+01 -4.24724E+01 -4.22976E+01 -4.21203E+01
  -4.19405E+01 -4.17584E+01 -4.15742E+01 -4.13880E+01 -4.11999E+01 -4.10100E+01 -4.08185E+01 -4.06255E+01 -4.04311E+01 -4.02355E+01
  -4.00388E+01 -3.98411E+01 -3.96426E+01 -3.94434E+01 -3.92435E+01 -3.90433E+01 -3.88427E+01 -3.86419E+01 -3.84411E+01 -3.82403E+01
  -3.80398E+01 -3.78396E+01 -3.76398E+01 -3.74406E+01 -3.72418E+01 -3.70434E+01 -3.68451E+01 -3.66470E+01 -3.64488E+01 -3.62505E+01
  -3.60520E+01 -3.58531E+01 -3.56537E+01 -3.54538E+01 -3.52532E+01 -3.50518E+01 -3.48494E+01 -3.46460E+01 -3.44415E+01 -3.42357E+01
  -3.40286E+01 -3.38200E+01 -3.36097E+01 -3.33978E+01 -3.31841E+01 -3.29684E+01 -3.27506E+01 -3.25307E+01 -3.23086E+01 -3.20840E+01
  -3.18570E+01 -3.16273E+01 -3.13949E+01 -3.11597E+01 -3.09215E+01 -3.06802E+01 -3.04358E+01 -3.01880E+01 -2.99368E+01 -2.96821E+01
  -2.94237E+01 -2.91616E+01 -2.88955E+01 -2.86254E+01 -2.83512E+01 -2.80728E+01 -2.77899E+01 -2.75025E+01
 NY background values follow
     1.891E+02    1.867E+02    1.843E+02    1.819E+02    1.795E+02    1.771E+02    1.747E+02    1.723E+02    1.700E+02    1.676E+02
     1.652E+02    1.629E+02    1.606E+02    1.583E+02    1.559E+02    1.537E+02    1.514E+02    1.491E+02    1.468E+02    1.446E+02
     1.424E+02    1.402E+02    1.380E+02    1.358E+02    1.336E+02    1.315E+02    1.294E+02    1.273E+02    1.252E+02    1.231E+02
     1.211E+02    1.190E+02    1.170E+02    1.151E+02    1.131E+02    1.112E+02    1.092E+02    1.073E+02    1.055E+02    1.036E+02
     1.018E+02    1.000E+02    9.828E+01    9.654E+01    9.483E+01    9.315E+01    9.150E+01    8.988E+01    8.828E+01    8.672E+01
     8.518E+01    8.367E+01    8.218E+01    8.072E+01    7.929E+01    7.788E+01    7.649E+01    7.513E+01    7.380E+01    7.249E+01
     7.120E+01    6.994E+01    6.869E+01    6.747E+01    6.627E+01    6.510E+01    6.394E+01    6.281E+01    6.169E+01    6.060E+01
     5.952E+01    5.846E+01    5.742E+01    5.640E+01    5.540E+01    5.442E+01    5.345E+01    5.250E+01    5.156E+01    5.064E+01
     4.974E+01    4.885E+01    4.798E+01    4.712E+01    4.627E+01    4.544E+01    4.462E+01    4.382E+01    4.302E+01    4.224E+01
     4.147E+01    4.071E+01    3.996E+01    3.922E+01    3.850E+01    3.778E+01    3.707E+01    3.637E+01    3.569E+01    3.501E+01
     3.434E+01    3.368E+01    3.303E+01    3.238E+01    3.175E+01    3.112E+01    3.050E+01    2.989E+01    2.929E+01    2.869E+01
     2.810E+01    2.752E+01    2.695E+01    2.638E+01    2.581E+01    2.526E+01    2.471E+01    2.416E+01    2.362E+01    2.309E+01
     2.256E+01    2.203E+01    2.151E+01    2.100E+01    2.048E+01    1.998E+01    1.947E+01    1.897E+01    1.847E+01    1.798E+01
     1.749E+01    1.700E+01    1.651E+01    1.603E+01    1.555E+01    1.507E+01    1.459E+01    1.411E+01    1.364E+01    1.316E+01
     1.269E+01    1.222E+01    1.175E+01    1.128E+01    1.082E+01    1.035E+01    9.890E+00    9.429E+00    8.969E+00    8.510E+00
     8.053E+00    7.598E+00    7.144E+00    6.692E+00    6.241E+00    5.791E+00    5.344E+00    4.897E+00    4.453E+00    4.009E+00
     3.567E+00    3.127E+00    2.688E+00    2.251E+00    1.816E+00    1.381E+00    9.486E-01    5.174E-01    8.776E-02   -3.404E-01
    -7.671E-01   -1.192E+00   -1.616E+00   -2.038E+00   -2.459E+00   -2.878E+00   -3.296E+00   -3.712E+00   -4.126E+00   -4.540E+00
    -4.951E+00   -5.361E+00   -5.770E+00   -6.177E+00   -6.583E+00   -6.986E+00   -7.389E+00   -7.789E+00   -8.188E+00   -8.584E+00
    -8.979E+00   -9.372E+00   -9.763E+00   -1.015E+01   -1.054E+01   -1.092E+01   -1.131E+01   -1.169E+01   -1.206E+01   -1.244E+01
    -1.281E+01   -1.318E+01   -1.355E+01   -1.392E+01   -1.428E+01   -1.464E+01   -1.500E+01   -1.535E+01   -1.571E+01   -1.606E+01
    -1.640E+01   -1.675E+01   -1.709E+01   -1.743E+01   -1.776E+01   -1.809E+01   -1.842E+01   -1.875E+01   -1.907E+01   -1.939E+01
    -1.970E+01   -2.001E+01   -2.032E+01   -2.063E+01   -2.093E+01   -2.123E+01   -2.152E+01   -2.181E+01   -2.210E+01   -2.238E+01
    -2.266E+01   -2.294E+01   -2.321E+01   -2.348E+01   -2.375E+01   -2.401E+01   -2.427E+01   -2.452E+01   -2.477E+01   -2.502E+01
    -2.526E+01   -2.550E+01   -2.574E+01   -2.597E+01   -2.620E+01   -2.643E+01   -2.665E+01   -2.687E+01   -2.709E+01   -2.730E+01
    -2.751E+01   -2.771E+01   -2.792E+01   -2.811E+01   -2.831E+01   -2.850E+01   -2.869E+01   -2.888E+01   -2.906E+01   -2.924E+01
    -2.941E+01   -2.958E+01   -2.975E+01   -2.992E+01   -3.008E+01   -3.024E+01   -3.039E+01   -3.054E+01   -3.069E+01   -3.084E+01
    -3.098E+01   -3.112E+01   -3.126E+01   -3.139E+01   -3.152E+01   -3.165E+01   -3.177E+01   -3.189E+01   -3.201E+01   -3.213E+01
    -3.224E+01   -3.236E+01   -3.247E+01   -3.258E+01   -3.269E+01   -3.280E+01   -3.290E+01   -3.301E+01   -3.312E+01   -3.322E+01
    -3.332E+01   -3.343E+01   -3.353E+01   -3.364E+01   -3.374E+01   -3.384E+01   -3.395E+01   -3.405E+01   -3.416E+01   -3.426E+01
    -3.437E+01   -3.448E+01   -3.459E+01   -3.470E+01   -3.482E+01   -3.493E+01   -3.505E+01   -3.517E+01   -3.529E+01   -3.541E+01
    -3.554E+01   -3.567E+01   -3.580E+01   -3.594E+01   -3.608E+01   -3.622E+01   -3.636E+01   -3.651E+01   -3.667E+01   -3.682E+01
    -3.698E+01   -3.714E+01   -3.731E+01   -3.747E+01   -3.764E+01   -3.782E+01   -3.799E+01   -3.817E+01   -3.835E+01   -3.853E+01
    -3.871E+01   -3.889E+01   -3.907E+01   -3.926E+01   -3.944E+01   -3.963E+01   -3.981E+01   -4.000E+01   -4.018E+01   -4.037E+01
    -4.055E+01   -4.074E+01   -4.092E+01   -4.110E+01   -4.129E+01   -4.147E+01   -4.164E+01   -4.182E+01   -4.200E+01   -4.217E+01
    -4.234E+01   -4.251E+01   -4.267E+01   -4.284E+01   -4.300E+01   -4.316E+01   -4.331E+01   -4.346E+01   -4.361E+01   -4.375E+01
    -4.389E+01   -4.402E+01   -4.415E+01   -4.428E+01   -4.440E+01   -4.452E+01   -4.463E+01   -4.474E+01   -4.484E+01   -4.494E+01
    -4.504E+01   -4.513E+01   -4.521E+01   -4.529E+01   -4.537E+01   -4.544E+01   -4.550E+01   -4.557E+01   -4.562E+01   -4.567E+01
    -4.572E+01   -4.576E+01   -4.580E+01   -4.583E+01   -4.586E+01   -4.588E+01   -4.590E+01   -4.592E+01   -4.592E+01   -4.593E+01
    -4.592E+01   -4.592E+01   -4.591E+01   -4.589E+01   -4.587E+01   -4.584E+01   -4.581E+01   -4.577E+01   -4.573E+01   -4.568E+01
    -4.562E+01   -4.557E+01   -4.550E+01   -4.543E+01   -4.536E+01   -4.528E+01   -4.519E+01   -4.510E+01   -4.501E+01   -4.491E+01
    -4.480E+01   -4.469E+01   -4.457E+01   -4.445E+01   -4.433E+01   -4.420E+01   -4.407E+01   -4.393E+01   -4.379E+01   -4.364E+01
    -4.349E+01   -4.334E+01   -4.318E+01   -4.302E+01   -4.286E+01   -4.269E+01   -4.252E+01   -4.235E+01   -4.218E+01   -4.200E+01
    -4.182E+01   -4.164E+01   -4.146E+01   -4.127E+01   -4.108E+01   -4.089E+01   -4.070E+01   -4.051E+01   -4.031E+01   -4.012E+01
    -3.992E+01   -3.973E+01   -3.953E+01   -3.933E+01   -3.913E+01   -3.893E+01   -3.873E+01   -3.853E+01   -3.833E+01   -3.813E+01
    -3.793E+01   -3.773E+01   -3.753E+01   -3.733E+01   -3.713E+01   -3.693E+01   -3.673E+01   -3.654E+01   -3.634E+01   -3.614E+01
    -3.594E+01   -3.574E+01   -3.555E+01   -3.535E+01   -3.515E+01   -3.495E+01   -3.474E+01   -3.454E+01   -3.434E+01   -3.413E+01
    -3.393E+01   -3.372E+01   -3.351E+01   -3.330E+01   -3.308E+01   -3.287E+01   -3.265E+01   -3.243E+01   -3.221E+01   -3.199E+01
    -3.176E+01   -3.153E+01   -3.130E+01   -3.107E+01   -3.083E+01   -3.059E+01   -3.034E+01   -3.010E+01   -2.985E+01   -2.959E+01
    -2.934E+01   -2.908E+01   -2.881E+01   -2.854E+01   -2.827E+01   -2.800E+01   -2.771E+01   -2.743E+01
 Ala      Conc. = 2.23E+01
