 LCModel (Version 6.3-1L) Copyright: S.W. Provencher.          Ref.: Magn. Reson. Med. 30:672-679 (1993).                
 Slice#2 Row#9 Col#9  K_02_press_1_raw_act
 36 lines in following concentration table = NCONC+1
    Conc.  %SD /Cr+PCr  Metabolite                                         
  223.315  40%   0.114 Ala                                                 
    0.000 999%   0.000 Asp                                                 
 1.08E+03  15%   0.551 Cr                                                  
  877.791  19%   0.449 PCr                                                 
    0.000 999%   0.000 GABA                                                
    0.000 999%   0.000 Glc                                                 
  283.004  64%   0.145 Gln                                                 
 1.82E+03  12%   0.931 Glu                                                 
  741.429   3%   0.379 GPC                                                 
    0.000 999%   0.000 PCh                                                 
  470.097  14%   0.240 GSH                                                 
 1.48E+03  17%   0.755 Ins                                                 
   19.579 492% 1.0E-02 Lac                                                 
 2.93E+03   4%   1.497 NAA                                                 
  934.859  10%   0.478 NAAG                                                
   24.546 115% 1.3E-02 Scyllo                                              
    0.000 999%   0.000 Tau                                                 
    0.000 999%   0.000 -CrCH2                                              
  741.429   3%   0.379 GPC+PCh                                             
 3.86E+03   3%   1.974 NAA+NAAG                                            
 1.96E+03   3%   1.000 Cr+PCr                                              
 2.10E+03  13%   1.076 Glu+Gln                                             
    0.000 999%   0.000 Lip13a                                              
   91.533 140% 4.7E-02 Lip13b                                              
   23.766 164% 1.2E-02 Lip09                                               
 1.70E+03  17%   0.871 MM09                                                
   14.198 164% 7.3E-03 Lip20                                               
 3.36E+03  15%   1.716 MM20                                                
  435.421  43%   0.222 MM12                                                
  350.967 108%   0.179 MM14                                                
 1.32E+03  24%   0.673 MM17                                                
   91.533 140% 4.7E-02 Lip13a+Lip13b                                       
  877.922  56%   0.449 MM14+Lip13a+Lip13b+MM12                             
 1.73E+03  17%   0.883 MM09+Lip09                                          
 3.37E+03  15%   1.723 MM20+Lip20                                          
   6 lines in following misc. output table
  FWHM = 0.031 ppm    S/N =  18                                            
  Data shift = 0.015 ppm                                                   
  Ph: -33 deg     -12.4 deg/ppm                                            
  alphaB,S = 7.8E-01,   2.4E+01                                            
   14 spline knots.   Ns = 5(1)                                            
  ( 5) 2 infls.   ( 3) 1 extrs.                                            
  498 points on ppm-axis = NY
      4.000000     3.992357     3.984714     3.977070     3.969427     3.961784     3.954141     3.946497     3.938854     3.931211
      3.923568     3.915925     3.908281     3.900638     3.892995     3.885352     3.877708     3.870065     3.862422     3.854779
      3.847136     3.839492     3.831849     3.824206     3.816563     3.808919     3.801276     3.793633     3.785990     3.778347
      3.770703     3.763060     3.755417     3.747774     3.740130     3.732487     3.724844     3.717201     3.709558     3.701914
      3.694271     3.686628     3.678985     3.671341     3.663698     3.656055     3.648412     3.640769     3.633125     3.625482
      3.617839     3.610196     3.602552     3.594909     3.587266     3.579623     3.571980     3.564336     3.556693     3.549050
      3.541407     3.533763     3.526120     3.518477     3.510834     3.503191     3.495547     3.487904     3.480261     3.472618
      3.464974     3.457331     3.449688     3.442045     3.434402     3.426758     3.419115     3.411472     3.403829     3.396185
      3.388542     3.380899     3.373256     3.365613     3.357969     3.350326     3.342683     3.335040     3.327396     3.319753
      3.312110     3.304467     3.296824     3.289180     3.281537     3.273894     3.266251     3.258607     3.250964     3.243321
      3.235678     3.228034     3.220391     3.212748     3.205105     3.197462     3.189818     3.182175     3.174532     3.166889
      3.159245     3.151602     3.143959     3.136316     3.128673     3.121029     3.113386     3.105743     3.098100     3.090456
      3.082813     3.075170     3.067527     3.059884     3.052240     3.044597     3.036954     3.029311     3.021667     3.014024
      3.006381     2.998738     2.991095     2.983451     2.975808     2.968165     2.960522     2.952878     2.945235     2.937592
      2.929949     2.922306     2.914662     2.907019     2.899376     2.891733     2.884089     2.876446     2.868803     2.861160
      2.853517     2.845873     2.838230     2.830587     2.822944     2.815300     2.807657     2.800014     2.792371     2.784728
      2.777084     2.769441     2.761798     2.754155     2.746511     2.738868     2.731225     2.723582     2.715939     2.708295
      2.700652     2.693009     2.685366     2.677722     2.670079     2.662436     2.654793     2.647150     2.639506     2.631863
      2.624220     2.616577     2.608933     2.601290     2.593647     2.586004     2.578361     2.570717     2.563074     2.555431
      2.547788     2.540144     2.532501     2.524858     2.517215     2.509572     2.501928     2.494285     2.486642     2.478999
      2.471355     2.463712     2.456069     2.448426     2.440783     2.433139     2.425496     2.417853     2.410210     2.402566
      2.394923     2.387280     2.379637     2.371994     2.364350     2.356707     2.349064     2.341421     2.333777     2.326134
      2.318491     2.310848     2.303205     2.295561     2.287918     2.280275     2.272632     2.264988     2.257345     2.249702
      2.242059     2.234416     2.226772     2.219129     2.211486     2.203843     2.196199     2.188556     2.180913     2.173270
      2.165627     2.157983     2.150340     2.142697     2.135054     2.127410     2.119767     2.112124     2.104481     2.096838
      2.089194     2.081551     2.073908     2.066265     2.058621     2.050978     2.043335     2.035692     2.028049     2.020405
      2.012762     2.005119     1.997476     1.989833     1.982190     1.974546     1.966903     1.959260     1.951617     1.943974
      1.936331     1.928688     1.921045     1.913402     1.905759     1.898115     1.890472     1.882829     1.875186     1.867543
      1.859900     1.852257     1.844614     1.836971     1.829327     1.821684     1.814041     1.806398     1.798755     1.791112
      1.783469     1.775826     1.768183     1.760540     1.752896     1.745253     1.737610     1.729967     1.722324     1.714681
      1.707038     1.699395     1.691752     1.684108     1.676465     1.668822     1.661179     1.653536     1.645893     1.638250
      1.630607     1.622964     1.615321     1.607677     1.600034     1.592391     1.584748     1.577105     1.569462     1.561819
      1.554176     1.546533     1.538890     1.531246     1.523603     1.515960     1.508317     1.500674     1.493031     1.485388
      1.477745     1.470102     1.462458     1.454815     1.447172     1.439529     1.431886     1.424243     1.416600     1.408957
      1.401314     1.393671     1.386027     1.378384     1.370741     1.363098     1.355455     1.347812     1.340169     1.332526
      1.324883     1.317240     1.309596     1.301953     1.294310     1.286667     1.279024     1.271381     1.263738     1.256095
      1.248452     1.240808     1.233165     1.225522     1.217879     1.210236     1.202593     1.194950     1.187307     1.179664
      1.172021     1.164377     1.156734     1.149091     1.141448     1.133805     1.126162     1.118519     1.110876     1.103233
      1.095590     1.087946     1.080303     1.072660     1.065017     1.057374     1.049731     1.042088     1.034445     1.026802
      1.019158     1.011515     1.003872     0.996229     0.988586     0.980943     0.973300     0.965657     0.958014     0.950371
      0.942727     0.935084     0.927441     0.919798     0.912155     0.904512     0.896869     0.889226     0.881583     0.873940
      0.866296     0.858653     0.851010     0.843367     0.835724     0.828081     0.820438     0.812795     0.805152     0.797508
      0.789865     0.782222     0.774579     0.766936     0.759293     0.751650     0.744007     0.736364     0.728721     0.721077
      0.713434     0.705791     0.698148     0.690505     0.682862     0.675219     0.667576     0.659933     0.652290     0.644646
      0.637003     0.629360     0.621717     0.614074     0.606431     0.598788     0.591145     0.583502     0.575858     0.568215
      0.560572     0.552929     0.545286     0.537643     0.530000     0.522357     0.514714     0.507071     0.499427     0.491784
      0.484141     0.476498     0.468855     0.461212     0.453569     0.445925     0.438282     0.430639     0.422996     0.415353
      0.407710     0.400067     0.392424     0.384780     0.377137     0.369494     0.361851     0.354208     0.346565     0.338922
      0.331278     0.323635     0.315992     0.308349     0.300706     0.293063     0.285420     0.277777     0.270133     0.262490
      0.254847     0.247204     0.239561     0.231918     0.224275     0.216631     0.208988     0.201345
 NY phased data points follow
  -2.73567E+01 -2.91254E+01 -2.67106E+01 -2.69092E+01 -2.11373E+01 -1.29144E+01 -6.19706E+00  6.03791E+00  1.12845E+01  2.05032E+01
   3.62751E+01  3.65943E+01  3.14445E+01  1.72786E+01  1.65467E+00 -5.20904E+00 -1.29077E+01 -1.30411E+01 -1.40569E+01 -1.86207E+01
  -1.81026E+01 -1.45466E+01 -1.48763E+01 -1.48704E+01 -9.41863E+00 -1.03511E+01 -1.04979E+01 -8.29727E+00 -8.85626E+00 -1.70600E+00
  -2.56341E+00 -1.46603E+00  1.97115E+00  5.36679E-01 -4.45270E+00 -9.07684E+00 -1.05932E+01 -7.41921E+00 -2.27842E+00  1.50920E+00
  -2.48315E+00 -5.54903E+00  2.16244E+00 -1.54995E+00  2.42389E+00  7.72361E+00  1.08029E+01  1.69305E+01  1.72029E+01  1.38789E+01
   1.00132E+01  2.71257E-01  1.50261E+00  4.91427E+00  9.75019E-01  2.31614E+00  7.60656E+00  5.52487E+00  3.49361E+00  5.96432E+00
   3.56765E+00 -4.24401E+00 -8.65438E+00 -5.41535E+00 -6.24422E+00 -1.00598E+01 -1.34713E+01 -9.82325E+00 -1.16608E+01 -7.31832E+00
  -8.06392E+00 -6.62686E+00 -3.73027E+00 -3.55303E+00 -1.00273E+00 -2.73540E+00 -2.98343E+00 -4.75332E+00 -4.64831E+00 -3.64547E+00
  -1.80130E+00  1.39656E-01  1.94549E+00  1.88527E-01  4.41498E-02 -5.24053E+00  3.25129E+00 -2.46216E+00  1.23698E+00  8.71133E-01
   2.03525E+00  6.61029E+00  3.96170E+00  4.90459E+00  9.25382E+00  8.14043E+00  1.35955E+01  1.11550E+01  1.55289E+01  2.28787E+01
   3.60859E+01  6.99669E+01  9.59026E+01  9.53290E+01  8.29933E+01  5.99603E+01  4.44977E+01  3.47481E+01  2.37330E+01  1.70018E+01
   1.37602E+01  1.58454E+01  1.00649E+01  9.53812E+00  4.99728E+00  9.10133E+00  1.50751E+01  1.27671E+01  1.28105E+01  1.36782E+01
   1.70147E+01  2.33031E+01  1.53829E+01  2.32088E+01  3.77932E+01  6.18998E+01  8.91673E+01  9.59408E+01  8.74008E+01  7.24100E+01
   5.68527E+01  4.37585E+01  3.39263E+01  2.26314E+01  1.67141E+01  9.97824E+00  1.21511E+01  1.23123E+01  9.33249E+00  1.33018E+01
   1.52846E+01  1.30321E+01  1.45384E+01  9.53683E+00  1.51641E+01  1.19585E+01  1.46944E+01  1.43424E+01  1.24785E+01  1.34517E+01
   1.03475E+01  1.27688E+01  1.08851E+01  9.72895E+00  1.37011E+01  1.06385E+01  9.73829E+00  1.45304E+01  1.43489E+01  1.89373E+01
   1.28860E+01  1.02584E+01  2.82852E+00  6.46574E+00  1.34112E+01  1.52262E+01  1.52483E+01  1.49004E+01  9.16192E+00  5.97399E+00
   2.78005E-01  6.32153E+00 -1.41390E+00 -3.31750E+00 -1.16907E+01 -9.99918E+00 -9.12113E+00 -2.50217E+00 -2.63141E+00 -6.55598E-01
  -3.17065E+00 -1.02160E+00 -4.07179E+00 -2.20764E+00 -2.91214E+00 -3.15467E+00  2.26721E-01  1.66834E+00  9.97349E+00  1.34923E+01
   1.61085E+01  2.02354E+01  2.44600E+01  1.93412E+01  1.89516E+01  1.85480E+01  1.74602E+01  1.44850E+01  1.57462E+01  5.87895E+00
   9.92876E+00  1.19937E+01  2.01646E+01  2.27919E+01  2.10147E+01  1.82225E+01  2.05345E+01  1.31763E+01  1.34614E+01  1.14722E+01
   1.38190E+01  1.38853E+01  1.63398E+01  2.11177E+01  2.72552E+01  3.38168E+01  3.62323E+01  3.35866E+01  3.16147E+01  2.07749E+01
   1.19502E+01  8.87809E+00  6.22741E+00  1.16613E+01  2.19382E+01  1.81088E+01  2.85482E+01  3.15476E+01  2.83397E+01  3.43974E+01
   3.02433E+01  2.90755E+01  2.46588E+01  2.70460E+01  2.50307E+01  2.87992E+01  2.99272E+01  2.79917E+01  2.44150E+01  3.01623E+01
   2.49773E+01  2.22772E+01  1.58699E+01  2.23111E+01  2.84989E+01  3.12249E+01  3.18600E+01  3.44998E+01  3.85960E+01  3.76144E+01
   4.06954E+01  4.34861E+01  4.24925E+01  6.19789E+01  7.70322E+01  8.66289E+01  8.53936E+01  8.95801E+01  1.17873E+02  1.52807E+02
   1.82123E+02  1.63706E+02  1.36077E+02  1.03370E+02  7.54801E+01  5.28423E+01  3.63511E+01  3.70805E+01  2.91950E+01  2.83026E+01
   3.15308E+01  3.05034E+01  3.20417E+01  2.95169E+01  3.12691E+01  3.31306E+01  2.59279E+01  3.13022E+01  3.11895E+01  2.86528E+01
   2.96032E+01  2.38601E+01  2.84425E+01  2.34356E+01  2.54380E+01  2.35318E+01  2.32609E+01  2.40339E+01  2.26698E+01  2.92018E+01
   2.75435E+01  2.76679E+01  2.35303E+01  3.34048E+01  2.62247E+01  2.98300E+01  2.82044E+01  2.80864E+01  2.61384E+01  2.94735E+01
   3.12196E+01  2.75517E+01  2.77248E+01  3.34109E+01  3.08533E+01  3.10116E+01  3.56858E+01  3.58710E+01  3.17810E+01  3.94620E+01
   3.38121E+01  3.05177E+01  3.09076E+01  2.99865E+01  3.04354E+01  2.59540E+01  3.00512E+01  2.40905E+01  2.72049E+01  2.88810E+01
   2.73238E+01  2.72912E+01  2.50178E+01  2.49859E+01  2.50448E+01  2.89465E+01  2.68882E+01  1.91758E+01  1.83396E+01  2.45191E+01
   2.04035E+01  1.69892E+01  1.79943E+01  2.17843E+01  2.62870E+01  2.81288E+01  2.68684E+01  2.73689E+01  2.74073E+01  2.74836E+01
   2.19271E+01  2.05037E+01  1.96264E+01  2.23141E+01  2.30930E+01  2.68424E+01  2.64731E+01  2.45594E+01  2.05715E+01  2.19429E+01
   2.48329E+01  2.37398E+01  2.42391E+01  2.53503E+01  2.43056E+01  2.68253E+01  2.87108E+01  2.53848E+01  1.96539E+01  2.80112E+01
   2.11993E+01  2.09967E+01  2.19974E+01  2.64890E+01  2.45292E+01  1.85503E+01  2.09801E+01  2.49131E+01  2.14747E+01  2.53708E+01
   2.08331E+01  2.27755E+01  2.45772E+01  2.06304E+01  2.43646E+01  2.23273E+01  2.19744E+01  2.68480E+01  2.35379E+01  2.60527E+01
   2.89479E+01  2.84929E+01  2.56835E+01  2.01412E+01  1.95618E+01  2.29875E+01  2.37533E+01  2.56999E+01  2.24813E+01  2.39705E+01
   2.27917E+01  2.82117E+01  2.82297E+01  3.22153E+01  3.24266E+01  3.27754E+01  3.35168E+01  3.53983E+01  3.51084E+01  2.95808E+01
   3.06469E+01  3.09449E+01  3.08309E+01  3.52076E+01  3.48402E+01  2.90044E+01  3.55675E+01  3.48475E+01  3.52395E+01  3.84956E+01
   3.27748E+01  3.40705E+01  3.35286E+01  3.15278E+01  3.00252E+01  3.19902E+01  3.09001E+01  3.11170E+01  3.02733E+01  2.99367E+01
   3.04495E+01  2.63979E+01  2.17746E+01  3.61185E+01  2.72734E+01  2.27638E+01  2.48981E+01  2.20976E+01  2.01086E+01  2.23813E+01
   2.36433E+01  2.44408E+01  2.46590E+01  2.50896E+01  2.50550E+01  3.03689E+01  2.18015E+01  2.50656E+01  2.85869E+01  2.46156E+01
   2.25067E+01  2.22093E+01  2.59246E+01  2.55850E+01  2.40053E+01  2.56047E+01  2.84871E+01  2.50350E+01  2.44105E+01  2.62375E+01
   2.47143E+01  2.15737E+01  2.30786E+01  2.78762E+01  2.40751E+01  2.05419E+01  2.39347E+01  2.64758E+01  2.19046E+01  2.28552E+01
   2.74369E+01  2.63424E+01  2.56770E+01  2.49459E+01  2.16044E+01  2.61118E+01  2.40415E+01  2.68662E+01  2.13241E+01  2.51840E+01
   2.10917E+01  2.64521E+01  2.03035E+01  2.08358E+01  2.17122E+01  2.24825E+01  2.74663E+01  2.35896E+01  1.89637E+01  2.54833E+01
   2.47601E+01  2.16091E+01  2.02806E+01  2.20390E+01  1.86611E+01  2.13940E+01  2.02293E+01  1.80707E+01  2.36843E+01  1.97561E+01
   1.99638E+01  2.13286E+01  2.05316E+01  2.28045E+01  1.97197E+01  2.42832E+01  2.13774E+01  1.85909E+01
 NY points of the fit to the data follow
  -2.42023E+01 -2.41155E+01 -2.35241E+01 -2.22376E+01 -1.96558E+01 -1.60919E+01 -9.85081E+00  8.28753E-01  1.29391E+01  2.47009E+01
   3.28225E+01  3.35216E+01  2.61539E+01  1.56586E+01  6.06161E+00 -1.38849E+00 -6.62826E+00 -1.00436E+01 -1.19000E+01 -1.25630E+01
  -1.26708E+01 -1.27071E+01 -1.27775E+01 -1.29987E+01 -1.28010E+01 -1.24647E+01 -1.29344E+01 -1.15775E+01 -6.94631E+00 -1.81219E+00
   1.03466E+00  2.29854E+00  3.01737E+00  2.29397E+00 -2.01165E-01 -3.34819E+00 -6.07233E+00 -7.85773E+00 -8.76618E+00 -8.98800E+00
  -8.39023E+00 -6.81037E+00 -4.98342E+00 -3.47311E+00 -1.15379E+00  3.14397E+00  7.84407E+00  1.01905E+01  9.13265E+00  5.94831E+00
   2.26386E+00 -1.02038E+00 -3.49091E+00 -4.86522E+00 -5.04125E+00 -4.55516E+00 -3.77920E+00 -2.40196E+00 -5.31974E-01  1.16695E+00
   1.89325E+00  1.41259E+00  5.32849E-02 -1.55405E+00 -2.80793E+00 -3.34796E+00 -3.04911E+00 -2.12450E+00 -1.09663E+00  1.36374E-02
   1.20989E+00  2.17025E+00  2.48113E+00  2.26223E+00  1.88010E+00  1.55370E+00  1.35844E+00  1.28554E+00  1.32193E+00  1.45004E+00
   1.61650E+00  1.80440E+00  1.91344E+00  2.03822E+00  2.12295E+00  1.73205E+00  5.71414E-01 -7.84475E-01 -1.49879E+00 -1.27846E+00
  -3.93862E-01  9.43672E-01  2.44879E+00  3.86328E+00  5.06185E+00  5.87619E+00  6.39093E+00  8.15731E+00  1.37071E+01  2.14584E+01
   3.96201E+01  6.96314E+01  9.46149E+01  9.80203E+01  8.38979E+01  6.42999E+01  4.57173E+01  3.05485E+01  1.94904E+01  1.27438E+01
   9.91334E+00  9.07220E+00  8.82412E+00  8.79379E+00  8.85711E+00  8.97300E+00  9.13875E+00  9.30634E+00  9.48435E+00  9.79696E+00
   1.04651E+01  1.21872E+01  1.72847E+01  2.42644E+01  3.70714E+01  6.26463E+01  8.96998E+01  9.96152E+01  8.98266E+01  7.21297E+01
   5.45859E+01  4.02870E+01  2.94561E+01  2.13286E+01  1.59490E+01  1.27797E+01  1.09011E+01  1.02759E+01  1.07773E+01  1.20791E+01
   1.35455E+01  1.45166E+01  1.46864E+01  1.43187E+01  1.37228E+01  1.30790E+01  1.25550E+01  1.21906E+01  1.18950E+01  1.15656E+01
   1.12217E+01  1.07452E+01  1.01247E+01  9.69040E+00  9.72743E+00  1.01944E+01  1.07242E+01  1.10384E+01  1.06486E+01  9.16347E+00
   7.42735E+00  6.49335E+00  6.95604E+00  8.46348E+00  9.61532E+00  9.40060E+00  8.18336E+00  6.74096E+00  5.63825E+00  5.21167E+00
   5.32073E+00  5.44799E+00  5.12753E+00  4.33524E+00  2.85978E+00  1.78319E+00  2.08852E+00  3.62202E+00  4.99215E+00  4.96341E+00
   4.10191E+00  3.96901E+00  4.85197E+00  5.87536E+00  6.38532E+00  6.30777E+00  6.86025E+00  9.08947E+00  1.24919E+01  1.58375E+01
   1.82712E+01  1.91403E+01  1.85314E+01  1.70794E+01  1.57451E+01  1.46822E+01  1.39432E+01  1.37761E+01  1.44475E+01  1.56898E+01
   1.68442E+01  1.82802E+01  2.02384E+01  2.20663E+01  2.27068E+01  2.14695E+01  1.91153E+01  1.61183E+01  1.29526E+01  1.07366E+01
   1.01308E+01  1.09210E+01  1.28795E+01  1.72250E+01  2.37816E+01  2.91137E+01  3.01623E+01  2.71377E+01  2.23247E+01  1.68560E+01
   1.07708E+01  5.49403E+00  4.27063E+00  7.94636E+00  1.40006E+01  1.96744E+01  2.40421E+01  2.69725E+01  2.82422E+01  2.76594E+01
   2.60643E+01  2.50443E+01  2.55109E+01  2.69170E+01  2.85225E+01  3.01261E+01  3.12871E+01  3.13299E+01  2.98688E+01  2.77305E+01
   2.56118E+01  2.42167E+01  2.43123E+01  2.64860E+01  2.97729E+01  3.27097E+01  3.46717E+01  3.57017E+01  3.58019E+01  3.54415E+01
   3.65777E+01  3.95484E+01  4.56059E+01  5.84700E+01  7.36977E+01  8.48214E+01  8.98261E+01  9.29279E+01  1.17588E+02  1.56966E+02
   1.78588E+02  1.65308E+02  1.35331E+02  1.04484E+02  7.78019E+01  5.69696E+01  4.24523E+01  3.43277E+01  3.13253E+01  3.00677E+01
   2.93122E+01  2.88733E+01  2.88074E+01  2.88668E+01  2.86589E+01  2.81013E+01  2.74602E+01  2.69356E+01  2.64953E+01  2.60798E+01
   2.58388E+01  2.58299E+01  2.59068E+01  2.59105E+01  2.58440E+01  2.57353E+01  2.56271E+01  2.55154E+01  2.54428E+01  2.55369E+01
   2.58554E+01  2.63016E+01  2.67697E+01  2.72207E+01  2.76593E+01  2.80834E+01  2.84585E+01  2.88156E+01  2.92277E+01  2.97152E+01
   3.02305E+01  3.07336E+01  3.11916E+01  3.15748E+01  3.18606E+01  3.20360E+01  3.20996E+01  3.20577E+01  3.19148E+01  3.16776E+01
   3.13548E+01  3.09568E+01  3.04972E+01  2.99941E+01  2.94660E+01  2.89305E+01  2.84043E+01  2.79052E+01  2.74523E+01  2.70664E+01
   2.67762E+01  2.66400E+01  2.66814E+01  2.67499E+01  2.71722E+01  2.74964E+01  2.67556E+01  2.48388E+01  2.27401E+01  2.11414E+01
   2.02256E+01  1.96467E+01  1.96672E+01  2.09549E+01  2.31711E+01  2.50263E+01  2.59108E+01  2.60804E+01  2.58558E+01  2.54423E+01
   2.49684E+01  2.45372E+01  2.42523E+01  2.40933E+01  2.40227E+01  2.40170E+01  2.39833E+01  2.38705E+01  2.37391E+01  2.36720E+01
   2.36960E+01  2.37752E+01  2.39190E+01  2.41662E+01  2.44699E+01  2.47057E+01  2.48108E+01  2.48065E+01  2.47252E+01  2.45934E+01
   2.44333E+01  2.42661E+01  2.41122E+01  2.39803E+01  2.38714E+01  2.37847E+01  2.37181E+01  2.36683E+01  2.36325E+01  2.36078E+01
   2.35916E+01  2.35819E+01  2.35779E+01  2.35806E+01  2.35918E+01  2.36136E+01  2.36483E+01  2.36979E+01  2.37651E+01  2.38534E+01
   2.39665E+01  2.41076E+01  2.42794E+01  2.44848E+01  2.47271E+01  2.50098E+01  2.53357E+01  2.57067E+01  2.61238E+01  2.65872E+01
   2.70966E+01  2.76504E+01  2.82449E+01  2.88742E+01  2.95304E+01  3.02042E+01  3.08847E+01  3.15596E+01  3.22146E+01  3.28341E+01
   3.34030E+01  3.39066E+01  3.43319E+01  3.46671E+01  3.49024E+01  3.50309E+01  3.50491E+01  3.49576E+01  3.47603E+01  3.44639E+01
   3.40776E+01  3.36129E+01  3.30839E+01  3.25055E+01  3.18930E+01  3.12608E+01  3.06224E+01  2.99901E+01  2.93750E+01  2.87864E+01
   2.82311E+01  2.77137E+01  2.72370E+01  2.68025E+01  2.64108E+01  2.60609E+01  2.57508E+01  2.54774E+01  2.52377E+01  2.50288E+01
   2.48477E+01  2.46915E+01  2.45568E+01  2.44404E+01  2.43399E+01  2.42533E+01  2.41789E+01  2.41147E+01  2.40588E+01  2.40096E+01
   2.39662E+01  2.39279E+01  2.38939E+01  2.38632E+01  2.38348E+01  2.38081E+01  2.37828E+01  2.37589E+01  2.37359E+01  2.37130E+01
   2.36898E+01  2.36661E+01  2.36419E+01  2.36174E+01  2.35921E+01  2.35657E+01  2.35379E+01  2.35091E+01  2.34795E+01  2.34491E+01
   2.34175E+01  2.33844E+01  2.33501E+01  2.33147E+01  2.32785E+01  2.32414E+01  2.32031E+01  2.31633E+01  2.31225E+01  2.30809E+01
   2.30386E+01  2.29953E+01  2.29509E+01  2.29054E+01  2.28591E+01  2.28124E+01  2.27651E+01  2.27170E+01  2.26679E+01  2.26180E+01
   2.25678E+01  2.25174E+01  2.24666E+01  2.24152E+01  2.23630E+01  2.23107E+01  2.22583E+01  2.22060E+01  2.21535E+01  2.21005E+01
   2.20474E+01  2.19945E+01  2.19420E+01  2.18897E+01  2.18375E+01  2.17852E+01  2.17333E+01  2.16821E+01
 NY background values follow
    -2.757E+01   -2.718E+01   -2.679E+01   -2.640E+01   -2.601E+01   -2.562E+01   -2.523E+01   -2.484E+01   -2.445E+01   -2.406E+01
    -2.367E+01   -2.328E+01   -2.289E+01   -2.250E+01   -2.212E+01   -2.173E+01   -2.134E+01   -2.096E+01   -2.058E+01   -2.019E+01
    -1.981E+01   -1.943E+01   -1.905E+01   -1.868E+01   -1.830E+01   -1.793E+01   -1.755E+01   -1.718E+01   -1.681E+01   -1.645E+01
    -1.608E+01   -1.572E+01   -1.535E+01   -1.499E+01   -1.464E+01   -1.428E+01   -1.393E+01   -1.358E+01   -1.323E+01   -1.288E+01
    -1.254E+01   -1.220E+01   -1.186E+01   -1.153E+01   -1.119E+01   -1.086E+01   -1.054E+01   -1.022E+01   -9.895E+00   -9.577E+00
    -9.263E+00   -8.951E+00   -8.642E+00   -8.336E+00   -8.033E+00   -7.732E+00   -7.434E+00   -7.139E+00   -6.846E+00   -6.556E+00
    -6.269E+00   -5.984E+00   -5.702E+00   -5.422E+00   -5.145E+00   -4.870E+00   -4.597E+00   -4.327E+00   -4.059E+00   -3.794E+00
    -3.531E+00   -3.270E+00   -3.011E+00   -2.754E+00   -2.499E+00   -2.247E+00   -1.997E+00   -1.748E+00   -1.502E+00   -1.258E+00
    -1.015E+00   -7.750E-01   -5.365E-01   -2.998E-01   -6.494E-02    1.681E-01    3.994E-01    6.290E-01    8.569E-01    1.083E+00
     1.308E+00    1.531E+00    1.752E+00    1.972E+00    2.189E+00    2.405E+00    2.619E+00    2.831E+00    3.041E+00    3.249E+00
     3.455E+00    3.658E+00    3.859E+00    4.057E+00    4.253E+00    4.446E+00    4.636E+00    4.824E+00    5.009E+00    5.191E+00
     5.370E+00    5.546E+00    5.719E+00    5.888E+00    6.054E+00    6.217E+00    6.377E+00    6.533E+00    6.685E+00    6.833E+00
     6.978E+00    7.119E+00    7.257E+00    7.390E+00    7.519E+00    7.644E+00    7.765E+00    7.881E+00    7.994E+00    8.101E+00
     8.205E+00    8.303E+00    8.397E+00    8.487E+00    8.571E+00    8.651E+00    8.726E+00    8.796E+00    8.861E+00    8.922E+00
     8.978E+00    9.031E+00    9.080E+00    9.125E+00    9.167E+00    9.206E+00    9.242E+00    9.276E+00    9.307E+00    9.336E+00
     9.363E+00    9.389E+00    9.413E+00    9.436E+00    9.457E+00    9.479E+00    9.499E+00    9.519E+00    9.539E+00    9.560E+00
     9.580E+00    9.602E+00    9.624E+00    9.647E+00    9.672E+00    9.698E+00    9.725E+00    9.755E+00    9.787E+00    9.822E+00
     9.859E+00    9.899E+00    9.942E+00    9.989E+00    1.004E+01    1.009E+01    1.015E+01    1.021E+01    1.028E+01    1.035E+01
     1.043E+01    1.051E+01    1.060E+01    1.069E+01    1.079E+01    1.089E+01    1.099E+01    1.110E+01    1.122E+01    1.134E+01
     1.146E+01    1.159E+01    1.172E+01    1.185E+01    1.199E+01    1.213E+01    1.227E+01    1.242E+01    1.256E+01    1.271E+01
     1.286E+01    1.302E+01    1.317E+01    1.333E+01    1.349E+01    1.365E+01    1.381E+01    1.397E+01    1.413E+01    1.429E+01
     1.446E+01    1.462E+01    1.478E+01    1.495E+01    1.511E+01    1.527E+01    1.543E+01    1.559E+01    1.575E+01    1.590E+01
     1.606E+01    1.621E+01    1.637E+01    1.652E+01    1.666E+01    1.681E+01    1.695E+01    1.709E+01    1.723E+01    1.736E+01
     1.749E+01    1.762E+01    1.775E+01    1.787E+01    1.799E+01    1.811E+01    1.823E+01    1.834E+01    1.845E+01    1.856E+01
     1.867E+01    1.877E+01    1.887E+01    1.897E+01    1.906E+01    1.916E+01    1.925E+01    1.934E+01    1.942E+01    1.951E+01
     1.959E+01    1.967E+01    1.975E+01    1.982E+01    1.989E+01    1.996E+01    2.003E+01    2.010E+01    2.016E+01    2.023E+01
     2.029E+01    2.034E+01    2.040E+01    2.045E+01    2.050E+01    2.055E+01    2.060E+01    2.065E+01    2.069E+01    2.073E+01
     2.077E+01    2.081E+01    2.085E+01    2.088E+01    2.091E+01    2.095E+01    2.097E+01    2.100E+01    2.103E+01    2.105E+01
     2.107E+01    2.109E+01    2.111E+01    2.113E+01    2.115E+01    2.116E+01    2.118E+01    2.119E+01    2.120E+01    2.121E+01
     2.121E+01    2.122E+01    2.122E+01    2.123E+01    2.123E+01    2.123E+01    2.123E+01    2.123E+01    2.123E+01    2.122E+01
     2.122E+01    2.121E+01    2.120E+01    2.120E+01    2.119E+01    2.118E+01    2.116E+01    2.115E+01    2.114E+01    2.113E+01
     2.111E+01    2.110E+01    2.108E+01    2.106E+01    2.104E+01    2.103E+01    2.101E+01    2.099E+01    2.097E+01    2.095E+01
     2.092E+01    2.090E+01    2.088E+01    2.086E+01    2.083E+01    2.081E+01    2.079E+01    2.076E+01    2.074E+01    2.071E+01
     2.069E+01    2.067E+01    2.064E+01    2.062E+01    2.059E+01    2.057E+01    2.055E+01    2.053E+01    2.050E+01    2.048E+01
     2.046E+01    2.044E+01    2.042E+01    2.040E+01    2.038E+01    2.036E+01    2.035E+01    2.033E+01    2.031E+01    2.030E+01
     2.029E+01    2.027E+01    2.026E+01    2.025E+01    2.024E+01    2.024E+01    2.023E+01    2.022E+01    2.022E+01    2.022E+01
     2.022E+01    2.022E+01    2.022E+01    2.023E+01    2.023E+01    2.024E+01    2.025E+01    2.026E+01    2.027E+01    2.029E+01
     2.030E+01    2.032E+01    2.034E+01    2.036E+01    2.038E+01    2.040E+01    2.042E+01    2.045E+01    2.047E+01    2.050E+01
     2.053E+01    2.056E+01    2.059E+01    2.062E+01    2.065E+01    2.068E+01    2.072E+01    2.075E+01    2.079E+01    2.083E+01
     2.086E+01    2.090E+01    2.094E+01    2.098E+01    2.102E+01    2.106E+01    2.111E+01    2.115E+01    2.119E+01    2.124E+01
     2.128E+01    2.133E+01    2.137E+01    2.142E+01    2.146E+01    2.151E+01    2.156E+01    2.161E+01    2.165E+01    2.170E+01
     2.175E+01    2.180E+01    2.185E+01    2.190E+01    2.194E+01    2.199E+01    2.204E+01    2.209E+01    2.214E+01    2.218E+01
     2.223E+01    2.228E+01    2.232E+01    2.237E+01    2.241E+01    2.246E+01    2.250E+01    2.254E+01    2.258E+01    2.262E+01
     2.266E+01    2.270E+01    2.274E+01    2.277E+01    2.281E+01    2.284E+01    2.287E+01    2.290E+01    2.293E+01    2.296E+01
     2.298E+01    2.301E+01    2.303E+01    2.305E+01    2.307E+01    2.309E+01    2.310E+01    2.311E+01    2.312E+01    2.313E+01
     2.314E+01    2.314E+01    2.314E+01    2.314E+01    2.314E+01    2.313E+01    2.312E+01    2.311E+01    2.310E+01    2.308E+01
     2.307E+01    2.305E+01    2.303E+01    2.301E+01    2.298E+01    2.296E+01    2.293E+01    2.290E+01    2.287E+01    2.284E+01
     2.280E+01    2.277E+01    2.273E+01    2.270E+01    2.266E+01    2.262E+01    2.258E+01    2.254E+01    2.249E+01    2.245E+01
     2.241E+01    2.236E+01    2.232E+01    2.227E+01    2.222E+01    2.218E+01    2.213E+01    2.208E+01    2.203E+01    2.198E+01
     2.193E+01    2.188E+01    2.183E+01    2.179E+01    2.174E+01    2.169E+01    2.164E+01    2.159E+01
 Ala      Conc. = 2.23E+02
