 LCModel (Version 6.3-1L) Copyright: S.W. Provencher.          Ref.: Magn. Reson. Med. 30:672-679 (1993).                
 Slice#1 Row#4 Col#7  K_02_press_1_raw_act
 36 lines in following concentration table = NCONC+1
    Conc.  %SD /Cr+PCr  Metabolite                                         
    0.000 999%   0.000 Ala                                                 
    0.000 999%   0.000 Asp                                                 
 1.02E+03  21%   0.655 Cr                                                  
  535.845  41%   0.345 PCr                                                 
    0.000 999%   0.000 GABA                                                
  110.120 149% 7.1E-02 Glc                                                 
  189.126 131%   0.122 Gln                                                 
 1.80E+03  16%   1.158 Glu                                                 
  536.250   5%   0.345 GPC                                                 
    0.000 999%   0.000 PCh                                                 
  393.650  22%   0.253 GSH                                                 
 1.80E+03  16%   1.162 Ins                                                 
    0.000 999%   0.000 Lac                                                 
 1.93E+03   7%   1.244 NAA                                                 
  567.269  24%   0.365 NAAG                                                
   59.013  54% 3.8E-02 Scyllo                                              
  126.589 179% 8.1E-02 Tau                                                 
  209.850  61%   0.135 -CrCH2                                              
  536.250   5%   0.345 GPC+PCh                                             
 2.50E+03   4%   1.609 NAA+NAAG                                            
 1.55E+03   5%   1.000 Cr+PCr                                              
 1.99E+03  19%   1.279 Glu+Gln                                             
 3.08E+03  32%   1.985 Lip13a                                              
    0.000 999%   0.000 Lip13b                                              
 1.06E+03  38%   0.681 Lip09                                               
 2.51E+03  19%   1.618 MM09                                                
  400.375  65%   0.258 Lip20                                               
 1.41E+03  37%   0.910 MM20                                                
  843.066  58%   0.543 MM12                                                
 1.23E+03  42%   0.790 MM14                                                
  271.269  98%   0.175 MM17                                                
 3.08E+03  32%   1.985 Lip13a+Lip13b                                       
 5.15E+03  11%   3.317 MM14+Lip13a+Lip13b+MM12                             
 3.57E+03   9%   2.300 MM09+Lip09                                          
 1.81E+03  27%   1.168 MM20+Lip20                                          
   6 lines in following misc. output table
  FWHM = 0.046 ppm    S/N =   9                                            
  Data shift =-0.008 ppm                                                   
  Ph:  -4 deg      -3.0 deg/ppm                                            
  alphaB,S = 3.5E+00,   6.1E+01                                            
   14 spline knots.   Ns = 6(1)                                            
  ( 9) 3 infls.   ( 3) 1 extrs.                                            
  498 points on ppm-axis = NY
      4.000000     3.992357     3.984714     3.977070     3.969427     3.961784     3.954141     3.946497     3.938854     3.931211
      3.923568     3.915925     3.908281     3.900638     3.892995     3.885352     3.877708     3.870065     3.862422     3.854779
      3.847136     3.839492     3.831849     3.824206     3.816563     3.808919     3.801276     3.793633     3.785990     3.778347
      3.770703     3.763060     3.755417     3.747774     3.740130     3.732487     3.724844     3.717201     3.709558     3.701914
      3.694271     3.686628     3.678985     3.671341     3.663698     3.656055     3.648412     3.640769     3.633125     3.625482
      3.617839     3.610196     3.602552     3.594909     3.587266     3.579623     3.571980     3.564336     3.556693     3.549050
      3.541407     3.533763     3.526120     3.518477     3.510834     3.503191     3.495547     3.487904     3.480261     3.472618
      3.464974     3.457331     3.449688     3.442045     3.434402     3.426758     3.419115     3.411472     3.403829     3.396185
      3.388542     3.380899     3.373256     3.365613     3.357969     3.350326     3.342683     3.335040     3.327396     3.319753
      3.312110     3.304467     3.296824     3.289180     3.281537     3.273894     3.266251     3.258607     3.250964     3.243321
      3.235678     3.228034     3.220391     3.212748     3.205105     3.197462     3.189818     3.182175     3.174532     3.166889
      3.159245     3.151602     3.143959     3.136316     3.128673     3.121029     3.113386     3.105743     3.098100     3.090456
      3.082813     3.075170     3.067527     3.059884     3.052240     3.044597     3.036954     3.029311     3.021667     3.014024
      3.006381     2.998738     2.991095     2.983451     2.975808     2.968165     2.960522     2.952878     2.945235     2.937592
      2.929949     2.922306     2.914662     2.907019     2.899376     2.891733     2.884089     2.876446     2.868803     2.861160
      2.853517     2.845873     2.838230     2.830587     2.822944     2.815300     2.807657     2.800014     2.792371     2.784728
      2.777084     2.769441     2.761798     2.754155     2.746511     2.738868     2.731225     2.723582     2.715939     2.708295
      2.700652     2.693009     2.685366     2.677722     2.670079     2.662436     2.654793     2.647150     2.639506     2.631863
      2.624220     2.616577     2.608933     2.601290     2.593647     2.586004     2.578361     2.570717     2.563074     2.555431
      2.547788     2.540144     2.532501     2.524858     2.517215     2.509572     2.501928     2.494285     2.486642     2.478999
      2.471355     2.463712     2.456069     2.448426     2.440783     2.433139     2.425496     2.417853     2.410210     2.402566
      2.394923     2.387280     2.379637     2.371994     2.364350     2.356707     2.349064     2.341421     2.333777     2.326134
      2.318491     2.310848     2.303205     2.295561     2.287918     2.280275     2.272632     2.264988     2.257345     2.249702
      2.242059     2.234416     2.226772     2.219129     2.211486     2.203843     2.196199     2.188556     2.180913     2.173270
      2.165627     2.157983     2.150340     2.142697     2.135054     2.127410     2.119767     2.112124     2.104481     2.096838
      2.089194     2.081551     2.073908     2.066265     2.058621     2.050978     2.043335     2.035692     2.028049     2.020405
      2.012762     2.005119     1.997476     1.989833     1.982190     1.974546     1.966903     1.959260     1.951617     1.943974
      1.936331     1.928688     1.921045     1.913402     1.905759     1.898115     1.890472     1.882829     1.875186     1.867543
      1.859900     1.852257     1.844614     1.836971     1.829327     1.821684     1.814041     1.806398     1.798755     1.791112
      1.783469     1.775826     1.768183     1.760540     1.752896     1.745253     1.737610     1.729967     1.722324     1.714681
      1.707038     1.699395     1.691752     1.684108     1.676465     1.668822     1.661179     1.653536     1.645893     1.638250
      1.630607     1.622964     1.615321     1.607677     1.600034     1.592391     1.584748     1.577105     1.569462     1.561819
      1.554176     1.546533     1.538890     1.531246     1.523603     1.515960     1.508317     1.500674     1.493031     1.485388
      1.477745     1.470102     1.462458     1.454815     1.447172     1.439529     1.431886     1.424243     1.416600     1.408957
      1.401314     1.393671     1.386027     1.378384     1.370741     1.363098     1.355455     1.347812     1.340169     1.332526
      1.324883     1.317240     1.309596     1.301953     1.294310     1.286667     1.279024     1.271381     1.263738     1.256095
      1.248452     1.240808     1.233165     1.225522     1.217879     1.210236     1.202593     1.194950     1.187307     1.179664
      1.172021     1.164377     1.156734     1.149091     1.141448     1.133805     1.126162     1.118519     1.110876     1.103233
      1.095590     1.087946     1.080303     1.072660     1.065017     1.057374     1.049731     1.042088     1.034445     1.026802
      1.019158     1.011515     1.003872     0.996229     0.988586     0.980943     0.973300     0.965657     0.958014     0.950371
      0.942727     0.935084     0.927441     0.919798     0.912155     0.904512     0.896869     0.889226     0.881583     0.873940
      0.866296     0.858653     0.851010     0.843367     0.835724     0.828081     0.820438     0.812795     0.805152     0.797508
      0.789865     0.782222     0.774579     0.766936     0.759293     0.751650     0.744007     0.736364     0.728721     0.721077
      0.713434     0.705791     0.698148     0.690505     0.682862     0.675219     0.667576     0.659933     0.652290     0.644646
      0.637003     0.629360     0.621717     0.614074     0.606431     0.598788     0.591145     0.583502     0.575858     0.568215
      0.560572     0.552929     0.545286     0.537643     0.530000     0.522357     0.514714     0.507071     0.499427     0.491784
      0.484141     0.476498     0.468855     0.461212     0.453569     0.445925     0.438282     0.430639     0.422996     0.415353
      0.407710     0.400067     0.392424     0.384780     0.377137     0.369494     0.361851     0.354208     0.346565     0.338922
      0.331278     0.323635     0.315992     0.308349     0.300706     0.293063     0.285420     0.277777     0.270133     0.262490
      0.254847     0.247204     0.239561     0.231918     0.224275     0.216631     0.208988     0.201345
 NY phased data points follow
  -5.49052E+00 -6.57379E-01 -2.87360E+00  7.08560E+00  5.01127E+00  9.07152E+00  1.24085E+01  2.20544E+01  1.35812E+01  3.28895E+01
   3.33360E+01  3.12939E+01  2.81982E+01  2.75833E+01  1.35744E+01  1.84088E+01  1.27344E+01  1.02179E+01 -1.39101E+00 -5.44189E+00
  -2.08374E+00 -9.16013E+00  1.81526E+00 -1.85698E+00 -2.66183E+00  1.50307E+00  4.75370E+00  1.31564E+01  8.26156E+00  4.60378E+00
   1.17385E+01  1.49969E+01  1.17904E+01  9.03267E+00  1.12510E+01  4.70969E+00  8.29645E+00  5.49451E+00  5.47913E+00  6.60192E+00
   7.34375E+00  1.15541E+01 -3.82707E+00  6.04340E+00  1.19275E+01  9.95860E+00  1.09229E+01  1.85762E+01  1.71788E+01  1.78054E+01
   7.67521E+00  1.13194E+01  4.34463E+00  1.49869E+00  2.48103E+00  8.05367E+00  8.29378E+00  9.69314E+00  6.43999E+00  7.36970E+00
   4.09760E+00  9.93657E+00  5.97529E+00 -1.77640E+00  6.65078E+00 -3.04593E-01 -6.89327E-01  4.30975E+00  4.85738E+00 -5.90911E+00
   2.38198E+00  4.41790E+00 -4.20538E+00 -1.98665E+00  1.01704E+00  1.47244E+00  1.65847E-01 -2.95312E+00  3.65070E+00  5.65095E-01
   3.08570E+00  7.39392E+00  7.34296E+00  1.60106E-01  4.85553E+00 -4.19393E+00 -3.94368E-01 -3.97835E+00  2.48223E+00 -2.06540E-02
   1.03609E+00  2.43130E+00  8.34163E+00  1.40852E+00  9.17004E+00  6.47441E+00  2.13624E+00  7.43425E+00  1.15817E+01  1.25237E+01
   2.37507E+01  3.55112E+01  4.43339E+01  6.00877E+01  5.87888E+01  4.78094E+01  3.98080E+01  1.66837E+01  1.24390E+01 -2.17354E+00
   2.78462E-01  1.51251E+00  4.12361E+00  7.56521E+00  5.31516E+00  6.14087E+00 -1.73920E+00  5.91125E+00  6.03147E+00  1.16634E+01
   2.04435E+00  1.59064E+01  1.24584E+01  1.97407E+01  2.62651E+01  3.82174E+01  5.05406E+01  6.40817E+01  5.27199E+01  4.56478E+01
   3.57245E+01  2.27944E+01  1.55122E+01  8.05385E+00  7.64871E+00  5.08295E+00  2.24218E+00  1.06982E+00  3.83137E-01  6.96977E-01
   6.18592E+00 -6.25350E-01  5.26555E+00  8.98177E+00 -7.03777E+00  2.61881E+00  1.00850E+00 -1.82296E+00  7.30003E+00 -4.12827E+00
  -3.00770E+00  5.78387E+00  7.66143E+00 -1.28879E+00 -7.17438E-01 -2.57860E+00  2.59005E+00  5.24218E+00 -2.90241E+00  3.79233E+00
   2.14024E+00  2.67805E+00  3.23239E+00 -2.93515E+00 -1.80560E+00  2.82843E+00 -2.93349E-01 -4.05415E+00 -1.33536E+00 -7.31809E-01
  -5.48027E+00 -1.00375E+01 -5.31724E+00 -1.34738E+01 -8.43696E+00 -1.11595E+01 -9.46104E+00 -1.26491E+01 -1.37974E+01 -8.31197E+00
  -3.83319E+00 -3.95752E+00 -6.35536E+00 -1.27731E+01 -1.30611E+01 -1.90188E+00 -2.71446E+00 -1.04683E+01 -1.13978E+01 -1.16796E+00
   1.01233E+00 -8.18641E+00  3.77450E+00 -1.07490E+00 -6.94025E+00 -6.72379E+00 -5.23466E+00  4.39173E+00 -9.70902E+00 -5.78103E+00
  -3.13167E+00 -5.62869E+00 -3.13316E+00  2.16519E+00  4.95285E+00 -6.17574E-01  9.90285E-01 -6.72190E+00  8.53840E-01 -3.66591E+00
  -4.61846E+00  6.17703E-02  7.72561E+00  8.68350E+00  6.09969E+00  1.74711E+01  1.59226E+01  1.51484E+01  4.73911E+00  4.08396E+00
  -1.01499E+01 -7.61066E+00 -1.49049E+01 -5.17291E+00 -7.63532E+00  8.21323E+00  3.73944E+00  7.69424E+00  1.36811E+01  7.43040E+00
   1.14895E+01  2.93860E+00  5.31122E+00  1.52860E+01  2.46870E+00  3.26861E-01 -1.86941E-01  3.58156E+00  6.07743E+00  3.84550E+00
   2.69477E-01  1.87322E+00 -3.62131E+00 -2.50981E+00  3.45107E+00  1.28443E+01  1.27317E+01  1.06539E+01  5.45401E+00  1.24835E+01
   2.19711E+01  1.91120E+01  2.14614E+01  2.92688E+01  3.24597E+01  4.96600E+01  4.85266E+01  5.13852E+01  7.74658E+01  8.96690E+01
   9.61305E+01  8.66297E+01  7.12163E+01  5.26558E+01  3.30849E+01  1.57184E+01  8.81869E+00  3.07874E+00  4.28757E+00 -2.23124E+00
   6.61320E+00  3.19477E+00 -3.45859E-01  7.58702E+00  2.98358E+00  1.04049E+01  6.67119E+00  9.05256E+00  9.57874E+00  4.49670E+00
  -3.92215E+00 -6.49435E-01  2.93726E+00  1.66681E+00 -2.96255E-01 -9.62327E-01 -1.11329E+00 -8.80788E-01  2.60994E+00  1.11475E+01
   3.63599E+00  6.44771E+00  9.29123E+00  5.79800E+00 -5.19874E+00  1.83897E+00  5.25133E+00  2.05239E+00  4.79833E+00  5.80691E+00
   3.01490E-01  1.24490E+01  3.82125E+00  1.07695E+01  1.31832E+01  3.52112E+00  9.03042E+00  6.93053E+00  4.44528E+00  9.96309E+00
   2.38420E+00  1.06262E+01  6.18449E+00  1.33586E+01  4.63658E+00  4.69508E+00  4.23457E+00  9.11539E+00  6.42435E+00  1.06278E+01
   1.33509E+01  1.40428E+01  9.57704E+00  5.32150E+00  6.17088E+00  9.13076E+00  8.67359E+00  8.55530E+00  6.53616E+00  1.89552E+01
   1.45488E+01  7.95898E+00  1.95305E+01  1.96620E+01  1.25536E+01  1.80531E+01  6.30114E+00  1.91260E+01  1.14861E+01  1.42113E+01
   1.36372E+01  2.00862E+01  1.07215E+01  1.22878E+01  1.85045E+01  1.90448E+01  2.23712E+01  2.55291E+01  2.46148E+01  2.56432E+01
   2.45750E+01  2.11856E+01  1.45033E+01  1.44929E+01  1.92103E+01  1.85974E+01  1.31225E+01  1.46562E+01  1.93856E+01  2.30931E+01
   1.88039E+01  1.97193E+01  2.34085E+01  2.89097E+01  2.52365E+01  2.66112E+01  2.39646E+01  2.25539E+01  1.89352E+01  1.64490E+01
   1.71472E+01  1.38156E+01  1.60068E+01  1.94703E+01  1.49514E+01  1.54796E+01  1.67808E+01  1.96842E+01  1.95538E+01  1.10331E+01
   1.88240E+01  1.30971E+01  2.04978E+01  1.82754E+01  1.51148E+01  2.24522E+01  9.89576E+00  1.71596E+01  3.12578E+01  1.98255E+01
   2.32216E+01  2.00007E+01  2.08759E+01  2.29993E+01  2.63574E+01  2.61562E+01  3.04348E+01  3.25549E+01  2.87415E+01  2.07452E+01
   2.97606E+01  1.76874E+01  2.75430E+01  2.65906E+01  3.12249E+01  3.54671E+01  3.38396E+01  3.41741E+01  3.04308E+01  2.11952E+01
   3.30036E+01  2.74180E+01  2.33056E+01  3.33145E+01  2.37389E+01  1.81497E+01  2.33073E+01  2.25509E+01  1.69982E+01  1.51764E+01
   1.61777E+01  2.49219E+01  1.79610E+01  2.43713E+01  1.65072E+01  2.21307E+01  1.61197E+01  1.05226E+01  1.59362E+01  1.80721E+01
   2.02533E+01  1.58740E+01  1.80183E+01  1.24479E+01  2.04444E+01  1.62094E+01  1.51497E+01  1.16088E+01  1.19563E+01  1.98247E+01
   1.46445E+01  1.23050E+01  1.26412E+01  1.51582E+01  1.44425E+01  1.09995E+01  1.64506E+01  1.30725E+01  1.30769E+01  1.29768E+01
   9.64326E+00  1.43152E+01  8.55021E+00  9.12808E+00  8.52744E+00  1.72325E+01  1.12389E+01  1.71156E+01  1.22414E+01  9.53564E+00
   9.71107E+00  1.08166E+01  1.53293E+01  1.37423E+01  1.14254E+01  1.10921E+01  1.31496E+01  2.59092E+00  4.50293E+00  1.55411E+01
   1.27848E+01  3.12314E+00  1.19251E+01  6.92724E+00  9.33533E+00  4.59645E+00  1.30979E+01  8.02475E+00  1.02994E+01  1.26734E+01
   1.44777E+01  1.17662E+01  1.62992E+01  1.26961E+01  1.05366E+01  4.43714E+00  3.36518E+00  1.35403E+01  9.49214E+00  9.30419E-01
   7.24999E+00  1.41084E+01  9.37558E+00  8.25438E+00  7.81065E+00  1.11431E+01  7.83261E+00  8.26218E+00
 NY points of the fit to the data follow
   2.07520E+00  1.80389E+00  2.26377E+00  3.62783E+00  5.46103E+00  8.27337E+00  1.28273E+01  1.77123E+01  2.23861E+01  2.71308E+01
   3.11954E+01  3.29409E+01  3.10627E+01  2.58602E+01  1.91693E+01  1.28107E+01  7.75396E+00  4.37379E+00  2.75287E+00  2.34092E+00
   2.26205E+00  2.15536E+00  1.84552E+00  1.72822E+00  2.26794E+00  2.85349E+00  3.38102E+00  4.67460E+00  7.10216E+00  1.00317E+01
   1.23925E+01  1.36047E+01  1.34847E+01  1.18909E+01  9.20805E+00  6.06448E+00  3.30897E+00  1.57208E+00  7.99999E-01  7.04055E-01
   1.30712E+00  2.79800E+00  4.83594E+00  6.86939E+00  9.11846E+00  1.20169E+01  1.49844E+01  1.66090E+01  1.57868E+01  1.27323E+01
   8.59494E+00  4.46580E+00  1.16955E+00 -5.37040E-01 -5.65105E-01  3.52669E-01  1.59304E+00  2.91965E+00  4.27866E+00  5.39706E+00
   5.83946E+00  5.39258E+00  4.16053E+00  2.54871E+00  1.04812E+00  1.29081E-01  1.34452E-01  8.18789E-01  1.78027E+00  2.82422E+00
   3.78238E+00  4.45805E+00  4.73290E+00  4.64175E+00  4.29877E+00  3.79442E+00  3.19880E+00  2.57976E+00  2.06217E+00  1.75937E+00
   1.75104E+00  1.85137E+00  1.88589E+00  1.95042E+00  2.02262E+00  1.76864E+00  9.11454E-01 -4.11231E-01 -1.65338E+00 -2.32163E+00
  -2.21305E+00 -1.45784E+00 -3.62982E-01  8.03813E-01  1.73384E+00  2.35411E+00  3.08796E+00  5.74844E+00  1.10285E+01  1.66267E+01
   2.43608E+01  3.61365E+01  4.91619E+01  5.76772E+01  5.74336E+01  4.87953E+01  3.56008E+01  2.17811E+01  1.02359E+01  2.83337E+00
  -1.36617E-01 -5.66237E-01 -5.54631E-01 -4.77955E-01 -3.76443E-01 -2.53931E-01 -1.05721E-01  8.70702E-02  3.85919E-01  9.71027E-01
   2.51875E+00  6.43891E+00  1.24539E+01  1.92424E+01  2.83134E+01  4.03549E+01  5.21279E+01  5.86049E+01  5.67885E+01  4.76393E+01
   3.48403E+01  2.20373E+01  1.16422E+01  4.89553E+00  1.54483E+00 -7.84494E-02 -1.14983E+00 -1.70072E+00 -1.58243E+00 -8.31279E-01
   2.51598E-01  1.21908E+00  1.74082E+00  1.77555E+00  1.45966E+00  9.88787E-01  5.51790E-01  2.34701E-01  9.66831E-03 -1.61837E-01
  -3.22337E-01 -5.02730E-01 -6.91779E-01 -8.28275E-01 -8.99038E-01 -9.31913E-01 -8.42662E-01 -7.66870E-01 -9.22037E-01 -1.31735E+00
  -1.88423E+00 -2.24999E+00 -2.13996E+00 -1.74885E+00 -1.47622E+00 -1.54743E+00 -2.00674E+00 -2.72508E+00 -3.45203E+00 -3.98837E+00
  -4.30088E+00 -4.35454E+00 -4.33968E+00 -4.60385E+00 -5.09478E+00 -5.51848E+00 -5.50082E+00 -5.05708E+00 -4.55848E+00 -4.35517E+00
  -4.42885E+00 -4.56399E+00 -4.45214E+00 -4.12029E+00 -3.69690E+00 -3.11230E+00 -2.18394E+00 -8.64890E-01  7.35061E-01  2.41783E+00
   3.83922E+00  4.59731E+00  4.37681E+00  3.52086E+00  2.46258E+00  1.40603E+00  5.25421E-01  1.48730E-01  4.78337E-01  1.34474E+00
   2.52205E+00  3.77334E+00  4.91547E+00  5.66554E+00  5.53012E+00  4.52662E+00  2.87556E+00  7.09222E-01 -1.36273E+00 -2.73274E+00
  -2.75346E+00 -1.62335E+00  5.41010E-01  3.89770E+00  7.73397E+00  1.04822E+01  1.06248E+01  7.97402E+00  3.65045E+00 -1.40640E+00
  -6.45742E+00 -1.00445E+01 -1.08100E+01 -8.50658E+00 -4.23285E+00  4.77368E-01  4.50801E+00  7.27887E+00  8.43910E+00  8.08772E+00
   6.94246E+00  5.95389E+00  5.64066E+00  5.96681E+00  6.70723E+00  7.58147E+00  8.21189E+00  8.07214E+00  7.11246E+00  5.63180E+00
   4.06870E+00  2.89841E+00  2.68162E+00  3.63239E+00  5.41678E+00  7.39805E+00  9.01122E+00  9.95231E+00  1.01781E+01  1.03794E+01
   1.15380E+01  1.33424E+01  1.63528E+01  2.21140E+01  3.28546E+01  4.45219E+01  5.31992E+01  6.24897E+01  7.49545E+01  8.68124E+01
   9.14713E+01  8.55973E+01  7.15178E+01  5.37990E+01  3.61788E+01  2.18735E+01  1.31540E+01  9.73194E+00  8.57519E+00  7.79090E+00
   7.26903E+00  6.99185E+00  6.92249E+00  6.97749E+00  7.00778E+00  6.88241E+00  6.61162E+00  6.26648E+00  5.89627E+00  5.55509E+00
   5.31873E+00  5.21501E+00  5.19861E+00  5.20189E+00  5.18153E+00  5.13196E+00  5.05978E+00  4.96408E+00  4.86988E+00  4.82310E+00
   4.84922E+00  4.94019E+00  5.06520E+00  5.19058E+00  5.30300E+00  5.39131E+00  5.44903E+00  5.48845E+00  5.53572E+00  5.61159E+00
   5.72032E+00  5.85500E+00  6.00387E+00  6.15445E+00  6.29542E+00  6.42011E+00  6.52991E+00  6.63082E+00  6.72620E+00  6.81968E+00
   6.91450E+00  7.01282E+00  7.11643E+00  7.22793E+00  7.35051E+00  7.48784E+00  7.64317E+00  7.81930E+00  8.01834E+00  8.24198E+00
   8.49123E+00  8.76663E+00  9.06785E+00  9.39391E+00  9.74311E+00  1.01134E+01  1.05023E+01  1.09070E+01  1.13242E+01  1.17503E+01
   1.21820E+01  1.26164E+01  1.30506E+01  1.34824E+01  1.39096E+01  1.43310E+01  1.47457E+01  1.51537E+01  1.55554E+01  1.59516E+01
   1.63431E+01  1.67310E+01  1.71163E+01  1.75002E+01  1.78828E+01  1.82640E+01  1.86427E+01  1.90172E+01  1.93852E+01  1.97433E+01
   2.00875E+01  2.04131E+01  2.07149E+01  2.09877E+01  2.12261E+01  2.14252E+01  2.15801E+01  2.16869E+01  2.17423E+01  2.17444E+01
   2.16922E+01  2.15862E+01  2.14275E+01  2.12191E+01  2.09646E+01  2.06694E+01  2.03391E+01  1.99806E+01  1.96011E+01  1.92083E+01
   1.88103E+01  1.84155E+01  1.80321E+01  1.76682E+01  1.73316E+01  1.70300E+01  1.67708E+01  1.65609E+01  1.64067E+01  1.63144E+01
   1.62893E+01  1.63366E+01  1.64607E+01  1.66654E+01  1.69533E+01  1.73264E+01  1.77850E+01  1.83285E+01  1.89541E+01  1.96573E+01
   2.04314E+01  2.12674E+01  2.21541E+01  2.30781E+01  2.40236E+01  2.49731E+01  2.59076E+01  2.68075E+01  2.76525E+01  2.84234E+01
   2.91015E+01  2.96705E+01  3.01164E+01  3.04287E+01  3.06002E+01  3.06277E+01  3.05116E+01  3.02564E+01  2.98699E+01  2.93630E+01
   2.87490E+01  2.80433E+01  2.72620E+01  2.64220E+01  2.55399E+01  2.46320E+01  2.37131E+01  2.27965E+01  2.18940E+01  2.10154E+01
   2.01686E+01  1.93598E+01  1.85934E+01  1.78724E+01  1.71980E+01  1.65707E+01  1.59900E+01  1.54545E+01  1.49624E+01  1.45113E+01
   1.40986E+01  1.37219E+01  1.33784E+01  1.30655E+01  1.27806E+01  1.25211E+01  1.22848E+01  1.20696E+01  1.18736E+01  1.16949E+01
   1.15319E+01  1.13831E+01  1.12472E+01  1.11230E+01  1.10094E+01  1.09055E+01  1.08103E+01  1.07231E+01  1.06432E+01  1.05701E+01
   1.05030E+01  1.04416E+01  1.03853E+01  1.03337E+01  1.02866E+01  1.02435E+01  1.02042E+01  1.01684E+01  1.01357E+01  1.01060E+01
   1.00792E+01  1.00550E+01  1.00331E+01  1.00136E+01  9.99608E+00  9.98063E+00  9.96704E+00  9.95524E+00  9.94502E+00  9.93634E+00
   9.92907E+00  9.92323E+00  9.91869E+00  9.91539E+00  9.91317E+00  9.91204E+00  9.91192E+00  9.91284E+00  9.91464E+00  9.91732E+00
   9.92074E+00  9.92494E+00  9.92987E+00  9.93555E+00  9.94183E+00  9.94873E+00  9.95612E+00  9.96410E+00  9.97258E+00  9.98159E+00
   9.99097E+00  1.00007E+01  1.00108E+01  1.00213E+01  1.00321E+01  1.00432E+01  1.00545E+01  1.00659E+01
 NY background values follow
    -4.249E+00   -4.231E+00   -4.213E+00   -4.195E+00   -4.177E+00   -4.159E+00   -4.141E+00   -4.123E+00   -4.105E+00   -4.087E+00
    -4.069E+00   -4.051E+00   -4.033E+00   -4.015E+00   -3.997E+00   -3.979E+00   -3.961E+00   -3.943E+00   -3.925E+00   -3.907E+00
    -3.889E+00   -3.871E+00   -3.853E+00   -3.835E+00   -3.817E+00   -3.798E+00   -3.780E+00   -3.762E+00   -3.744E+00   -3.726E+00
    -3.708E+00   -3.690E+00   -3.672E+00   -3.654E+00   -3.636E+00   -3.618E+00   -3.600E+00   -3.582E+00   -3.563E+00   -3.545E+00
    -3.527E+00   -3.509E+00   -3.491E+00   -3.473E+00   -3.455E+00   -3.437E+00   -3.419E+00   -3.401E+00   -3.383E+00   -3.365E+00
    -3.347E+00   -3.329E+00   -3.311E+00   -3.293E+00   -3.275E+00   -3.256E+00   -3.238E+00   -3.220E+00   -3.202E+00   -3.184E+00
    -3.166E+00   -3.148E+00   -3.130E+00   -3.112E+00   -3.094E+00   -3.076E+00   -3.058E+00   -3.040E+00   -3.022E+00   -3.004E+00
    -2.986E+00   -2.968E+00   -2.950E+00   -2.932E+00   -2.914E+00   -2.896E+00   -2.878E+00   -2.860E+00   -2.842E+00   -2.824E+00
    -2.806E+00   -2.788E+00   -2.770E+00   -2.752E+00   -2.734E+00   -2.716E+00   -2.697E+00   -2.679E+00   -2.661E+00   -2.643E+00
    -2.625E+00   -2.607E+00   -2.589E+00   -2.571E+00   -2.553E+00   -2.535E+00   -2.517E+00   -2.499E+00   -2.481E+00   -2.463E+00
    -2.445E+00   -2.427E+00   -2.409E+00   -2.390E+00   -2.372E+00   -2.354E+00   -2.336E+00   -2.318E+00   -2.300E+00   -2.282E+00
    -2.264E+00   -2.245E+00   -2.227E+00   -2.209E+00   -2.191E+00   -2.173E+00   -2.154E+00   -2.136E+00   -2.118E+00   -2.100E+00
    -2.082E+00   -2.063E+00   -2.045E+00   -2.027E+00   -2.008E+00   -1.990E+00   -1.972E+00   -1.953E+00   -1.935E+00   -1.917E+00
    -1.898E+00   -1.880E+00   -1.861E+00   -1.843E+00   -1.825E+00   -1.806E+00   -1.788E+00   -1.769E+00   -1.751E+00   -1.732E+00
    -1.713E+00   -1.695E+00   -1.676E+00   -1.658E+00   -1.639E+00   -1.620E+00   -1.602E+00   -1.583E+00   -1.564E+00   -1.545E+00
    -1.526E+00   -1.508E+00   -1.489E+00   -1.470E+00   -1.451E+00   -1.432E+00   -1.413E+00   -1.393E+00   -1.374E+00   -1.355E+00
    -1.336E+00   -1.317E+00   -1.297E+00   -1.278E+00   -1.259E+00   -1.239E+00   -1.220E+00   -1.200E+00   -1.180E+00   -1.161E+00
    -1.141E+00   -1.121E+00   -1.101E+00   -1.081E+00   -1.062E+00   -1.042E+00   -1.021E+00   -1.001E+00   -9.811E-01   -9.608E-01
    -9.405E-01   -9.201E-01   -8.996E-01   -8.791E-01   -8.585E-01   -8.378E-01   -8.171E-01   -7.962E-01   -7.754E-01   -7.544E-01
    -7.334E-01   -7.123E-01   -6.912E-01   -6.699E-01   -6.486E-01   -6.273E-01   -6.058E-01   -5.843E-01   -5.628E-01   -5.411E-01
    -5.194E-01   -4.976E-01   -4.758E-01   -4.538E-01   -4.318E-01   -4.098E-01   -3.876E-01   -3.654E-01   -3.431E-01   -3.208E-01
    -2.983E-01   -2.758E-01   -2.533E-01   -2.306E-01   -2.079E-01   -1.851E-01   -1.623E-01   -1.393E-01   -1.163E-01   -9.323E-02
    -7.008E-02   -4.685E-02   -2.355E-02   -1.714E-04    2.328E-02    4.680E-02    7.040E-02    9.407E-02    1.178E-01    1.416E-01
     1.655E-01    1.895E-01    2.136E-01    2.377E-01    2.619E-01    2.861E-01    3.105E-01    3.349E-01    3.594E-01    3.840E-01
     4.086E-01    4.333E-01    4.581E-01    4.830E-01    5.079E-01    5.329E-01    5.580E-01    5.832E-01    6.084E-01    6.337E-01
     6.591E-01    6.846E-01    7.101E-01    7.357E-01    7.614E-01    7.872E-01    8.130E-01    8.389E-01    8.649E-01    8.909E-01
     9.171E-01    9.433E-01    9.696E-01    9.959E-01    1.022E+00    1.049E+00    1.075E+00    1.102E+00    1.129E+00    1.156E+00
     1.183E+00    1.209E+00    1.237E+00    1.264E+00    1.291E+00    1.318E+00    1.345E+00    1.373E+00    1.400E+00    1.428E+00
     1.455E+00    1.483E+00    1.511E+00    1.539E+00    1.567E+00    1.595E+00    1.623E+00    1.651E+00    1.679E+00    1.707E+00
     1.735E+00    1.764E+00    1.792E+00    1.821E+00    1.849E+00    1.878E+00    1.907E+00    1.935E+00    1.964E+00    1.993E+00
     2.022E+00    2.051E+00    2.080E+00    2.109E+00    2.138E+00    2.168E+00    2.197E+00    2.226E+00    2.256E+00    2.285E+00
     2.315E+00    2.344E+00    2.374E+00    2.404E+00    2.433E+00    2.463E+00    2.493E+00    2.523E+00    2.553E+00    2.583E+00
     2.613E+00    2.643E+00    2.673E+00    2.704E+00    2.734E+00    2.764E+00    2.795E+00    2.825E+00    2.856E+00    2.886E+00
     2.917E+00    2.947E+00    2.978E+00    3.009E+00    3.040E+00    3.070E+00    3.101E+00    3.132E+00    3.163E+00    3.194E+00
     3.225E+00    3.256E+00    3.287E+00    3.319E+00    3.350E+00    3.381E+00    3.412E+00    3.444E+00    3.475E+00    3.506E+00
     3.538E+00    3.569E+00    3.601E+00    3.632E+00    3.664E+00    3.695E+00    3.727E+00    3.759E+00    3.790E+00    3.822E+00
     3.854E+00    3.886E+00    3.917E+00    3.949E+00    3.981E+00    4.013E+00    4.045E+00    4.077E+00    4.109E+00    4.141E+00
     4.173E+00    4.205E+00    4.237E+00    4.269E+00    4.301E+00    4.334E+00    4.366E+00    4.398E+00    4.430E+00    4.462E+00
     4.495E+00    4.527E+00    4.559E+00    4.592E+00    4.624E+00    4.656E+00    4.689E+00    4.721E+00    4.754E+00    4.786E+00
     4.818E+00    4.851E+00    4.883E+00    4.916E+00    4.948E+00    4.981E+00    5.013E+00    5.046E+00    5.078E+00    5.111E+00
     5.144E+00    5.176E+00    5.209E+00    5.241E+00    5.274E+00    5.306E+00    5.339E+00    5.372E+00    5.404E+00    5.437E+00
     5.470E+00    5.502E+00    5.535E+00    5.567E+00    5.600E+00    5.633E+00    5.665E+00    5.698E+00    5.731E+00    5.763E+00
     5.796E+00    5.829E+00    5.861E+00    5.894E+00    5.927E+00    5.959E+00    5.992E+00    6.024E+00    6.057E+00    6.090E+00
     6.122E+00    6.155E+00    6.188E+00    6.220E+00    6.253E+00    6.285E+00    6.318E+00    6.351E+00    6.383E+00    6.416E+00
     6.448E+00    6.481E+00    6.513E+00    6.546E+00    6.578E+00    6.611E+00    6.643E+00    6.676E+00    6.708E+00    6.741E+00
     6.773E+00    6.806E+00    6.838E+00    6.870E+00    6.903E+00    6.935E+00    6.968E+00    7.000E+00    7.032E+00    7.065E+00
     7.097E+00    7.129E+00    7.161E+00    7.194E+00    7.226E+00    7.258E+00    7.290E+00    7.323E+00    7.355E+00    7.387E+00
     7.419E+00    7.451E+00    7.484E+00    7.516E+00    7.548E+00    7.580E+00    7.612E+00    7.644E+00    7.676E+00    7.708E+00
     7.740E+00    7.772E+00    7.804E+00    7.836E+00    7.868E+00    7.900E+00    7.932E+00    7.964E+00    7.996E+00    8.028E+00
     8.060E+00    8.092E+00    8.124E+00    8.156E+00    8.188E+00    8.220E+00    8.252E+00    8.284E+00
 Cr       Conc. = 1.02E+03
