 LCModel (Version 6.3-1L) Copyright: S.W. Provencher.          Ref.: Magn. Reson. Med. 30:672-679 (1993).                
 Slice#3 Row#14 Col#9  K_02_press_1_raw_act
 36 lines in following concentration table = NCONC+1
    Conc.  %SD /Cr+PCr  Metabolite                                         
    0.000 999%   0.000 Ala                                                 
    3.198 218% 6.5E-02 Asp                                                 
   49.345  32%   1.000 Cr                                                  
    0.000 999%   0.000 PCr                                                 
    2.098 200% 4.3E-02 GABA                                                
    2.560 164% 5.2E-02 Glc                                                 
    0.000 999%   0.000 Gln                                                 
  149.002  53%   3.020 Glu                                                 
    8.372  70%   0.170 GPC                                                 
    0.000 999%   0.000 PCh                                                 
   17.292 129%   0.350 GSH                                                 
  243.310  28%   4.931 Ins                                                 
   75.799  52%   1.536 Lac                                                 
    0.000 999%   0.000 NAA                                                 
    0.000 999%   0.000 NAAG                                                
    0.809 172% 1.6E-02 Scyllo                                              
    3.827 181% 7.8E-02 Tau                                                 
    1.587 999% 3.2E-02 -CrCH2                                              
    8.372  70%   0.170 GPC+PCh                                             
    0.000 999%   0.000 NAA+NAAG                                            
   49.345  32%   1.000 Cr+PCr                                              
  149.002  53%   3.020 Glu+Gln                                             
 1.13E+03   9%  22.811 Lip13a                                              
    0.000 999%   0.000 Lip13b                                              
  294.360  11%   5.965 Lip09                                               
   11.028 166%   0.223 MM09                                                
  157.973  14%   3.201 Lip20                                               
    0.000 999%   0.000 MM20                                                
    3.240 293% 6.6E-02 MM12                                                
   94.493  37%   1.915 MM14                                                
    1.609 999% 3.3E-02 MM17                                                
 1.13E+03   9%  22.811 Lip13a+Lip13b                                       
 1.22E+03   8%  24.791 MM14+Lip13a+Lip13b+MM12                             
  305.388  11%   6.189 MM09+Lip09                                          
  157.973  14%   3.201 MM20+Lip20                                          
   6 lines in following misc. output table
  FWHM = 0.061 ppm    S/N =   2                                            
  Data shift = 0.000 ppm                                                   
  Ph:-139 deg       8.5 deg/ppm                                            
  alphaB,S = 8.5E+01,   4.4E+01                                            
   14 spline knots.   Ns = 5(1)                                            
  (11) 1 infls.   (11) 1 extrs.                                            
  498 points on ppm-axis = NY
      4.000000     3.992357     3.984714     3.977070     3.969427     3.961784     3.954141     3.946497     3.938854     3.931211
      3.923568     3.915925     3.908281     3.900638     3.892995     3.885352     3.877708     3.870065     3.862422     3.854779
      3.847136     3.839492     3.831849     3.824206     3.816563     3.808919     3.801276     3.793633     3.785990     3.778347
      3.770703     3.763060     3.755417     3.747774     3.740130     3.732487     3.724844     3.717201     3.709558     3.701914
      3.694271     3.686628     3.678985     3.671341     3.663698     3.656055     3.648412     3.640769     3.633125     3.625482
      3.617839     3.610196     3.602552     3.594909     3.587266     3.579623     3.571980     3.564336     3.556693     3.549050
      3.541407     3.533763     3.526120     3.518477     3.510834     3.503191     3.495547     3.487904     3.480261     3.472618
      3.464974     3.457331     3.449688     3.442045     3.434402     3.426758     3.419115     3.411472     3.403829     3.396185
      3.388542     3.380899     3.373256     3.365613     3.357969     3.350326     3.342683     3.335040     3.327396     3.319753
      3.312110     3.304467     3.296824     3.289180     3.281537     3.273894     3.266251     3.258607     3.250964     3.243321
      3.235678     3.228034     3.220391     3.212748     3.205105     3.197462     3.189818     3.182175     3.174532     3.166889
      3.159245     3.151602     3.143959     3.136316     3.128673     3.121029     3.113386     3.105743     3.098100     3.090456
      3.082813     3.075170     3.067527     3.059884     3.052240     3.044597     3.036954     3.029311     3.021667     3.014024
      3.006381     2.998738     2.991095     2.983451     2.975808     2.968165     2.960522     2.952878     2.945235     2.937592
      2.929949     2.922306     2.914662     2.907019     2.899376     2.891733     2.884089     2.876446     2.868803     2.861160
      2.853517     2.845873     2.838230     2.830587     2.822944     2.815300     2.807657     2.800014     2.792371     2.784728
      2.777084     2.769441     2.761798     2.754155     2.746511     2.738868     2.731225     2.723582     2.715939     2.708295
      2.700652     2.693009     2.685366     2.677722     2.670079     2.662436     2.654793     2.647150     2.639506     2.631863
      2.624220     2.616577     2.608933     2.601290     2.593647     2.586004     2.578361     2.570717     2.563074     2.555431
      2.547788     2.540144     2.532501     2.524858     2.517215     2.509572     2.501928     2.494285     2.486642     2.478999
      2.471355     2.463712     2.456069     2.448426     2.440783     2.433139     2.425496     2.417853     2.410210     2.402566
      2.394923     2.387280     2.379637     2.371994     2.364350     2.356707     2.349064     2.341421     2.333777     2.326134
      2.318491     2.310848     2.303205     2.295561     2.287918     2.280275     2.272632     2.264988     2.257345     2.249702
      2.242059     2.234416     2.226772     2.219129     2.211486     2.203843     2.196199     2.188556     2.180913     2.173270
      2.165627     2.157983     2.150340     2.142697     2.135054     2.127410     2.119767     2.112124     2.104481     2.096838
      2.089194     2.081551     2.073908     2.066265     2.058621     2.050978     2.043335     2.035692     2.028049     2.020405
      2.012762     2.005119     1.997476     1.989833     1.982190     1.974546     1.966903     1.959260     1.951617     1.943974
      1.936331     1.928688     1.921045     1.913402     1.905759     1.898115     1.890472     1.882829     1.875186     1.867543
      1.859900     1.852257     1.844614     1.836971     1.829327     1.821684     1.814041     1.806398     1.798755     1.791112
      1.783469     1.775826     1.768183     1.760540     1.752896     1.745253     1.737610     1.729967     1.722324     1.714681
      1.707038     1.699395     1.691752     1.684108     1.676465     1.668822     1.661179     1.653536     1.645893     1.638250
      1.630607     1.622964     1.615321     1.607677     1.600034     1.592391     1.584748     1.577105     1.569462     1.561819
      1.554176     1.546533     1.538890     1.531246     1.523603     1.515960     1.508317     1.500674     1.493031     1.485388
      1.477745     1.470102     1.462458     1.454815     1.447172     1.439529     1.431886     1.424243     1.416600     1.408957
      1.401314     1.393671     1.386027     1.378384     1.370741     1.363098     1.355455     1.347812     1.340169     1.332526
      1.324883     1.317240     1.309596     1.301953     1.294310     1.286667     1.279024     1.271381     1.263738     1.256095
      1.248452     1.240808     1.233165     1.225522     1.217879     1.210236     1.202593     1.194950     1.187307     1.179664
      1.172021     1.164377     1.156734     1.149091     1.141448     1.133805     1.126162     1.118519     1.110876     1.103233
      1.095590     1.087946     1.080303     1.072660     1.065017     1.057374     1.049731     1.042088     1.034445     1.026802
      1.019158     1.011515     1.003872     0.996229     0.988586     0.980943     0.973300     0.965657     0.958014     0.950371
      0.942727     0.935084     0.927441     0.919798     0.912155     0.904512     0.896869     0.889226     0.881583     0.873940
      0.866296     0.858653     0.851010     0.843367     0.835724     0.828081     0.820438     0.812795     0.805152     0.797508
      0.789865     0.782222     0.774579     0.766936     0.759293     0.751650     0.744007     0.736364     0.728721     0.721077
      0.713434     0.705791     0.698148     0.690505     0.682862     0.675219     0.667576     0.659933     0.652290     0.644646
      0.637003     0.629360     0.621717     0.614074     0.606431     0.598788     0.591145     0.583502     0.575858     0.568215
      0.560572     0.552929     0.545286     0.537643     0.530000     0.522357     0.514714     0.507071     0.499427     0.491784
      0.484141     0.476498     0.468855     0.461212     0.453569     0.445925     0.438282     0.430639     0.422996     0.415353
      0.407710     0.400067     0.392424     0.384780     0.377137     0.369494     0.361851     0.354208     0.346565     0.338922
      0.331278     0.323635     0.315992     0.308349     0.300706     0.293063     0.285420     0.277777     0.270133     0.262490
      0.254847     0.247204     0.239561     0.231918     0.224275     0.216631     0.208988     0.201345
 NY phased data points follow
   1.87119E+00  1.37074E+00 -2.86890E-01  6.94094E-01  2.62415E-01  1.79555E+00  2.30350E+00  1.77578E+00  3.08765E+00  3.48241E+00
   2.89954E+00  1.76294E+00  1.60927E+00  2.86240E+00  1.68530E+00  1.97586E+00  2.85931E+00  1.08444E+00  1.68336E+00  3.51872E+00
   3.01741E+00  6.94978E-01  3.51973E+00  2.92366E+00  3.47008E+00  1.71062E+00  2.20009E+00  2.71087E+00  1.48299E+00  1.20285E+00
   1.12114E+00  3.43032E+00  6.22021E-01  2.68086E+00  1.38692E+00  3.50944E+00  1.06308E+00  2.48942E+00  4.49992E+00  2.88322E+00
   3.15962E+00  2.92907E+00  2.29713E+00  2.38311E-01  2.38712E+00  3.42652E+00  3.75730E+00  1.78401E+00  6.96409E-01  2.43149E+00
   4.84910E-01  3.08698E+00  1.64838E+00  1.06480E-01  2.32742E+00  2.63052E+00 -5.40662E-01  1.80705E+00  2.35849E+00  2.15778E+00
   2.11760E+00  1.98714E+00  5.63159E-01  1.86741E+00  1.55767E+00  1.69352E+00  1.27827E+00  9.79836E-01  2.09959E+00  1.80391E+00
   2.02324E+00  3.03046E+00  1.16370E+00  1.99236E+00  1.09922E+00  2.03044E+00  2.25561E+00  2.28796E+00  2.50422E+00  2.20210E+00
   5.43716E-01  2.53757E+00  3.36521E+00  4.57631E-01  5.91633E-01  1.45109E+00  1.89995E+00  6.22123E-02 -5.51768E-02  2.03464E+00
   7.28242E-01 -1.15406E+00  1.43427E+00  1.40130E+00  1.62320E+00  2.52030E+00  2.43346E+00  1.67037E+00  2.96524E+00 -5.32993E-01
   1.53299E+00 -3.13365E-01  8.71183E-03  2.77026E+00  2.64801E+00  1.78152E+00  3.33218E+00  3.85128E+00  1.38366E+00  1.51351E-01
   1.25401E+00  1.78628E+00  2.37891E+00  3.18225E+00  1.84465E+00  2.12346E+00  1.08159E+00  2.04083E+00  1.19562E+00  5.59024E-02
   8.03883E-01  4.35548E+00  2.85848E+00  1.33268E+00  1.22341E+00  1.94511E+00  2.72851E+00  2.99409E+00  3.66659E+00  3.33733E+00
   2.49568E+00  2.77138E+00  3.93918E+00  1.92153E+00  3.24782E+00  2.27804E+00  2.84409E-01  2.03224E+00  1.54062E+00  1.19677E+00
   2.79024E+00  3.18878E-01  1.65729E+00  3.04627E-01  3.00834E+00  2.85853E-01  1.31095E+00  1.45974E+00  7.96316E-01  8.93000E-01
   2.27885E+00  1.48585E+00  3.73537E+00  2.08005E+00  1.91883E+00  3.43502E+00  8.97132E-01  3.94948E+00  1.89987E+00  9.61178E-01
   1.29438E+00  1.67112E+00  1.81086E+00  1.62198E+00  1.94604E+00  2.02813E+00  2.61027E+00  2.99526E+00  6.13899E-01  2.21184E+00
   2.23072E+00  1.10174E+00  9.26960E-01  1.43326E+00  2.41616E+00  1.34539E+00  1.61954E+00  9.32925E-01  2.57528E+00  1.30271E+00
   1.73629E+00  2.24699E+00  1.58964E+00 -7.80038E-01  2.40422E+00  3.25356E+00  9.24334E-01  1.98716E-01 -2.46925E-01  7.00666E-01
   1.96477E+00  1.33761E+00  1.37772E+00 -6.73360E-01  3.04653E-01  1.93547E+00  4.05952E-01  6.06727E-01  2.43431E-01  1.61544E+00
   1.37019E+00  2.10852E+00  9.19315E-01  6.83179E-01  1.04240E+00  2.61128E+00  1.49919E+00  2.80014E+00  1.43550E+00  1.72548E+00
   2.26066E-01  1.47370E+00  2.91034E+00 -2.23340E-02  1.98556E+00  2.04945E+00  5.97296E-01  2.19326E+00  2.70417E+00  1.47806E+00
   3.82073E-01  1.81529E+00  3.50983E-01 -1.96791E-01  6.41291E-01  2.68174E-01  9.41480E-01  6.70042E-01  2.43656E+00  1.46952E+00
   1.60222E+00  2.87349E+00  1.58186E+00  3.11341E+00  1.57402E+00  2.61804E+00  9.89360E-01  6.79946E-01  3.34064E+00  1.78257E+00
   3.16648E+00  1.81207E+00  2.27148E+00  1.73532E+00  1.46253E+00  7.66489E-01  5.75732E-01  2.42288E+00  2.21319E+00  1.84708E+00
   3.61550E-01  2.43270E+00  1.01763E+00  1.19345E+00  4.43755E-01  1.18006E+00 -4.35760E-01 -1.21500E-01  8.09859E-01  9.86297E-01
   2.16776E+00  2.71135E+00  5.01907E+00  3.63232E+00  2.94644E+00  3.35696E+00 -7.36978E-03  2.96413E+00  4.83579E+00  3.43091E+00
   2.56765E+00  1.86038E+00  3.58161E+00  2.97298E+00  4.57179E+00  1.65486E+00  3.08217E+00  2.88279E+00  1.70770E+00  7.07886E-01
   6.56368E-01 -6.86894E-01  1.87621E+00 -4.25037E-02  1.80087E+00  2.15027E+00  3.31354E+00  1.30752E+00  2.27876E+00  3.98659E+00
   7.92823E-01  2.16018E+00  1.37942E+00  2.63842E+00  1.76612E-01  2.01800E+00  5.98496E-01  2.72960E+00  4.09100E+00  1.90391E+00
   3.24735E+00  2.02645E+00  5.07329E+00  1.48580E+00  3.15585E+00  4.37009E+00  3.57011E+00  5.85830E+00  7.12322E+00  2.40448E+00
   2.17494E+00  2.32390E+00  2.44739E+00  5.91566E+00  2.54037E+00  2.42338E+00  4.45730E+00  4.84904E+00  5.42377E+00  2.62951E+00
   3.94105E+00  6.22161E+00  3.83525E+00  4.22849E+00  5.40629E+00  5.29273E+00  6.40369E+00  5.88417E+00  6.63169E+00  5.60324E+00
   4.94489E+00  5.87565E+00  7.65197E+00  7.65920E+00  7.34222E+00  6.20897E+00  6.00549E+00  6.51096E+00  6.83364E+00  6.11149E+00
   5.23951E+00  5.26840E+00  4.72416E+00  4.99409E+00  5.01964E+00  4.02070E+00  4.77768E+00  5.27680E+00  3.61316E+00  5.10481E+00
   2.71063E+00  4.13056E+00  4.08398E+00  5.21818E+00  5.18614E+00  5.16203E+00  4.38542E+00  5.16846E+00  3.89518E+00  6.14636E+00
   4.05360E+00  1.70955E+00  4.36897E+00  3.77911E+00  3.81809E+00  4.41460E+00  5.03980E+00  6.12587E+00  3.23767E+00  3.88162E+00
   1.84769E+00  1.29444E+00  2.83698E+00  1.52675E+00  2.05272E+00  2.02506E+00  3.77163E+00  3.31699E+00  2.89290E+00  2.73609E+00
   4.61524E+00  2.75508E+00  4.90784E+00  4.32977E+00  3.14573E+00 -9.96751E-01  3.18426E+00  1.97361E+00  1.60838E+00  2.18754E+00
   2.61246E+00  1.84573E+00  2.52102E+00  1.62078E+00  1.72130E+00  3.00608E+00  4.16085E+00  3.52457E+00  3.70372E+00  2.51686E+00
   2.97377E+00  4.89596E+00  1.52988E+00  3.08401E+00  1.36818E+00  1.13891E+00  1.14579E+00  2.29636E+00  3.44449E+00  2.41495E+00
   1.14731E+00  4.44560E+00  1.77373E+00  3.16731E+00  2.13720E+00  4.10465E+00  1.55085E+00  2.98586E+00  1.17953E+00  5.27597E-01
   2.71604E+00  1.25333E-02  3.19596E+00  2.65113E-01  1.78420E+00  1.72456E+00  1.48252E+00  3.67910E+00  2.66709E+00  1.50079E+00
   2.85518E+00  1.78611E+00  1.03748E+00  1.73806E+00  2.45803E+00  2.72695E+00  3.28633E+00  2.34204E+00  1.49322E+00  1.63497E+00
   3.72677E+00  3.46338E+00  1.40415E+00  1.67323E+00  2.62109E+00  1.94568E+00  2.79275E+00  1.32221E+00  1.99084E+00 -1.11724E+00
   2.69187E-02  1.11639E+00  1.09708E+00  2.01748E+00  1.69521E+00  1.75953E+00  1.70380E+00  3.03477E-01  2.55960E+00  1.18838E+00
   1.00141E+00  9.69894E-01  1.41430E+00  1.23953E+00  1.49334E+00  1.36062E+00  1.72437E+00  1.55262E+00  2.01200E+00  2.69079E+00
  -2.90498E-01  2.14760E+00  1.15483E+00  3.70954E+00  5.47147E-01  2.24574E-01  8.85250E-01  4.85373E-01  8.81446E-01  2.54419E-01
   1.29375E+00  9.69489E-01  1.91517E+00  1.60438E+00  1.83930E+00  1.98378E+00  7.65054E-01  2.50195E+00  2.88430E+00  3.94458E+00
   2.31832E+00  4.03834E-01  5.57519E-01  2.18367E+00  1.34088E+00  3.25949E+00  2.12023E+00  1.82262E+00
 NY points of the fit to the data follow
   1.53240E+00  1.42869E+00  1.38142E+00  1.40603E+00  1.45299E+00  1.51543E+00  1.64092E+00  1.83941E+00  2.04534E+00  2.21281E+00
   2.32391E+00  2.38191E+00  2.39220E+00  2.34482E+00  2.22091E+00  2.00972E+00  1.73562E+00  1.48558E+00  1.37493E+00  1.39341E+00
   1.43456E+00  1.47835E+00  1.52692E+00  1.56387E+00  1.58945E+00  1.62981E+00  1.68248E+00  1.74232E+00  1.81697E+00  1.90625E+00
   2.00089E+00  2.07819E+00  2.13950E+00  2.18366E+00  2.16632E+00  2.05520E+00  1.89992E+00  1.75902E+00  1.62126E+00  1.50023E+00
   1.44440E+00  1.49759E+00  1.70919E+00  2.06364E+00  2.47277E+00  2.80507E+00  2.96751E+00  2.98473E+00  2.90098E+00  2.71466E+00
   2.40917E+00  1.98259E+00  1.49028E+00  1.08702E+00  9.66683E-01  1.13550E+00  1.42050E+00  1.68445E+00  1.87748E+00  1.99109E+00
   2.02679E+00  1.99504E+00  1.91694E+00  1.80473E+00  1.66296E+00  1.51878E+00  1.44271E+00  1.47247E+00  1.58231E+00  1.72523E+00
   1.84489E+00  1.91660E+00  1.93343E+00  1.90376E+00  1.84772E+00  1.77337E+00  1.68801E+00  1.59652E+00  1.52381E+00  1.48848E+00
   1.46558E+00  1.43333E+00  1.37134E+00  1.27557E+00  1.15668E+00  1.03846E+00  9.41624E-01  8.76967E-01  8.52489E-01  8.77430E-01
   9.56792E-01  1.09831E+00  1.28431E+00  1.46205E+00  1.57405E+00  1.60757E+00  1.58522E+00  1.55315E+00  1.56255E+00  1.60300E+00
   1.65100E+00  1.70330E+00  1.76011E+00  1.82889E+00  1.88024E+00  1.87680E+00  1.80300E+00  1.66341E+00  1.49469E+00  1.37258E+00
   1.35665E+00  1.38585E+00  1.41569E+00  1.44462E+00  1.46938E+00  1.49064E+00  1.50968E+00  1.53002E+00  1.55562E+00  1.59203E+00
   1.64788E+00  1.74574E+00  1.94947E+00  2.25027E+00  2.54874E+00  2.78343E+00  2.93181E+00  2.99875E+00  2.98977E+00  2.88674E+00
   2.65784E+00  2.29448E+00  1.84806E+00  1.45775E+00  1.28868E+00  1.29150E+00  1.31814E+00  1.34544E+00  1.37466E+00  1.41276E+00
   1.46625E+00  1.52804E+00  1.58023E+00  1.61494E+00  1.63066E+00  1.62955E+00  1.62110E+00  1.61338E+00  1.61113E+00  1.61498E+00
   1.61961E+00  1.62437E+00  1.62958E+00  1.63508E+00  1.64006E+00  1.64463E+00  1.64960E+00  1.65431E+00  1.65819E+00  1.66075E+00
   1.66134E+00  1.65972E+00  1.65700E+00  1.65507E+00  1.65424E+00  1.65376E+00  1.65298E+00  1.65183E+00  1.65102E+00  1.65044E+00
   1.64922E+00  1.64648E+00  1.64207E+00  1.63675E+00  1.63168E+00  1.62688E+00  1.62215E+00  1.61771E+00  1.61410E+00  1.61222E+00
   1.61142E+00  1.61141E+00  1.61244E+00  1.61532E+00  1.62194E+00  1.63464E+00  1.65401E+00  1.67793E+00  1.70215E+00  1.72363E+00
   1.74096E+00  1.75194E+00  1.75117E+00  1.73868E+00  1.72242E+00  1.70850E+00  1.70258E+00  1.71018E+00  1.73343E+00  1.77056E+00
   1.81731E+00  1.87004E+00  1.91882E+00  1.94747E+00  1.95206E+00  1.92888E+00  1.89173E+00  1.85148E+00  1.81729E+00  1.80542E+00
   1.83371E+00  1.92882E+00  2.08465E+00  2.24702E+00  2.37363E+00  2.44024E+00  2.43737E+00  2.32146E+00  2.08110E+00  1.76558E+00
   1.45198E+00  1.20712E+00  1.09710E+00  1.17476E+00  1.39883E+00  1.68376E+00  1.99755E+00  2.29925E+00  2.52941E+00  2.62180E+00
   2.57723E+00  2.48588E+00  2.42006E+00  2.37795E+00  2.35363E+00  2.34432E+00  2.33700E+00  2.32343E+00  2.28404E+00  2.22315E+00
   2.16979E+00  2.14025E+00  2.13653E+00  2.16608E+00  2.23377E+00  2.32127E+00  2.39937E+00  2.44738E+00  2.46075E+00  2.44760E+00
   2.40398E+00  2.35300E+00  2.32263E+00  2.31285E+00  2.31351E+00  2.33784E+00  2.38573E+00  2.43032E+00  2.44934E+00  2.44808E+00
   2.44702E+00  2.45128E+00  2.46343E+00  2.47973E+00  2.48654E+00  2.46338E+00  2.41034E+00  2.34909E+00  2.29543E+00  2.25722E+00
   2.23874E+00  2.24181E+00  2.25600E+00  2.26779E+00  2.28460E+00  2.30512E+00  2.32305E+00  2.33438E+00  2.33624E+00  2.32716E+00
   2.31421E+00  2.30651E+00  2.30628E+00  2.31173E+00  2.32177E+00  2.33596E+00  2.35316E+00  2.37084E+00  2.38678E+00  2.40219E+00
   2.41808E+00  2.43478E+00  2.45272E+00  2.47219E+00  2.49313E+00  2.51525E+00  2.53838E+00  2.56277E+00  2.58847E+00  2.61539E+00
   2.64360E+00  2.67314E+00  2.70411E+00  2.73664E+00  2.77085E+00  2.80688E+00  2.84483E+00  2.88485E+00  2.92710E+00  2.97180E+00
   3.01927E+00  3.06980E+00  3.12350E+00  3.18051E+00  3.24098E+00  3.30502E+00  3.37271E+00  3.44407E+00  3.51908E+00  3.59770E+00
   3.67980E+00  3.76517E+00  3.85355E+00  3.94461E+00  4.03800E+00  4.13333E+00  4.23019E+00  4.32811E+00  4.42663E+00  4.52531E+00
   4.62379E+00  4.72175E+00  4.81893E+00  4.91514E+00  5.01031E+00  5.10460E+00  5.19846E+00  5.29279E+00  5.38927E+00  5.49116E+00
   5.60562E+00  5.74835E+00  5.90833E+00  5.99198E+00  5.96160E+00  5.82934E+00  5.62209E+00  5.35927E+00  5.04552E+00  4.72622E+00
   4.49307E+00  4.37910E+00  4.42096E+00  4.64515E+00  4.97101E+00  5.22384E+00  5.37765E+00  5.43176E+00  5.35462E+00  5.11603E+00
   4.74426E+00  4.37686E+00  4.13018E+00  3.94627E+00  3.78655E+00  3.64073E+00  3.50546E+00  3.37951E+00  3.26244E+00  3.15414E+00
   3.05463E+00  2.96397E+00  2.88223E+00  2.80938E+00  2.74531E+00  2.68984E+00  2.64275E+00  2.60380E+00  2.57271E+00  2.54918E+00
   2.53284E+00  2.52333E+00  2.52025E+00  2.52323E+00  2.53188E+00  2.54576E+00  2.56439E+00  2.58725E+00  2.61380E+00  2.64346E+00
   2.67559E+00  2.70947E+00  2.74432E+00  2.77930E+00  2.81354E+00  2.84615E+00  2.87620E+00  2.90274E+00  2.92486E+00  2.94170E+00
   2.95249E+00  2.95658E+00  2.95343E+00  2.94265E+00  2.92403E+00  2.89755E+00  2.86339E+00  2.82191E+00  2.77362E+00  2.71919E+00
   2.65942E+00  2.59523E+00  2.52760E+00  2.45752E+00  2.38600E+00  2.31400E+00  2.24243E+00  2.17215E+00  2.10389E+00  2.03827E+00
   1.97581E+00  1.91688E+00  1.86179E+00  1.81071E+00  1.76372E+00  1.72082E+00  1.68193E+00  1.64692E+00  1.61561E+00  1.58781E+00
   1.56328E+00  1.54177E+00  1.52304E+00  1.50684E+00  1.49294E+00  1.48112E+00  1.47117E+00  1.46287E+00  1.45605E+00  1.45056E+00
   1.44623E+00  1.44295E+00  1.44058E+00  1.43901E+00  1.43815E+00  1.43791E+00  1.43824E+00  1.43906E+00  1.44030E+00  1.44192E+00
   1.44387E+00  1.44611E+00  1.44862E+00  1.45136E+00  1.45429E+00  1.45740E+00  1.46066E+00  1.46406E+00  1.46758E+00  1.47121E+00
   1.47493E+00  1.47872E+00  1.48258E+00  1.48652E+00  1.49050E+00  1.49453E+00  1.49859E+00  1.50268E+00  1.50681E+00  1.51097E+00
   1.51514E+00  1.51933E+00  1.52353E+00  1.52774E+00  1.53197E+00  1.53621E+00  1.54044E+00  1.54468E+00  1.54892E+00  1.55317E+00
   1.55742E+00  1.56167E+00  1.56591E+00  1.57016E+00  1.57440E+00  1.57865E+00  1.58291E+00  1.58716E+00  1.59141E+00  1.59567E+00
   1.59993E+00  1.60420E+00  1.60849E+00  1.61278E+00  1.61708E+00  1.62140E+00  1.62575E+00  1.63012E+00
 NY background values follow
     9.487E-01    9.509E-01    9.530E-01    9.551E-01    9.572E-01    9.593E-01    9.614E-01    9.635E-01    9.657E-01    9.678E-01
     9.699E-01    9.720E-01    9.741E-01    9.762E-01    9.783E-01    9.804E-01    9.825E-01    9.846E-01    9.867E-01    9.888E-01
     9.909E-01    9.931E-01    9.952E-01    9.973E-01    9.994E-01    1.001E+00    1.004E+00    1.006E+00    1.008E+00    1.010E+00
     1.012E+00    1.014E+00    1.016E+00    1.018E+00    1.020E+00    1.022E+00    1.025E+00    1.027E+00    1.029E+00    1.031E+00
     1.033E+00    1.035E+00    1.037E+00    1.039E+00    1.041E+00    1.043E+00    1.045E+00    1.048E+00    1.050E+00    1.052E+00
     1.054E+00    1.056E+00    1.058E+00    1.060E+00    1.062E+00    1.064E+00    1.066E+00    1.068E+00    1.070E+00    1.073E+00
     1.075E+00    1.077E+00    1.079E+00    1.081E+00    1.083E+00    1.085E+00    1.087E+00    1.089E+00    1.091E+00    1.093E+00
     1.095E+00    1.097E+00    1.100E+00    1.102E+00    1.104E+00    1.106E+00    1.108E+00    1.110E+00    1.112E+00    1.114E+00
     1.116E+00    1.118E+00    1.120E+00    1.122E+00    1.124E+00    1.126E+00    1.128E+00    1.131E+00    1.133E+00    1.135E+00
     1.137E+00    1.139E+00    1.141E+00    1.143E+00    1.145E+00    1.147E+00    1.149E+00    1.151E+00    1.153E+00    1.155E+00
     1.157E+00    1.159E+00    1.161E+00    1.163E+00    1.166E+00    1.168E+00    1.170E+00    1.172E+00    1.174E+00    1.176E+00
     1.178E+00    1.180E+00    1.182E+00    1.184E+00    1.186E+00    1.188E+00    1.190E+00    1.192E+00    1.194E+00    1.196E+00
     1.198E+00    1.200E+00    1.202E+00    1.204E+00    1.206E+00    1.208E+00    1.211E+00    1.213E+00    1.215E+00    1.217E+00
     1.219E+00    1.221E+00    1.223E+00    1.225E+00    1.227E+00    1.229E+00    1.231E+00    1.233E+00    1.235E+00    1.237E+00
     1.239E+00    1.241E+00    1.243E+00    1.245E+00    1.247E+00    1.249E+00    1.251E+00    1.253E+00    1.255E+00    1.257E+00
     1.259E+00    1.261E+00    1.263E+00    1.265E+00    1.267E+00    1.269E+00    1.271E+00    1.273E+00    1.275E+00    1.277E+00
     1.279E+00    1.281E+00    1.283E+00    1.285E+00    1.287E+00    1.289E+00    1.291E+00    1.294E+00    1.296E+00    1.298E+00
     1.300E+00    1.302E+00    1.304E+00    1.306E+00    1.308E+00    1.310E+00    1.312E+00    1.314E+00    1.316E+00    1.318E+00
     1.320E+00    1.322E+00    1.324E+00    1.326E+00    1.328E+00    1.330E+00    1.332E+00    1.334E+00    1.336E+00    1.338E+00
     1.340E+00    1.342E+00    1.344E+00    1.346E+00    1.348E+00    1.350E+00    1.352E+00    1.354E+00    1.356E+00    1.358E+00
     1.360E+00    1.361E+00    1.363E+00    1.365E+00    1.367E+00    1.369E+00    1.371E+00    1.373E+00    1.375E+00    1.377E+00
     1.379E+00    1.381E+00    1.383E+00    1.385E+00    1.387E+00    1.389E+00    1.391E+00    1.393E+00    1.395E+00    1.397E+00
     1.399E+00    1.401E+00    1.403E+00    1.405E+00    1.407E+00    1.409E+00    1.411E+00    1.413E+00    1.415E+00    1.417E+00
     1.419E+00    1.421E+00    1.423E+00    1.425E+00    1.427E+00    1.429E+00    1.431E+00    1.433E+00    1.435E+00    1.437E+00
     1.439E+00    1.440E+00    1.442E+00    1.444E+00    1.446E+00    1.448E+00    1.450E+00    1.452E+00    1.454E+00    1.456E+00
     1.458E+00    1.460E+00    1.462E+00    1.464E+00    1.466E+00    1.468E+00    1.470E+00    1.472E+00    1.474E+00    1.476E+00
     1.478E+00    1.480E+00    1.482E+00    1.483E+00    1.485E+00    1.487E+00    1.489E+00    1.491E+00    1.493E+00    1.495E+00
     1.497E+00    1.499E+00    1.501E+00    1.503E+00    1.505E+00    1.507E+00    1.509E+00    1.511E+00    1.513E+00    1.515E+00
     1.516E+00    1.518E+00    1.520E+00    1.522E+00    1.524E+00    1.526E+00    1.528E+00    1.530E+00    1.532E+00    1.534E+00
     1.536E+00    1.538E+00    1.540E+00    1.542E+00    1.543E+00    1.545E+00    1.547E+00    1.549E+00    1.551E+00    1.553E+00
     1.555E+00    1.557E+00    1.559E+00    1.561E+00    1.563E+00    1.565E+00    1.567E+00    1.568E+00    1.570E+00    1.572E+00
     1.574E+00    1.576E+00    1.578E+00    1.580E+00    1.582E+00    1.584E+00    1.586E+00    1.588E+00    1.589E+00    1.591E+00
     1.593E+00    1.595E+00    1.597E+00    1.599E+00    1.601E+00    1.603E+00    1.605E+00    1.607E+00    1.608E+00    1.610E+00
     1.612E+00    1.614E+00    1.616E+00    1.618E+00    1.620E+00    1.622E+00    1.624E+00    1.626E+00    1.627E+00    1.629E+00
     1.631E+00    1.633E+00    1.635E+00    1.637E+00    1.639E+00    1.641E+00    1.643E+00    1.644E+00    1.646E+00    1.648E+00
     1.650E+00    1.652E+00    1.654E+00    1.656E+00    1.658E+00    1.659E+00    1.661E+00    1.663E+00    1.665E+00    1.667E+00
     1.669E+00    1.671E+00    1.673E+00    1.674E+00    1.676E+00    1.678E+00    1.680E+00    1.682E+00    1.684E+00    1.686E+00
     1.688E+00    1.689E+00    1.691E+00    1.693E+00    1.695E+00    1.697E+00    1.699E+00    1.701E+00    1.702E+00    1.704E+00
     1.706E+00    1.708E+00    1.710E+00    1.712E+00    1.714E+00    1.715E+00    1.717E+00    1.719E+00    1.721E+00    1.723E+00
     1.725E+00    1.727E+00    1.728E+00    1.730E+00    1.732E+00    1.734E+00    1.736E+00    1.738E+00    1.740E+00    1.741E+00
     1.743E+00    1.745E+00    1.747E+00    1.749E+00    1.751E+00    1.752E+00    1.754E+00    1.756E+00    1.758E+00    1.760E+00
     1.762E+00    1.763E+00    1.765E+00    1.767E+00    1.769E+00    1.771E+00    1.773E+00    1.774E+00    1.776E+00    1.778E+00
     1.780E+00    1.782E+00    1.784E+00    1.785E+00    1.787E+00    1.789E+00    1.791E+00    1.793E+00    1.795E+00    1.796E+00
     1.798E+00    1.800E+00    1.802E+00    1.804E+00    1.805E+00    1.807E+00    1.809E+00    1.811E+00    1.813E+00    1.814E+00
     1.816E+00    1.818E+00    1.820E+00    1.822E+00    1.824E+00    1.825E+00    1.827E+00    1.829E+00    1.831E+00    1.833E+00
     1.834E+00    1.836E+00    1.838E+00    1.840E+00    1.842E+00    1.843E+00    1.845E+00    1.847E+00    1.849E+00    1.851E+00
     1.852E+00    1.854E+00    1.856E+00    1.858E+00    1.860E+00    1.861E+00    1.863E+00    1.865E+00    1.867E+00    1.868E+00
     1.870E+00    1.872E+00    1.874E+00    1.876E+00    1.877E+00    1.879E+00    1.881E+00    1.883E+00    1.885E+00    1.886E+00
     1.888E+00    1.890E+00    1.892E+00    1.893E+00    1.895E+00    1.897E+00    1.899E+00    1.901E+00    1.902E+00    1.904E+00
     1.906E+00    1.908E+00    1.909E+00    1.911E+00    1.913E+00    1.915E+00    1.916E+00    1.918E+00
 Asp      Conc. = 3.20E+00
