 LCModel (Version 6.3-1L) Copyright: S.W. Provencher.          Ref.: Magn. Reson. Med. 30:672-679 (1993).                
 Slice#3 Row#10 Col#1  K_02_press_1_raw_act
 36 lines in following concentration table = NCONC+1
    Conc.  %SD /Cr+PCr  Metabolite                                         
   22.659 132%   0.543 Ala                                                 
    6.246  82%   0.150 Asp                                                 
    0.000 999%   0.000 Cr                                                  
   41.725  39%   1.000 PCr                                                 
    3.926  78% 9.4E-02 GABA                                                
    3.893  79% 9.3E-02 Glc                                                 
    0.000 999%   0.000 Gln                                                 
    0.000 999%   0.000 Glu                                                 
    2.235 945% 5.4E-02 GPC                                                 
   18.880 111%   0.452 PCh                                                 
    0.000 999%   0.000 GSH                                                 
    8.427 896%   0.202 Ins                                                 
    0.000 999%   0.000 Lac                                                 
   27.163  64%   0.651 NAA                                                 
    0.000 999%   0.000 NAAG                                                
    1.348  76% 3.2E-02 Scyllo                                              
    6.638  77%   0.159 Tau                                                 
    2.866 187% 6.9E-02 -CrCH2                                              
   21.115  30%   0.506 GPC+PCh                                             
   27.163  64%   0.651 NAA+NAAG                                            
   41.725  39%   1.000 Cr+PCr                                              
    0.000 999%   0.000 Glu+Gln                                             
    0.000 999%   0.000 Lip13a                                              
  155.895  36%   3.736 Lip13b                                              
   35.994 137%   0.863 Lip09                                               
   15.545 247%   0.373 MM09                                                
   33.579 115%   0.805 Lip20                                               
    0.000 999%   0.000 MM20                                                
    5.511 401%   0.132 MM12                                                
    0.000 999%   0.000 MM14                                                
   37.800 132%   0.906 MM17                                                
  155.895  36%   3.736 Lip13a+Lip13b                                       
  161.406  36%   3.868 MM14+Lip13a+Lip13b+MM12                             
   51.539 103%   1.235 MM09+Lip09                                          
   33.579 115%   0.805 MM20+Lip20                                          
   6 lines in following misc. output table
  FWHM = 0.046 ppm    S/N =   1                                            
  Data shift = 0.008 ppm                                                   
  Ph:  84 deg      14.5 deg/ppm                                            
  alphaB,S = 5.6E-01,   2.4E+01                                            
   14 spline knots.   Ns = 5(1)                                            
  ( 9) 2 infls.   ( 3) 1 extrs.                                            
  498 points on ppm-axis = NY
      4.000000     3.992357     3.984714     3.977070     3.969427     3.961784     3.954141     3.946497     3.938854     3.931211
      3.923568     3.915925     3.908281     3.900638     3.892995     3.885352     3.877708     3.870065     3.862422     3.854779
      3.847136     3.839492     3.831849     3.824206     3.816563     3.808919     3.801276     3.793633     3.785990     3.778347
      3.770703     3.763060     3.755417     3.747774     3.740130     3.732487     3.724844     3.717201     3.709558     3.701914
      3.694271     3.686628     3.678985     3.671341     3.663698     3.656055     3.648412     3.640769     3.633125     3.625482
      3.617839     3.610196     3.602552     3.594909     3.587266     3.579623     3.571980     3.564336     3.556693     3.549050
      3.541407     3.533763     3.526120     3.518477     3.510834     3.503191     3.495547     3.487904     3.480261     3.472618
      3.464974     3.457331     3.449688     3.442045     3.434402     3.426758     3.419115     3.411472     3.403829     3.396185
      3.388542     3.380899     3.373256     3.365613     3.357969     3.350326     3.342683     3.335040     3.327396     3.319753
      3.312110     3.304467     3.296824     3.289180     3.281537     3.273894     3.266251     3.258607     3.250964     3.243321
      3.235678     3.228034     3.220391     3.212748     3.205105     3.197462     3.189818     3.182175     3.174532     3.166889
      3.159245     3.151602     3.143959     3.136316     3.128673     3.121029     3.113386     3.105743     3.098100     3.090456
      3.082813     3.075170     3.067527     3.059884     3.052240     3.044597     3.036954     3.029311     3.021667     3.014024
      3.006381     2.998738     2.991095     2.983451     2.975808     2.968165     2.960522     2.952878     2.945235     2.937592
      2.929949     2.922306     2.914662     2.907019     2.899376     2.891733     2.884089     2.876446     2.868803     2.861160
      2.853517     2.845873     2.838230     2.830587     2.822944     2.815300     2.807657     2.800014     2.792371     2.784728
      2.777084     2.769441     2.761798     2.754155     2.746511     2.738868     2.731225     2.723582     2.715939     2.708295
      2.700652     2.693009     2.685366     2.677722     2.670079     2.662436     2.654793     2.647150     2.639506     2.631863
      2.624220     2.616577     2.608933     2.601290     2.593647     2.586004     2.578361     2.570717     2.563074     2.555431
      2.547788     2.540144     2.532501     2.524858     2.517215     2.509572     2.501928     2.494285     2.486642     2.478999
      2.471355     2.463712     2.456069     2.448426     2.440783     2.433139     2.425496     2.417853     2.410210     2.402566
      2.394923     2.387280     2.379637     2.371994     2.364350     2.356707     2.349064     2.341421     2.333777     2.326134
      2.318491     2.310848     2.303205     2.295561     2.287918     2.280275     2.272632     2.264988     2.257345     2.249702
      2.242059     2.234416     2.226772     2.219129     2.211486     2.203843     2.196199     2.188556     2.180913     2.173270
      2.165627     2.157983     2.150340     2.142697     2.135054     2.127410     2.119767     2.112124     2.104481     2.096838
      2.089194     2.081551     2.073908     2.066265     2.058621     2.050978     2.043335     2.035692     2.028049     2.020405
      2.012762     2.005119     1.997476     1.989833     1.982190     1.974546     1.966903     1.959260     1.951617     1.943974
      1.936331     1.928688     1.921045     1.913402     1.905759     1.898115     1.890472     1.882829     1.875186     1.867543
      1.859900     1.852257     1.844614     1.836971     1.829327     1.821684     1.814041     1.806398     1.798755     1.791112
      1.783469     1.775826     1.768183     1.760540     1.752896     1.745253     1.737610     1.729967     1.722324     1.714681
      1.707038     1.699395     1.691752     1.684108     1.676465     1.668822     1.661179     1.653536     1.645893     1.638250
      1.630607     1.622964     1.615321     1.607677     1.600034     1.592391     1.584748     1.577105     1.569462     1.561819
      1.554176     1.546533     1.538890     1.531246     1.523603     1.515960     1.508317     1.500674     1.493031     1.485388
      1.477745     1.470102     1.462458     1.454815     1.447172     1.439529     1.431886     1.424243     1.416600     1.408957
      1.401314     1.393671     1.386027     1.378384     1.370741     1.363098     1.355455     1.347812     1.340169     1.332526
      1.324883     1.317240     1.309596     1.301953     1.294310     1.286667     1.279024     1.271381     1.263738     1.256095
      1.248452     1.240808     1.233165     1.225522     1.217879     1.210236     1.202593     1.194950     1.187307     1.179664
      1.172021     1.164377     1.156734     1.149091     1.141448     1.133805     1.126162     1.118519     1.110876     1.103233
      1.095590     1.087946     1.080303     1.072660     1.065017     1.057374     1.049731     1.042088     1.034445     1.026802
      1.019158     1.011515     1.003872     0.996229     0.988586     0.980943     0.973300     0.965657     0.958014     0.950371
      0.942727     0.935084     0.927441     0.919798     0.912155     0.904512     0.896869     0.889226     0.881583     0.873940
      0.866296     0.858653     0.851010     0.843367     0.835724     0.828081     0.820438     0.812795     0.805152     0.797508
      0.789865     0.782222     0.774579     0.766936     0.759293     0.751650     0.744007     0.736364     0.728721     0.721077
      0.713434     0.705791     0.698148     0.690505     0.682862     0.675219     0.667576     0.659933     0.652290     0.644646
      0.637003     0.629360     0.621717     0.614074     0.606431     0.598788     0.591145     0.583502     0.575858     0.568215
      0.560572     0.552929     0.545286     0.537643     0.530000     0.522357     0.514714     0.507071     0.499427     0.491784
      0.484141     0.476498     0.468855     0.461212     0.453569     0.445925     0.438282     0.430639     0.422996     0.415353
      0.407710     0.400067     0.392424     0.384780     0.377137     0.369494     0.361851     0.354208     0.346565     0.338922
      0.331278     0.323635     0.315992     0.308349     0.300706     0.293063     0.285420     0.277777     0.270133     0.262490
      0.254847     0.247204     0.239561     0.231918     0.224275     0.216631     0.208988     0.201345
 NY phased data points follow
   1.18970E+02  1.15481E+02  1.15220E+02  1.16114E+02  1.13810E+02  1.11871E+02  1.08373E+02  1.10186E+02  1.05906E+02  1.06442E+02
   1.05096E+02  1.06095E+02  1.03193E+02  1.01868E+02  9.94630E+01  9.96955E+01  9.94800E+01  9.72665E+01  9.52937E+01  9.48210E+01
   9.37662E+01  9.17772E+01  9.32984E+01  9.21634E+01  9.22651E+01  8.67362E+01  8.52977E+01  8.81835E+01  8.71546E+01  8.52692E+01
   8.31556E+01  8.43017E+01  8.28787E+01  8.36045E+01  8.27883E+01  8.00682E+01  7.90256E+01  7.94124E+01  7.89079E+01  7.62720E+01
   7.81803E+01  7.67427E+01  7.64981E+01  7.37726E+01  7.61063E+01  7.44632E+01  7.29444E+01  7.35402E+01  7.23637E+01  7.03850E+01
   7.14237E+01  6.90591E+01  7.06898E+01  7.00531E+01  6.81833E+01  6.60336E+01  6.84045E+01  6.58008E+01  6.63742E+01  6.54247E+01
   6.44084E+01  6.35464E+01  6.21688E+01  6.35519E+01  6.22468E+01  6.36999E+01  5.79753E+01  6.04762E+01  5.94772E+01  6.04967E+01
   5.98219E+01  6.07659E+01  6.05734E+01  5.93896E+01  5.85401E+01  5.87667E+01  5.63377E+01  5.68073E+01  5.65633E+01  5.56337E+01
   5.60228E+01  5.58613E+01  5.45643E+01  5.44496E+01  5.62144E+01  5.32748E+01  5.37936E+01  5.32089E+01  5.21956E+01  5.37908E+01
   5.30411E+01  5.20334E+01  5.33995E+01  5.21314E+01  5.04030E+01  4.99224E+01  5.03474E+01  4.98709E+01  4.95452E+01  5.06811E+01
   5.15570E+01  5.06416E+01  5.22179E+01  5.04878E+01  5.14425E+01  4.95087E+01  5.02615E+01  4.72286E+01  5.00123E+01  4.79972E+01
   4.90577E+01  4.75696E+01  4.79916E+01  4.70115E+01  4.57115E+01  4.61557E+01  4.67426E+01  4.76471E+01  4.80003E+01  4.51143E+01
   4.61949E+01  4.53714E+01  4.57758E+01  4.71121E+01  4.64682E+01  4.47765E+01  4.58936E+01  4.48243E+01  4.59738E+01  4.39284E+01
   4.37407E+01  4.40451E+01  4.45367E+01  4.44056E+01  4.20852E+01  4.21215E+01  4.31653E+01  4.28171E+01  4.10044E+01  4.42365E+01
   4.15161E+01  4.08401E+01  3.91831E+01  4.27860E+01  4.14314E+01  4.28616E+01  4.16501E+01  4.02449E+01  4.16176E+01  4.04577E+01
   3.98640E+01  4.18042E+01  4.15950E+01  4.07123E+01  4.03990E+01  4.11103E+01  4.09400E+01  3.86875E+01  4.00892E+01  4.14671E+01
   4.07968E+01  4.22811E+01  4.18670E+01  4.06965E+01  4.15150E+01  4.09202E+01  4.18190E+01  3.99567E+01  4.06872E+01  3.88765E+01
   4.05017E+01  3.97844E+01  3.88518E+01  4.01639E+01  3.86226E+01  3.62008E+01  3.74896E+01  3.74777E+01  3.95612E+01  3.72963E+01
   3.61742E+01  3.69286E+01  3.62956E+01  3.71791E+01  3.56366E+01  3.70048E+01  3.60521E+01  3.58534E+01  3.46677E+01  3.54249E+01
   3.58260E+01  3.57472E+01  3.54652E+01  3.55697E+01  3.51393E+01  3.36417E+01  3.65367E+01  3.46667E+01  3.56393E+01  3.30902E+01
   3.36458E+01  3.65557E+01  3.59364E+01  3.13788E+01  3.48588E+01  3.51705E+01  3.61161E+01  3.45310E+01  3.50392E+01  3.37008E+01
   3.48807E+01  3.36828E+01  3.27962E+01  3.12572E+01  3.36040E+01  3.22645E+01  3.18064E+01  3.41360E+01  3.36066E+01  3.26181E+01
   3.32860E+01  3.15262E+01  3.25326E+01  3.30668E+01  3.20058E+01  3.37055E+01  3.23524E+01  3.07397E+01  3.18550E+01  3.20605E+01
   3.17186E+01  3.22015E+01  2.99092E+01  3.19884E+01  2.99953E+01  3.30265E+01  3.23123E+01  2.77887E+01  3.06243E+01  2.99924E+01
   3.01768E+01  2.99962E+01  2.93355E+01  2.81991E+01  2.77522E+01  2.89995E+01  2.75297E+01  2.90177E+01  2.88413E+01  2.92077E+01
   2.81617E+01  2.82450E+01  2.78663E+01  2.73726E+01  2.61569E+01  2.69475E+01  2.67748E+01  2.82143E+01  2.87805E+01  2.73330E+01
   3.02997E+01  2.88181E+01  2.70637E+01  2.40436E+01  2.65399E+01  2.50485E+01  2.68467E+01  2.59396E+01  2.72693E+01  2.56231E+01
   2.48827E+01  2.64445E+01  2.47976E+01  2.60818E+01  2.63808E+01  2.64979E+01  2.51616E+01  2.46841E+01  2.41093E+01  2.60803E+01
   2.39203E+01  2.43654E+01  2.39947E+01  2.31191E+01  2.36579E+01  2.34808E+01  2.30957E+01  2.45645E+01  2.34409E+01  2.39107E+01
   2.42724E+01  2.45120E+01  2.44240E+01  2.39141E+01  2.28316E+01  2.38463E+01  2.37147E+01  2.39011E+01  2.25499E+01  2.26561E+01
   2.27592E+01  2.34047E+01  2.17974E+01  2.41774E+01  2.21661E+01  2.13854E+01  2.24581E+01  2.18273E+01  2.07701E+01  2.38209E+01
   2.20017E+01  2.09501E+01  2.18761E+01  2.39047E+01  2.27309E+01  2.45158E+01  2.09704E+01  2.08153E+01  2.43171E+01  2.20752E+01
   2.22520E+01  2.05709E+01  1.86434E+01  2.15283E+01  2.27370E+01  2.12450E+01  2.17572E+01  1.93888E+01  2.05414E+01  2.04199E+01
   1.97489E+01  2.10254E+01  1.87452E+01  2.04938E+01  2.02230E+01  2.02828E+01  1.86104E+01  1.94886E+01  2.01526E+01  1.79030E+01
   2.02312E+01  1.83828E+01  1.95723E+01  1.88601E+01  1.87667E+01  1.85997E+01  2.00867E+01  1.70287E+01  1.85808E+01  1.71330E+01
   2.07790E+01  1.90121E+01  1.76162E+01  1.84117E+01  1.96524E+01  1.99363E+01  1.82612E+01  1.78975E+01  2.06100E+01  1.66743E+01
   2.01538E+01  1.78359E+01  1.95601E+01  1.75656E+01  1.88180E+01  1.79960E+01  1.80863E+01  1.77397E+01  1.80509E+01  1.88503E+01
   1.89482E+01  1.66150E+01  1.54636E+01  1.65226E+01  1.55221E+01  1.78192E+01  1.58473E+01  1.67940E+01  1.56106E+01  1.41529E+01
   1.58603E+01  1.42382E+01  1.36153E+01  1.44972E+01  1.59008E+01  1.56655E+01  1.50662E+01  1.46430E+01  1.43668E+01  1.51698E+01
   1.56978E+01  1.50962E+01  1.62987E+01  1.44096E+01  1.46344E+01  1.36720E+01  1.67683E+01  1.40499E+01  1.38336E+01  1.30736E+01
   1.40431E+01  1.24297E+01  1.42333E+01  1.55257E+01  1.19155E+01  1.52672E+01  1.37080E+01  1.34378E+01  1.47212E+01  1.32318E+01
   1.35656E+01  1.28053E+01  1.51490E+01  1.28412E+01  1.31644E+01  1.23080E+01  1.24415E+01  1.41350E+01  1.07585E+01  8.54286E+00
   1.30975E+01  1.31181E+01  1.21158E+01  1.30759E+01  1.16921E+01  1.01378E+01  1.11624E+01  1.00387E+01  1.04765E+01  9.84725E+00
   1.20257E+01  1.06023E+01  1.00696E+01  1.12441E+01  1.03507E+01  1.10263E+01  1.13446E+01  1.03313E+01  1.07750E+01  1.02536E+01
   8.51439E+00  1.06963E+01  1.29716E+01  1.20836E+01  1.07411E+01  1.18453E+01  1.08394E+01  9.94911E+00  8.03681E+00  1.08182E+01
   1.12591E+01  9.23470E+00  1.23471E+01  9.50319E+00  9.93191E+00  1.01159E+01  7.15485E+00  8.45257E+00  9.27396E+00  1.04905E+01
   1.06005E+01  9.29031E+00  1.00065E+01  9.45657E+00  8.53993E+00  1.04104E+01  9.61797E+00  9.80606E+00  8.87141E+00  9.00886E+00
   8.08132E+00  8.95459E+00  9.84241E+00  7.60326E+00  9.48728E+00  7.17818E+00  9.63684E+00  8.66568E+00  9.80754E+00  9.08380E+00
   7.29430E+00  8.57712E+00  7.33198E+00  9.43616E+00  8.71270E+00  8.92873E+00  6.58895E+00  6.05310E+00  7.50094E+00  8.27110E+00
   9.03002E+00  8.27581E+00  7.56050E+00  6.51599E+00  7.47220E+00  7.49026E+00  9.16435E+00  8.11132E+00
 NY points of the fit to the data follow
   1.14251E+02  1.13257E+02  1.12274E+02  1.11344E+02  1.10568E+02  1.09879E+02  1.09137E+02  1.08272E+02  1.07276E+02  1.06174E+02
   1.05013E+02  1.03851E+02  1.02732E+02  1.01657E+02  1.00604E+02  9.95656E+01  9.85709E+01  9.76137E+01  9.66778E+01  9.57597E+01
   9.48586E+01  9.39590E+01  9.30453E+01  9.21187E+01  9.11868E+01  9.02561E+01  8.93317E+01  8.84169E+01  8.75241E+01  8.66655E+01
   8.58334E+01  8.50169E+01  8.42103E+01  8.34081E+01  8.26040E+01  8.17934E+01  8.09767E+01  8.01652E+01  7.93619E+01  7.85653E+01
   7.77800E+01  7.70117E+01  7.62686E+01  7.55542E+01  7.48572E+01  7.41674E+01  7.34781E+01  7.27856E+01  7.20983E+01  7.14252E+01
   7.07691E+01  7.01301E+01  6.95045E+01  6.88870E+01  6.82790E+01  6.76843E+01  6.71026E+01  6.65327E+01  6.59707E+01  6.54141E+01
   6.48638E+01  6.43221E+01  6.37919E+01  6.32729E+01  6.27660E+01  6.22686E+01  6.17785E+01  6.12979E+01  6.08280E+01  6.03677E+01
   5.99203E+01  5.94894E+01  5.90686E+01  5.86501E+01  5.82304E+01  5.78087E+01  5.73886E+01  5.69762E+01  5.65764E+01  5.61910E+01
   5.58195E+01  5.54677E+01  5.51340E+01  5.48033E+01  5.44651E+01  5.41192E+01  5.37702E+01  5.34240E+01  5.30839E+01  5.27506E+01
   5.24239E+01  5.21027E+01  5.17867E+01  5.14815E+01  5.11929E+01  5.09150E+01  5.06440E+01  5.04009E+01  5.03135E+01  5.06071E+01
   5.11021E+01  5.14718E+01  5.15456E+01  5.13008E+01  5.07984E+01  5.01491E+01  4.94877E+01  4.89175E+01  4.84532E+01  4.80373E+01
   4.76539E+01  4.73522E+01  4.71046E+01  4.68759E+01  4.66566E+01  4.64433E+01  4.62344E+01  4.60303E+01  4.58300E+01  4.56343E+01
   4.54533E+01  4.53691E+01  4.55559E+01  4.58940E+01  4.61593E+01  4.62324E+01  4.60920E+01  4.57740E+01  4.53484E+01  4.49044E+01
   4.45152E+01  4.41964E+01  4.39088E+01  4.36396E+01  4.34286E+01  4.32563E+01  4.30985E+01  4.29466E+01  4.27973E+01  4.26506E+01
   4.25077E+01  4.23697E+01  4.22359E+01  4.21038E+01  4.19716E+01  4.18384E+01  4.17047E+01  4.15715E+01  4.14401E+01  4.13107E+01
   4.11829E+01  4.10566E+01  4.09313E+01  4.08072E+01  4.06840E+01  4.05593E+01  4.04297E+01  4.02954E+01  4.01614E+01  4.00320E+01
   3.99112E+01  3.97973E+01  3.96855E+01  3.95727E+01  3.94569E+01  3.93375E+01  3.92157E+01  3.90930E+01  3.89698E+01  3.88461E+01
   3.87219E+01  3.85948E+01  3.84640E+01  3.83359E+01  3.82140E+01  3.80972E+01  3.79798E+01  3.78583E+01  3.77350E+01  3.76127E+01
   3.74936E+01  3.73767E+01  3.72577E+01  3.71351E+01  3.70136E+01  3.68959E+01  3.67818E+01  3.66691E+01  3.65536E+01  3.64339E+01
   3.63117E+01  3.61895E+01  3.60720E+01  3.59574E+01  3.58391E+01  3.57144E+01  3.55843E+01  3.54501E+01  3.53153E+01  3.51869E+01
   3.50650E+01  3.49454E+01  3.48241E+01  3.46991E+01  3.45706E+01  3.44391E+01  3.43054E+01  3.41704E+01  3.40312E+01  3.38871E+01
   3.37429E+01  3.36028E+01  3.34670E+01  3.33343E+01  3.32040E+01  3.30748E+01  3.29455E+01  3.28158E+01  3.26879E+01  3.25641E+01
   3.24430E+01  3.23207E+01  3.21946E+01  3.20630E+01  3.19254E+01  3.17812E+01  3.16309E+01  3.14789E+01  3.13310E+01  3.11890E+01
   3.10521E+01  3.09184E+01  3.07858E+01  3.06520E+01  3.05158E+01  3.03773E+01  3.02376E+01  3.00972E+01  2.99560E+01  2.98140E+01
   2.96722E+01  2.95308E+01  2.93896E+01  2.92488E+01  2.91083E+01  2.89680E+01  2.88278E+01  2.86878E+01  2.85476E+01  2.84071E+01
   2.82658E+01  2.81232E+01  2.79788E+01  2.78323E+01  2.76911E+01  2.76350E+01  2.77642E+01  2.79716E+01  2.81231E+01  2.81513E+01
   2.80440E+01  2.78241E+01  2.75370E+01  2.72409E+01  2.69796E+01  2.67540E+01  2.65380E+01  2.63357E+01  2.61712E+01  2.60273E+01
   2.58932E+01  2.57665E+01  2.56461E+01  2.55300E+01  2.54159E+01  2.53030E+01  2.51908E+01  2.50788E+01  2.49673E+01  2.48568E+01
   2.47481E+01  2.46421E+01  2.45394E+01  2.44396E+01  2.43427E+01  2.42483E+01  2.41559E+01  2.40650E+01  2.39758E+01  2.38879E+01
   2.38015E+01  2.37164E+01  2.36327E+01  2.35507E+01  2.34703E+01  2.33915E+01  2.33139E+01  2.32374E+01  2.31618E+01  2.30866E+01
   2.30116E+01  2.29364E+01  2.28607E+01  2.27842E+01  2.27067E+01  2.26277E+01  2.25473E+01  2.24652E+01  2.23812E+01  2.22955E+01
   2.22080E+01  2.21188E+01  2.20281E+01  2.19360E+01  2.18430E+01  2.17492E+01  2.16553E+01  2.15617E+01  2.14695E+01  2.13803E+01
   2.12976E+01  2.12321E+01  2.12108E+01  2.12110E+01  2.11603E+01  2.10335E+01  2.08426E+01  2.06114E+01  2.03613E+01  2.01033E+01
   1.98782E+01  1.97537E+01  1.97193E+01  1.97311E+01  1.97594E+01  1.97753E+01  1.97516E+01  1.96838E+01  1.95848E+01  1.94756E+01
   1.93679E+01  1.92567E+01  1.91441E+01  1.90442E+01  1.89586E+01  1.88879E+01  1.88341E+01  1.87995E+01  1.87863E+01  1.87954E+01
   1.88259E+01  1.88750E+01  1.89371E+01  1.90044E+01  1.90674E+01  1.91159E+01  1.91400E+01  1.91317E+01  1.90858E+01  1.90006E+01
   1.88777E+01  1.87223E+01  1.85412E+01  1.83426E+01  1.81349E+01  1.79252E+01  1.77193E+01  1.75213E+01  1.73336E+01  1.71571E+01
   1.69916E+01  1.68364E+01  1.66902E+01  1.65517E+01  1.64196E+01  1.62929E+01  1.61707E+01  1.60521E+01  1.59367E+01  1.58240E+01
   1.57138E+01  1.56057E+01  1.54998E+01  1.53959E+01  1.52940E+01  1.51941E+01  1.50963E+01  1.50006E+01  1.49071E+01  1.48158E+01
   1.47268E+01  1.46402E+01  1.45558E+01  1.44738E+01  1.43940E+01  1.43163E+01  1.42405E+01  1.41665E+01  1.40938E+01  1.40222E+01
   1.39512E+01  1.38806E+01  1.38097E+01  1.37384E+01  1.36660E+01  1.35923E+01  1.35171E+01  1.34399E+01  1.33608E+01  1.32796E+01
   1.31964E+01  1.31111E+01  1.30240E+01  1.29352E+01  1.28451E+01  1.27539E+01  1.26619E+01  1.25695E+01  1.24769E+01  1.23846E+01
   1.22926E+01  1.22013E+01  1.21109E+01  1.20214E+01  1.19331E+01  1.18461E+01  1.17603E+01  1.16758E+01  1.15926E+01  1.15108E+01
   1.14302E+01  1.13509E+01  1.12729E+01  1.11960E+01  1.11202E+01  1.10456E+01  1.09720E+01  1.08995E+01  1.08279E+01  1.07573E+01
   1.06876E+01  1.06188E+01  1.05508E+01  1.04837E+01  1.04174E+01  1.03519E+01  1.02872E+01  1.02232E+01  1.01600E+01  1.00976E+01
   1.00358E+01  9.97480E+00  9.91448E+00  9.85486E+00  9.79591E+00  9.73761E+00  9.67993E+00  9.62285E+00  9.56635E+00  9.51041E+00
   9.45501E+00  9.40012E+00  9.34572E+00  9.29180E+00  9.23834E+00  9.18531E+00  9.13270E+00  9.08049E+00  9.02865E+00  8.97718E+00
   8.92604E+00  8.87523E+00  8.82473E+00  8.77451E+00  8.72456E+00  8.67486E+00  8.62540E+00  8.57615E+00  8.52710E+00  8.47824E+00
   8.42954E+00  8.38098E+00  8.33256E+00  8.28425E+00  8.23604E+00  8.18791E+00  8.13984E+00  8.09182E+00  8.04383E+00  7.99585E+00
   7.94787E+00  7.89987E+00  7.85184E+00  7.80376E+00  7.75560E+00  7.70736E+00  7.65902E+00  7.61055E+00
 NY background values follow
     1.142E+02    1.132E+02    1.122E+02    1.112E+02    1.102E+02    1.093E+02    1.083E+02    1.073E+02    1.063E+02    1.053E+02
     1.043E+02    1.034E+02    1.024E+02    1.014E+02    1.005E+02    9.950E+01    9.855E+01    9.760E+01    9.666E+01    9.572E+01
     9.479E+01    9.387E+01    9.295E+01    9.204E+01    9.114E+01    9.024E+01    8.935E+01    8.846E+01    8.759E+01    8.672E+01
     8.586E+01    8.501E+01    8.417E+01    8.334E+01    8.251E+01    8.170E+01    8.089E+01    8.010E+01    7.931E+01    7.854E+01
     7.777E+01    7.702E+01    7.628E+01    7.554E+01    7.482E+01    7.411E+01    7.342E+01    7.273E+01    7.206E+01    7.140E+01
     7.075E+01    7.011E+01    6.948E+01    6.886E+01    6.825E+01    6.766E+01    6.707E+01    6.650E+01    6.593E+01    6.538E+01
     6.483E+01    6.430E+01    6.377E+01    6.326E+01    6.275E+01    6.226E+01    6.177E+01    6.129E+01    6.082E+01    6.036E+01
     5.991E+01    5.947E+01    5.903E+01    5.860E+01    5.818E+01    5.777E+01    5.737E+01    5.698E+01    5.659E+01    5.621E+01
     5.583E+01    5.547E+01    5.511E+01    5.476E+01    5.441E+01    5.407E+01    5.374E+01    5.341E+01    5.309E+01    5.278E+01
     5.247E+01    5.217E+01    5.187E+01    5.158E+01    5.129E+01    5.101E+01    5.074E+01    5.047E+01    5.020E+01    4.994E+01
     4.969E+01    4.944E+01    4.919E+01    4.895E+01    4.872E+01    4.848E+01    4.826E+01    4.803E+01    4.781E+01    4.760E+01
     4.739E+01    4.718E+01    4.698E+01    4.678E+01    4.658E+01    4.639E+01    4.620E+01    4.601E+01    4.583E+01    4.565E+01
     4.547E+01    4.529E+01    4.512E+01    4.495E+01    4.479E+01    4.462E+01    4.446E+01    4.430E+01    4.415E+01    4.399E+01
     4.384E+01    4.369E+01    4.354E+01    4.339E+01    4.324E+01    4.310E+01    4.296E+01    4.282E+01    4.268E+01    4.254E+01
     4.240E+01    4.227E+01    4.213E+01    4.200E+01    4.187E+01    4.173E+01    4.160E+01    4.147E+01    4.135E+01    4.122E+01
     4.109E+01    4.097E+01    4.084E+01    4.072E+01    4.059E+01    4.047E+01    4.035E+01    4.023E+01    4.011E+01    3.999E+01
     3.987E+01    3.975E+01    3.963E+01    3.951E+01    3.939E+01    3.927E+01    3.915E+01    3.904E+01    3.892E+01    3.880E+01
     3.868E+01    3.857E+01    3.845E+01    3.833E+01    3.821E+01    3.810E+01    3.798E+01    3.786E+01    3.774E+01    3.762E+01
     3.751E+01    3.739E+01    3.727E+01    3.715E+01    3.703E+01    3.691E+01    3.679E+01    3.666E+01    3.654E+01    3.642E+01
     3.630E+01    3.618E+01    3.605E+01    3.593E+01    3.580E+01    3.568E+01    3.556E+01    3.543E+01    3.530E+01    3.518E+01
     3.505E+01    3.492E+01    3.480E+01    3.467E+01    3.454E+01    3.441E+01    3.428E+01    3.415E+01    3.402E+01    3.389E+01
     3.376E+01    3.363E+01    3.350E+01    3.337E+01    3.324E+01    3.310E+01    3.297E+01    3.284E+01    3.270E+01    3.257E+01
     3.243E+01    3.230E+01    3.216E+01    3.202E+01    3.189E+01    3.175E+01    3.161E+01    3.147E+01    3.134E+01    3.120E+01
     3.106E+01    3.092E+01    3.078E+01    3.064E+01    3.050E+01    3.036E+01    3.022E+01    3.008E+01    2.994E+01    2.980E+01
     2.966E+01    2.952E+01    2.938E+01    2.924E+01    2.910E+01    2.896E+01    2.882E+01    2.869E+01    2.855E+01    2.841E+01
     2.828E+01    2.814E+01    2.801E+01    2.787E+01    2.774E+01    2.761E+01    2.748E+01    2.735E+01    2.722E+01    2.709E+01
     2.696E+01    2.684E+01    2.671E+01    2.659E+01    2.647E+01    2.634E+01    2.623E+01    2.611E+01    2.599E+01    2.587E+01
     2.576E+01    2.565E+01    2.554E+01    2.543E+01    2.532E+01    2.521E+01    2.511E+01    2.500E+01    2.490E+01    2.480E+01
     2.470E+01    2.460E+01    2.450E+01    2.441E+01    2.431E+01    2.422E+01    2.412E+01    2.403E+01    2.394E+01    2.385E+01
     2.376E+01    2.367E+01    2.358E+01    2.349E+01    2.340E+01    2.331E+01    2.323E+01    2.314E+01    2.306E+01    2.297E+01
     2.288E+01    2.280E+01    2.272E+01    2.263E+01    2.255E+01    2.246E+01    2.238E+01    2.229E+01    2.221E+01    2.212E+01
     2.204E+01    2.195E+01    2.187E+01    2.178E+01    2.170E+01    2.161E+01    2.152E+01    2.144E+01    2.135E+01    2.126E+01
     2.117E+01    2.109E+01    2.100E+01    2.091E+01    2.082E+01    2.073E+01    2.064E+01    2.054E+01    2.045E+01    2.036E+01
     2.027E+01    2.018E+01    2.008E+01    1.999E+01    1.990E+01    1.980E+01    1.971E+01    1.961E+01    1.952E+01    1.943E+01
     1.933E+01    1.923E+01    1.914E+01    1.904E+01    1.895E+01    1.885E+01    1.875E+01    1.866E+01    1.856E+01    1.846E+01
     1.837E+01    1.827E+01    1.817E+01    1.808E+01    1.798E+01    1.788E+01    1.778E+01    1.768E+01    1.759E+01    1.749E+01
     1.739E+01    1.729E+01    1.719E+01    1.709E+01    1.700E+01    1.690E+01    1.680E+01    1.670E+01    1.660E+01    1.650E+01
     1.641E+01    1.631E+01    1.621E+01    1.611E+01    1.601E+01    1.592E+01    1.582E+01    1.572E+01    1.562E+01    1.553E+01
     1.543E+01    1.533E+01    1.524E+01    1.514E+01    1.505E+01    1.495E+01    1.485E+01    1.476E+01    1.467E+01    1.457E+01
     1.448E+01    1.438E+01    1.429E+01    1.420E+01    1.411E+01    1.401E+01    1.392E+01    1.383E+01    1.374E+01    1.365E+01
     1.356E+01    1.348E+01    1.339E+01    1.330E+01    1.321E+01    1.313E+01    1.304E+01    1.295E+01    1.287E+01    1.279E+01
     1.270E+01    1.262E+01    1.254E+01    1.246E+01    1.238E+01    1.230E+01    1.222E+01    1.214E+01    1.206E+01    1.198E+01
     1.190E+01    1.183E+01    1.175E+01    1.168E+01    1.160E+01    1.153E+01    1.145E+01    1.138E+01    1.131E+01    1.124E+01
     1.117E+01    1.110E+01    1.103E+01    1.096E+01    1.089E+01    1.082E+01    1.075E+01    1.069E+01    1.062E+01    1.055E+01
     1.049E+01    1.042E+01    1.036E+01    1.030E+01    1.024E+01    1.017E+01    1.011E+01    1.005E+01    9.991E+00    9.931E+00
     9.872E+00    9.814E+00    9.756E+00    9.699E+00    9.642E+00    9.586E+00    9.531E+00    9.476E+00    9.421E+00    9.367E+00
     9.314E+00    9.261E+00    9.208E+00    9.156E+00    9.104E+00    9.053E+00    9.002E+00    8.951E+00    8.901E+00    8.851E+00
     8.801E+00    8.752E+00    8.702E+00    8.653E+00    8.605E+00    8.556E+00    8.508E+00    8.460E+00    8.412E+00    8.364E+00
     8.317E+00    8.269E+00    8.222E+00    8.175E+00    8.128E+00    8.081E+00    8.034E+00    7.987E+00    7.940E+00    7.893E+00
     7.846E+00    7.799E+00    7.752E+00    7.704E+00    7.657E+00    7.610E+00    7.563E+00    7.515E+00
 Ala      Conc. = 2.27E+01
