 LCModel (Version 6.3-1L) Copyright: S.W. Provencher.          Ref.: Magn. Reson. Med. 30:672-679 (1993).                
 Slice#1 Row#11 Col#10  K_02_press_1_raw_act
 36 lines in following concentration table = NCONC+1
    Conc.  %SD /Cr+PCr  Metabolite                                         
    0.000 999%   0.000 Ala                                                 
    0.000 999%   0.000 Asp                                                 
  414.788  29%   0.412 Cr                                                  
  590.935  21%   0.588 PCr                                                 
    0.000 999%   0.000 GABA                                                
    4.674 999% 4.6E-03 Glc                                                 
  381.645  33%   0.379 Gln                                                 
 1.15E+03  13%   1.144 Glu                                                 
  394.894   4%   0.393 GPC                                                 
    0.000 999%   0.000 PCh                                                 
  176.486  27%   0.175 GSH                                                 
  820.598  18%   0.816 Ins                                                 
  157.916  42%   0.157 Lac                                                 
 1.70E+03   5%   1.695 NAA                                                 
  656.743  10%   0.653 NAAG                                                
   22.016  85% 2.2E-02 Scyllo                                              
  210.485  66%   0.209 Tau                                                 
  391.083  19%   0.389 -CrCH2                                              
  394.894   4%   0.393 GPC+PCh                                             
 2.36E+03   3%   2.348 NAA+NAAG                                            
 1.01E+03   5%   1.000 Cr+PCr                                              
 1.53E+03  12%   1.523 Glu+Gln                                             
  983.940  57%   0.978 Lip13a                                              
    0.000 999%   0.000 Lip13b                                              
  200.293 110%   0.199 Lip09                                               
 1.58E+03  17%   1.571 MM09                                                
  133.369 106%   0.133 Lip20                                               
 2.67E+03  12%   2.653 MM20                                                
  538.153  40%   0.535 MM12                                                
 1.88E+03  22%   1.872 MM14                                                
  647.898  29%   0.644 MM17                                                
  983.940  57%   0.978 Lip13a+Lip13b                                       
 3.40E+03   9%   3.385 MM14+Lip13a+Lip13b+MM12                             
 1.78E+03   9%   1.770 MM09+Lip09                                          
 2.80E+03  11%   2.786 MM20+Lip20                                          
   6 lines in following misc. output table
  FWHM = 0.038 ppm    S/N =  16                                            
  Data shift = 0.008 ppm                                                   
  Ph:   1 deg       8.7 deg/ppm                                            
  alphaB,S = 3.3E+00,   2.3E+01                                            
   14 spline knots.   Ns = 5(1)                                            
  ( 5) 2 infls.   ( 3) 1 extrs.                                            
  498 points on ppm-axis = NY
      4.000000     3.992357     3.984714     3.977070     3.969427     3.961784     3.954141     3.946497     3.938854     3.931211
      3.923568     3.915925     3.908281     3.900638     3.892995     3.885352     3.877708     3.870065     3.862422     3.854779
      3.847136     3.839492     3.831849     3.824206     3.816563     3.808919     3.801276     3.793633     3.785990     3.778347
      3.770703     3.763060     3.755417     3.747774     3.740130     3.732487     3.724844     3.717201     3.709558     3.701914
      3.694271     3.686628     3.678985     3.671341     3.663698     3.656055     3.648412     3.640769     3.633125     3.625482
      3.617839     3.610196     3.602552     3.594909     3.587266     3.579623     3.571980     3.564336     3.556693     3.549050
      3.541407     3.533763     3.526120     3.518477     3.510834     3.503191     3.495547     3.487904     3.480261     3.472618
      3.464974     3.457331     3.449688     3.442045     3.434402     3.426758     3.419115     3.411472     3.403829     3.396185
      3.388542     3.380899     3.373256     3.365613     3.357969     3.350326     3.342683     3.335040     3.327396     3.319753
      3.312110     3.304467     3.296824     3.289180     3.281537     3.273894     3.266251     3.258607     3.250964     3.243321
      3.235678     3.228034     3.220391     3.212748     3.205105     3.197462     3.189818     3.182175     3.174532     3.166889
      3.159245     3.151602     3.143959     3.136316     3.128673     3.121029     3.113386     3.105743     3.098100     3.090456
      3.082813     3.075170     3.067527     3.059884     3.052240     3.044597     3.036954     3.029311     3.021667     3.014024
      3.006381     2.998738     2.991095     2.983451     2.975808     2.968165     2.960522     2.952878     2.945235     2.937592
      2.929949     2.922306     2.914662     2.907019     2.899376     2.891733     2.884089     2.876446     2.868803     2.861160
      2.853517     2.845873     2.838230     2.830587     2.822944     2.815300     2.807657     2.800014     2.792371     2.784728
      2.777084     2.769441     2.761798     2.754155     2.746511     2.738868     2.731225     2.723582     2.715939     2.708295
      2.700652     2.693009     2.685366     2.677722     2.670079     2.662436     2.654793     2.647150     2.639506     2.631863
      2.624220     2.616577     2.608933     2.601290     2.593647     2.586004     2.578361     2.570717     2.563074     2.555431
      2.547788     2.540144     2.532501     2.524858     2.517215     2.509572     2.501928     2.494285     2.486642     2.478999
      2.471355     2.463712     2.456069     2.448426     2.440783     2.433139     2.425496     2.417853     2.410210     2.402566
      2.394923     2.387280     2.379637     2.371994     2.364350     2.356707     2.349064     2.341421     2.333777     2.326134
      2.318491     2.310848     2.303205     2.295561     2.287918     2.280275     2.272632     2.264988     2.257345     2.249702
      2.242059     2.234416     2.226772     2.219129     2.211486     2.203843     2.196199     2.188556     2.180913     2.173270
      2.165627     2.157983     2.150340     2.142697     2.135054     2.127410     2.119767     2.112124     2.104481     2.096838
      2.089194     2.081551     2.073908     2.066265     2.058621     2.050978     2.043335     2.035692     2.028049     2.020405
      2.012762     2.005119     1.997476     1.989833     1.982190     1.974546     1.966903     1.959260     1.951617     1.943974
      1.936331     1.928688     1.921045     1.913402     1.905759     1.898115     1.890472     1.882829     1.875186     1.867543
      1.859900     1.852257     1.844614     1.836971     1.829327     1.821684     1.814041     1.806398     1.798755     1.791112
      1.783469     1.775826     1.768183     1.760540     1.752896     1.745253     1.737610     1.729967     1.722324     1.714681
      1.707038     1.699395     1.691752     1.684108     1.676465     1.668822     1.661179     1.653536     1.645893     1.638250
      1.630607     1.622964     1.615321     1.607677     1.600034     1.592391     1.584748     1.577105     1.569462     1.561819
      1.554176     1.546533     1.538890     1.531246     1.523603     1.515960     1.508317     1.500674     1.493031     1.485388
      1.477745     1.470102     1.462458     1.454815     1.447172     1.439529     1.431886     1.424243     1.416600     1.408957
      1.401314     1.393671     1.386027     1.378384     1.370741     1.363098     1.355455     1.347812     1.340169     1.332526
      1.324883     1.317240     1.309596     1.301953     1.294310     1.286667     1.279024     1.271381     1.263738     1.256095
      1.248452     1.240808     1.233165     1.225522     1.217879     1.210236     1.202593     1.194950     1.187307     1.179664
      1.172021     1.164377     1.156734     1.149091     1.141448     1.133805     1.126162     1.118519     1.110876     1.103233
      1.095590     1.087946     1.080303     1.072660     1.065017     1.057374     1.049731     1.042088     1.034445     1.026802
      1.019158     1.011515     1.003872     0.996229     0.988586     0.980943     0.973300     0.965657     0.958014     0.950371
      0.942727     0.935084     0.927441     0.919798     0.912155     0.904512     0.896869     0.889226     0.881583     0.873940
      0.866296     0.858653     0.851010     0.843367     0.835724     0.828081     0.820438     0.812795     0.805152     0.797508
      0.789865     0.782222     0.774579     0.766936     0.759293     0.751650     0.744007     0.736364     0.728721     0.721077
      0.713434     0.705791     0.698148     0.690505     0.682862     0.675219     0.667576     0.659933     0.652290     0.644646
      0.637003     0.629360     0.621717     0.614074     0.606431     0.598788     0.591145     0.583502     0.575858     0.568215
      0.560572     0.552929     0.545286     0.537643     0.530000     0.522357     0.514714     0.507071     0.499427     0.491784
      0.484141     0.476498     0.468855     0.461212     0.453569     0.445925     0.438282     0.430639     0.422996     0.415353
      0.407710     0.400067     0.392424     0.384780     0.377137     0.369494     0.361851     0.354208     0.346565     0.338922
      0.331278     0.323635     0.315992     0.308349     0.300706     0.293063     0.285420     0.277777     0.270133     0.262490
      0.254847     0.247204     0.239561     0.231918     0.224275     0.216631     0.208988     0.201345
 NY phased data points follow
  -4.89891E-01  8.59252E-01 -9.86383E-01  7.96983E-01  8.02030E-01  3.08508E+00  8.22260E+00  1.04627E+01  9.30616E+00  1.43227E+01
   1.49160E+01  1.40741E+01  1.36911E+01  1.14594E+01  8.57861E+00  9.83196E+00  3.99796E+00  3.08380E+00 -1.17204E+00  9.40744E-01
   3.63067E+00  1.15001E+00 -8.42943E-03 -1.00514E+00  7.26382E-01  2.91007E+00  1.75765E+00  5.76282E+00  6.09168E-01  1.51837E+00
   1.40165E+00  1.67652E+00  5.89643E+00  8.24924E+00  9.47013E-01  4.17836E+00  2.40699E+00  2.81565E+00  2.80648E+00  5.52634E+00
   1.01925E+00  5.28635E+00  2.87124E+00  5.36812E+00  6.81477E+00  7.82290E+00  1.08458E+01  8.99775E+00  9.74822E+00  6.60404E+00
   2.89075E+00  5.15681E+00  1.49374E-01  2.43912E+00  2.26887E+00  3.17435E+00  2.04539E+00  4.01332E+00  1.60362E+00  2.82295E+00
   3.01315E+00 -2.79512E+00 -1.90012E+00 -5.49521E+00 -5.94180E+00 -3.21639E+00 -3.27641E+00 -2.21490E+00 -1.43481E+00 -5.08961E+00
  -2.38041E+00 -3.29444E-03 -1.32470E+00 -4.57763E+00 -2.16586E+00  2.89475E-01 -3.45916E+00 -2.41110E+00 -4.39135E-01 -2.99731E+00
  -4.45925E+00 -2.09073E+00 -7.44355E-01 -1.72957E+00 -2.31581E+00 -4.52595E+00 -4.07018E+00 -1.26870E+00 -1.34614E+00 -2.35794E+00
   7.83805E-01 -1.63704E-01 -1.07249E+00 -1.11738E+00  3.03586E+00 -1.34699E-01  4.79934E+00  7.29852E+00  5.19734E+00  1.09408E+01
   2.14714E+01  3.74957E+01  4.55537E+01  4.37240E+01  3.79900E+01  2.91781E+01  1.57820E+01  8.82889E+00  1.30741E+00  4.55003E+00
  -3.75347E-01 -1.01459E+00 -1.17786E+00 -1.49622E+00 -8.15890E-02  6.39322E-01 -3.02704E+00 -3.50033E-01 -1.93959E+00  4.01910E+00
   5.61434E-01  1.99886E+00  2.53950E+00  8.89555E+00  1.82141E+01  2.97690E+01  4.09539E+01  4.68658E+01  3.71845E+01  2.34215E+01
   1.70107E+01  9.68593E+00  6.79128E+00  2.31340E+00  1.31673E+00 -3.60569E-01  5.99592E-01  3.80439E-01  3.06242E+00 -2.85827E+00
  -2.08021E+00  1.77053E+00  1.82236E+00 -2.46854E+00 -1.51361E-01 -1.11415E+00  1.90491E-01 -6.93520E-01 -3.48439E+00 -1.40498E-01
   1.07852E+00 -5.36650E-01 -9.89863E-01  4.89165E-01  2.58031E-01 -6.48155E+00 -2.94303E+00 -2.03747E+00 -7.74591E-02  3.62642E+00
  -4.18942E+00 -5.74303E-01 -5.89462E+00 -5.89716E+00 -6.72354E+00 -1.67270E+00 -6.94928E+00 -1.25808E+01 -1.13688E+01 -1.36420E+01
  -1.10874E+01 -1.09607E+01 -1.18897E+01 -1.35576E+01 -1.66831E+01 -1.69276E+01 -1.85906E+01 -1.42406E+01 -1.59998E+01 -1.35492E+01
  -1.21681E+01 -1.34224E+01 -1.05432E+01 -7.65250E+00 -7.69896E+00 -8.79028E+00 -7.92353E+00 -7.39379E+00 -1.04638E+01 -6.72455E+00
  -5.91343E+00 -7.95917E+00 -7.49802E+00 -9.38777E+00 -6.58382E+00 -8.95908E+00 -1.48422E+01 -1.46646E+01 -1.19619E+01 -1.23238E+01
  -6.80223E+00 -4.85761E+00 -5.26838E+00 -1.19689E+00 -1.06708E+00 -1.04607E+00 -5.93090E+00 -5.15907E+00 -6.64382E+00 -9.68437E+00
  -8.88222E+00 -6.00511E+00 -9.29373E-01  7.33410E+00  4.46594E+00  8.43537E+00  7.79037E+00  5.69782E+00  1.91360E+00 -2.00167E+00
  -1.03330E+01 -1.20592E+01 -1.11817E+01 -7.05744E+00 -7.86325E-02  2.65974E+00  3.09472E+00  9.18505E-01  5.90506E+00  4.44026E+00
  -1.47902E+00  4.41690E+00 -2.79894E-01 -9.62705E-01  3.26170E+00  8.56247E-01  4.39644E+00  4.70387E+00  1.25971E+00  2.77382E+00
  -1.18187E+00 -6.60426E+00 -4.13641E+00 -3.09955E+00 -5.64364E-01  4.31769E+00  6.64448E+00  5.66507E+00  1.21557E+01  1.40512E+01
   8.38640E+00  9.50905E+00  1.71379E+01  2.98253E+01  3.83595E+01  4.47323E+01  4.40087E+01  4.91246E+01  7.33867E+01  9.53090E+01
   9.50414E+01  7.77007E+01  5.23876E+01  3.24739E+01  1.69059E+01  6.26911E+00  1.24965E+00  7.42855E-01  1.89236E+00  2.60576E+00
  -1.19084E+00  1.08092E+00  1.57685E+00 -1.19978E+00 -1.65311E+00 -1.58084E+00 -2.47240E+00 -1.31171E+00 -9.17943E-01 -1.94869E+00
   5.20576E-02  1.82110E+00  1.49926E+00 -5.20209E-01  2.16716E-01 -3.43383E+00 -1.99051E+00  7.09212E-01  8.30492E-01 -1.66079E+00
  -1.46193E-01  7.39918E-01  1.48610E+00 -4.09582E+00 -1.80978E+00  1.06524E-01 -2.02642E+00 -3.52308E+00 -3.03236E-01 -2.56142E-02
  -5.04824E+00 -1.25757E+00  5.23563E-01 -1.16257E+00  3.86046E+00 -3.43867E+00 -1.86938E+00  9.73466E-01 -9.48869E-01  9.27345E-01
  -8.96562E-01 -3.25154E+00 -2.47492E+00 -1.03894E+00 -2.81492E+00 -1.83959E+00  8.30827E-01 -3.33357E+00  3.57623E-01  1.99094E+00
  -2.06371E-01 -2.30718E+00 -2.05259E+00  3.31399E-01 -8.38016E-01 -3.14771E+00 -1.97128E+00 -1.42239E+00 -9.03412E-01 -1.95189E+00
   3.75244E+00  3.93025E+00  6.96105E+00  5.67189E+00  4.16850E+00  7.87344E+00  5.25826E+00  6.82326E+00  5.95045E+00  9.92948E+00
   1.19007E+01  1.34007E+01  1.26058E+01  1.37689E+01  1.30658E+01  1.40411E+01  8.06264E+00  6.39085E+00  5.80588E+00  6.09233E+00
   5.75544E+00  5.16417E+00  4.82023E+00  6.54072E+00  5.20032E+00  2.80508E+00  4.56202E+00  7.40483E+00  6.27776E+00  4.22917E+00
   7.18271E+00  6.55251E+00  3.05973E+00  5.00525E+00  5.80098E+00  3.66152E+00  2.94877E+00  4.60174E-01  3.24522E+00  5.51829E+00
   1.12410E+00  7.95459E-01  5.80431E-01 -3.58305E+00  3.10695E+00  5.75434E-01 -8.87231E-02 -3.91544E-01  1.74814E+00  1.59469E+00
   1.90280E+00 -4.84297E+00 -8.22621E-02  1.79081E+00 -8.80736E-01 -3.22845E+00  5.56341E-01  2.12167E+00  3.42522E-01  3.06335E+00
   4.61654E+00  5.90073E+00  6.65936E+00  4.96683E+00  1.04515E+01  7.44987E+00  6.31752E+00  9.51965E+00  4.65939E+00  4.50839E+00
   4.91940E+00  7.60612E+00  6.71941E+00  7.61634E+00  7.74559E+00  6.25822E+00  9.25281E+00  6.58753E+00  3.29755E+00  8.80688E+00
   7.59583E+00  5.02681E+00  4.40610E+00  2.87702E+00  4.26273E+00  2.61519E+00  1.77265E+00  1.33826E+00 -1.87818E+00 -6.11301E-01
   1.85981E+00 -2.57303E+00  2.59845E+00 -1.76942E+00 -2.52041E+00 -3.99960E+00 -2.12252E+00 -4.06798E+00 -7.88260E-01 -1.60610E+00
  -4.95292E+00 -6.64869E+00 -1.58781E+00 -3.56642E+00 -4.74782E+00 -5.95868E+00 -3.83698E+00 -6.22729E+00 -5.37065E+00 -3.14023E+00
  -4.30626E+00 -5.54319E+00 -4.65863E+00 -6.23091E+00 -4.57798E+00 -7.16849E+00 -5.50853E+00 -4.93063E+00 -3.63765E+00 -8.29772E+00
  -4.36168E+00 -4.56496E+00 -3.13574E+00 -6.85471E+00 -2.50045E+00 -1.43936E+00 -3.40130E+00 -2.31773E+00 -3.84022E+00 -4.89555E+00
  -3.65413E+00 -4.64505E+00 -4.09731E+00 -6.24947E+00 -1.12132E+00 -3.88356E+00 -3.21851E+00 -2.54303E+00 -4.31829E+00 -7.48618E+00
  -3.01181E+00 -4.04087E+00 -4.71472E+00 -6.52892E+00 -1.92118E+00  3.52144E-01 -3.95018E+00  1.81126E-01 -7.01908E+00 -9.36647E-01
  -3.59925E+00 -4.57962E+00 -1.44202E+00 -2.44765E+00 -3.74133E+00 -4.14653E+00 -6.19791E+00 -3.56684E+00 -4.69228E+00 -2.64349E+00
  -7.06489E+00 -2.29626E+00 -3.49065E+00 -5.95378E-01 -7.36274E+00 -4.19152E+00 -5.06592E+00 -8.57859E+00
 NY points of the fit to the data follow
  -1.82459E-01 -1.56140E-01  1.13811E-01  8.00282E-01  1.96169E+00  3.55228E+00  6.29093E+00  9.39854E+00  1.12933E+01  1.29304E+01
   1.52226E+01  1.63883E+01  1.49815E+01  1.16368E+01  8.31979E+00  5.90608E+00  4.06826E+00  2.74833E+00  2.04458E+00  1.66682E+00
   1.42037E+00  1.18318E+00  9.99503E-01  6.67398E-01  4.43901E-01  2.36610E-01 -5.05728E-02  7.12623E-01  2.52881E+00  4.52661E+00
   6.10925E+00  6.93667E+00  7.11558E+00  6.23504E+00  4.20841E+00  2.00106E+00  1.53206E-01 -9.98508E-01 -1.19433E+00 -7.60062E-01
   4.23102E-02  1.04380E+00  1.99850E+00  2.98660E+00  4.65121E+00  7.10560E+00  8.97454E+00  8.83048E+00  6.85540E+00  4.24543E+00
   1.92228E+00  1.60328E-01 -9.34175E-01 -1.29800E+00 -1.12570E+00 -7.96459E-01 -2.91833E-01  5.32848E-01  1.42699E+00  1.97152E+00
   1.81908E+00  1.02430E+00 -2.51351E-02 -9.65677E-01 -1.44322E+00 -1.49799E+00 -1.21714E+00 -7.94959E-01 -4.97798E-01 -2.00715E-01
   1.98767E-01  4.69339E-01  5.69280E-01  6.76440E-01  6.82780E-01  3.20904E-01 -4.08895E-01 -1.22202E+00 -1.83010E+00 -2.06536E+00
  -1.92179E+00 -1.56064E+00 -1.25436E+00 -1.10129E+00 -1.10660E+00 -1.53339E+00 -2.41897E+00 -3.30149E+00 -3.70847E+00 -3.52980E+00
  -3.05084E+00 -2.59248E+00 -2.31387E+00 -2.09916E+00 -1.82805E+00 -1.48981E+00 -8.52416E-01  5.37569E-01  4.06468E+00  1.00013E+01
   2.11139E+01  3.69020E+01  4.80312E+01  4.77577E+01  3.80755E+01  2.55791E+01  1.49661E+01  7.06106E+00  2.00305E+00 -2.66143E-01
  -1.07360E+00 -1.47066E+00 -1.70535E+00 -1.84579E+00 -1.92071E+00 -1.95698E+00 -1.96660E+00 -1.95995E+00 -1.90163E+00 -1.72260E+00
  -1.30342E+00 -1.51424E-01  2.87327E+00  8.24344E+00  1.79153E+01  3.15272E+01  4.23405E+01  4.39047E+01  3.66310E+01  2.57844E+01
   1.60043E+01  8.69845E+00  3.72590E+00  7.78586E-01 -8.83589E-01 -1.95007E+00 -2.47763E+00 -2.48324E+00 -2.10352E+00 -1.54044E+00
  -1.12347E+00 -1.04426E+00 -1.25416E+00 -1.61229E+00 -1.97756E+00 -2.28615E+00 -2.51234E+00 -2.67593E+00 -2.83905E+00 -3.05913E+00
  -3.31721E+00 -3.68287E+00 -4.09581E+00 -4.29993E+00 -4.17112E+00 -3.80339E+00 -3.49601E+00 -3.49360E+00 -4.18424E+00 -5.45092E+00
  -6.40175E+00 -6.54371E+00 -5.76834E+00 -4.75759E+00 -4.50122E+00 -5.14349E+00 -6.20884E+00 -7.25182E+00 -7.83008E+00 -7.86739E+00
  -7.62525E+00 -7.51610E+00 -7.91863E+00 -8.76621E+00 -9.76732E+00 -1.00255E+01 -9.32121E+00 -8.28442E+00 -7.83373E+00 -8.28854E+00
  -8.84360E+00 -8.71081E+00 -8.12572E+00 -7.51630E+00 -7.31112E+00 -7.29351E+00 -6.55127E+00 -4.93963E+00 -3.07575E+00 -1.54552E+00
  -8.42941E-01 -1.11533E+00 -2.02050E+00 -3.18878E+00 -3.93611E+00 -4.29104E+00 -4.42534E+00 -4.19086E+00 -3.52307E+00 -2.52284E+00
  -1.54659E+00 -4.32433E-01  7.11042E-01  1.18747E+00  5.33764E-01 -1.42865E+00 -4.11014E+00 -7.05655E+00 -9.45672E+00 -1.02532E+01
  -9.72036E+00 -8.18638E+00 -5.53763E+00 -1.67707E+00  2.83847E+00  5.63499E+00  5.30110E+00  2.44452E+00 -1.61202E+00 -5.88784E+00
  -1.00124E+01 -1.28804E+01 -1.26762E+01 -9.51851E+00 -5.22545E+00 -1.46755E+00  1.08028E+00  2.44971E+00  2.61143E+00  1.75708E+00
   6.81311E-01  1.52390E-01  3.36166E-01  8.64768E-01  1.61187E+00  2.55443E+00  3.34305E+00  3.63552E+00  3.26742E+00  2.31327E+00
   1.01446E+00  3.46710E-02  1.36216E-01  1.47219E+00  3.31542E+00  4.88867E+00  5.93577E+00  6.49464E+00  6.62609E+00  6.66935E+00
   7.94792E+00  1.12928E+01  1.72767E+01  2.74122E+01  3.71623E+01  4.34402E+01  4.64051E+01  5.30625E+01  7.37210E+01  9.31636E+01
   9.38725E+01  7.68262E+01  5.37561E+01  3.41641E+01  1.95757E+01  9.50551E+00  4.89186E+00  3.41044E+00  2.50246E+00  1.85559E+00
   1.42811E+00  1.16664E+00  1.06955E+00  9.81225E-01  6.79071E-01  1.62084E-01 -3.82585E-01 -8.15353E-01 -1.15521E+00 -1.43546E+00
  -1.56287E+00 -1.54892E+00 -1.51658E+00 -1.54505E+00 -1.63431E+00 -1.75644E+00 -1.87990E+00 -2.00067E+00 -2.06957E+00 -2.00722E+00
  -1.81654E+00 -1.57152E+00 -1.34535E+00 -1.17348E+00 -1.04887E+00 -9.69932E-01 -9.49770E-01 -9.42921E-01 -8.99658E-01 -8.16549E-01
  -7.17526E-01 -6.31244E-01 -5.70890E-01 -5.44977E-01 -5.60852E-01 -6.15347E-01 -6.97579E-01 -8.00525E-01 -9.16450E-01 -1.03977E+00
  -1.16519E+00 -1.28963E+00 -1.40655E+00 -1.50894E+00 -1.58855E+00 -1.64034E+00 -1.65908E+00 -1.64061E+00 -1.57877E+00 -1.46945E+00
  -1.30861E+00 -1.09512E+00 -8.27062E-01 -5.03871E-01 -1.23906E-01  3.11526E-01  8.00242E-01  1.33681E+00  1.91631E+00  2.53196E+00
   3.17730E+00  3.84261E+00  4.51777E+00  5.19064E+00  5.85101E+00  6.48838E+00  7.09454E+00  7.66110E+00  8.18367E+00  8.66244E+00
   9.11113E+00  9.57313E+00  1.01041E+01  1.06026E+01  1.11684E+01  1.13743E+01  1.05880E+01  8.97008E+00  7.19348E+00  5.80260E+00
   4.97096E+00  4.50309E+00  4.80331E+00  5.92613E+00  7.11174E+00  7.69883E+00  7.57474E+00  7.02921E+00  6.34426E+00  5.61260E+00
   4.94781E+00  4.41814E+00  3.97412E+00  3.57176E+00  3.19696E+00  2.84164E+00  2.50236E+00  2.17694E+00  1.86628E+00  1.57096E+00
   1.29292E+00  1.03301E+00  7.93817E-01  5.77597E-01  3.88360E-01  2.28791E-01  1.02314E-01  1.09814E-02 -4.16049E-02 -5.25764E-02
  -1.79297E-02  6.44931E-02  1.97241E-01  3.81271E-01  6.18588E-01  9.09598E-01  1.25473E+00  1.65151E+00  2.09698E+00  2.58569E+00
   3.11216E+00  3.66815E+00  4.24450E+00  4.82884E+00  5.40855E+00  5.96928E+00  6.49768E+00  6.97918E+00  7.40045E+00  7.74792E+00
   8.01109E+00  8.18109E+00  8.25309E+00  8.22386E+00  8.09392E+00  7.86564E+00  7.54569E+00  7.14255E+00  6.66782E+00  6.13310E+00
   5.55162E+00  4.93593E+00  4.29984E+00  3.65558E+00  3.01514E+00  2.38756E+00  1.78120E+00  1.20194E+00  6.55452E-01  1.44816E-01
  -3.27575E-01 -7.61964E-01 -1.15853E+00 -1.51894E+00 -1.84411E+00 -2.13659E+00 -2.39850E+00 -2.63333E+00 -2.84332E+00 -3.03129E+00
  -3.19877E+00 -3.34844E+00 -3.48211E+00 -3.60245E+00 -3.71057E+00 -3.80813E+00 -3.89564E+00 -3.97483E+00 -4.04652E+00 -4.11225E+00
  -4.17208E+00 -4.22682E+00 -4.27641E+00 -4.32209E+00 -4.36409E+00 -4.40332E+00 -4.43931E+00 -4.47259E+00 -4.50296E+00 -4.53144E+00
  -4.55795E+00 -4.58304E+00 -4.60604E+00 -4.62743E+00 -4.64705E+00 -4.66578E+00 -4.68333E+00 -4.70003E+00 -4.71521E+00 -4.72942E+00
  -4.74253E+00 -4.75530E+00 -4.76725E+00 -4.77860E+00 -4.78874E+00 -4.79833E+00 -4.80725E+00 -4.81611E+00 -4.82430E+00 -4.83200E+00
  -4.83875E+00 -4.84527E+00 -4.85139E+00 -4.85755E+00 -4.86304E+00 -4.86814E+00 -4.87250E+00 -4.87689E+00 -4.88102E+00 -4.88520E+00
  -4.88871E+00 -4.89193E+00 -4.89462E+00 -4.89752E+00 -4.90020E+00 -4.90287E+00 -4.90487E+00 -4.90669E+00 -4.90819E+00 -4.90999E+00
  -4.91154E+00 -4.91301E+00 -4.91384E+00 -4.91464E+00 -4.91527E+00 -4.91621E+00 -4.91681E+00 -4.91727E+00
 NY background values follow
    -1.941E+00   -1.959E+00   -1.977E+00   -1.995E+00   -2.013E+00   -2.031E+00   -2.049E+00   -2.067E+00   -2.085E+00   -2.103E+00
    -2.122E+00   -2.140E+00   -2.158E+00   -2.176E+00   -2.194E+00   -2.212E+00   -2.230E+00   -2.248E+00   -2.266E+00   -2.285E+00
    -2.303E+00   -2.321E+00   -2.339E+00   -2.357E+00   -2.375E+00   -2.393E+00   -2.411E+00   -2.429E+00   -2.448E+00   -2.466E+00
    -2.484E+00   -2.502E+00   -2.520E+00   -2.538E+00   -2.556E+00   -2.574E+00   -2.592E+00   -2.611E+00   -2.629E+00   -2.647E+00
    -2.665E+00   -2.683E+00   -2.701E+00   -2.719E+00   -2.737E+00   -2.755E+00   -2.774E+00   -2.792E+00   -2.810E+00   -2.828E+00
    -2.846E+00   -2.864E+00   -2.882E+00   -2.900E+00   -2.918E+00   -2.936E+00   -2.954E+00   -2.972E+00   -2.991E+00   -3.009E+00
    -3.027E+00   -3.045E+00   -3.063E+00   -3.081E+00   -3.099E+00   -3.117E+00   -3.135E+00   -3.153E+00   -3.171E+00   -3.189E+00
    -3.207E+00   -3.225E+00   -3.243E+00   -3.261E+00   -3.279E+00   -3.297E+00   -3.314E+00   -3.332E+00   -3.350E+00   -3.368E+00
    -3.386E+00   -3.404E+00   -3.422E+00   -3.439E+00   -3.457E+00   -3.475E+00   -3.493E+00   -3.511E+00   -3.528E+00   -3.546E+00
    -3.564E+00   -3.582E+00   -3.599E+00   -3.617E+00   -3.635E+00   -3.652E+00   -3.670E+00   -3.687E+00   -3.705E+00   -3.723E+00
    -3.740E+00   -3.758E+00   -3.775E+00   -3.793E+00   -3.810E+00   -3.827E+00   -3.845E+00   -3.862E+00   -3.880E+00   -3.897E+00
    -3.914E+00   -3.931E+00   -3.949E+00   -3.966E+00   -3.983E+00   -4.000E+00   -4.017E+00   -4.034E+00   -4.052E+00   -4.069E+00
    -4.086E+00   -4.103E+00   -4.120E+00   -4.136E+00   -4.153E+00   -4.170E+00   -4.187E+00   -4.204E+00   -4.221E+00   -4.237E+00
    -4.254E+00   -4.271E+00   -4.287E+00   -4.304E+00   -4.320E+00   -4.337E+00   -4.353E+00   -4.370E+00   -4.386E+00   -4.402E+00
    -4.419E+00   -4.435E+00   -4.451E+00   -4.467E+00   -4.484E+00   -4.500E+00   -4.516E+00   -4.532E+00   -4.547E+00   -4.563E+00
    -4.579E+00   -4.595E+00   -4.610E+00   -4.626E+00   -4.641E+00   -4.657E+00   -4.672E+00   -4.688E+00   -4.703E+00   -4.718E+00
    -4.733E+00   -4.748E+00   -4.763E+00   -4.778E+00   -4.793E+00   -4.807E+00   -4.822E+00   -4.836E+00   -4.851E+00   -4.865E+00
    -4.879E+00   -4.893E+00   -4.908E+00   -4.921E+00   -4.935E+00   -4.949E+00   -4.963E+00   -4.976E+00   -4.990E+00   -5.003E+00
    -5.016E+00   -5.029E+00   -5.042E+00   -5.055E+00   -5.068E+00   -5.081E+00   -5.093E+00   -5.106E+00   -5.118E+00   -5.130E+00
    -5.143E+00   -5.155E+00   -5.167E+00   -5.178E+00   -5.190E+00   -5.202E+00   -5.213E+00   -5.224E+00   -5.236E+00   -5.247E+00
    -5.258E+00   -5.269E+00   -5.280E+00   -5.291E+00   -5.301E+00   -5.312E+00   -5.322E+00   -5.333E+00   -5.343E+00   -5.353E+00
    -5.363E+00   -5.373E+00   -5.383E+00   -5.393E+00   -5.402E+00   -5.412E+00   -5.421E+00   -5.430E+00   -5.440E+00   -5.449E+00
    -5.458E+00   -5.467E+00   -5.476E+00   -5.484E+00   -5.493E+00   -5.502E+00   -5.510E+00   -5.518E+00   -5.527E+00   -5.535E+00
    -5.543E+00   -5.551E+00   -5.559E+00   -5.566E+00   -5.574E+00   -5.582E+00   -5.589E+00   -5.596E+00   -5.604E+00   -5.611E+00
    -5.618E+00   -5.625E+00   -5.632E+00   -5.639E+00   -5.646E+00   -5.652E+00   -5.659E+00   -5.665E+00   -5.672E+00   -5.678E+00
    -5.684E+00   -5.690E+00   -5.696E+00   -5.702E+00   -5.708E+00   -5.714E+00   -5.719E+00   -5.725E+00   -5.730E+00   -5.736E+00
    -5.741E+00   -5.746E+00   -5.751E+00   -5.756E+00   -5.761E+00   -5.766E+00   -5.771E+00   -5.776E+00   -5.780E+00   -5.785E+00
    -5.789E+00   -5.793E+00   -5.798E+00   -5.802E+00   -5.806E+00   -5.810E+00   -5.814E+00   -5.818E+00   -5.821E+00   -5.825E+00
    -5.829E+00   -5.832E+00   -5.836E+00   -5.839E+00   -5.842E+00   -5.845E+00   -5.848E+00   -5.851E+00   -5.854E+00   -5.857E+00
    -5.860E+00   -5.863E+00   -5.865E+00   -5.868E+00   -5.870E+00   -5.873E+00   -5.875E+00   -5.877E+00   -5.879E+00   -5.881E+00
    -5.883E+00   -5.885E+00   -5.887E+00   -5.889E+00   -5.891E+00   -5.892E+00   -5.894E+00   -5.895E+00   -5.897E+00   -5.898E+00
    -5.900E+00   -5.901E+00   -5.902E+00   -5.903E+00   -5.904E+00   -5.905E+00   -5.906E+00   -5.906E+00   -5.907E+00   -5.908E+00
    -5.908E+00   -5.909E+00   -5.909E+00   -5.910E+00   -5.910E+00   -5.910E+00   -5.911E+00   -5.911E+00   -5.911E+00   -5.911E+00
    -5.911E+00   -5.911E+00   -5.910E+00   -5.910E+00   -5.910E+00   -5.909E+00   -5.909E+00   -5.908E+00   -5.908E+00   -5.907E+00
    -5.907E+00   -5.906E+00   -5.905E+00   -5.904E+00   -5.903E+00   -5.902E+00   -5.901E+00   -5.900E+00   -5.899E+00   -5.898E+00
    -5.897E+00   -5.895E+00   -5.894E+00   -5.893E+00   -5.891E+00   -5.890E+00   -5.888E+00   -5.886E+00   -5.885E+00   -5.883E+00
    -5.881E+00   -5.879E+00   -5.878E+00   -5.876E+00   -5.874E+00   -5.872E+00   -5.870E+00   -5.867E+00   -5.865E+00   -5.863E+00
    -5.861E+00   -5.858E+00   -5.856E+00   -5.854E+00   -5.851E+00   -5.849E+00   -5.846E+00   -5.844E+00   -5.841E+00   -5.838E+00
    -5.836E+00   -5.833E+00   -5.830E+00   -5.827E+00   -5.824E+00   -5.821E+00   -5.818E+00   -5.815E+00   -5.812E+00   -5.809E+00
    -5.806E+00   -5.803E+00   -5.800E+00   -5.796E+00   -5.793E+00   -5.790E+00   -5.786E+00   -5.783E+00   -5.780E+00   -5.776E+00
    -5.773E+00   -5.769E+00   -5.765E+00   -5.762E+00   -5.758E+00   -5.754E+00   -5.751E+00   -5.747E+00   -5.743E+00   -5.739E+00
    -5.735E+00   -5.732E+00   -5.728E+00   -5.724E+00   -5.720E+00   -5.716E+00   -5.712E+00   -5.707E+00   -5.703E+00   -5.699E+00
    -5.695E+00   -5.691E+00   -5.687E+00   -5.682E+00   -5.678E+00   -5.674E+00   -5.669E+00   -5.665E+00   -5.661E+00   -5.656E+00
    -5.652E+00   -5.647E+00   -5.643E+00   -5.638E+00   -5.634E+00   -5.629E+00   -5.625E+00   -5.620E+00   -5.616E+00   -5.611E+00
    -5.606E+00   -5.602E+00   -5.597E+00   -5.592E+00   -5.588E+00   -5.583E+00   -5.578E+00   -5.573E+00   -5.569E+00   -5.564E+00
    -5.559E+00   -5.554E+00   -5.549E+00   -5.545E+00   -5.540E+00   -5.535E+00   -5.530E+00   -5.525E+00   -5.520E+00   -5.515E+00
    -5.510E+00   -5.505E+00   -5.501E+00   -5.496E+00   -5.491E+00   -5.486E+00   -5.481E+00   -5.476E+00   -5.471E+00   -5.466E+00
    -5.461E+00   -5.456E+00   -5.451E+00   -5.446E+00   -5.441E+00   -5.436E+00   -5.431E+00   -5.426E+00   -5.421E+00   -5.416E+00
    -5.411E+00   -5.406E+00   -5.401E+00   -5.395E+00   -5.390E+00   -5.385E+00   -5.380E+00   -5.375E+00   -5.370E+00   -5.365E+00
    -5.360E+00   -5.355E+00   -5.350E+00   -5.345E+00   -5.340E+00   -5.335E+00   -5.330E+00   -5.325E+00
 Cr       Conc. = 4.15E+02
