 LCModel (Version 6.3-1L) Copyright: S.W. Provencher.          Ref.: Magn. Reson. Med. 30:672-679 (1993).                
 Slice#3 Row#13 Col#5  K_02_press_1_raw_act
 36 lines in following concentration table = NCONC+1
    Conc.  %SD /Cr+PCr  Metabolite                                         
 1.26E+03  49%   1.159 Ala                                                 
  318.766  77%   0.294 Asp                                                 
 1.09E+03   9%   1.000 Cr                                                  
    0.000 999%   0.000 PCr                                                 
    0.000 999%   0.000 GABA                                                
    0.000 999%   0.000 Glc                                                 
 4.84E+03  19%   4.462 Gln                                                 
 7.88E+03  17%   7.260 Glu                                                 
  582.891   7%   0.537 GPC                                                 
    0.000 999%   0.000 PCh                                                 
    0.000 999%   0.000 GSH                                                 
 6.94E+03   8%   6.393 Ins                                                 
 3.01E+03  43%   2.779 Lac                                                 
  328.957  26%   0.303 NAA                                                 
    0.000 999%   0.000 NAAG                                                
  185.737  22%   0.171+Scyllo                                              
    0.000 999%   0.000 Tau                                                 
 2.99E+03  11%   2.754+-CrCH2                                              
  582.891   7%   0.537 GPC+PCh                                             
  328.957  26%   0.303 NAA+NAAG                                            
 1.09E+03   9%   1.000 Cr+PCr                                              
 1.27E+04  16%  11.722 Glu+Gln                                             
 1.01E+04  15%   9.313 Lip13a                                              
  822.438  24%   0.758 Lip13b                                              
 2.92E+03  13%   2.689 Lip09                                               
    0.000 999%   0.000 MM09                                                
 1.64E+03  13%   1.509 Lip20                                               
    0.000 999%   0.000 MM20                                                
 4.36E-02 999% 4.0E-05 MM12                                                
    1.395 999% 1.3E-03 MM14                                                
    0.823 999% 7.6E-04 MM17                                                
 1.09E+04  13%  10.071 Lip13a+Lip13b                                       
 1.09E+04  13%  10.073 MM14+Lip13a+Lip13b+MM12                             
 2.92E+03  13%   2.689 MM09+Lip09                                          
 1.64E+03  13%   1.509 MM20+Lip20                                          
   6 lines in following misc. output table
  FWHM = 0.138 ppm    S/N =   8                                            
  Data shift = 0.046 ppm                                                   
  Ph: -23 deg      -7.4 deg/ppm                                            
  alphaB,S = 5.4E+00,   4.6E+02                                            
    6 spline knots.   Ns = 9(2)                                            
  (12) 2 infls.   ( 5) 1 extrs.                                            
  498 points on ppm-axis = NY
      4.000000     3.992357     3.984714     3.977070     3.969427     3.961784     3.954141     3.946497     3.938854     3.931211
      3.923568     3.915925     3.908281     3.900638     3.892995     3.885352     3.877708     3.870065     3.862422     3.854779
      3.847136     3.839492     3.831849     3.824206     3.816563     3.808919     3.801276     3.793633     3.785990     3.778347
      3.770703     3.763060     3.755417     3.747774     3.740130     3.732487     3.724844     3.717201     3.709558     3.701914
      3.694271     3.686628     3.678985     3.671341     3.663698     3.656055     3.648412     3.640769     3.633125     3.625482
      3.617839     3.610196     3.602552     3.594909     3.587266     3.579623     3.571980     3.564336     3.556693     3.549050
      3.541407     3.533763     3.526120     3.518477     3.510834     3.503191     3.495547     3.487904     3.480261     3.472618
      3.464974     3.457331     3.449688     3.442045     3.434402     3.426758     3.419115     3.411472     3.403829     3.396185
      3.388542     3.380899     3.373256     3.365613     3.357969     3.350326     3.342683     3.335040     3.327396     3.319753
      3.312110     3.304467     3.296824     3.289180     3.281537     3.273894     3.266251     3.258607     3.250964     3.243321
      3.235678     3.228034     3.220391     3.212748     3.205105     3.197462     3.189818     3.182175     3.174532     3.166889
      3.159245     3.151602     3.143959     3.136316     3.128673     3.121029     3.113386     3.105743     3.098100     3.090456
      3.082813     3.075170     3.067527     3.059884     3.052240     3.044597     3.036954     3.029311     3.021667     3.014024
      3.006381     2.998738     2.991095     2.983451     2.975808     2.968165     2.960522     2.952878     2.945235     2.937592
      2.929949     2.922306     2.914662     2.907019     2.899376     2.891733     2.884089     2.876446     2.868803     2.861160
      2.853517     2.845873     2.838230     2.830587     2.822944     2.815300     2.807657     2.800014     2.792371     2.784728
      2.777084     2.769441     2.761798     2.754155     2.746511     2.738868     2.731225     2.723582     2.715939     2.708295
      2.700652     2.693009     2.685366     2.677722     2.670079     2.662436     2.654793     2.647150     2.639506     2.631863
      2.624220     2.616577     2.608933     2.601290     2.593647     2.586004     2.578361     2.570717     2.563074     2.555431
      2.547788     2.540144     2.532501     2.524858     2.517215     2.509572     2.501928     2.494285     2.486642     2.478999
      2.471355     2.463712     2.456069     2.448426     2.440783     2.433139     2.425496     2.417853     2.410210     2.402566
      2.394923     2.387280     2.379637     2.371994     2.364350     2.356707     2.349064     2.341421     2.333777     2.326134
      2.318491     2.310848     2.303205     2.295561     2.287918     2.280275     2.272632     2.264988     2.257345     2.249702
      2.242059     2.234416     2.226772     2.219129     2.211486     2.203843     2.196199     2.188556     2.180913     2.173270
      2.165627     2.157983     2.150340     2.142697     2.135054     2.127410     2.119767     2.112124     2.104481     2.096838
      2.089194     2.081551     2.073908     2.066265     2.058621     2.050978     2.043335     2.035692     2.028049     2.020405
      2.012762     2.005119     1.997476     1.989833     1.982190     1.974546     1.966903     1.959260     1.951617     1.943974
      1.936331     1.928688     1.921045     1.913402     1.905759     1.898115     1.890472     1.882829     1.875186     1.867543
      1.859900     1.852257     1.844614     1.836971     1.829327     1.821684     1.814041     1.806398     1.798755     1.791112
      1.783469     1.775826     1.768183     1.760540     1.752896     1.745253     1.737610     1.729967     1.722324     1.714681
      1.707038     1.699395     1.691752     1.684108     1.676465     1.668822     1.661179     1.653536     1.645893     1.638250
      1.630607     1.622964     1.615321     1.607677     1.600034     1.592391     1.584748     1.577105     1.569462     1.561819
      1.554176     1.546533     1.538890     1.531246     1.523603     1.515960     1.508317     1.500674     1.493031     1.485388
      1.477745     1.470102     1.462458     1.454815     1.447172     1.439529     1.431886     1.424243     1.416600     1.408957
      1.401314     1.393671     1.386027     1.378384     1.370741     1.363098     1.355455     1.347812     1.340169     1.332526
      1.324883     1.317240     1.309596     1.301953     1.294310     1.286667     1.279024     1.271381     1.263738     1.256095
      1.248452     1.240808     1.233165     1.225522     1.217879     1.210236     1.202593     1.194950     1.187307     1.179664
      1.172021     1.164377     1.156734     1.149091     1.141448     1.133805     1.126162     1.118519     1.110876     1.103233
      1.095590     1.087946     1.080303     1.072660     1.065017     1.057374     1.049731     1.042088     1.034445     1.026802
      1.019158     1.011515     1.003872     0.996229     0.988586     0.980943     0.973300     0.965657     0.958014     0.950371
      0.942727     0.935084     0.927441     0.919798     0.912155     0.904512     0.896869     0.889226     0.881583     0.873940
      0.866296     0.858653     0.851010     0.843367     0.835724     0.828081     0.820438     0.812795     0.805152     0.797508
      0.789865     0.782222     0.774579     0.766936     0.759293     0.751650     0.744007     0.736364     0.728721     0.721077
      0.713434     0.705791     0.698148     0.690505     0.682862     0.675219     0.667576     0.659933     0.652290     0.644646
      0.637003     0.629360     0.621717     0.614074     0.606431     0.598788     0.591145     0.583502     0.575858     0.568215
      0.560572     0.552929     0.545286     0.537643     0.530000     0.522357     0.514714     0.507071     0.499427     0.491784
      0.484141     0.476498     0.468855     0.461212     0.453569     0.445925     0.438282     0.430639     0.422996     0.415353
      0.407710     0.400067     0.392424     0.384780     0.377137     0.369494     0.361851     0.354208     0.346565     0.338922
      0.331278     0.323635     0.315992     0.308349     0.300706     0.293063     0.285420     0.277777     0.270133     0.262490
      0.254847     0.247204     0.239561     0.231918     0.224275     0.216631     0.208988     0.201345
 NY phased data points follow
  -4.08617E+02 -4.03900E+02 -3.95966E+02 -3.89066E+02 -3.82917E+02 -3.78275E+02 -3.69470E+02 -3.65910E+02 -3.57548E+02 -3.51594E+02
  -3.47127E+02 -3.43004E+02 -3.37805E+02 -3.33184E+02 -3.29688E+02 -3.25641E+02 -3.21285E+02 -3.16776E+02 -3.13104E+02 -3.07944E+02
  -3.04131E+02 -2.99775E+02 -2.96790E+02 -2.93046E+02 -2.90278E+02 -2.84472E+02 -2.80329E+02 -2.77164E+02 -2.73177E+02 -2.68246E+02
  -2.63837E+02 -2.59336E+02 -2.54509E+02 -2.52291E+02 -2.45823E+02 -2.45917E+02 -2.38977E+02 -2.33721E+02 -2.34191E+02 -2.30457E+02
  -2.26365E+02 -2.21818E+02 -2.18251E+02 -2.17536E+02 -2.14605E+02 -2.13087E+02 -2.06979E+02 -2.06909E+02 -2.04527E+02 -2.03588E+02
  -2.01740E+02 -1.96580E+02 -1.96705E+02 -1.94005E+02 -1.92984E+02 -1.92634E+02 -1.91133E+02 -1.91787E+02 -1.90085E+02 -1.86073E+02
  -1.85497E+02 -1.83711E+02 -1.86087E+02 -1.82391E+02 -1.83733E+02 -1.81239E+02 -1.78878E+02 -1.81287E+02 -1.78595E+02 -1.78499E+02
  -1.76069E+02 -1.73411E+02 -1.72501E+02 -1.68061E+02 -1.66463E+02 -1.67415E+02 -1.62281E+02 -1.63754E+02 -1.62399E+02 -1.60916E+02
  -1.56899E+02 -1.56189E+02 -1.53493E+02 -1.54225E+02 -1.49232E+02 -1.51505E+02 -1.47258E+02 -1.46863E+02 -1.42252E+02 -1.43056E+02
  -1.39185E+02 -1.38883E+02 -1.39525E+02 -1.36140E+02 -1.33185E+02 -1.28692E+02 -1.29161E+02 -1.25643E+02 -1.25255E+02 -1.22504E+02
  -1.21626E+02 -1.18091E+02 -1.18132E+02 -1.17485E+02 -1.15944E+02 -1.11893E+02 -1.14122E+02 -1.11744E+02 -1.10019E+02 -1.09678E+02
  -1.11830E+02 -1.12481E+02 -1.08049E+02 -1.10342E+02 -1.06848E+02 -1.07388E+02 -1.07264E+02 -1.04873E+02 -1.06191E+02 -1.07060E+02
  -1.03394E+02 -1.03672E+02 -1.01600E+02 -1.02058E+02 -1.00042E+02 -9.94051E+01 -9.64112E+01 -9.51940E+01 -9.34533E+01 -9.44669E+01
  -9.52920E+01 -9.57008E+01 -9.39694E+01 -9.36949E+01 -9.46573E+01 -9.35261E+01 -9.41141E+01 -9.02209E+01 -8.91303E+01 -9.12489E+01
  -8.98839E+01 -9.10110E+01 -8.84813E+01 -9.30767E+01 -9.32909E+01 -9.19247E+01 -9.12646E+01 -9.09878E+01 -9.32842E+01 -9.00083E+01
  -9.02128E+01 -8.79089E+01 -9.17049E+01 -9.02685E+01 -9.15581E+01 -9.09218E+01 -9.05207E+01 -8.83894E+01 -8.90884E+01 -8.84739E+01
  -9.04231E+01 -8.94433E+01 -8.87779E+01 -8.57900E+01 -8.78966E+01 -8.52232E+01 -8.55102E+01 -8.48178E+01 -8.22131E+01 -8.18166E+01
  -8.29573E+01 -8.35687E+01 -8.07232E+01 -8.00074E+01 -8.15975E+01 -7.94963E+01 -7.84721E+01 -8.02652E+01 -7.87709E+01 -7.84051E+01
  -7.65076E+01 -7.79768E+01 -8.07044E+01 -7.93831E+01 -7.57032E+01 -7.44732E+01 -7.54216E+01 -7.44429E+01 -7.31490E+01 -7.56513E+01
  -7.48604E+01 -7.10169E+01 -7.29258E+01 -7.06859E+01 -6.95476E+01 -6.94843E+01 -7.08170E+01 -6.85898E+01 -6.70635E+01 -6.98300E+01
  -6.86157E+01 -7.22546E+01 -6.75964E+01 -6.76212E+01 -6.98167E+01 -7.08628E+01 -6.80917E+01 -7.01967E+01 -6.74505E+01 -6.77992E+01
  -6.93098E+01 -6.65705E+01 -6.93492E+01 -6.65713E+01 -6.64091E+01 -6.54222E+01 -6.72896E+01 -6.59685E+01 -6.63515E+01 -6.62268E+01
  -6.17180E+01 -6.46684E+01 -6.28163E+01 -6.53168E+01 -6.39389E+01 -6.61051E+01 -6.19978E+01 -6.24833E+01 -6.24233E+01 -6.14384E+01
  -6.15161E+01 -6.07751E+01 -6.04055E+01 -6.35144E+01 -6.19429E+01 -6.31805E+01 -5.90587E+01 -6.31847E+01 -6.04269E+01 -5.81405E+01
  -6.02279E+01 -5.88384E+01 -6.28205E+01 -5.83297E+01 -5.97862E+01 -6.01200E+01 -5.95456E+01 -5.71599E+01 -5.87116E+01 -5.63325E+01
  -5.73918E+01 -5.81208E+01 -5.57151E+01 -5.48175E+01 -5.35117E+01 -5.20815E+01 -5.20795E+01 -5.29539E+01 -4.90114E+01 -4.97728E+01
  -5.03524E+01 -4.55996E+01 -5.16950E+01 -4.97336E+01 -4.82505E+01 -5.25847E+01 -5.13311E+01 -5.11099E+01 -4.90844E+01 -5.18193E+01
  -5.17772E+01 -5.08078E+01 -5.36780E+01 -5.24908E+01 -5.25807E+01 -5.44963E+01 -5.57426E+01 -5.36155E+01 -5.26568E+01 -5.28185E+01
  -5.23782E+01 -5.25941E+01 -5.28340E+01 -5.41705E+01 -5.49459E+01 -5.34981E+01 -5.29951E+01 -5.10769E+01 -5.30774E+01 -5.23171E+01
  -5.35239E+01 -5.24242E+01 -5.14971E+01 -5.19221E+01 -5.25621E+01 -5.39788E+01 -5.27750E+01 -5.07199E+01 -5.32210E+01 -4.90422E+01
  -5.18133E+01 -5.29079E+01 -4.86382E+01 -5.09404E+01 -4.97500E+01 -5.07326E+01 -5.12049E+01 -4.77820E+01 -4.98202E+01 -4.96532E+01
  -4.70067E+01 -4.86336E+01 -4.75131E+01 -4.89624E+01 -4.62106E+01 -4.46176E+01 -4.55808E+01 -4.63760E+01 -4.53741E+01 -4.36952E+01
  -4.44605E+01 -4.57241E+01 -4.19742E+01 -4.02628E+01 -4.44226E+01 -3.94400E+01 -4.17272E+01 -3.40644E+01 -3.82622E+01 -3.71097E+01
  -3.45236E+01 -3.50641E+01 -3.48696E+01 -3.29744E+01 -3.10394E+01 -2.83755E+01 -2.91070E+01 -2.87423E+01 -2.48803E+01 -2.47645E+01
  -2.18913E+01 -2.10462E+01 -1.94866E+01 -1.47941E+01 -1.04702E+01 -1.08414E+01 -9.30792E+00 -8.49605E+00 -9.04599E+00 -8.24164E+00
  -6.58705E+00 -8.64510E+00 -9.41493E+00 -6.45435E+00 -7.65692E+00 -1.02160E+01 -1.05658E+01 -7.83586E+00 -1.02612E+01 -1.15102E+01
  -1.13111E+01 -1.13178E+01 -1.18067E+01 -1.14528E+01 -1.18421E+01 -1.10292E+01 -1.37264E+01 -1.06093E+01 -1.28706E+01 -1.34391E+01
  -1.46181E+01 -1.66994E+01 -1.63794E+01 -1.43632E+01 -1.82908E+01 -2.01073E+01 -1.72752E+01 -1.92348E+01 -1.73588E+01 -1.80933E+01
  -1.74623E+01 -1.99036E+01 -1.66327E+01 -1.90094E+01 -1.80665E+01 -1.84604E+01 -1.83555E+01 -2.05724E+01 -2.08430E+01 -1.90019E+01
  -1.98495E+01 -1.96363E+01 -1.92052E+01 -2.04080E+01 -2.24106E+01 -2.09889E+01 -2.19019E+01 -2.07869E+01 -2.26688E+01 -2.18419E+01
  -1.70822E+01 -2.16009E+01 -2.19001E+01 -2.08423E+01 -2.27101E+01 -2.21785E+01 -2.40050E+01 -2.37053E+01 -2.10465E+01 -1.98592E+01
  -2.17385E+01 -2.05184E+01 -2.25773E+01 -2.22744E+01 -2.34197E+01 -2.39520E+01 -2.33806E+01 -2.29046E+01 -2.42581E+01 -2.44949E+01
  -2.40935E+01 -2.34822E+01 -2.55719E+01 -2.51150E+01 -2.44063E+01 -2.22864E+01 -2.39775E+01 -2.52617E+01 -2.14285E+01 -2.14035E+01
  -2.17463E+01 -2.38656E+01 -2.69693E+01 -2.70416E+01 -2.23499E+01 -2.29120E+01 -2.31838E+01 -2.55870E+01 -2.43453E+01 -2.43272E+01
  -2.54012E+01 -2.22227E+01 -2.35722E+01 -2.16326E+01 -2.14721E+01 -2.35320E+01 -2.25426E+01 -2.04479E+01 -2.21414E+01 -2.14486E+01
  -2.11057E+01 -2.04153E+01 -2.03392E+01 -1.93977E+01 -2.04300E+01 -1.73172E+01 -1.72431E+01 -1.74168E+01 -1.91920E+01 -1.89141E+01
  -1.70119E+01 -1.90341E+01 -1.81442E+01 -1.87435E+01 -1.81262E+01 -1.79127E+01 -2.07136E+01 -2.14429E+01 -1.96722E+01 -1.91128E+01
  -1.74966E+01 -1.68053E+01 -2.06887E+01 -1.79904E+01 -1.99247E+01 -1.82742E+01 -1.96793E+01 -1.85331E+01 -1.69893E+01 -1.76969E+01
  -1.94685E+01 -1.53930E+01 -1.65344E+01 -1.73950E+01 -1.86040E+01 -1.72256E+01 -1.74862E+01 -1.63099E+01 -1.70672E+01 -1.49242E+01
  -1.58866E+01 -1.55543E+01 -1.62879E+01 -1.53364E+01 -1.52127E+01 -1.28894E+01 -1.19611E+01 -1.17220E+01
 NY points of the fit to the data follow
  -3.96447E+02 -3.89903E+02 -3.90347E+02 -3.83559E+02 -3.82321E+02 -3.75421E+02 -3.72742E+02 -3.66014E+02 -3.62214E+02 -3.56002E+02
  -3.51672E+02 -3.46499E+02 -3.41696E+02 -3.37249E+02 -3.32017E+02 -3.27471E+02 -3.21731E+02 -3.17246E+02 -3.11586E+02 -3.07856E+02
  -3.02742E+02 -2.99862E+02 -2.94861E+02 -2.92183E+02 -2.87049E+02 -2.84192E+02 -2.78802E+02 -2.75295E+02 -2.70285E+02 -2.66908E+02
  -2.62290E+02 -2.59230E+02 -2.54913E+02 -2.51931E+02 -2.47499E+02 -2.44380E+02 -2.40020E+02 -2.36946E+02 -2.32801E+02 -2.29784E+02
  -2.26045E+02 -2.23361E+02 -2.20222E+02 -2.17984E+02 -2.15352E+02 -2.13439E+02 -2.11144E+02 -2.09358E+02 -2.07321E+02 -2.05711E+02
  -2.04035E+02 -2.02575E+02 -2.00968E+02 -1.99569E+02 -1.97833E+02 -1.96065E+02 -1.94114E+02 -1.92163E+02 -1.90231E+02 -1.88483E+02
  -1.86760E+02 -1.85285E+02 -1.83557E+02 -1.82151E+02 -1.80329E+02 -1.79002E+02 -1.77090E+02 -1.75666E+02 -1.73506E+02 -1.72420E+02
  -1.70432E+02 -1.69712E+02 -1.67825E+02 -1.67375E+02 -1.65507E+02 -1.65273E+02 -1.63268E+02 -1.63295E+02 -1.61195E+02 -1.61333E+02
  -1.59060E+02 -1.59261E+02 -1.56888E+02 -1.57149E+02 -1.54387E+02 -1.53591E+02 -1.50557E+02 -1.49206E+02 -1.46212E+02 -1.44483E+02
  -1.41683E+02 -1.39508E+02 -1.36855E+02 -1.34200E+02 -1.31787E+02 -1.28777E+02 -1.26733E+02 -1.23708E+02 -1.22207E+02 -1.19671E+02
  -1.18749E+02 -1.16821E+02 -1.16380E+02 -1.15036E+02 -1.14940E+02 -1.14140E+02 -1.14301E+02 -1.13967E+02 -1.14121E+02 -1.13891E+02
  -1.13299E+02 -1.12984E+02 -1.11916E+02 -1.11472E+02 -1.10006E+02 -1.09417E+02 -1.07592E+02 -1.06991E+02 -1.04926E+02 -1.04426E+02
  -1.02217E+02 -1.01855E+02 -9.97095E+01 -9.95357E+01 -9.76151E+01 -9.71766E+01 -9.56639E+01 -9.54769E+01 -9.44430E+01 -9.44739E+01
  -9.38571E+01 -9.40298E+01 -9.37072E+01 -9.39403E+01 -9.37871E+01 -9.40155E+01 -9.39244E+01 -9.40930E+01 -9.39597E+01 -9.40360E+01
  -9.38123E+01 -9.38086E+01 -9.35489E+01 -9.34951E+01 -9.32380E+01 -9.31375E+01 -9.28600E+01 -9.26976E+01 -9.23614E+01 -9.20409E+01
  -9.13425E+01 -9.09247E+01 -9.02342E+01 -8.98143E+01 -8.91508E+01 -8.87322E+01 -8.80910E+01 -8.76700E+01 -8.70539E+01 -8.66351E+01
  -8.60371E+01 -8.56295E+01 -8.50510E+01 -8.46708E+01 -8.41158E+01 -8.37645E+01 -8.32138E+01 -8.28759E+01 -8.23286E+01 -8.20187E+01
  -8.14736E+01 -8.11824E+01 -8.06417E+01 -8.03634E+01 -7.98310E+01 -7.95668E+01 -7.90604E+01 -7.88909E+01 -7.83985E+01 -7.84386E+01
  -7.79764E+01 -7.81810E+01 -7.77101E+01 -7.80045E+01 -7.72838E+01 -7.74720E+01 -7.64571E+01 -7.66127E+01 -7.51618E+01 -7.53586E+01
  -7.37598E+01 -7.41159E+01 -7.27954E+01 -7.39303E+01 -7.24310E+01 -7.38527E+01 -7.19502E+01 -7.33458E+01 -7.08093E+01 -7.16904E+01
  -6.92306E+01 -7.00484E+01 -6.80737E+01 -6.89775E+01 -6.77455E+01 -6.89488E+01 -6.82681E+01 -6.87335E+01 -6.83000E+01 -6.79061E+01
  -6.78074E+01 -6.68387E+01 -6.72959E+01 -6.61926E+01 -6.72033E+01 -6.61437E+01 -6.73262E+01 -6.62612E+01 -6.73230E+01 -6.64609E+01
  -6.69449E+01 -6.61787E+01 -6.59180E+01 -6.52822E+01 -6.41007E+01 -6.37385E+01 -6.22510E+01 -6.20710E+01 -6.04217E+01 -6.05360E+01
  -5.91071E+01 -5.95019E+01 -5.86306E+01 -5.95973E+01 -5.90676E+01 -5.99639E+01 -5.96591E+01 -6.01159E+01 -5.98645E+01 -5.95819E+01
  -5.97041E+01 -5.92227E+01 -5.95221E+01 -5.87805E+01 -5.92729E+01 -5.85601E+01 -5.89873E+01 -5.79153E+01 -5.80614E+01 -5.68487E+01
  -5.66669E+01 -5.54336E+01 -5.50248E+01 -5.38514E+01 -5.34469E+01 -5.24227E+01 -5.21347E+01 -5.12610E+01 -5.12072E+01 -5.06530E+01
  -5.06542E+01 -5.02894E+01 -5.02751E+01 -5.01243E+01 -5.00395E+01 -5.01598E+01 -5.02158E+01 -5.04150E+01 -5.04947E+01 -5.07933E+01
  -5.08909E+01 -5.11993E+01 -5.13298E+01 -5.16624E+01 -5.17895E+01 -5.20627E+01 -5.21371E+01 -5.23487E+01 -5.23989E+01 -5.26102E+01
  -5.26728E+01 -5.29392E+01 -5.29070E+01 -5.30883E+01 -5.30124E+01 -5.31480E+01 -5.30301E+01 -5.30974E+01 -5.29900E+01 -5.30304E+01
  -5.28977E+01 -5.29257E+01 -5.27810E+01 -5.28015E+01 -5.26500E+01 -5.26627E+01 -5.24685E+01 -5.24340E+01 -5.21953E+01 -5.21215E+01
  -5.18417E+01 -5.17278E+01 -5.14055E+01 -5.12530E+01 -5.08822E+01 -5.06641E+01 -5.02103E+01 -4.98682E+01 -4.91967E+01 -4.85613E+01
  -4.80633E+01 -4.73755E+01 -4.71271E+01 -4.64293E+01 -4.64585E+01 -4.58032E+01 -4.61619E+01 -4.51454E+01 -4.56191E+01 -4.43385E+01
  -4.49791E+01 -4.35634E+01 -4.43623E+01 -4.28688E+01 -4.36219E+01 -4.19337E+01 -4.23735E+01 -4.03193E+01 -4.00379E+01 -3.71604E+01
  -3.65868E+01 -3.39398E+01 -3.32843E+01 -3.11417E+01 -3.04845E+01 -2.89763E+01 -2.83347E+01 -2.64312E+01 -2.53589E+01 -2.31974E+01
  -2.18183E+01 -1.96570E+01 -1.81068E+01 -1.61558E+01 -1.44853E+01 -1.26759E+01 -1.10830E+01 -9.54435E+00 -8.29628E+00 -7.27616E+00
  -6.78152E+00 -6.67818E+00 -6.84971E+00 -7.39184E+00 -7.87186E+00 -8.65041E+00 -9.09763E+00 -9.64486E+00 -9.83101E+00 -1.02614E+01
  -1.03680E+01 -1.08708E+01 -1.10389E+01 -1.17094E+01 -1.19687E+01 -1.27008E+01 -1.29880E+01 -1.36207E+01 -1.37796E+01 -1.41151E+01
  -1.44358E+01 -1.50770E+01 -1.55273E+01 -1.63492E+01 -1.68739E+01 -1.78237E+01 -1.83600E+01 -1.88825E+01 -1.91521E+01 -1.94992E+01
  -1.96328E+01 -1.98653E+01 -1.99006E+01 -2.00470E+01 -2.00089E+01 -2.00929E+01 -2.00048E+01 -2.00500E+01 -1.99355E+01 -1.99650E+01
  -1.98467E+01 -1.98823E+01 -1.97804E+01 -1.98404E+01 -1.97712E+01 -1.98693E+01 -1.98434E+01 -1.99873E+01 -2.00095E+01 -2.02010E+01
  -2.02701E+01 -2.05050E+01 -2.06145E+01 -2.08844E+01 -2.10239E+01 -2.13173E+01 -2.14744E+01 -2.17781E+01 -2.19398E+01 -2.22413E+01
  -2.23954E+01 -2.26832E+01 -2.28195E+01 -2.30847E+01 -2.31953E+01 -2.34314E+01 -2.35113E+01 -2.37142E+01 -2.37606E+01 -2.39289E+01
  -2.39411E+01 -2.40749E+01 -2.40539E+01 -2.41547E+01 -2.41024E+01 -2.41726E+01 -2.40917E+01 -2.41342E+01 -2.40277E+01 -2.40456E+01
  -2.39165E+01 -2.39128E+01 -2.37641E+01 -2.37417E+01 -2.35763E+01 -2.35379E+01 -2.33583E+01 -2.33063E+01 -2.31147E+01 -2.30513E+01
  -2.28499E+01 -2.27770E+01 -2.25675E+01 -2.24868E+01 -2.22709E+01 -2.21840E+01 -2.19630E+01 -2.18711E+01 -2.16463E+01 -2.15507E+01
  -2.13232E+01 -2.12248E+01 -2.09957E+01 -2.08955E+01 -2.06656E+01 -2.05645E+01 -2.03345E+01 -2.02332E+01 -2.00039E+01 -1.99031E+01
  -1.96751E+01 -1.95755E+01 -1.93494E+01 -1.92515E+01 -1.90279E+01 -1.89322E+01 -1.87116E+01 -1.86186E+01 -1.84014E+01 -1.83115E+01
  -1.80982E+01 -1.80120E+01 -1.78029E+01 -1.77206E+01 -1.75163E+01 -1.74383E+01 -1.72390E+01 -1.71657E+01 -1.69717E+01 -1.69035E+01
  -1.67152E+01 -1.66523E+01 -1.64699E+01 -1.64127E+01 -1.62366E+01 -1.61853E+01 -1.60157E+01 -1.59705E+01 -1.58076E+01 -1.57688E+01
  -1.56129E+01 -1.55806E+01 -1.54317E+01 -1.54061E+01 -1.52643E+01 -1.52452E+01 -1.51104E+01 -1.50975E+01
 NY background values follow
    -3.916E+02   -3.876E+02   -3.836E+02   -3.796E+02   -3.757E+02   -3.717E+02   -3.679E+02   -3.640E+02   -3.602E+02   -3.565E+02
    -3.527E+02   -3.490E+02   -3.454E+02   -3.418E+02   -3.382E+02   -3.346E+02   -3.311E+02   -3.276E+02   -3.241E+02   -3.207E+02
    -3.173E+02   -3.139E+02   -3.106E+02   -3.073E+02   -3.041E+02   -3.008E+02   -2.976E+02   -2.945E+02   -2.913E+02   -2.882E+02
    -2.852E+02   -2.821E+02   -2.791E+02   -2.761E+02   -2.732E+02   -2.703E+02   -2.674E+02   -2.645E+02   -2.617E+02   -2.589E+02
    -2.561E+02   -2.534E+02   -2.507E+02   -2.480E+02   -2.453E+02   -2.427E+02   -2.401E+02   -2.376E+02   -2.350E+02   -2.325E+02
    -2.300E+02   -2.276E+02   -2.251E+02   -2.227E+02   -2.204E+02   -2.180E+02   -2.157E+02   -2.134E+02   -2.111E+02   -2.089E+02
    -2.067E+02   -2.045E+02   -2.023E+02   -2.002E+02   -1.981E+02   -1.960E+02   -1.939E+02   -1.919E+02   -1.899E+02   -1.879E+02
    -1.859E+02   -1.840E+02   -1.821E+02   -1.802E+02   -1.783E+02   -1.765E+02   -1.746E+02   -1.728E+02   -1.711E+02   -1.693E+02
    -1.676E+02   -1.659E+02   -1.642E+02   -1.625E+02   -1.609E+02   -1.593E+02   -1.577E+02   -1.561E+02   -1.545E+02   -1.530E+02
    -1.515E+02   -1.500E+02   -1.485E+02   -1.470E+02   -1.456E+02   -1.442E+02   -1.428E+02   -1.414E+02   -1.401E+02   -1.387E+02
    -1.374E+02   -1.361E+02   -1.348E+02   -1.335E+02   -1.323E+02   -1.311E+02   -1.299E+02   -1.287E+02   -1.275E+02   -1.263E+02
    -1.252E+02   -1.241E+02   -1.230E+02   -1.219E+02   -1.208E+02   -1.197E+02   -1.187E+02   -1.177E+02   -1.167E+02   -1.157E+02
    -1.147E+02   -1.137E+02   -1.128E+02   -1.118E+02   -1.109E+02   -1.100E+02   -1.091E+02   -1.082E+02   -1.074E+02   -1.065E+02
    -1.057E+02   -1.049E+02   -1.041E+02   -1.033E+02   -1.025E+02   -1.017E+02   -1.010E+02   -1.002E+02   -9.948E+01   -9.876E+01
    -9.805E+01   -9.735E+01   -9.666E+01   -9.599E+01   -9.533E+01   -9.467E+01   -9.403E+01   -9.340E+01   -9.278E+01   -9.216E+01
    -9.156E+01   -9.097E+01   -9.039E+01   -8.982E+01   -8.926E+01   -8.870E+01   -8.816E+01   -8.762E+01   -8.709E+01   -8.657E+01
    -8.606E+01   -8.556E+01   -8.507E+01   -8.458E+01   -8.410E+01   -8.363E+01   -8.316E+01   -8.270E+01   -8.225E+01   -8.181E+01
    -8.137E+01   -8.094E+01   -8.052E+01   -8.010E+01   -7.969E+01   -7.929E+01   -7.889E+01   -7.850E+01   -7.812E+01   -7.774E+01
    -7.737E+01   -7.700E+01   -7.664E+01   -7.629E+01   -7.594E+01   -7.560E+01   -7.526E+01   -7.493E+01   -7.461E+01   -7.429E+01
    -7.397E+01   -7.367E+01   -7.336E+01   -7.307E+01   -7.278E+01   -7.249E+01   -7.221E+01   -7.193E+01   -7.166E+01   -7.140E+01
    -7.113E+01   -7.088E+01   -7.063E+01   -7.038E+01   -7.014E+01   -6.990E+01   -6.967E+01   -6.944E+01   -6.922E+01   -6.900E+01
    -6.878E+01   -6.857E+01   -6.837E+01   -6.816E+01   -6.797E+01   -6.777E+01   -6.758E+01   -6.739E+01   -6.721E+01   -6.703E+01
    -6.686E+01   -6.669E+01   -6.652E+01   -6.635E+01   -6.619E+01   -6.603E+01   -6.588E+01   -6.573E+01   -6.558E+01   -6.543E+01
    -6.529E+01   -6.515E+01   -6.502E+01   -6.488E+01   -6.475E+01   -6.463E+01   -6.450E+01   -6.438E+01   -6.426E+01   -6.414E+01
    -6.403E+01   -6.391E+01   -6.380E+01   -6.369E+01   -6.359E+01   -6.348E+01   -6.338E+01   -6.328E+01   -6.318E+01   -6.309E+01
    -6.299E+01   -6.290E+01   -6.281E+01   -6.272E+01   -6.263E+01   -6.254E+01   -6.246E+01   -6.237E+01   -6.229E+01   -6.221E+01
    -6.213E+01   -6.205E+01   -6.197E+01   -6.189E+01   -6.182E+01   -6.174E+01   -6.166E+01   -6.159E+01   -6.152E+01   -6.144E+01
    -6.137E+01   -6.130E+01   -6.123E+01   -6.115E+01   -6.108E+01   -6.101E+01   -6.094E+01   -6.087E+01   -6.080E+01   -6.073E+01
    -6.066E+01   -6.058E+01   -6.051E+01   -6.044E+01   -6.037E+01   -6.029E+01   -6.022E+01   -6.015E+01   -6.007E+01   -6.000E+01
    -5.992E+01   -5.984E+01   -5.976E+01   -5.968E+01   -5.960E+01   -5.952E+01   -5.944E+01   -5.936E+01   -5.927E+01   -5.919E+01
    -5.910E+01   -5.901E+01   -5.892E+01   -5.883E+01   -5.873E+01   -5.864E+01   -5.854E+01   -5.844E+01   -5.834E+01   -5.823E+01
    -5.813E+01   -5.802E+01   -5.791E+01   -5.780E+01   -5.768E+01   -5.757E+01   -5.745E+01   -5.733E+01   -5.720E+01   -5.708E+01
    -5.695E+01   -5.681E+01   -5.668E+01   -5.654E+01   -5.640E+01   -5.626E+01   -5.611E+01   -5.596E+01   -5.580E+01   -5.565E+01
    -5.549E+01   -5.532E+01   -5.516E+01   -5.499E+01   -5.481E+01   -5.464E+01   -5.446E+01   -5.427E+01   -5.408E+01   -5.389E+01
    -5.370E+01   -5.351E+01   -5.331E+01   -5.310E+01   -5.290E+01   -5.269E+01   -5.248E+01   -5.227E+01   -5.205E+01   -5.183E+01
    -5.161E+01   -5.138E+01   -5.116E+01   -5.093E+01   -5.070E+01   -5.046E+01   -5.023E+01   -4.999E+01   -4.975E+01   -4.950E+01
    -4.926E+01   -4.901E+01   -4.876E+01   -4.851E+01   -4.826E+01   -4.800E+01   -4.774E+01   -4.748E+01   -4.722E+01   -4.696E+01
    -4.670E+01   -4.643E+01   -4.616E+01   -4.589E+01   -4.562E+01   -4.535E+01   -4.508E+01   -4.480E+01   -4.453E+01   -4.425E+01
    -4.397E+01   -4.369E+01   -4.341E+01   -4.313E+01   -4.285E+01   -4.256E+01   -4.228E+01   -4.199E+01   -4.171E+01   -4.142E+01
    -4.113E+01   -4.084E+01   -4.055E+01   -4.027E+01   -3.998E+01   -3.968E+01   -3.939E+01   -3.910E+01   -3.881E+01   -3.852E+01
    -3.823E+01   -3.793E+01   -3.764E+01   -3.735E+01   -3.706E+01   -3.676E+01   -3.647E+01   -3.618E+01   -3.589E+01   -3.559E+01
    -3.530E+01   -3.501E+01   -3.472E+01   -3.443E+01   -3.414E+01   -3.385E+01   -3.356E+01   -3.327E+01   -3.298E+01   -3.269E+01
    -3.241E+01   -3.212E+01   -3.184E+01   -3.155E+01   -3.127E+01   -3.099E+01   -3.071E+01   -3.043E+01   -3.015E+01   -2.987E+01
    -2.959E+01   -2.932E+01   -2.904E+01   -2.877E+01   -2.850E+01   -2.823E+01   -2.796E+01   -2.769E+01   -2.743E+01   -2.716E+01
    -2.690E+01   -2.664E+01   -2.638E+01   -2.612E+01   -2.587E+01   -2.562E+01   -2.537E+01   -2.512E+01   -2.487E+01   -2.463E+01
    -2.438E+01   -2.414E+01   -2.390E+01   -2.367E+01   -2.344E+01   -2.320E+01   -2.298E+01   -2.275E+01   -2.253E+01   -2.231E+01
    -2.209E+01   -2.187E+01   -2.166E+01   -2.145E+01   -2.124E+01   -2.104E+01   -2.084E+01   -2.064E+01   -2.044E+01   -2.025E+01
    -2.006E+01   -1.988E+01   -1.969E+01   -1.951E+01   -1.934E+01   -1.917E+01   -1.900E+01   -1.883E+01   -1.867E+01   -1.851E+01
    -1.835E+01   -1.820E+01   -1.805E+01   -1.791E+01   -1.777E+01   -1.763E+01   -1.750E+01   -1.737E+01   -1.725E+01   -1.713E+01
    -1.701E+01   -1.690E+01   -1.679E+01   -1.669E+01   -1.659E+01   -1.649E+01   -1.640E+01   -1.632E+01
 Ala      Conc. = 1.26E+03
