 LCModel (Version 6.3-1L) Copyright: S.W. Provencher.          Ref.: Magn. Reson. Med. 30:672-679 (1993).                
 Slice#3 Row#12 Col#9  K_02_press_1_raw_act
 36 lines in following concentration table = NCONC+1
    Conc.  %SD /Cr+PCr  Metabolite                                         
    0.000 999%   0.000 Ala                                                 
    0.000 999%   0.000 Asp                                                 
    0.000 999%   0.000 Cr                                                  
 1.61E+03   3%   1.000 PCr                                                 
    0.000 999%   0.000 GABA                                                
    0.000 999%   0.000 Glc                                                 
 1.07E+03  24%   0.666 Gln                                                 
 1.58E+03  18%   0.978 Glu                                                 
  404.849   4%   0.251 GPC                                                 
    0.000 999%   0.000 PCh                                                 
  389.458  15%   0.242 GSH                                                 
  852.919  22%   0.530 Ins                                                 
    0.000 999%   0.000 Lac                                                 
 1.94E+03   6%   1.205 NAA                                                 
   55.056 269% 3.4E-02 NAAG                                                
   33.274  64% 2.1E-02 Scyllo                                              
    0.000 999%   0.000 Tau                                                 
    0.000 999%   0.000 -CrCH2                                              
  404.849   4%   0.251 GPC+PCh                                             
 1.99E+03   4%   1.239 NAA+NAAG                                            
 1.61E+03   3%   1.000 Cr+PCr                                              
 2.65E+03  17%   1.644 Glu+Gln                                             
  111.123 177% 6.9E-02 Lip13a                                              
    0.000 999%   0.000 Lip13b                                              
    0.000 999%   0.000 Lip09                                               
 1.27E+03  11%   0.786 MM09                                                
    8.213 726% 5.1E-03 Lip20                                               
 3.41E+03   8%   2.115 MM20                                                
  490.886  27%   0.305 MM12                                                
 1.16E+03  18%   0.718 MM14                                                
  539.079  27%   0.335 MM17                                                
  111.123 177% 6.9E-02 Lip13a+Lip13b                                       
 1.76E+03  11%   1.091 MM14+Lip13a+Lip13b+MM12                             
 1.27E+03  11%   0.786 MM09+Lip09                                          
 3.41E+03   8%   2.120 MM20+Lip20                                          
   6 lines in following misc. output table
  FWHM = 0.069 ppm    S/N =  13                                            
  Data shift = 0.038 ppm                                                   
  Ph: -28 deg      -9.6 deg/ppm                                            
  alphaB,S = 8.5E+01,   2.4E+02                                            
   14 spline knots.   Ns = 9(1)                                            
   3 inflections.     1 extrema                                            
  498 points on ppm-axis = NY
      4.000000     3.992357     3.984714     3.977070     3.969427     3.961784     3.954141     3.946497     3.938854     3.931211
      3.923568     3.915925     3.908281     3.900638     3.892995     3.885352     3.877708     3.870065     3.862422     3.854779
      3.847136     3.839492     3.831849     3.824206     3.816563     3.808919     3.801276     3.793633     3.785990     3.778347
      3.770703     3.763060     3.755417     3.747774     3.740130     3.732487     3.724844     3.717201     3.709558     3.701914
      3.694271     3.686628     3.678985     3.671341     3.663698     3.656055     3.648412     3.640769     3.633125     3.625482
      3.617839     3.610196     3.602552     3.594909     3.587266     3.579623     3.571980     3.564336     3.556693     3.549050
      3.541407     3.533763     3.526120     3.518477     3.510834     3.503191     3.495547     3.487904     3.480261     3.472618
      3.464974     3.457331     3.449688     3.442045     3.434402     3.426758     3.419115     3.411472     3.403829     3.396185
      3.388542     3.380899     3.373256     3.365613     3.357969     3.350326     3.342683     3.335040     3.327396     3.319753
      3.312110     3.304467     3.296824     3.289180     3.281537     3.273894     3.266251     3.258607     3.250964     3.243321
      3.235678     3.228034     3.220391     3.212748     3.205105     3.197462     3.189818     3.182175     3.174532     3.166889
      3.159245     3.151602     3.143959     3.136316     3.128673     3.121029     3.113386     3.105743     3.098100     3.090456
      3.082813     3.075170     3.067527     3.059884     3.052240     3.044597     3.036954     3.029311     3.021667     3.014024
      3.006381     2.998738     2.991095     2.983451     2.975808     2.968165     2.960522     2.952878     2.945235     2.937592
      2.929949     2.922306     2.914662     2.907019     2.899376     2.891733     2.884089     2.876446     2.868803     2.861160
      2.853517     2.845873     2.838230     2.830587     2.822944     2.815300     2.807657     2.800014     2.792371     2.784728
      2.777084     2.769441     2.761798     2.754155     2.746511     2.738868     2.731225     2.723582     2.715939     2.708295
      2.700652     2.693009     2.685366     2.677722     2.670079     2.662436     2.654793     2.647150     2.639506     2.631863
      2.624220     2.616577     2.608933     2.601290     2.593647     2.586004     2.578361     2.570717     2.563074     2.555431
      2.547788     2.540144     2.532501     2.524858     2.517215     2.509572     2.501928     2.494285     2.486642     2.478999
      2.471355     2.463712     2.456069     2.448426     2.440783     2.433139     2.425496     2.417853     2.410210     2.402566
      2.394923     2.387280     2.379637     2.371994     2.364350     2.356707     2.349064     2.341421     2.333777     2.326134
      2.318491     2.310848     2.303205     2.295561     2.287918     2.280275     2.272632     2.264988     2.257345     2.249702
      2.242059     2.234416     2.226772     2.219129     2.211486     2.203843     2.196199     2.188556     2.180913     2.173270
      2.165627     2.157983     2.150340     2.142697     2.135054     2.127410     2.119767     2.112124     2.104481     2.096838
      2.089194     2.081551     2.073908     2.066265     2.058621     2.050978     2.043335     2.035692     2.028049     2.020405
      2.012762     2.005119     1.997476     1.989833     1.982190     1.974546     1.966903     1.959260     1.951617     1.943974
      1.936331     1.928688     1.921045     1.913402     1.905759     1.898115     1.890472     1.882829     1.875186     1.867543
      1.859900     1.852257     1.844614     1.836971     1.829327     1.821684     1.814041     1.806398     1.798755     1.791112
      1.783469     1.775826     1.768183     1.760540     1.752896     1.745253     1.737610     1.729967     1.722324     1.714681
      1.707038     1.699395     1.691752     1.684108     1.676465     1.668822     1.661179     1.653536     1.645893     1.638250
      1.630607     1.622964     1.615321     1.607677     1.600034     1.592391     1.584748     1.577105     1.569462     1.561819
      1.554176     1.546533     1.538890     1.531246     1.523603     1.515960     1.508317     1.500674     1.493031     1.485388
      1.477745     1.470102     1.462458     1.454815     1.447172     1.439529     1.431886     1.424243     1.416600     1.408957
      1.401314     1.393671     1.386027     1.378384     1.370741     1.363098     1.355455     1.347812     1.340169     1.332526
      1.324883     1.317240     1.309596     1.301953     1.294310     1.286667     1.279024     1.271381     1.263738     1.256095
      1.248452     1.240808     1.233165     1.225522     1.217879     1.210236     1.202593     1.194950     1.187307     1.179664
      1.172021     1.164377     1.156734     1.149091     1.141448     1.133805     1.126162     1.118519     1.110876     1.103233
      1.095590     1.087946     1.080303     1.072660     1.065017     1.057374     1.049731     1.042088     1.034445     1.026802
      1.019158     1.011515     1.003872     0.996229     0.988586     0.980943     0.973300     0.965657     0.958014     0.950371
      0.942727     0.935084     0.927441     0.919798     0.912155     0.904512     0.896869     0.889226     0.881583     0.873940
      0.866296     0.858653     0.851010     0.843367     0.835724     0.828081     0.820438     0.812795     0.805152     0.797508
      0.789865     0.782222     0.774579     0.766936     0.759293     0.751650     0.744007     0.736364     0.728721     0.721077
      0.713434     0.705791     0.698148     0.690505     0.682862     0.675219     0.667576     0.659933     0.652290     0.644646
      0.637003     0.629360     0.621717     0.614074     0.606431     0.598788     0.591145     0.583502     0.575858     0.568215
      0.560572     0.552929     0.545286     0.537643     0.530000     0.522357     0.514714     0.507071     0.499427     0.491784
      0.484141     0.476498     0.468855     0.461212     0.453569     0.445925     0.438282     0.430639     0.422996     0.415353
      0.407710     0.400067     0.392424     0.384780     0.377137     0.369494     0.361851     0.354208     0.346565     0.338922
      0.331278     0.323635     0.315992     0.308349     0.300706     0.293063     0.285420     0.277777     0.270133     0.262490
      0.254847     0.247204     0.239561     0.231918     0.224275     0.216631     0.208988     0.201345
 NY phased data points follow
  -3.99570E+00 -3.00762E+00  1.06031E+00  1.96284E+00  6.32700E+00  1.36047E+01  1.38252E+01  1.82733E+01  2.36582E+01  2.16588E+01
   2.05078E+01  2.04421E+01  1.83780E+01  1.24020E+01  1.10732E+01  6.52951E+00  4.62330E+00 -3.77702E-01 -3.20943E+00 -4.26245E+00
  -5.48030E+00 -4.30910E+00 -3.13179E+00 -3.23238E+00 -3.23722E+00 -3.82715E+00 -2.34314E+00 -1.97667E+00  6.58825E-01  1.44652E-02
   5.60548E-01  9.93894E-01  2.82567E+00  1.94317E+00  1.83490E+00 -1.94940E+00 -1.43189E+00 -9.46319E-01 -2.92131E+00 -2.05683E+00
  -2.13424E+00 -2.18686E+00  4.83910E-01 -2.47208E-01  6.32632E-01 -8.03055E-01  3.22412E+00  1.52449E+00  1.88612E+00 -2.37258E+00
  -3.87808E+00 -4.97877E-01 -2.32874E+00 -2.08999E+00 -6.04451E-01 -8.31051E-02 -2.82767E+00 -3.76822E+00 -1.04949E+00 -2.00452E+00
  -4.88821E+00 -7.21388E+00 -5.51976E+00 -7.75907E+00 -6.97313E+00 -7.40830E+00 -8.94760E+00 -9.30526E+00 -1.03363E+01 -1.03870E+01
  -7.28607E+00 -8.21370E+00 -7.92241E+00 -8.64708E+00 -5.50423E+00 -6.03695E+00 -9.04146E+00 -6.72947E+00 -6.77625E+00 -6.58575E+00
  -6.37550E+00 -8.73690E+00 -6.16279E+00 -6.11603E+00 -7.54275E+00 -5.33113E+00 -3.81732E+00 -4.81648E+00 -6.33134E+00 -6.30103E+00
  -3.79780E+00 -4.56518E+00 -1.03326E+00 -4.17060E+00 -1.65742E+00  1.91219E+00 -5.23885E-01  3.91964E+00  8.59367E+00  1.09716E+01
   1.99213E+01  2.16648E+01  2.22021E+01  2.20553E+01  1.95553E+01  1.82521E+01  1.42658E+01  1.23450E+01  1.12537E+01  8.74009E+00
   4.74263E+00  2.07167E-01  1.46667E+00 -1.34308E+00  1.89967E+00 -2.00511E+00 -9.04124E-01 -1.63159E+00  4.14237E+00  2.85832E+00
   5.04943E+00  3.44458E+00  1.29079E+01  1.54380E+01  2.81423E+01  3.42352E+01  3.40654E+01  3.61582E+01  3.71775E+01  3.42960E+01
   2.89826E+01  2.32915E+01  1.87150E+01  1.50838E+01  9.64897E+00  4.65078E+00  4.64272E+00  1.22224E+00  2.44235E+00 -2.19700E+00
   1.04045E+00 -1.49872E+00 -2.84644E+00 -1.92001E+00 -5.07188E+00 -6.47973E+00 -3.57474E+00 -2.80410E+00 -2.51706E+00 -4.44349E+00
  -3.55748E+00 -3.33646E+00 -4.50735E+00 -5.54162E+00 -6.20959E+00 -5.24204E+00 -3.60896E+00 -4.71658E+00 -3.63649E+00 -7.51127E+00
  -5.70324E+00 -1.08488E+01 -5.71444E+00 -6.33936E+00 -8.24080E+00 -5.95898E+00 -7.44854E+00 -5.38620E+00 -8.89322E+00 -7.49114E+00
  -8.96545E+00 -9.01628E+00 -1.13321E+01 -1.29501E+01 -1.40785E+01 -1.18707E+01 -1.28121E+01 -1.07308E+01 -1.16427E+01 -1.25186E+01
  -1.14615E+01 -1.20529E+01 -1.08255E+01 -9.27460E+00 -1.13852E+01 -1.34799E+01 -1.13522E+01 -8.47507E+00 -4.27771E+00 -2.40277E+00
  -2.71252E+00  2.77457E-01 -3.34696E-01 -5.79912E-01 -6.86221E-01  1.53583E+00  1.90850E+00  5.57896E-01 -1.66551E+00 -1.28909E-01
  -3.81083E+00 -1.42797E+00 -1.46616E+00 -4.24990E+00  7.59640E-01 -1.24874E+00 -4.87785E+00 -4.90898E+00 -4.33166E+00 -6.50898E+00
  -5.27168E+00 -2.63331E+00 -2.79501E+00 -2.02991E-01  2.42274E+00  6.52593E+00  3.24652E+00  5.17270E+00  5.30454E-01  3.24070E+00
  -6.38168E-01 -2.64945E+00 -2.08620E+00 -2.80244E+00 -1.01258E-01  1.58453E+00  3.41281E+00  3.85938E+00  7.60502E+00  6.62200E+00
   4.93295E+00  8.58147E+00  4.39173E+00  4.67258E+00  3.33366E+00  3.44893E+00  6.92569E+00  5.75600E+00  5.48260E+00  6.05144E+00
   5.55202E+00  1.32380E+00  4.31119E+00  6.36445E+00  7.55912E+00  9.03409E+00  1.19523E+01  1.14767E+01  1.57661E+01  1.41326E+01
   1.62094E+01  1.52811E+01  2.13512E+01  2.53138E+01  2.83895E+01  2.96851E+01  3.38271E+01  4.44082E+01  5.55115E+01  5.93627E+01
   6.32303E+01  6.32922E+01  5.73203E+01  5.06858E+01  4.14323E+01  3.10665E+01  2.42012E+01  1.85800E+01  1.25374E+01  1.12288E+01
   8.48651E+00  8.29825E+00  7.55426E+00  7.51432E+00  7.64097E+00  6.88105E+00  4.80716E+00  6.24165E+00  6.84981E+00  5.28599E+00
   3.41317E+00  5.79860E+00  3.93882E+00  3.57396E+00  4.91627E+00  2.95454E+00  6.39865E-01  4.61862E+00  4.15431E+00  5.13759E+00
   1.54671E+00  1.85699E+00  6.37541E+00  4.27472E+00  3.17777E+00  2.85579E+00  4.70098E+00 -1.44964E+00  5.48547E+00  4.22663E+00
   1.61116E+00  6.29365E+00  8.37037E+00  5.46884E+00  3.90696E+00  4.36439E+00  4.02263E+00  2.83142E+00  3.09051E-01  4.54569E+00
   1.97673E+00 -2.62135E-01  5.35409E-01  4.76893E-01  9.39084E-01 -7.29609E-01 -2.00032E+00 -1.09957E+00 -7.08721E-01  1.56602E+00
   4.37119E+00  5.21635E+00  5.49792E+00  7.36437E+00  6.92161E+00  7.04399E+00  6.93935E+00  6.48615E+00  9.70791E+00  7.28354E+00
   1.11807E+01  9.88109E+00  8.16714E+00  6.08462E+00  8.07135E+00  4.36401E+00  3.89025E+00  3.21803E+00  6.17310E+00  5.02512E+00
   4.23976E+00  3.68633E+00  4.33841E+00  5.85282E+00  7.35452E+00  6.47654E+00  9.62280E+00  7.72482E+00  7.86274E+00  5.69365E+00
   9.63847E+00  9.97478E+00  5.02731E+00  7.52093E+00  2.48112E+00  6.90556E+00  3.25487E+00  3.40174E+00  1.53615E+00  4.03904E+00
   1.95547E+00  3.97885E+00  3.97268E+00  5.34330E+00  5.78491E+00  7.25153E+00  7.35354E+00  9.60115E+00  7.64893E+00  6.54316E+00
   7.55403E+00  6.21125E+00  9.40664E+00  5.97558E+00  4.19678E+00  4.62332E+00  7.11074E+00  2.97013E+00  9.62487E-01  2.96757E+00
   3.28998E+00  4.14299E+00  6.15421E+00  5.44614E+00  5.45919E+00  4.34790E+00  5.77459E+00  5.86939E+00  7.16691E+00  4.47160E+00
   6.05654E+00  6.92068E+00  9.54810E+00  9.87714E+00  5.23797E+00  1.16677E+01  4.88227E+00  7.85571E+00  7.24890E+00  8.97591E+00
   5.43667E+00  7.81635E+00  9.89372E+00  7.84613E+00  1.06203E+01  9.19047E+00  6.80100E+00  1.21940E+01  1.02638E+01  1.12339E+01
   1.31946E+01  9.01704E+00  8.95131E+00  8.00812E+00  1.16780E+01  7.82644E+00  7.62341E+00  8.09545E+00  8.03388E+00  9.16514E+00
   6.48001E+00  7.60329E+00  5.69789E+00  7.46849E+00  5.89525E+00  8.09394E+00  6.04382E+00  8.45667E+00  8.65485E+00  5.23685E+00
   7.87979E+00  7.40183E+00  7.70817E+00  8.23435E+00  7.31386E+00  7.81574E+00  6.50053E+00  5.22678E+00  9.24166E+00  5.52224E+00
   5.24155E+00  8.00089E+00  5.97186E+00  4.30496E+00  6.71331E+00  5.54604E+00  6.26415E+00  6.61420E+00  6.41485E+00  5.68819E+00
   6.92422E+00  5.34610E+00  6.83401E+00  5.59236E+00  5.54605E+00  6.20013E+00  4.88499E+00  4.23541E+00  5.94563E+00  7.33223E+00
   5.01476E+00  8.31635E+00  4.57246E+00  2.94794E+00  4.64333E+00  5.51239E+00  5.64974E+00  5.08180E+00  4.07271E+00  5.13130E+00
   4.16482E+00  2.21172E+00  5.69339E+00  6.46508E+00  1.94244E+00  6.55274E+00  4.36521E+00  3.65603E+00  5.77340E+00  3.37156E+00
   3.46891E+00  5.88327E+00  6.40275E+00  4.59869E+00  4.22586E+00  5.47903E+00  3.67037E+00  5.12035E+00  3.83299E+00  4.67717E+00
   5.20761E+00  4.46362E+00  4.89698E+00  3.74376E+00  2.02569E+00  4.71200E+00  5.12540E+00  4.46573E+00
 NY points of the fit to the data follow
  -3.31499E+00 -1.52526E+00  5.22127E-01  2.74017E+00  5.57353E+00  9.30722E+00  1.36988E+01  1.78971E+01  2.09171E+01  2.22026E+01
   2.16872E+01  1.96237E+01  1.64741E+01  1.28064E+01  9.14809E+00  5.82406E+00  2.92591E+00  4.66318E-01 -1.57714E+00 -3.28174E+00
  -4.38336E+00 -4.63794E+00 -4.47750E+00 -4.27456E+00 -4.08484E+00 -3.67739E+00 -2.81547E+00 -1.47821E+00  1.37290E-01  1.69895E+00
   2.84530E+00  3.34636E+00  3.04797E+00  2.02555E+00  5.95165E-01 -9.11079E-01 -2.25259E+00 -3.20481E+00 -3.65290E+00 -3.75353E+00
  -3.66636E+00 -3.33002E+00 -2.68649E+00 -1.84814E+00 -9.95464E-01 -3.23250E-01 -1.21457E-03 -1.06689E-01 -6.05671E-01 -1.37924E+00
  -2.26059E+00 -3.08437E+00 -3.78452E+00 -4.33155E+00 -4.70652E+00 -4.92012E+00 -5.00803E+00 -4.98611E+00 -4.87951E+00 -4.79497E+00
  -4.82665E+00 -4.98450E+00 -5.20740E+00 -5.42384E+00 -5.59609E+00 -5.69796E+00 -5.70888E+00 -5.62823E+00 -5.48990E+00 -5.33509E+00
  -5.18941E+00 -5.08004E+00 -5.01828E+00 -5.00891E+00 -5.04888E+00 -5.12031E+00 -5.19947E+00 -5.25478E+00 -5.28556E+00 -5.33614E+00
  -5.39293E+00 -5.42567E+00 -5.42016E+00 -5.40344E+00 -5.42412E+00 -5.49975E+00 -5.60974E+00 -5.70220E+00 -5.75028E+00 -5.73190E+00
  -5.61990E+00 -5.39396E+00 -5.02524E+00 -4.29102E+00 -2.61069E+00 -3.85925E-01  1.80120E+00  4.24721E+00  7.55011E+00  1.18765E+01
   1.66577E+01  2.08040E+01  2.33913E+01  2.40463E+01  2.28341E+01  2.01030E+01  1.63997E+01  1.23549E+01  8.48069E+00  5.05691E+00
   2.17137E+00 -1.79286E-01 -2.05222E+00 -3.36419E+00 -3.80492E+00 -3.66290E+00 -3.28407E+00 -2.55124E+00 -7.23052E-01  2.31090E+00
   5.53856E+00  8.92230E+00  1.32064E+01  1.88917E+01  2.55661E+01  3.19132E+01  3.64504E+01  3.83765E+01  3.76408E+01  3.46221E+01
   2.99694E+01  2.44703E+01  1.88252E+01  1.35260E+01  8.78768E+00  4.70972E+00  1.33679E+00 -1.25571E+00 -2.67461E+00 -2.99169E+00
  -2.94822E+00 -2.84682E+00 -2.78976E+00 -2.81229E+00 -2.90178E+00 -3.02834E+00 -3.19860E+00 -3.41257E+00 -3.64770E+00 -3.89466E+00
  -4.13872E+00 -4.36844E+00 -4.61627E+00 -4.83113E+00 -4.98299E+00 -5.08470E+00 -5.16347E+00 -5.30588E+00 -5.52376E+00 -5.72954E+00
  -5.84303E+00 -5.85524E+00 -5.81685E+00 -5.79663E+00 -5.84070E+00 -5.96794E+00 -6.18795E+00 -6.50195E+00 -6.84261E+00 -7.11635E+00
  -7.33473E+00 -7.56767E+00 -7.88699E+00 -8.20252E+00 -8.39217E+00 -8.42236E+00 -8.34639E+00 -8.27420E+00 -8.25014E+00 -8.19342E+00
  -8.05395E+00 -7.86532E+00 -7.65198E+00 -7.39527E+00 -7.05989E+00 -6.59732E+00 -5.99272E+00 -5.29362E+00 -4.54238E+00 -3.87323E+00
  -3.37872E+00 -3.05987E+00 -2.91662E+00 -2.92529E+00 -3.00631E+00 -2.97900E+00 -2.73197E+00 -2.24655E+00 -1.59440E+00 -8.42535E-01
  -1.54426E-01  3.36049E-01  6.16434E-01  4.99492E-01 -2.20397E-01 -1.43499E+00 -2.82259E+00 -3.92799E+00 -4.58703E+00 -4.77939E+00
  -4.35658E+00 -3.22287E+00 -1.56277E+00  1.34945E-01  1.44497E+00  2.25079E+00  2.46090E+00  1.94180E+00  7.63704E-01 -7.44737E-01
  -2.15753E+00 -3.06671E+00 -3.24314E+00 -2.76176E+00 -1.77393E+00 -4.73630E-01  8.43120E-01  2.04838E+00  3.04410E+00  3.79328E+00
   4.31096E+00  4.65658E+00  4.93669E+00  5.19092E+00  5.51894E+00  6.04237E+00  6.68999E+00  7.25797E+00  7.57406E+00  7.58658E+00
   7.38279E+00  7.13937E+00  7.00776E+00  7.09724E+00  7.50026E+00  8.17969E+00  9.00013E+00  9.89262E+00  1.08343E+01  1.17860E+01
   1.30142E+01  1.57314E+01  1.98801E+01  2.38830E+01  2.77535E+01  3.26213E+01  3.92435E+01  4.71199E+01  5.45470E+01  5.97151E+01
   6.16849E+01  6.03377E+01  5.60644E+01  4.96717E+01  4.22459E+01  3.47955E+01  2.79471E+01  2.19425E+01  1.68235E+01  1.24793E+01
   8.93916E+00  6.83168E+00  6.00736E+00  5.54515E+00  5.20262E+00  4.92410E+00  4.66332E+00  4.39903E+00  4.14696E+00  3.91569E+00
   3.71303E+00  3.54512E+00  3.41269E+00  3.31291E+00  3.24970E+00  3.22590E+00  3.23582E+00  3.27181E+00  3.32794E+00  3.39985E+00
   3.48279E+00  3.56945E+00  3.65276E+00  3.72917E+00  3.79476E+00  3.84547E+00  3.87774E+00  3.88966E+00  3.88046E+00  3.85006E+00
   3.79970E+00  3.73156E+00  3.64811E+00  3.55267E+00  3.44903E+00  3.34141E+00  3.23446E+00  3.13288E+00  3.04129E+00  2.96384E+00
   2.90412E+00  2.86555E+00  2.85098E+00  2.86260E+00  2.90203E+00  2.97015E+00  3.06717E+00  3.19280E+00  3.34619E+00  3.52587E+00
   3.72975E+00  3.95517E+00  4.19900E+00  4.45767E+00  4.72712E+00  5.00282E+00  5.27989E+00  5.55324E+00  5.81783E+00  6.06865E+00
   6.30091E+00  6.51014E+00  6.69239E+00  6.84443E+00  6.96394E+00  7.04946E+00  7.10047E+00  7.11738E+00  7.10159E+00  7.05546E+00
   6.98218E+00  6.88559E+00  6.76998E+00  6.63996E+00  6.50032E+00  6.35589E+00  6.21127E+00  6.07068E+00  5.93775E+00  5.81555E+00
   5.70648E+00  5.61227E+00  5.53386E+00  5.47141E+00  5.42440E+00  5.39170E+00  5.37169E+00  5.36238E+00  5.36142E+00  5.36623E+00
   5.37419E+00  5.38278E+00  5.38972E+00  5.39298E+00  5.39087E+00  5.38210E+00  5.36588E+00  5.34196E+00  5.31061E+00  5.27256E+00
   5.22890E+00  5.18111E+00  5.13102E+00  5.08072E+00  5.03249E+00  4.98863E+00  4.95144E+00  4.92320E+00  4.90617E+00  4.90250E+00
   4.91417E+00  4.94296E+00  4.99048E+00  5.05816E+00  5.14727E+00  5.25890E+00  5.39383E+00  5.55257E+00  5.73533E+00  5.94198E+00
   6.17204E+00  6.42453E+00  6.69789E+00  6.98998E+00  7.29806E+00  7.61879E+00  7.94818E+00  8.28163E+00  8.61398E+00  8.93963E+00
   9.25275E+00  9.54743E+00  9.81781E+00  1.00583E+01  1.02638E+01  1.04300E+01  1.05534E+01  1.06316E+01  1.06634E+01  1.06485E+01
   1.05881E+01  1.04842E+01  1.03402E+01  1.01601E+01  9.94855E+00  9.71080E+00  9.45224E+00  9.17840E+00  8.89467E+00  8.60611E+00
   8.31734E+00  8.03243E+00  7.75488E+00  7.48757E+00  7.23281E+00  6.99223E+00  6.76692E+00  6.55747E+00  6.36409E+00  6.18666E+00
   6.02478E+00  5.87779E+00  5.74488E+00  5.62516E+00  5.51774E+00  5.42168E+00  5.33606E+00  5.25993E+00  5.19244E+00  5.13278E+00
   5.08024E+00  5.03416E+00  4.99391E+00  4.95890E+00  4.92861E+00  4.90260E+00  4.88051E+00  4.86196E+00  4.84662E+00  4.83416E+00
   4.82433E+00  4.81692E+00  4.81175E+00  4.80862E+00  4.80734E+00  4.80773E+00  4.80969E+00  4.81312E+00  4.81790E+00  4.82392E+00
   4.83106E+00  4.83924E+00  4.84841E+00  4.85853E+00  4.86951E+00  4.88127E+00  4.89375E+00  4.90691E+00  4.92073E+00  4.93518E+00
   4.95019E+00  4.96572E+00  4.98173E+00  4.99820E+00  5.01513E+00  5.03249E+00  5.05023E+00  5.06832E+00  5.08672E+00  5.10546E+00
   5.12452E+00  5.14386E+00  5.16346E+00  5.18327E+00  5.20331E+00  5.22359E+00  5.24407E+00  5.26475E+00  5.28556E+00  5.30652E+00
   5.32762E+00  5.34887E+00  5.37025E+00  5.39171E+00  5.41323E+00  5.43481E+00  5.45646E+00  5.47817E+00
 NY background values follow
    -1.010E+01   -1.007E+01   -1.004E+01   -1.001E+01   -9.980E+00   -9.951E+00   -9.922E+00   -9.892E+00   -9.863E+00   -9.834E+00
    -9.804E+00   -9.775E+00   -9.745E+00   -9.716E+00   -9.687E+00   -9.657E+00   -9.628E+00   -9.598E+00   -9.569E+00   -9.540E+00
    -9.510E+00   -9.481E+00   -9.451E+00   -9.422E+00   -9.392E+00   -9.363E+00   -9.333E+00   -9.304E+00   -9.275E+00   -9.245E+00
    -9.216E+00   -9.186E+00   -9.157E+00   -9.127E+00   -9.098E+00   -9.068E+00   -9.039E+00   -9.009E+00   -8.979E+00   -8.950E+00
    -8.920E+00   -8.891E+00   -8.861E+00   -8.832E+00   -8.802E+00   -8.773E+00   -8.743E+00   -8.714E+00   -8.684E+00   -8.654E+00
    -8.625E+00   -8.595E+00   -8.566E+00   -8.536E+00   -8.506E+00   -8.477E+00   -8.447E+00   -8.418E+00   -8.388E+00   -8.358E+00
    -8.329E+00   -8.299E+00   -8.270E+00   -8.240E+00   -8.210E+00   -8.181E+00   -8.151E+00   -8.121E+00   -8.092E+00   -8.062E+00
    -8.032E+00   -8.003E+00   -7.973E+00   -7.943E+00   -7.914E+00   -7.884E+00   -7.854E+00   -7.825E+00   -7.795E+00   -7.765E+00
    -7.735E+00   -7.706E+00   -7.676E+00   -7.646E+00   -7.617E+00   -7.587E+00   -7.557E+00   -7.527E+00   -7.498E+00   -7.468E+00
    -7.438E+00   -7.408E+00   -7.379E+00   -7.349E+00   -7.319E+00   -7.289E+00   -7.260E+00   -7.230E+00   -7.200E+00   -7.170E+00
    -7.141E+00   -7.111E+00   -7.081E+00   -7.051E+00   -7.021E+00   -6.992E+00   -6.962E+00   -6.932E+00   -6.902E+00   -6.872E+00
    -6.842E+00   -6.813E+00   -6.783E+00   -6.753E+00   -6.723E+00   -6.693E+00   -6.663E+00   -6.634E+00   -6.604E+00   -6.574E+00
    -6.544E+00   -6.514E+00   -6.484E+00   -6.455E+00   -6.425E+00   -6.395E+00   -6.365E+00   -6.335E+00   -6.305E+00   -6.275E+00
    -6.245E+00   -6.216E+00   -6.186E+00   -6.156E+00   -6.126E+00   -6.096E+00   -6.066E+00   -6.036E+00   -6.006E+00   -5.976E+00
    -5.946E+00   -5.917E+00   -5.887E+00   -5.857E+00   -5.827E+00   -5.797E+00   -5.767E+00   -5.737E+00   -5.707E+00   -5.677E+00
    -5.647E+00   -5.617E+00   -5.587E+00   -5.557E+00   -5.527E+00   -5.497E+00   -5.467E+00   -5.438E+00   -5.408E+00   -5.378E+00
    -5.348E+00   -5.318E+00   -5.288E+00   -5.258E+00   -5.228E+00   -5.198E+00   -5.168E+00   -5.138E+00   -5.108E+00   -5.078E+00
    -5.048E+00   -5.018E+00   -4.988E+00   -4.958E+00   -4.928E+00   -4.898E+00   -4.868E+00   -4.838E+00   -4.808E+00   -4.778E+00
    -4.748E+00   -4.718E+00   -4.688E+00   -4.658E+00   -4.628E+00   -4.598E+00   -4.568E+00   -4.538E+00   -4.508E+00   -4.478E+00
    -4.448E+00   -4.418E+00   -4.388E+00   -4.357E+00   -4.327E+00   -4.297E+00   -4.267E+00   -4.237E+00   -4.207E+00   -4.177E+00
    -4.147E+00   -4.117E+00   -4.087E+00   -4.057E+00   -4.027E+00   -3.997E+00   -3.967E+00   -3.937E+00   -3.907E+00   -3.877E+00
    -3.847E+00   -3.817E+00   -3.786E+00   -3.756E+00   -3.726E+00   -3.696E+00   -3.666E+00   -3.636E+00   -3.606E+00   -3.576E+00
    -3.546E+00   -3.516E+00   -3.486E+00   -3.456E+00   -3.426E+00   -3.395E+00   -3.365E+00   -3.335E+00   -3.305E+00   -3.275E+00
    -3.245E+00   -3.215E+00   -3.185E+00   -3.155E+00   -3.125E+00   -3.095E+00   -3.064E+00   -3.034E+00   -3.004E+00   -2.974E+00
    -2.944E+00   -2.914E+00   -2.884E+00   -2.854E+00   -2.824E+00   -2.794E+00   -2.763E+00   -2.733E+00   -2.703E+00   -2.673E+00
    -2.643E+00   -2.613E+00   -2.583E+00   -2.553E+00   -2.523E+00   -2.493E+00   -2.462E+00   -2.432E+00   -2.402E+00   -2.372E+00
    -2.342E+00   -2.312E+00   -2.282E+00   -2.252E+00   -2.222E+00   -2.191E+00   -2.161E+00   -2.131E+00   -2.101E+00   -2.071E+00
    -2.041E+00   -2.011E+00   -1.981E+00   -1.951E+00   -1.920E+00   -1.890E+00   -1.860E+00   -1.830E+00   -1.800E+00   -1.770E+00
    -1.740E+00   -1.710E+00   -1.680E+00   -1.649E+00   -1.619E+00   -1.589E+00   -1.559E+00   -1.529E+00   -1.499E+00   -1.469E+00
    -1.439E+00   -1.409E+00   -1.378E+00   -1.348E+00   -1.318E+00   -1.288E+00   -1.258E+00   -1.228E+00   -1.198E+00   -1.168E+00
    -1.138E+00   -1.107E+00   -1.077E+00   -1.047E+00   -1.017E+00   -9.871E-01   -9.570E-01   -9.269E-01   -8.968E-01   -8.667E-01
    -8.366E-01   -8.065E-01   -7.764E-01   -7.463E-01   -7.162E-01   -6.861E-01   -6.560E-01   -6.259E-01   -5.958E-01   -5.657E-01
    -5.356E-01   -5.055E-01   -4.754E-01   -4.453E-01   -4.152E-01   -3.852E-01   -3.551E-01   -3.250E-01   -2.949E-01   -2.648E-01
    -2.347E-01   -2.047E-01   -1.746E-01   -1.445E-01   -1.144E-01   -8.434E-02   -5.427E-02   -2.419E-02    5.881E-03    3.595E-02
     6.602E-02    9.609E-02    1.262E-01    1.562E-01    1.863E-01    2.164E-01    2.464E-01    2.765E-01    3.065E-01    3.366E-01
     3.666E-01    3.967E-01    4.267E-01    4.568E-01    4.868E-01    5.169E-01    5.469E-01    5.770E-01    6.070E-01    6.371E-01
     6.671E-01    6.971E-01    7.272E-01    7.572E-01    7.872E-01    8.173E-01    8.473E-01    8.773E-01    9.074E-01    9.374E-01
     9.674E-01    9.974E-01    1.027E+00    1.057E+00    1.087E+00    1.117E+00    1.147E+00    1.177E+00    1.207E+00    1.237E+00
     1.267E+00    1.297E+00    1.327E+00    1.357E+00    1.387E+00    1.417E+00    1.447E+00    1.477E+00    1.507E+00    1.537E+00
     1.567E+00    1.597E+00    1.627E+00    1.657E+00    1.687E+00    1.717E+00    1.747E+00    1.777E+00    1.807E+00    1.837E+00
     1.867E+00    1.897E+00    1.927E+00    1.957E+00    1.987E+00    2.017E+00    2.047E+00    2.077E+00    2.107E+00    2.136E+00
     2.166E+00    2.196E+00    2.226E+00    2.256E+00    2.286E+00    2.316E+00    2.346E+00    2.376E+00    2.406E+00    2.436E+00
     2.465E+00    2.495E+00    2.525E+00    2.555E+00    2.585E+00    2.615E+00    2.645E+00    2.675E+00    2.705E+00    2.734E+00
     2.764E+00    2.794E+00    2.824E+00    2.854E+00    2.884E+00    2.914E+00    2.943E+00    2.973E+00    3.003E+00    3.033E+00
     3.063E+00    3.093E+00    3.122E+00    3.152E+00    3.182E+00    3.212E+00    3.242E+00    3.271E+00    3.301E+00    3.331E+00
     3.361E+00    3.391E+00    3.420E+00    3.450E+00    3.480E+00    3.510E+00    3.539E+00    3.569E+00    3.599E+00    3.629E+00
     3.659E+00    3.688E+00    3.718E+00    3.748E+00    3.778E+00    3.807E+00    3.837E+00    3.867E+00    3.896E+00    3.926E+00
     3.956E+00    3.986E+00    4.015E+00    4.045E+00    4.075E+00    4.104E+00    4.134E+00    4.164E+00    4.194E+00    4.223E+00
     4.253E+00    4.283E+00    4.312E+00    4.342E+00    4.372E+00    4.401E+00    4.431E+00    4.460E+00    4.490E+00    4.520E+00
     4.549E+00    4.579E+00    4.609E+00    4.638E+00    4.668E+00    4.698E+00    4.727E+00    4.757E+00
 PCr      Conc. = 1.61E+03
