 LCModel (Version 6.3-1L) Copyright: S.W. Provencher.          Ref.: Magn. Reson. Med. 30:672-679 (1993).                
 Slice#1 Row#9 Col#5  K_02_press_1_raw_act
 36 lines in following concentration table = NCONC+1
    Conc.  %SD /Cr+PCr  Metabolite                                         
    0.000 999%   0.000 Ala                                                 
    0.000 999%   0.000 Asp                                                 
  225.057  65%   0.211 Cr                                                  
  842.493  19%   0.789 PCr                                                 
    0.000 999%   0.000 GABA                                                
    4.880 999% 4.6E-03 Glc                                                 
  238.724  65%   0.224 Gln                                                 
 1.10E+03  16%   1.033 Glu                                                 
  399.077  31%   0.374 GPC                                                 
   74.748 169% 7.0E-02 PCh                                                 
  350.195  17%   0.328 GSH                                                 
 1.06E+03  18%   0.996 Ins                                                 
  102.220  80% 9.6E-02 Lac                                                 
 2.07E+03   5%   1.940 NAA                                                 
  762.568  10%   0.714 NAAG                                                
   40.264  58% 3.8E-02 Scyllo                                              
  305.928  57%   0.287 Tau                                                 
  285.627  34%   0.268 -CrCH2                                              
  473.825   5%   0.444 GPC+PCh                                             
 2.83E+03   3%   2.654 NAA+NAAG                                            
 1.07E+03   5%   1.000 Cr+PCr                                              
 1.34E+03  17%   1.256 Glu+Gln                                             
 1.68E+03  30%   1.572 Lip13a                                              
    0.000 999%   0.000 Lip13b                                              
  410.431  64%   0.384 Lip09                                               
 1.47E+03  19%   1.373 MM09                                                
  323.245  56%   0.303 Lip20                                               
 2.17E+03  18%   2.034 MM20                                                
  412.427  52%   0.386 MM12                                                
  475.234  70%   0.445 MM14                                                
 1.29E+03  19%   1.210 MM17                                                
 1.68E+03  30%   1.572 Lip13a+Lip13b                                       
 2.57E+03  13%   2.404 MM14+Lip13a+Lip13b+MM12                             
 1.88E+03  10%   1.758 MM09+Lip09                                          
 2.50E+03  15%   2.337 MM20+Lip20                                          
   6 lines in following misc. output table
  FWHM = 0.031 ppm    S/N =  14                                            
  Data shift = 0.008 ppm                                                   
  Ph: -20 deg      -9.0 deg/ppm                                            
  alphaB,S = 8.5E+01,   5.1E+01                                            
   14 spline knots.   Ns = 5(1)                                            
   2 inflections.     1 extrema                                            
  498 points on ppm-axis = NY
      4.000000     3.992357     3.984714     3.977070     3.969427     3.961784     3.954141     3.946497     3.938854     3.931211
      3.923568     3.915925     3.908281     3.900638     3.892995     3.885352     3.877708     3.870065     3.862422     3.854779
      3.847136     3.839492     3.831849     3.824206     3.816563     3.808919     3.801276     3.793633     3.785990     3.778347
      3.770703     3.763060     3.755417     3.747774     3.740130     3.732487     3.724844     3.717201     3.709558     3.701914
      3.694271     3.686628     3.678985     3.671341     3.663698     3.656055     3.648412     3.640769     3.633125     3.625482
      3.617839     3.610196     3.602552     3.594909     3.587266     3.579623     3.571980     3.564336     3.556693     3.549050
      3.541407     3.533763     3.526120     3.518477     3.510834     3.503191     3.495547     3.487904     3.480261     3.472618
      3.464974     3.457331     3.449688     3.442045     3.434402     3.426758     3.419115     3.411472     3.403829     3.396185
      3.388542     3.380899     3.373256     3.365613     3.357969     3.350326     3.342683     3.335040     3.327396     3.319753
      3.312110     3.304467     3.296824     3.289180     3.281537     3.273894     3.266251     3.258607     3.250964     3.243321
      3.235678     3.228034     3.220391     3.212748     3.205105     3.197462     3.189818     3.182175     3.174532     3.166889
      3.159245     3.151602     3.143959     3.136316     3.128673     3.121029     3.113386     3.105743     3.098100     3.090456
      3.082813     3.075170     3.067527     3.059884     3.052240     3.044597     3.036954     3.029311     3.021667     3.014024
      3.006381     2.998738     2.991095     2.983451     2.975808     2.968165     2.960522     2.952878     2.945235     2.937592
      2.929949     2.922306     2.914662     2.907019     2.899376     2.891733     2.884089     2.876446     2.868803     2.861160
      2.853517     2.845873     2.838230     2.830587     2.822944     2.815300     2.807657     2.800014     2.792371     2.784728
      2.777084     2.769441     2.761798     2.754155     2.746511     2.738868     2.731225     2.723582     2.715939     2.708295
      2.700652     2.693009     2.685366     2.677722     2.670079     2.662436     2.654793     2.647150     2.639506     2.631863
      2.624220     2.616577     2.608933     2.601290     2.593647     2.586004     2.578361     2.570717     2.563074     2.555431
      2.547788     2.540144     2.532501     2.524858     2.517215     2.509572     2.501928     2.494285     2.486642     2.478999
      2.471355     2.463712     2.456069     2.448426     2.440783     2.433139     2.425496     2.417853     2.410210     2.402566
      2.394923     2.387280     2.379637     2.371994     2.364350     2.356707     2.349064     2.341421     2.333777     2.326134
      2.318491     2.310848     2.303205     2.295561     2.287918     2.280275     2.272632     2.264988     2.257345     2.249702
      2.242059     2.234416     2.226772     2.219129     2.211486     2.203843     2.196199     2.188556     2.180913     2.173270
      2.165627     2.157983     2.150340     2.142697     2.135054     2.127410     2.119767     2.112124     2.104481     2.096838
      2.089194     2.081551     2.073908     2.066265     2.058621     2.050978     2.043335     2.035692     2.028049     2.020405
      2.012762     2.005119     1.997476     1.989833     1.982190     1.974546     1.966903     1.959260     1.951617     1.943974
      1.936331     1.928688     1.921045     1.913402     1.905759     1.898115     1.890472     1.882829     1.875186     1.867543
      1.859900     1.852257     1.844614     1.836971     1.829327     1.821684     1.814041     1.806398     1.798755     1.791112
      1.783469     1.775826     1.768183     1.760540     1.752896     1.745253     1.737610     1.729967     1.722324     1.714681
      1.707038     1.699395     1.691752     1.684108     1.676465     1.668822     1.661179     1.653536     1.645893     1.638250
      1.630607     1.622964     1.615321     1.607677     1.600034     1.592391     1.584748     1.577105     1.569462     1.561819
      1.554176     1.546533     1.538890     1.531246     1.523603     1.515960     1.508317     1.500674     1.493031     1.485388
      1.477745     1.470102     1.462458     1.454815     1.447172     1.439529     1.431886     1.424243     1.416600     1.408957
      1.401314     1.393671     1.386027     1.378384     1.370741     1.363098     1.355455     1.347812     1.340169     1.332526
      1.324883     1.317240     1.309596     1.301953     1.294310     1.286667     1.279024     1.271381     1.263738     1.256095
      1.248452     1.240808     1.233165     1.225522     1.217879     1.210236     1.202593     1.194950     1.187307     1.179664
      1.172021     1.164377     1.156734     1.149091     1.141448     1.133805     1.126162     1.118519     1.110876     1.103233
      1.095590     1.087946     1.080303     1.072660     1.065017     1.057374     1.049731     1.042088     1.034445     1.026802
      1.019158     1.011515     1.003872     0.996229     0.988586     0.980943     0.973300     0.965657     0.958014     0.950371
      0.942727     0.935084     0.927441     0.919798     0.912155     0.904512     0.896869     0.889226     0.881583     0.873940
      0.866296     0.858653     0.851010     0.843367     0.835724     0.828081     0.820438     0.812795     0.805152     0.797508
      0.789865     0.782222     0.774579     0.766936     0.759293     0.751650     0.744007     0.736364     0.728721     0.721077
      0.713434     0.705791     0.698148     0.690505     0.682862     0.675219     0.667576     0.659933     0.652290     0.644646
      0.637003     0.629360     0.621717     0.614074     0.606431     0.598788     0.591145     0.583502     0.575858     0.568215
      0.560572     0.552929     0.545286     0.537643     0.530000     0.522357     0.514714     0.507071     0.499427     0.491784
      0.484141     0.476498     0.468855     0.461212     0.453569     0.445925     0.438282     0.430639     0.422996     0.415353
      0.407710     0.400067     0.392424     0.384780     0.377137     0.369494     0.361851     0.354208     0.346565     0.338922
      0.331278     0.323635     0.315992     0.308349     0.300706     0.293063     0.285420     0.277777     0.270133     0.262490
      0.254847     0.247204     0.239561     0.231918     0.224275     0.216631     0.208988     0.201345
 NY phased data points follow
   7.48638E+00  5.94215E+00  1.03465E+01  3.35377E+00  9.56361E+00  1.05940E+01  2.00202E+01  1.64597E+01  2.46019E+01  2.83971E+01
   2.79659E+01  3.24782E+01  2.42975E+01  2.28076E+01  1.79712E+01  9.05296E+00  7.89109E+00  1.24460E+01  5.40703E+00  8.77617E+00
   1.92622E+00  3.20221E+00  5.27645E+00  7.10325E+00  4.35772E+00  4.64369E+00  1.25545E+01  1.21574E+01  9.32232E+00  1.61818E+01
   1.71131E+01  1.67431E+01  1.49144E+01  1.29102E+01  9.40269E+00  7.65215E+00  1.40911E+01  1.48213E+01  2.22079E+00  1.07555E+01
   1.35821E+01  9.64281E+00  1.21171E+01  1.48549E+01  1.08724E+01  1.68932E+01  1.83909E+01  2.45798E+01  2.06286E+01  2.13445E+01
   1.41366E+01  1.12808E+01  9.51664E+00  9.12952E+00  9.72785E+00  1.18053E+01  1.45629E+01  1.44080E+01  1.10968E+01  1.31633E+01
   1.14922E+01  1.29702E+01  8.89188E+00  1.07303E+01  2.45450E+00  7.30254E+00  6.10956E+00  6.76420E+00  4.88643E+00  6.14226E+00
   9.35504E+00  7.11438E+00  8.74771E+00  7.83859E+00  5.85859E+00  1.27862E+01  1.22998E+01  8.17577E+00  2.82561E+00  5.08674E+00
   6.38007E+00  5.39476E+00  4.45866E+00  8.53843E+00  5.77878E+00  3.59730E+00  2.67573E+00  7.25309E+00  1.06837E+01  8.96841E+00
   7.47080E+00  9.10285E+00  8.64197E+00  1.29986E+01  1.19442E+01  7.61491E+00  1.10843E+01  1.27096E+01  1.46365E+01  1.89667E+01
   2.94056E+01  4.64425E+01  6.60909E+01  7.11908E+01  6.25081E+01  4.66256E+01  2.91617E+01  2.26289E+01  2.04601E+01  1.35908E+01
   1.46955E+01  3.80258E+00  7.96644E+00  1.26790E+01  4.14320E+00  9.57918E+00  7.92237E+00  1.17819E+01  7.62095E+00  1.82441E+01
   7.90460E+00  5.37687E+00  1.34320E+01  1.84304E+01  1.59628E+01  3.05318E+01  4.96257E+01  6.28417E+01  5.77596E+01  4.53194E+01
   3.36514E+01  2.27242E+01  1.72359E+01  1.66687E+01  1.24428E+01  1.00816E+01  7.68163E+00  7.94574E+00  7.81204E+00  1.28659E+01
   1.50494E+01  1.23089E+01  1.19935E+01  9.52502E+00  1.23952E+01  1.10786E+01  9.88105E+00  1.06340E+01  4.83502E+00  6.56722E+00
   6.66550E+00  9.54113E+00  8.35772E+00  1.12504E+01  9.58880E+00  1.28882E+01  1.10139E+01  1.11867E+01  1.13685E+01  9.04765E+00
   1.07996E+01  7.95613E+00  4.86646E+00  2.20765E+00  1.47049E+01  9.56986E+00  1.34543E+01  1.35576E+01  6.12076E-01 -1.40803E+00
  -5.19161E+00 -2.37935E+00 -1.63222E+00  6.79093E-02 -5.55149E+00 -1.30625E+01 -7.98712E+00 -7.86545E+00 -4.59341E+00  4.46411E+00
  -2.63023E+00 -1.65395E-01  2.99025E-01 -4.99117E+00  1.46597E+00  5.29054E+00  8.57234E+00  6.52115E+00  7.47371E+00  8.60746E+00
   7.00699E+00  9.21539E+00  8.32107E+00  4.06373E+00  2.77263E+00  4.21666E+00  3.84179E+00 -5.23240E+00 -8.60940E+00 -1.78703E+00
   1.32372E-01  2.90114E+00  1.16645E+01  1.10632E+01  1.46081E+01  5.76401E+00  8.99728E+00  5.59894E+00  5.86213E+00  7.30080E+00
   6.38170E+00  6.24841E+00  6.44584E+00  1.20909E+01  1.37748E+01  2.07010E+01  1.76389E+01  1.99144E+01  1.49900E+01  1.29059E+01
   7.58539E+00  2.63658E+00 -5.11170E+00  3.12156E+00  3.09417E+00  1.11447E+01  1.58667E+01  1.09633E+01  1.69259E+01  1.55715E+01
   1.51310E+01  6.05411E+00  1.66707E+01  1.21253E+01  1.30602E+01  1.36648E+01  1.48540E+01  1.31746E+01  1.37827E+01  1.36689E+01
   9.12944E+00  7.17511E+00 -1.28588E+00 -7.87290E-02  8.96634E+00  9.43377E+00  1.38360E+01  1.54653E+01  1.94723E+01  1.72508E+01
   1.90853E+01  2.19256E+01  1.84183E+01  2.88786E+01  4.89669E+01  5.34036E+01  6.97700E+01  6.14389E+01  7.12815E+01  9.93028E+01
   1.26295E+02  1.22145E+02  1.00917E+02  6.33930E+01  3.85928E+01  2.02061E+01  1.82042E+01  9.56560E+00  9.43281E+00  1.64105E+01
   1.04888E+01  1.23955E+01  1.39387E+01  1.34611E+01  1.70432E+01  9.87511E+00  1.15253E+01  1.26106E+01  1.35831E+01  1.45603E+01
   9.90336E+00  1.17970E+01  1.76956E+01  1.06050E+01  1.04551E+01  1.43685E+01  1.47783E+01  1.17918E+01  1.59284E+01  7.93073E+00
   1.46989E+01  1.19008E+01  1.68453E+01  1.19588E+01  1.48597E+01  1.33313E+01  1.44853E+01  1.02887E+01  1.14095E+01  1.11705E+01
   1.12102E+01  1.03729E+01  1.43811E+01  1.26477E+01  1.47823E+01  1.52381E+01  8.85863E+00  1.48813E+01  9.28485E+00  1.44914E+01
   1.41841E+01  7.45500E+00  1.46021E+01  1.02728E+01  1.99666E+01  1.27150E+01  9.01427E+00  1.06575E+01  9.88462E+00  1.13986E+01
   9.00088E+00  1.00356E+01  1.23383E+01  1.32058E+01  6.60586E+00  1.25962E+01  1.44190E+01  9.26812E+00  1.22665E+01  4.06078E+00
   5.70449E+00  1.26957E+01  1.46222E+01  1.38292E+01  9.51582E+00  5.74452E+00  7.42624E+00  6.67365E+00  1.27236E+01  9.24166E+00
   4.18097E+00  1.19229E+01  1.48890E+01  1.32005E+01  1.58965E+01  1.55355E+01  2.17200E+01  2.41680E+01  2.01470E+01  1.93387E+01
   1.24182E+01  1.59510E+01  1.08597E+01  1.46850E+01  1.23148E+01  1.56151E+01  1.46246E+01  1.36513E+01  1.34597E+01  9.76601E+00
   1.13252E+01  1.51514E+01  1.24096E+01  1.81059E+01  1.53993E+01  1.77843E+01  1.69936E+01  2.19716E+01  1.22471E+01  1.43968E+01
   1.22140E+01  1.16224E+01  1.48844E+01  1.63717E+01  8.69179E+00  5.85535E+00  1.00048E+01  1.10252E+01  1.19157E+01  7.19709E+00
   4.15013E+00  8.74272E+00  1.04606E+01  1.05015E+01  7.96740E+00  3.45031E-01  1.22743E+01  1.32159E+01  1.19343E+01  7.59145E+00
   1.75550E+01  1.63084E+01  1.86552E+01  1.24295E+01  2.13189E+01  1.97178E+01  1.98811E+01  1.66877E+01  1.77623E+01  2.35799E+01
   2.25619E+01  2.00407E+01  2.15014E+01  1.87225E+01  1.76008E+01  2.17728E+01  2.42781E+01  1.95966E+01  2.01788E+01  1.57795E+01
   1.89850E+01  1.43236E+01  1.78530E+01  8.53989E+00  1.07078E+01  1.30799E+01  1.19266E+01  1.57736E+01  1.01213E+01  1.23601E+01
   9.43283E+00  1.13189E+01  9.10775E+00  9.64693E+00  1.17594E+01  8.51796E+00  9.44247E+00  6.57161E+00  1.98160E+00  6.50476E+00
   7.43409E+00  2.81868E+00  8.87735E+00  2.24295E+00  1.06081E+01  4.85477E+00  4.17288E+00  9.36014E+00  6.33674E+00  9.02732E+00
   1.69827E+00  7.69887E+00  6.34364E+00  5.00083E+00  1.16234E+01  1.13118E+00  3.13900E+00  9.52355E+00  5.31898E+00  3.01990E+00
   4.74443E+00  5.91427E+00  9.38744E+00  3.29225E+00  3.35108E+00  1.03822E+01  6.83453E+00  5.18245E+00  2.13084E+00  5.83124E+00
   5.13622E+00  5.92729E+00  8.41485E+00 -1.32591E-01  4.42186E+00  5.80362E+00  8.39663E+00  5.90915E+00  4.33300E+00  8.50077E+00
   3.76418E+00  2.23219E+00  4.25370E+00 -1.00282E+00  5.79621E+00  5.52881E+00  4.13463E+00  5.95970E+00  4.67049E+00  4.69562E+00
   5.62831E+00  1.30562E+00  5.27867E+00  6.35603E+00  1.24123E+00  6.65156E+00 -2.97357E+00  5.22722E-01  5.47268E+00  2.74460E+00
   8.96239E+00  2.28503E+00  9.24697E-01  4.59251E+00  4.15892E-01  3.31355E+00  5.61129E+00  8.08710E+00
 NY points of the fit to the data follow
   7.16266E+00  6.90458E+00  6.94113E+00  7.30444E+00  8.34120E+00  1.01167E+01  1.26700E+01  1.72096E+01  2.33753E+01  2.89645E+01
   3.15506E+01  3.00979E+01  2.56036E+01  2.02846E+01  1.60117E+01  1.33916E+01  1.20097E+01  1.12202E+01  1.05935E+01  1.00356E+01
   9.65060E+00  9.35328E+00  9.00386E+00  8.48675E+00  8.23447E+00  8.64323E+00  9.08164E+00  1.02735E+01  1.32048E+01  1.69169E+01
   1.94914E+01  1.99324E+01  1.88348E+01  1.71123E+01  1.51282E+01  1.30817E+01  1.11591E+01  9.50331E+00  8.26637E+00  7.58531E+00
   7.72102E+00  8.66968E+00  9.94774E+00  1.11037E+01  1.25383E+01  1.50602E+01  1.82749E+01  2.04112E+01  1.99555E+01  1.70408E+01
   1.31888E+01  9.97491E+00  8.07202E+00  7.35737E+00  7.45965E+00  7.89359E+00  8.45070E+00  9.27536E+00  1.04050E+01  1.15322E+01
   1.20913E+01  1.16964E+01  1.04956E+01  9.01414E+00  7.95444E+00  7.57573E+00  7.82318E+00  8.43801E+00  8.98023E+00  9.31209E+00
   9.68349E+00  1.01114E+01  1.03543E+01  1.04942E+01  1.06699E+01  1.06673E+01  1.02069E+01  9.26795E+00  8.10223E+00  7.18091E+00
   6.89720E+00  7.23681E+00  7.85971E+00  8.28679E+00  8.48368E+00  8.53017E+00  8.20605E+00  7.37224E+00  6.32515E+00  5.61810E+00
   5.58312E+00  6.03792E+00  6.41578E+00  6.47592E+00  6.40072E+00  6.34818E+00  6.73340E+00  8.80215E+00  1.31385E+01  1.89775E+01
   2.99727E+01  4.77718E+01  6.50325E+01  7.14464E+01  6.36415E+01  4.71659E+01  3.07650E+01  1.96784E+01  1.40010E+01  1.14161E+01
   1.01345E+01  9.36518E+00  8.85397E+00  8.50036E+00  8.23177E+00  8.00933E+00  7.82456E+00  7.65073E+00  7.47530E+00  7.34986E+00
   7.39411E+00  8.03143E+00  1.07042E+01  1.48218E+01  2.12067E+01  3.35218E+01  4.92968E+01  5.95479E+01  5.80730E+01  4.67500E+01
   3.27116E+01  2.22357E+01  1.67341E+01  1.39446E+01  1.17170E+01  9.49259E+00  7.73664E+00  7.01546E+00  7.40550E+00  8.57058E+00
   9.91159E+00  1.08192E+01  1.09990E+01  1.05777E+01  9.90839E+00  9.28979E+00  8.87183E+00  8.64054E+00  8.47968E+00  8.26418E+00
   7.99524E+00  7.65644E+00  7.19792E+00  6.76319E+00  6.60672E+00  6.83992E+00  7.29298E+00  7.72624E+00  7.70052E+00  6.77349E+00
   5.30990E+00  4.11470E+00  3.97467E+00  5.04957E+00  6.35596E+00  6.69453E+00  5.82741E+00  4.29915E+00  2.93502E+00  2.32073E+00
   2.43082E+00  2.78679E+00  2.83875E+00  2.34501E+00  1.15414E+00 -1.05634E-01 -4.68250E-01  3.98557E-01  1.77962E+00  2.38188E+00
   1.76073E+00  8.81732E-01  7.30612E-01  1.45815E+00  2.37151E+00  2.68179E+00  2.79364E+00  3.79512E+00  5.99944E+00  8.76895E+00
   1.10319E+01  1.18780E+01  1.12001E+01  9.53401E+00  7.86559E+00  6.72412E+00  6.10404E+00  5.98265E+00  6.42644E+00  7.40259E+00
   8.46898E+00  9.51308E+00  1.07037E+01  1.18149E+01  1.23226E+01  1.16133E+01  9.72855E+00  7.14171E+00  4.40794E+00  2.44055E+00
   1.73972E+00  2.13646E+00  3.40251E+00  5.68582E+00  9.39004E+00  1.35242E+01  1.59403E+01  1.52176E+01  1.18522E+01  7.53480E+00
   3.42618E+00 -3.80460E-02 -1.84853E+00 -8.99078E-01  2.60920E+00  7.04802E+00  1.06394E+01  1.26305E+01  1.31603E+01  1.25637E+01
   1.13348E+01  1.02675E+01  1.01568E+01  1.10832E+01  1.25090E+01  1.38982E+01  1.47468E+01  1.46864E+01  1.36326E+01  1.19261E+01
   1.00838E+01  8.64034E+00  8.18307E+00  9.20009E+00  1.14577E+01  1.39615E+01  1.57357E+01  1.64596E+01  1.63573E+01  1.59432E+01
   1.64803E+01  1.87553E+01  2.25641E+01  3.04797E+01  4.26190E+01  5.57443E+01  6.45205E+01  6.66385E+01  7.65423E+01  1.00337E+02
   1.21905E+02  1.22132E+02  9.91732E+01  6.67052E+01  3.99533E+01  2.47856E+01  1.83361E+01  1.56692E+01  1.43551E+01  1.35773E+01
   1.30941E+01  1.27740E+01  1.26163E+01  1.25827E+01  1.24806E+01  1.21374E+01  1.15989E+01  1.10774E+01  1.07338E+01  1.05513E+01
   1.04981E+01  1.05771E+01  1.07501E+01  1.09264E+01  1.10311E+01  1.10463E+01  1.10296E+01  1.10304E+01  1.10623E+01  1.11750E+01
   1.14303E+01  1.18152E+01  1.22420E+01  1.26116E+01  1.28813E+01  1.30696E+01  1.31863E+01  1.32446E+01  1.32854E+01  1.33490E+01
   1.34408E+01  1.35320E+01  1.35852E+01  1.35773E+01  1.35048E+01  1.33740E+01  1.31943E+01  1.29767E+01  1.27323E+01  1.24699E+01
   1.21966E+01  1.19165E+01  1.16348E+01  1.13576E+01  1.10930E+01  1.08471E+01  1.06240E+01  1.04253E+01  1.02534E+01  1.01106E+01
   9.99872E+00  9.91717E+00  9.86432E+00  9.83817E+00  9.83839E+00  9.86448E+00  9.91549E+00  9.98856E+00  1.00811E+01  1.01913E+01
   1.03190E+01  1.04642E+01  1.06260E+01  1.08028E+01  1.09939E+01  1.11999E+01  1.14231E+01  1.16651E+01  1.19275E+01  1.22123E+01
   1.25257E+01  1.28823E+01  1.33164E+01  1.38091E+01  1.43072E+01  1.49021E+01  1.54214E+01  1.54697E+01  1.49255E+01  1.41011E+01
   1.34902E+01  1.33259E+01  1.34983E+01  1.40346E+01  1.49805E+01  1.60816E+01  1.68929E+01  1.71487E+01  1.69165E+01  1.64593E+01
   1.59964E+01  1.55961E+01  1.52339E+01  1.48809E+01  1.45239E+01  1.41595E+01  1.37892E+01  1.34155E+01  1.30430E+01  1.26771E+01
   1.23235E+01  1.19868E+01  1.16714E+01  1.13807E+01  1.11192E+01  1.08912E+01  1.07009E+01  1.05512E+01  1.04452E+01  1.03858E+01
   1.03772E+01  1.04232E+01  1.05275E+01  1.06926E+01  1.09212E+01  1.12155E+01  1.15780E+01  1.20092E+01  1.25080E+01  1.30707E+01
   1.36920E+01  1.43643E+01  1.50781E+01  1.58205E+01  1.65758E+01  1.73254E+01  1.80505E+01  1.87309E+01  1.93470E+01  1.98788E+01
   2.03083E+01  2.06198E+01  2.08023E+01  2.08488E+01  2.07568E+01  2.05276E+01  2.01675E+01  1.96866E+01  1.90998E+01  1.84240E+01
   1.76780E+01  1.68805E+01  1.60508E+01  1.52070E+01  1.43669E+01  1.35451E+01  1.27538E+01  1.20019E+01  1.12965E+01  1.06424E+01
   1.00425E+01  9.49716E+00  9.00510E+00  8.56346E+00  8.16942E+00  7.81955E+00  7.51039E+00  7.23749E+00  6.99664E+00  6.78366E+00
   6.59554E+00  6.42933E+00  6.28248E+00  6.15191E+00  6.03523E+00  5.93033E+00  5.83616E+00  5.75141E+00  5.67500E+00  5.60526E+00
   5.54126E+00  5.48225E+00  5.42824E+00  5.37860E+00  5.33280E+00  5.28983E+00  5.24949E+00  5.21162E+00  5.17651E+00  5.14367E+00
   5.11273E+00  5.08303E+00  5.05477E+00  5.02799E+00  5.00298E+00  4.97921E+00  4.95641E+00  4.93416E+00  4.91289E+00  4.89266E+00
   4.87364E+00  4.85522E+00  4.83726E+00  4.81959E+00  4.80273E+00  4.78668E+00  4.77145E+00  4.75642E+00  4.74160E+00  4.72701E+00
   4.71317E+00  4.69995E+00  4.68722E+00  4.67444E+00  4.66183E+00  4.64949E+00  4.63788E+00  4.62668E+00  4.61571E+00  4.60457E+00
   4.59363E+00  4.58304E+00  4.57310E+00  4.56337E+00  4.55370E+00  4.54385E+00  4.53433E+00  4.52521E+00  4.51664E+00  4.50808E+00
   4.49951E+00  4.49086E+00  4.48266E+00  4.47489E+00  4.46756E+00  4.46012E+00  4.45270E+00  4.44538E+00
 NY background values follow
     6.503E+00    6.499E+00    6.495E+00    6.491E+00    6.488E+00    6.484E+00    6.480E+00    6.476E+00    6.472E+00    6.469E+00
     6.465E+00    6.461E+00    6.457E+00    6.454E+00    6.450E+00    6.446E+00    6.442E+00    6.439E+00    6.435E+00    6.431E+00
     6.427E+00    6.423E+00    6.420E+00    6.416E+00    6.412E+00    6.408E+00    6.404E+00    6.401E+00    6.397E+00    6.393E+00
     6.389E+00    6.385E+00    6.382E+00    6.378E+00    6.374E+00    6.370E+00    6.366E+00    6.363E+00    6.359E+00    6.355E+00
     6.351E+00    6.347E+00    6.344E+00    6.340E+00    6.336E+00    6.332E+00    6.328E+00    6.324E+00    6.321E+00    6.317E+00
     6.313E+00    6.309E+00    6.305E+00    6.301E+00    6.298E+00    6.294E+00    6.290E+00    6.286E+00    6.282E+00    6.278E+00
     6.274E+00    6.271E+00    6.267E+00    6.263E+00    6.259E+00    6.255E+00    6.251E+00    6.247E+00    6.244E+00    6.240E+00
     6.236E+00    6.232E+00    6.228E+00    6.224E+00    6.220E+00    6.216E+00    6.212E+00    6.209E+00    6.205E+00    6.201E+00
     6.197E+00    6.193E+00    6.189E+00    6.185E+00    6.181E+00    6.177E+00    6.174E+00    6.170E+00    6.166E+00    6.162E+00
     6.158E+00    6.154E+00    6.150E+00    6.146E+00    6.142E+00    6.138E+00    6.134E+00    6.131E+00    6.127E+00    6.123E+00
     6.119E+00    6.115E+00    6.111E+00    6.107E+00    6.103E+00    6.099E+00    6.095E+00    6.091E+00    6.087E+00    6.083E+00
     6.079E+00    6.075E+00    6.072E+00    6.068E+00    6.064E+00    6.060E+00    6.056E+00    6.052E+00    6.048E+00    6.044E+00
     6.040E+00    6.036E+00    6.032E+00    6.028E+00    6.024E+00    6.020E+00    6.016E+00    6.012E+00    6.008E+00    6.004E+00
     6.000E+00    5.996E+00    5.992E+00    5.988E+00    5.984E+00    5.980E+00    5.976E+00    5.972E+00    5.968E+00    5.964E+00
     5.960E+00    5.956E+00    5.952E+00    5.948E+00    5.944E+00    5.940E+00    5.936E+00    5.932E+00    5.928E+00    5.924E+00
     5.920E+00    5.916E+00    5.912E+00    5.908E+00    5.904E+00    5.900E+00    5.896E+00    5.892E+00    5.888E+00    5.884E+00
     5.880E+00    5.876E+00    5.872E+00    5.868E+00    5.864E+00    5.860E+00    5.856E+00    5.852E+00    5.848E+00    5.844E+00
     5.840E+00    5.836E+00    5.832E+00    5.828E+00    5.824E+00    5.819E+00    5.815E+00    5.811E+00    5.807E+00    5.803E+00
     5.799E+00    5.795E+00    5.791E+00    5.787E+00    5.783E+00    5.779E+00    5.775E+00    5.771E+00    5.767E+00    5.763E+00
     5.759E+00    5.754E+00    5.750E+00    5.746E+00    5.742E+00    5.738E+00    5.734E+00    5.730E+00    5.726E+00    5.722E+00
     5.718E+00    5.714E+00    5.710E+00    5.705E+00    5.701E+00    5.697E+00    5.693E+00    5.689E+00    5.685E+00    5.681E+00
     5.677E+00    5.673E+00    5.669E+00    5.664E+00    5.660E+00    5.656E+00    5.652E+00    5.648E+00    5.644E+00    5.640E+00
     5.636E+00    5.632E+00    5.627E+00    5.623E+00    5.619E+00    5.615E+00    5.611E+00    5.607E+00    5.603E+00    5.599E+00
     5.594E+00    5.590E+00    5.586E+00    5.582E+00    5.578E+00    5.574E+00    5.570E+00    5.566E+00    5.561E+00    5.557E+00
     5.553E+00    5.549E+00    5.545E+00    5.541E+00    5.537E+00    5.532E+00    5.528E+00    5.524E+00    5.520E+00    5.516E+00
     5.512E+00    5.507E+00    5.503E+00    5.499E+00    5.495E+00    5.491E+00    5.487E+00    5.483E+00    5.478E+00    5.474E+00
     5.470E+00    5.466E+00    5.462E+00    5.457E+00    5.453E+00    5.449E+00    5.445E+00    5.441E+00    5.437E+00    5.432E+00
     5.428E+00    5.424E+00    5.420E+00    5.416E+00    5.412E+00    5.407E+00    5.403E+00    5.399E+00    5.395E+00    5.391E+00
     5.386E+00    5.382E+00    5.378E+00    5.374E+00    5.370E+00    5.365E+00    5.361E+00    5.357E+00    5.353E+00    5.349E+00
     5.344E+00    5.340E+00    5.336E+00    5.332E+00    5.327E+00    5.323E+00    5.319E+00    5.315E+00    5.311E+00    5.306E+00
     5.302E+00    5.298E+00    5.294E+00    5.290E+00    5.285E+00    5.281E+00    5.277E+00    5.273E+00    5.268E+00    5.264E+00
     5.260E+00    5.256E+00    5.251E+00    5.247E+00    5.243E+00    5.239E+00    5.235E+00    5.230E+00    5.226E+00    5.222E+00
     5.218E+00    5.213E+00    5.209E+00    5.205E+00    5.201E+00    5.196E+00    5.192E+00    5.188E+00    5.184E+00    5.179E+00
     5.175E+00    5.171E+00    5.167E+00    5.162E+00    5.158E+00    5.154E+00    5.150E+00    5.145E+00    5.141E+00    5.137E+00
     5.132E+00    5.128E+00    5.124E+00    5.120E+00    5.115E+00    5.111E+00    5.107E+00    5.103E+00    5.098E+00    5.094E+00
     5.090E+00    5.085E+00    5.081E+00    5.077E+00    5.073E+00    5.068E+00    5.064E+00    5.060E+00    5.055E+00    5.051E+00
     5.047E+00    5.043E+00    5.038E+00    5.034E+00    5.030E+00    5.025E+00    5.021E+00    5.017E+00    5.013E+00    5.008E+00
     5.004E+00    5.000E+00    4.995E+00    4.991E+00    4.987E+00    4.983E+00    4.978E+00    4.974E+00    4.970E+00    4.965E+00
     4.961E+00    4.957E+00    4.952E+00    4.948E+00    4.944E+00    4.939E+00    4.935E+00    4.931E+00    4.926E+00    4.922E+00
     4.918E+00    4.914E+00    4.909E+00    4.905E+00    4.901E+00    4.896E+00    4.892E+00    4.888E+00    4.883E+00    4.879E+00
     4.875E+00    4.870E+00    4.866E+00    4.862E+00    4.857E+00    4.853E+00    4.849E+00    4.844E+00    4.840E+00    4.836E+00
     4.831E+00    4.827E+00    4.823E+00    4.818E+00    4.814E+00    4.810E+00    4.805E+00    4.801E+00    4.797E+00    4.792E+00
     4.788E+00    4.784E+00    4.779E+00    4.775E+00    4.771E+00    4.766E+00    4.762E+00    4.758E+00    4.753E+00    4.749E+00
     4.744E+00    4.740E+00    4.736E+00    4.731E+00    4.727E+00    4.723E+00    4.718E+00    4.714E+00    4.710E+00    4.705E+00
     4.701E+00    4.697E+00    4.692E+00    4.688E+00    4.683E+00    4.679E+00    4.675E+00    4.670E+00    4.666E+00    4.662E+00
     4.657E+00    4.653E+00    4.649E+00    4.644E+00    4.640E+00    4.635E+00    4.631E+00    4.627E+00    4.622E+00    4.618E+00
     4.614E+00    4.609E+00    4.605E+00    4.600E+00    4.596E+00    4.592E+00    4.587E+00    4.583E+00    4.579E+00    4.574E+00
     4.570E+00    4.565E+00    4.561E+00    4.557E+00    4.552E+00    4.548E+00    4.543E+00    4.539E+00    4.535E+00    4.530E+00
     4.526E+00    4.522E+00    4.517E+00    4.513E+00    4.508E+00    4.504E+00    4.500E+00    4.495E+00    4.491E+00    4.486E+00
     4.482E+00    4.478E+00    4.473E+00    4.469E+00    4.464E+00    4.460E+00    4.456E+00    4.451E+00
 Cr       Conc. = 2.25E+02
