 LCModel (Version 6.3-1L) Copyright: S.W. Provencher.          Ref.: Magn. Reson. Med. 30:672-679 (1993).                
 Slice#2 Row#8 Col#1  K_02_press_1_raw_act
 36 lines in following concentration table = NCONC+1
    Conc.  %SD /Cr+PCr  Metabolite                                         
    0.000 999%   0.000 Ala                                                 
   17.701  79%   0.207 Asp                                                 
   30.054  81%   0.352 Cr                                                  
   55.384  45%   0.648 PCr                                                 
    8.009 104% 9.4E-02 GABA                                                
    9.561  88%   0.112 Glc                                                 
  146.052  30%   1.709 Gln                                                 
  118.627  39%   1.388 Glu                                                 
   11.699 278%   0.137 GPC                                                 
   31.068 106%   0.364 PCh                                                 
    0.000 999%   0.000 GSH                                                 
   76.133  72%   0.891 Ins                                                 
    0.000 999%   0.000 Lac                                                 
  125.809  15%   1.473 NAA                                                 
   20.454  83%   0.239 NAAG                                                
    5.456  49% 6.4E-02 Scyllo                                              
   15.834  87%   0.185 Tau                                                 
    0.000 999%   0.000 -CrCH2                                              
   42.767  15%   0.501 GPC+PCh                                             
  146.263  15%   1.712 NAA+NAAG                                            
   85.438  18%   1.000 Cr+PCr                                              
  264.679  25%   3.098 Glu+Gln                                             
  698.456  26%   8.175 Lip13a                                              
    0.000 999%   0.000 Lip13b                                              
  171.438  42%   2.007 Lip09                                               
    0.000 999%   0.000 MM09                                                
  121.417  48%   1.421 Lip20                                               
    0.000 999%   0.000 MM20                                                
    1.991 999% 2.3E-02 MM12                                                
    0.000 999%   0.000 MM14                                                
   22.100 297%   0.259 MM17                                                
  698.456  26%   8.175 Lip13a+Lip13b                                       
  700.447  26%   8.198 MM14+Lip13a+Lip13b+MM12                             
  171.438  42%   2.007 MM09+Lip09                                          
  121.417  48%   1.421 MM20+Lip20                                          
   6 lines in following misc. output table
  FWHM = 0.031 ppm    S/N =   3                                            
  Data shift = 0.008 ppm                                                   
  Ph:  68 deg      -4.9 deg/ppm                                            
  alphaB,S = 6.8E-01,   1.3E+01                                            
   14 spline knots.   Ns = 5(1)                                            
  ( 7) 2 infls.   ( 3) 1 extrs.                                            
  498 points on ppm-axis = NY
      4.000000     3.992357     3.984714     3.977070     3.969427     3.961784     3.954141     3.946497     3.938854     3.931211
      3.923568     3.915925     3.908281     3.900638     3.892995     3.885352     3.877708     3.870065     3.862422     3.854779
      3.847136     3.839492     3.831849     3.824206     3.816563     3.808919     3.801276     3.793633     3.785990     3.778347
      3.770703     3.763060     3.755417     3.747774     3.740130     3.732487     3.724844     3.717201     3.709558     3.701914
      3.694271     3.686628     3.678985     3.671341     3.663698     3.656055     3.648412     3.640769     3.633125     3.625482
      3.617839     3.610196     3.602552     3.594909     3.587266     3.579623     3.571980     3.564336     3.556693     3.549050
      3.541407     3.533763     3.526120     3.518477     3.510834     3.503191     3.495547     3.487904     3.480261     3.472618
      3.464974     3.457331     3.449688     3.442045     3.434402     3.426758     3.419115     3.411472     3.403829     3.396185
      3.388542     3.380899     3.373256     3.365613     3.357969     3.350326     3.342683     3.335040     3.327396     3.319753
      3.312110     3.304467     3.296824     3.289180     3.281537     3.273894     3.266251     3.258607     3.250964     3.243321
      3.235678     3.228034     3.220391     3.212748     3.205105     3.197462     3.189818     3.182175     3.174532     3.166889
      3.159245     3.151602     3.143959     3.136316     3.128673     3.121029     3.113386     3.105743     3.098100     3.090456
      3.082813     3.075170     3.067527     3.059884     3.052240     3.044597     3.036954     3.029311     3.021667     3.014024
      3.006381     2.998738     2.991095     2.983451     2.975808     2.968165     2.960522     2.952878     2.945235     2.937592
      2.929949     2.922306     2.914662     2.907019     2.899376     2.891733     2.884089     2.876446     2.868803     2.861160
      2.853517     2.845873     2.838230     2.830587     2.822944     2.815300     2.807657     2.800014     2.792371     2.784728
      2.777084     2.769441     2.761798     2.754155     2.746511     2.738868     2.731225     2.723582     2.715939     2.708295
      2.700652     2.693009     2.685366     2.677722     2.670079     2.662436     2.654793     2.647150     2.639506     2.631863
      2.624220     2.616577     2.608933     2.601290     2.593647     2.586004     2.578361     2.570717     2.563074     2.555431
      2.547788     2.540144     2.532501     2.524858     2.517215     2.509572     2.501928     2.494285     2.486642     2.478999
      2.471355     2.463712     2.456069     2.448426     2.440783     2.433139     2.425496     2.417853     2.410210     2.402566
      2.394923     2.387280     2.379637     2.371994     2.364350     2.356707     2.349064     2.341421     2.333777     2.326134
      2.318491     2.310848     2.303205     2.295561     2.287918     2.280275     2.272632     2.264988     2.257345     2.249702
      2.242059     2.234416     2.226772     2.219129     2.211486     2.203843     2.196199     2.188556     2.180913     2.173270
      2.165627     2.157983     2.150340     2.142697     2.135054     2.127410     2.119767     2.112124     2.104481     2.096838
      2.089194     2.081551     2.073908     2.066265     2.058621     2.050978     2.043335     2.035692     2.028049     2.020405
      2.012762     2.005119     1.997476     1.989833     1.982190     1.974546     1.966903     1.959260     1.951617     1.943974
      1.936331     1.928688     1.921045     1.913402     1.905759     1.898115     1.890472     1.882829     1.875186     1.867543
      1.859900     1.852257     1.844614     1.836971     1.829327     1.821684     1.814041     1.806398     1.798755     1.791112
      1.783469     1.775826     1.768183     1.760540     1.752896     1.745253     1.737610     1.729967     1.722324     1.714681
      1.707038     1.699395     1.691752     1.684108     1.676465     1.668822     1.661179     1.653536     1.645893     1.638250
      1.630607     1.622964     1.615321     1.607677     1.600034     1.592391     1.584748     1.577105     1.569462     1.561819
      1.554176     1.546533     1.538890     1.531246     1.523603     1.515960     1.508317     1.500674     1.493031     1.485388
      1.477745     1.470102     1.462458     1.454815     1.447172     1.439529     1.431886     1.424243     1.416600     1.408957
      1.401314     1.393671     1.386027     1.378384     1.370741     1.363098     1.355455     1.347812     1.340169     1.332526
      1.324883     1.317240     1.309596     1.301953     1.294310     1.286667     1.279024     1.271381     1.263738     1.256095
      1.248452     1.240808     1.233165     1.225522     1.217879     1.210236     1.202593     1.194950     1.187307     1.179664
      1.172021     1.164377     1.156734     1.149091     1.141448     1.133805     1.126162     1.118519     1.110876     1.103233
      1.095590     1.087946     1.080303     1.072660     1.065017     1.057374     1.049731     1.042088     1.034445     1.026802
      1.019158     1.011515     1.003872     0.996229     0.988586     0.980943     0.973300     0.965657     0.958014     0.950371
      0.942727     0.935084     0.927441     0.919798     0.912155     0.904512     0.896869     0.889226     0.881583     0.873940
      0.866296     0.858653     0.851010     0.843367     0.835724     0.828081     0.820438     0.812795     0.805152     0.797508
      0.789865     0.782222     0.774579     0.766936     0.759293     0.751650     0.744007     0.736364     0.728721     0.721077
      0.713434     0.705791     0.698148     0.690505     0.682862     0.675219     0.667576     0.659933     0.652290     0.644646
      0.637003     0.629360     0.621717     0.614074     0.606431     0.598788     0.591145     0.583502     0.575858     0.568215
      0.560572     0.552929     0.545286     0.537643     0.530000     0.522357     0.514714     0.507071     0.499427     0.491784
      0.484141     0.476498     0.468855     0.461212     0.453569     0.445925     0.438282     0.430639     0.422996     0.415353
      0.407710     0.400067     0.392424     0.384780     0.377137     0.369494     0.361851     0.354208     0.346565     0.338922
      0.331278     0.323635     0.315992     0.308349     0.300706     0.293063     0.285420     0.277777     0.270133     0.262490
      0.254847     0.247204     0.239561     0.231918     0.224275     0.216631     0.208988     0.201345
 NY phased data points follow
   1.41477E+02  1.39578E+02  1.39600E+02  1.37873E+02  1.34018E+02  1.33422E+02  1.33422E+02  1.31839E+02  1.32311E+02  1.30540E+02
   1.28576E+02  1.29727E+02  1.28710E+02  1.26025E+02  1.21729E+02  1.22078E+02  1.21644E+02  1.19241E+02  1.16486E+02  1.18301E+02
   1.16104E+02  1.16527E+02  1.13220E+02  1.11648E+02  1.10613E+02  1.10527E+02  1.12364E+02  1.08867E+02  1.09956E+02  1.06499E+02
   1.07434E+02  1.05567E+02  1.06617E+02  1.06168E+02  1.05133E+02  1.03786E+02  1.01773E+02  1.00142E+02  1.00005E+02  1.00311E+02
   9.89060E+01  9.79886E+01  9.56859E+01  9.67818E+01  9.37240E+01  9.37608E+01  9.55062E+01  9.56219E+01  9.67489E+01  9.50181E+01
   9.15994E+01  9.14468E+01  9.07823E+01  8.94518E+01  8.78257E+01  8.61892E+01  8.91692E+01  8.84973E+01  8.87175E+01  8.49161E+01
   8.54330E+01  8.34953E+01  8.39132E+01  8.22526E+01  8.24486E+01  8.23659E+01  8.02872E+01  7.98728E+01  8.15544E+01  7.63901E+01
   7.68450E+01  7.86058E+01  7.65076E+01  7.67569E+01  7.64386E+01  7.48956E+01  7.66025E+01  7.68504E+01  7.68362E+01  7.28395E+01
   7.31634E+01  7.48058E+01  7.30494E+01  7.37057E+01  7.53222E+01  7.32529E+01  7.21524E+01  7.37607E+01  7.19331E+01  7.19739E+01
   7.10890E+01  6.93957E+01  6.99690E+01  6.87725E+01  6.81061E+01  6.97857E+01  6.75548E+01  6.98922E+01  6.60221E+01  6.49040E+01
   6.61526E+01  6.60798E+01  6.91679E+01  7.46297E+01  7.31139E+01  6.91112E+01  6.62415E+01  6.49114E+01  6.52261E+01  6.20783E+01
   6.41650E+01  6.20085E+01  6.31080E+01  6.26319E+01  6.18572E+01  5.98204E+01  6.23319E+01  5.76146E+01  6.14840E+01  6.12948E+01
   6.08836E+01  5.85328E+01  5.72522E+01  5.81833E+01  5.89244E+01  5.89126E+01  5.96281E+01  6.32041E+01  6.39589E+01  6.09513E+01
   5.90134E+01  5.59039E+01  5.68219E+01  5.46454E+01  5.49834E+01  5.74410E+01  5.49888E+01  5.78747E+01  5.53742E+01  5.58213E+01
   5.46649E+01  5.48962E+01  5.46263E+01  5.44487E+01  5.33060E+01  5.58509E+01  5.37380E+01  5.29531E+01  5.33421E+01  5.28891E+01
   5.29622E+01  5.06224E+01  5.50433E+01  5.30438E+01  5.19648E+01  5.23053E+01  5.34414E+01  5.10211E+01  5.18722E+01  5.15132E+01
   5.42020E+01  5.15379E+01  5.24637E+01  5.28108E+01  5.31196E+01  5.20373E+01  5.02797E+01  5.23118E+01  5.25218E+01  5.33694E+01
   5.34562E+01  5.11028E+01  5.01701E+01  5.33649E+01  5.21190E+01  5.19304E+01  4.98200E+01  4.47712E+01  4.78083E+01  4.74054E+01
   4.65326E+01  4.77254E+01  4.83082E+01  4.78305E+01  4.63863E+01  4.83821E+01  4.73249E+01  4.45365E+01  4.48734E+01  4.86427E+01
   4.84805E+01  4.88238E+01  4.73999E+01  4.58458E+01  4.71024E+01  4.66410E+01  4.59113E+01  4.29827E+01  4.69336E+01  4.32809E+01
   4.43190E+01  4.61157E+01  4.89883E+01  4.73748E+01  4.59593E+01  4.47165E+01  4.44489E+01  4.72646E+01  4.37387E+01  4.23095E+01
   4.15055E+01  4.36133E+01  4.14510E+01  4.47765E+01  4.50203E+01  4.50997E+01  4.43380E+01  4.54388E+01  4.52966E+01  4.16780E+01
   4.46319E+01  4.14209E+01  3.98917E+01  4.24164E+01  3.85776E+01  4.30295E+01  4.06421E+01  4.53923E+01  4.27701E+01  4.06478E+01
   4.24189E+01  4.40667E+01  4.37099E+01  3.98679E+01  4.03581E+01  4.08972E+01  3.90950E+01  3.88499E+01  4.01027E+01  4.07295E+01
   4.28643E+01  4.16589E+01  3.92706E+01  3.64331E+01  3.75872E+01  3.85368E+01  3.69491E+01  3.92589E+01  3.81982E+01  4.00593E+01
   4.01031E+01  3.98228E+01  3.74146E+01  3.86119E+01  3.91044E+01  4.01463E+01  3.83321E+01  4.00748E+01  3.84473E+01  4.18917E+01
   4.42381E+01  4.74790E+01  4.10548E+01  4.00386E+01  3.81482E+01  3.58168E+01  3.23285E+01  3.46847E+01  3.54997E+01  3.60412E+01
   3.42712E+01  3.54605E+01  3.66281E+01  3.58624E+01  3.52941E+01  3.16956E+01  3.56945E+01  3.63506E+01  3.43061E+01  3.55036E+01
   3.29258E+01  3.47468E+01  3.53758E+01  3.20796E+01  3.26129E+01  3.55364E+01  3.28610E+01  3.23585E+01  3.39974E+01  3.49184E+01
   3.16891E+01  3.32451E+01  3.40068E+01  3.36326E+01  3.33963E+01  3.25584E+01  2.99009E+01  3.00882E+01  3.16639E+01  3.36551E+01
   3.11832E+01  3.01808E+01  3.17564E+01  3.43567E+01  3.19829E+01  3.05901E+01  3.25750E+01  3.26208E+01  3.24998E+01  3.21856E+01
   3.14805E+01  3.03938E+01  3.09155E+01  2.85039E+01  3.16708E+01  2.96698E+01  3.11257E+01  3.04947E+01  3.14561E+01  3.01457E+01
   2.92046E+01  3.01266E+01  2.80633E+01  3.07978E+01  3.15739E+01  2.82300E+01  2.91234E+01  2.83769E+01  2.97125E+01  2.74218E+01
   3.03175E+01  3.14143E+01  2.91196E+01  3.01127E+01  3.00454E+01  2.79845E+01  3.05236E+01  2.98456E+01  2.90131E+01  3.07264E+01
   2.89464E+01  2.82133E+01  3.10236E+01  2.78367E+01  3.07742E+01  2.97158E+01  2.89186E+01  2.90627E+01  3.02234E+01  2.99121E+01
   3.10513E+01  2.92933E+01  3.13574E+01  2.92829E+01  3.02401E+01  3.24886E+01  2.91947E+01  3.02726E+01  2.82799E+01  2.64595E+01
   2.89723E+01  2.63305E+01  2.87246E+01  2.67680E+01  2.95069E+01  2.57869E+01  2.62125E+01  2.78213E+01  3.00442E+01  2.83706E+01
   2.89226E+01  2.88919E+01  2.81325E+01  2.86791E+01  2.75951E+01  2.72979E+01  2.66886E+01  2.72565E+01  2.52453E+01  2.66272E+01
   2.56784E+01  2.57006E+01  2.55718E+01  2.67616E+01  2.36690E+01  2.51313E+01  2.63096E+01  2.44626E+01  2.54803E+01  2.29493E+01
   2.59072E+01  2.38141E+01  2.58025E+01  2.43080E+01  2.25752E+01  2.24449E+01  2.42253E+01  2.49596E+01  2.50126E+01  2.62437E+01
   2.55846E+01  2.47034E+01  2.45588E+01  2.47931E+01  2.18507E+01  2.39899E+01  2.44634E+01  2.33868E+01  2.48883E+01  2.74937E+01
   2.45846E+01  2.42714E+01  2.30111E+01  2.53990E+01  2.51391E+01  2.32460E+01  2.45396E+01  2.55175E+01  2.36560E+01  2.66222E+01
   2.35659E+01  2.38371E+01  2.16362E+01  2.25843E+01  2.34709E+01  2.60511E+01  2.15940E+01  2.07679E+01  2.21194E+01  2.39551E+01
   2.17048E+01  2.13608E+01  2.09238E+01  2.13244E+01  2.23203E+01  2.25807E+01  2.22691E+01  2.46379E+01  2.28441E+01  2.38494E+01
   2.22818E+01  1.99281E+01  2.06484E+01  2.00333E+01  2.11084E+01  2.03907E+01  2.03623E+01  2.03763E+01  2.05873E+01  2.09948E+01
   1.97794E+01  2.04039E+01  2.13565E+01  2.04603E+01  2.09481E+01  1.97330E+01  2.02015E+01  1.85922E+01  2.28166E+01  1.95386E+01
   1.88345E+01  2.12402E+01  1.90323E+01  1.90063E+01  2.01997E+01  1.76266E+01  2.08614E+01  2.11475E+01  1.93052E+01  2.01139E+01
   2.14985E+01  2.09244E+01  2.01988E+01  1.85119E+01  2.02540E+01  2.00991E+01  1.90529E+01  1.93727E+01  2.13535E+01  1.65801E+01
   1.88336E+01  1.62278E+01  1.77138E+01  1.72185E+01  1.69259E+01  1.73294E+01  1.81003E+01  1.49649E+01  1.74266E+01  1.85799E+01
   1.82657E+01  1.56359E+01  1.66940E+01  1.69346E+01  1.61167E+01  1.55092E+01  1.51574E+01  1.81959E+01
 NY points of the fit to the data follow
   1.36512E+02  1.35481E+02  1.34495E+02  1.33522E+02  1.32521E+02  1.31530E+02  1.30688E+02  1.30196E+02  1.30120E+02  1.30122E+02
   1.29676E+02  1.28579E+02  1.26967E+02  1.25101E+02  1.23365E+02  1.22031E+02  1.20939E+02  1.19952E+02  1.19005E+02  1.18027E+02
   1.17089E+02  1.16241E+02  1.15469E+02  1.14716E+02  1.13878E+02  1.12843E+02  1.11590E+02  1.10231E+02  1.08960E+02  1.08014E+02
   1.07581E+02  1.07571E+02  1.07536E+02  1.07029E+02  1.05914E+02  1.04395E+02  1.02782E+02  1.01411E+02  1.00498E+02  9.99210E+01
   9.94656E+01  9.89517E+01  9.82484E+01  9.73819E+01  9.65026E+01  9.57938E+01  9.53446E+01  9.50401E+01  9.45646E+01  9.37058E+01
   9.25502E+01  9.13680E+01  9.03791E+01  8.96249E+01  8.90082E+01  8.84113E+01  8.77883E+01  8.71571E+01  8.65820E+01  8.60858E+01
   8.56063E+01  8.50511E+01  8.43771E+01  8.36140E+01  8.28388E+01  8.21408E+01  8.15509E+01  8.10324E+01  8.05410E+01  8.00388E+01
   7.95260E+01  7.90261E+01  7.85461E+01  7.80644E+01  7.75762E+01  7.70898E+01  7.65684E+01  7.59893E+01  7.53934E+01  7.48177E+01
   7.42907E+01  7.38248E+01  7.34050E+01  7.30278E+01  7.27285E+01  7.24950E+01  7.21852E+01  7.16435E+01  7.09185E+01  7.02196E+01
   6.96865E+01  6.93144E+01  6.90286E+01  6.87162E+01  6.83484E+01  6.79794E+01  6.76337E+01  6.72690E+01  6.67578E+01  6.62055E+01
   6.62000E+01  6.75179E+01  7.02048E+01  7.26691E+01  7.27898E+01  7.03637E+01  6.71023E+01  6.44906E+01  6.30267E+01  6.26570E+01
   6.25830E+01  6.23214E+01  6.20261E+01  6.17339E+01  6.14495E+01  6.11679E+01  6.08892E+01  6.06128E+01  6.03378E+01  6.00661E+01
   5.98015E+01  5.95216E+01  5.91541E+01  5.88215E+01  5.89483E+01  6.00160E+01  6.19127E+01  6.34408E+01  6.32596E+01  6.14594E+01
   5.92654E+01  5.75756E+01  5.66629E+01  5.64503E+01  5.63622E+01  5.61689E+01  5.59705E+01  5.57813E+01  5.56007E+01  5.54246E+01
   5.52385E+01  5.50347E+01  5.48288E+01  5.46440E+01  5.44916E+01  5.43565E+01  5.42082E+01  5.40286E+01  5.38266E+01  5.36296E+01
   5.34513E+01  5.32861E+01  5.31238E+01  5.29526E+01  5.27764E+01  5.26137E+01  5.24755E+01  5.23470E+01  5.21899E+01  5.19642E+01
   5.16725E+01  5.13982E+01  5.12370E+01  5.11962E+01  5.11964E+01  5.11358E+01  5.09601E+01  5.07058E+01  5.04542E+01  5.02407E+01
   5.00733E+01  4.99491E+01  4.98223E+01  4.96553E+01  4.94320E+01  4.91770E+01  4.89725E+01  4.88877E+01  4.88716E+01  4.87934E+01
   4.85972E+01  4.83525E+01  4.81678E+01  4.80861E+01  4.80408E+01  4.79273E+01  4.77396E+01  4.75648E+01  4.74902E+01  4.74841E+01
   4.74468E+01  4.73185E+01  4.70780E+01  4.67564E+01  4.64413E+01  4.61825E+01  4.59722E+01  4.58082E+01  4.57082E+01  4.57236E+01
   4.59057E+01  4.62035E+01  4.64412E+01  4.65225E+01  4.64203E+01  4.61179E+01  4.55242E+01  4.45891E+01  4.34037E+01  4.23001E+01
   4.18093E+01  4.21600E+01  4.29512E+01  4.37270E+01  4.43934E+01  4.49256E+01  4.51309E+01  4.49252E+01  4.42982E+01  4.34389E+01
   4.25699E+01  4.17724E+01  4.11870E+01  4.10180E+01  4.13117E+01  4.18690E+01  4.23303E+01  4.25152E+01  4.24224E+01  4.21341E+01
   4.17884E+01  4.14823E+01  4.12135E+01  4.09334E+01  4.05512E+01  4.01075E+01  3.98632E+01  4.00206E+01  4.04788E+01  4.09534E+01
   4.11482E+01  4.08209E+01  4.00152E+01  3.91604E+01  3.85926E+01  3.83525E+01  3.83252E+01  3.84058E+01  3.84819E+01  3.85141E+01
   3.85504E+01  3.85636E+01  3.85753E+01  3.86827E+01  3.89423E+01  3.91509E+01  3.90501E+01  3.88983E+01  3.95981E+01  4.18003E+01
   4.44266E+01  4.52217E+01  4.34091E+01  4.03915E+01  3.77884E+01  3.62331E+01  3.58251E+01  3.59072E+01  3.57914E+01  3.56118E+01
   3.54357E+01  3.52779E+01  3.51446E+01  3.50597E+01  3.50044E+01  3.49353E+01  3.48255E+01  3.46794E+01  3.45137E+01  3.43465E+01
   3.41887E+01  3.40433E+01  3.39150E+01  3.38024E+01  3.36979E+01  3.35952E+01  3.34900E+01  3.33776E+01  3.32611E+01  3.31454E+01
   3.30332E+01  3.29270E+01  3.28269E+01  3.27274E+01  3.26253E+01  3.25214E+01  3.24171E+01  3.23123E+01  3.22080E+01  3.21054E+01
   3.20059E+01  3.19096E+01  3.18150E+01  3.17207E+01  3.16257E+01  3.15294E+01  3.14326E+01  3.13357E+01  3.12388E+01  3.11425E+01
   3.10471E+01  3.09527E+01  3.08594E+01  3.07672E+01  3.06765E+01  3.05875E+01  3.05007E+01  3.04161E+01  3.03338E+01  3.02542E+01
   3.01774E+01  3.01037E+01  3.00332E+01  2.99661E+01  2.99025E+01  2.98428E+01  2.97872E+01  2.97361E+01  2.96895E+01  2.96477E+01
   2.96109E+01  2.95796E+01  2.95540E+01  2.95344E+01  2.95208E+01  2.95132E+01  2.95119E+01  2.95167E+01  2.95276E+01  2.95440E+01
   2.95654E+01  2.95910E+01  2.96201E+01  2.96516E+01  2.96840E+01  2.97160E+01  2.97456E+01  2.97714E+01  2.97914E+01  2.98038E+01
   2.98069E+01  2.97987E+01  2.97778E+01  2.97429E+01  2.96931E+01  2.96276E+01  2.95462E+01  2.94487E+01  2.93358E+01  2.92082E+01
   2.90671E+01  2.89140E+01  2.87504E+01  2.85782E+01  2.83993E+01  2.82159E+01  2.80297E+01  2.78427E+01  2.76566E+01  2.74729E+01
   2.72930E+01  2.71181E+01  2.69493E+01  2.67870E+01  2.66319E+01  2.64843E+01  2.63444E+01  2.62124E+01  2.60881E+01  2.59713E+01
   2.58620E+01  2.57598E+01  2.56647E+01  2.55763E+01  2.54945E+01  2.54190E+01  2.53496E+01  2.52863E+01  2.52288E+01  2.51771E+01
   2.51309E+01  2.50901E+01  2.50544E+01  2.50236E+01  2.49973E+01  2.49749E+01  2.49560E+01  2.49396E+01  2.49251E+01  2.49116E+01
   2.48978E+01  2.48826E+01  2.48648E+01  2.48432E+01  2.48167E+01  2.47842E+01  2.47447E+01  2.46973E+01  2.46415E+01  2.45771E+01
   2.45040E+01  2.44223E+01  2.43325E+01  2.42352E+01  2.41314E+01  2.40220E+01  2.39083E+01  2.37914E+01  2.36725E+01  2.35526E+01
   2.34329E+01  2.33143E+01  2.31976E+01  2.30833E+01  2.29720E+01  2.28639E+01  2.27593E+01  2.26583E+01  2.25608E+01  2.24666E+01
   2.23755E+01  2.22873E+01  2.22018E+01  2.21187E+01  2.20376E+01  2.19582E+01  2.18804E+01  2.18037E+01  2.17281E+01  2.16533E+01
   2.15791E+01  2.15053E+01  2.14317E+01  2.13582E+01  2.12848E+01  2.12112E+01  2.11374E+01  2.10633E+01  2.09888E+01  2.09138E+01
   2.08384E+01  2.07623E+01  2.06855E+01  2.06081E+01  2.05300E+01  2.04512E+01  2.03717E+01  2.02915E+01  2.02105E+01  2.01289E+01
   2.00465E+01  1.99636E+01  1.98799E+01  1.97955E+01  1.97104E+01  1.96247E+01  1.95383E+01  1.94514E+01  1.93637E+01  1.92755E+01
   1.91866E+01  1.90972E+01  1.90072E+01  1.89166E+01  1.88255E+01  1.87338E+01  1.86416E+01  1.85489E+01  1.84557E+01  1.83620E+01
   1.82678E+01  1.81732E+01  1.80781E+01  1.79826E+01  1.78868E+01  1.77905E+01  1.76938E+01  1.75967E+01  1.74993E+01  1.74016E+01
   1.73036E+01  1.72053E+01  1.71066E+01  1.70077E+01  1.69086E+01  1.68092E+01  1.67096E+01  1.66097E+01
 NY background values follow
     1.363E+02    1.353E+02    1.343E+02    1.333E+02    1.323E+02    1.313E+02    1.304E+02    1.294E+02    1.284E+02    1.274E+02
     1.265E+02    1.255E+02    1.245E+02    1.236E+02    1.226E+02    1.216E+02    1.207E+02    1.197E+02    1.188E+02    1.178E+02
     1.169E+02    1.160E+02    1.150E+02    1.141E+02    1.132E+02    1.123E+02    1.114E+02    1.105E+02    1.096E+02    1.087E+02
     1.078E+02    1.069E+02    1.060E+02    1.052E+02    1.043E+02    1.035E+02    1.026E+02    1.018E+02    1.010E+02    1.001E+02
     9.933E+01    9.853E+01    9.774E+01    9.695E+01    9.618E+01    9.541E+01    9.466E+01    9.391E+01    9.318E+01    9.245E+01
     9.173E+01    9.102E+01    9.032E+01    8.963E+01    8.895E+01    8.828E+01    8.762E+01    8.696E+01    8.632E+01    8.568E+01
     8.505E+01    8.443E+01    8.382E+01    8.322E+01    8.262E+01    8.203E+01    8.145E+01    8.088E+01    8.032E+01    7.976E+01
     7.921E+01    7.867E+01    7.814E+01    7.761E+01    7.709E+01    7.658E+01    7.608E+01    7.558E+01    7.509E+01    7.460E+01
     7.413E+01    7.366E+01    7.319E+01    7.274E+01    7.229E+01    7.184E+01    7.140E+01    7.097E+01    7.054E+01    7.012E+01
     6.971E+01    6.930E+01    6.890E+01    6.850E+01    6.811E+01    6.773E+01    6.735E+01    6.697E+01    6.660E+01    6.624E+01
     6.588E+01    6.553E+01    6.518E+01    6.483E+01    6.450E+01    6.416E+01    6.383E+01    6.351E+01    6.319E+01    6.288E+01
     6.257E+01    6.226E+01    6.196E+01    6.167E+01    6.138E+01    6.109E+01    6.081E+01    6.053E+01    6.026E+01    5.999E+01
     5.972E+01    5.946E+01    5.920E+01    5.894E+01    5.869E+01    5.845E+01    5.821E+01    5.797E+01    5.773E+01    5.750E+01
     5.727E+01    5.704E+01    5.682E+01    5.660E+01    5.639E+01    5.618E+01    5.597E+01    5.576E+01    5.556E+01    5.536E+01
     5.516E+01    5.497E+01    5.477E+01    5.458E+01    5.440E+01    5.421E+01    5.403E+01    5.385E+01    5.367E+01    5.350E+01
     5.332E+01    5.315E+01    5.298E+01    5.281E+01    5.265E+01    5.248E+01    5.232E+01    5.216E+01    5.200E+01    5.184E+01
     5.168E+01    5.152E+01    5.137E+01    5.121E+01    5.106E+01    5.091E+01    5.076E+01    5.061E+01    5.045E+01    5.030E+01
     5.016E+01    5.001E+01    4.986E+01    4.971E+01    4.956E+01    4.941E+01    4.927E+01    4.912E+01    4.897E+01    4.882E+01
     4.867E+01    4.852E+01    4.837E+01    4.822E+01    4.807E+01    4.792E+01    4.777E+01    4.762E+01    4.747E+01    4.732E+01
     4.716E+01    4.701E+01    4.686E+01    4.670E+01    4.655E+01    4.640E+01    4.624E+01    4.609E+01    4.593E+01    4.578E+01
     4.563E+01    4.547E+01    4.532E+01    4.516E+01    4.501E+01    4.485E+01    4.470E+01    4.454E+01    4.438E+01    4.423E+01
     4.407E+01    4.392E+01    4.376E+01    4.361E+01    4.345E+01    4.330E+01    4.314E+01    4.299E+01    4.283E+01    4.268E+01
     4.252E+01    4.237E+01    4.221E+01    4.206E+01    4.190E+01    4.175E+01    4.159E+01    4.144E+01    4.129E+01    4.113E+01
     4.098E+01    4.083E+01    4.068E+01    4.052E+01    4.037E+01    4.022E+01    4.007E+01    3.992E+01    3.977E+01    3.962E+01
     3.947E+01    3.932E+01    3.917E+01    3.902E+01    3.887E+01    3.873E+01    3.858E+01    3.843E+01    3.829E+01    3.814E+01
     3.800E+01    3.785E+01    3.771E+01    3.757E+01    3.742E+01    3.728E+01    3.714E+01    3.700E+01    3.686E+01    3.672E+01
     3.658E+01    3.644E+01    3.630E+01    3.617E+01    3.603E+01    3.589E+01    3.576E+01    3.563E+01    3.549E+01    3.536E+01
     3.523E+01    3.510E+01    3.497E+01    3.484E+01    3.471E+01    3.458E+01    3.445E+01    3.433E+01    3.420E+01    3.408E+01
     3.396E+01    3.383E+01    3.371E+01    3.359E+01    3.347E+01    3.335E+01    3.323E+01    3.311E+01    3.299E+01    3.288E+01
     3.276E+01    3.265E+01    3.253E+01    3.242E+01    3.231E+01    3.219E+01    3.208E+01    3.197E+01    3.186E+01    3.175E+01
     3.165E+01    3.154E+01    3.143E+01    3.133E+01    3.122E+01    3.112E+01    3.101E+01    3.091E+01    3.081E+01    3.071E+01
     3.060E+01    3.050E+01    3.041E+01    3.031E+01    3.021E+01    3.011E+01    3.001E+01    2.992E+01    2.982E+01    2.973E+01
     2.964E+01    2.954E+01    2.945E+01    2.936E+01    2.927E+01    2.918E+01    2.909E+01    2.900E+01    2.891E+01    2.882E+01
     2.874E+01    2.865E+01    2.856E+01    2.848E+01    2.840E+01    2.831E+01    2.823E+01    2.815E+01    2.806E+01    2.798E+01
     2.790E+01    2.782E+01    2.774E+01    2.766E+01    2.758E+01    2.750E+01    2.743E+01    2.735E+01    2.727E+01    2.720E+01
     2.712E+01    2.705E+01    2.697E+01    2.690E+01    2.682E+01    2.675E+01    2.668E+01    2.661E+01    2.653E+01    2.646E+01
     2.639E+01    2.632E+01    2.625E+01    2.618E+01    2.611E+01    2.604E+01    2.597E+01    2.591E+01    2.584E+01    2.577E+01
     2.571E+01    2.564E+01    2.557E+01    2.551E+01    2.544E+01    2.538E+01    2.531E+01    2.525E+01    2.518E+01    2.512E+01
     2.506E+01    2.499E+01    2.493E+01    2.487E+01    2.481E+01    2.475E+01    2.468E+01    2.462E+01    2.456E+01    2.450E+01
     2.444E+01    2.438E+01    2.432E+01    2.426E+01    2.420E+01    2.414E+01    2.409E+01    2.403E+01    2.397E+01    2.391E+01
     2.385E+01    2.379E+01    2.374E+01    2.368E+01    2.362E+01    2.356E+01    2.351E+01    2.345E+01    2.339E+01    2.334E+01
     2.328E+01    2.323E+01    2.317E+01    2.311E+01    2.306E+01    2.300E+01    2.294E+01    2.289E+01    2.283E+01    2.277E+01
     2.272E+01    2.266E+01    2.260E+01    2.255E+01    2.249E+01    2.243E+01    2.237E+01    2.232E+01    2.226E+01    2.220E+01
     2.214E+01    2.208E+01    2.202E+01    2.196E+01    2.190E+01    2.183E+01    2.177E+01    2.171E+01    2.165E+01    2.158E+01
     2.152E+01    2.145E+01    2.139E+01    2.132E+01    2.125E+01    2.119E+01    2.112E+01    2.105E+01    2.098E+01    2.091E+01
     2.083E+01    2.076E+01    2.069E+01    2.061E+01    2.054E+01    2.046E+01    2.038E+01    2.030E+01    2.022E+01    2.014E+01
     2.006E+01    1.998E+01    1.990E+01    1.982E+01    1.973E+01    1.965E+01    1.956E+01    1.948E+01    1.939E+01    1.930E+01
     1.921E+01    1.912E+01    1.904E+01    1.895E+01    1.885E+01    1.876E+01    1.867E+01    1.858E+01    1.849E+01    1.839E+01
     1.830E+01    1.820E+01    1.811E+01    1.801E+01    1.792E+01    1.782E+01    1.773E+01    1.763E+01    1.753E+01    1.743E+01
     1.734E+01    1.724E+01    1.714E+01    1.704E+01    1.694E+01    1.684E+01    1.674E+01    1.664E+01
 Asp      Conc. = 1.77E+01
