 LCModel (Version 6.3-1L) Copyright: S.W. Provencher.          Ref.: Magn. Reson. Med. 30:672-679 (1993).                
 Slice#2 Row#13 Col#8  K_02_press_1_raw_act
 36 lines in following concentration table = NCONC+1
    Conc.  %SD /Cr+PCr  Metabolite                                         
   64.928 164% 6.5E-02 Ala                                                 
   73.879 202% 7.4E-02 Asp                                                 
  437.611  47%   0.436 Cr                                                  
  566.343  37%   0.564 PCr                                                 
    0.000 999%   0.000 GABA                                                
    0.000 999%   0.000 Glc                                                 
  477.441  52%   0.476 Gln                                                 
  984.577  28%   0.981 Glu                                                 
  247.739   7%   0.247 GPC                                                 
    0.000 999%   0.000 PCh                                                 
  273.080  23%   0.272 GSH                                                 
 1.26E+03  18%   1.258 Ins                                                 
   30.091 428% 3.0E-02 Lac                                                 
 1.70E+03   3%   1.693 NAA                                                 
    0.000 999%   0.000 NAAG                                                
  109.754  19%   0.109 Scyllo                                              
  285.493  51%   0.284 Tau                                                 
  181.448  50%   0.181 -CrCH2                                              
  247.739   7%   0.247 GPC+PCh                                             
 1.70E+03   3%   1.693 NAA+NAAG                                            
 1.00E+03   4%   1.000 Cr+PCr                                              
 1.46E+03  31%   1.456 Glu+Gln                                             
    0.000 999%   0.000 Lip13a                                              
  213.977  55%   0.213 Lip13b                                              
    0.000 999%   0.000 Lip09                                               
  385.871  27%   0.384 MM09                                                
   32.191 145% 3.2E-02 Lip20                                               
  658.410  27%   0.656 MM20                                                
  116.570  40%   0.116 MM12                                                
  353.965  38%   0.353 MM14                                                
  213.960  43%   0.213 MM17                                                
  213.977  55%   0.213 Lip13a+Lip13b                                       
  684.511  29%   0.682 MM14+Lip13a+Lip13b+MM12                             
  385.871  27%   0.384 MM09+Lip09                                          
  690.601  26%   0.688 MM20+Lip20                                          
   6 lines in following misc. output table
  FWHM = 0.069 ppm    S/N =  11                                            
  Data shift =-0.023 ppm                                                   
  Ph: -73 deg     -22.3 deg/ppm                                            
  alphaB,S = 6.6E-01,   1.0E+02                                            
   14 spline knots.   Ns = 9(1)                                            
  (15) 7 infls.   ( 7) 1 extrs.                                            
  498 points on ppm-axis = NY
      4.000000     3.992357     3.984714     3.977070     3.969427     3.961784     3.954141     3.946497     3.938854     3.931211
      3.923568     3.915925     3.908281     3.900638     3.892995     3.885352     3.877708     3.870065     3.862422     3.854779
      3.847136     3.839492     3.831849     3.824206     3.816563     3.808919     3.801276     3.793633     3.785990     3.778347
      3.770703     3.763060     3.755417     3.747774     3.740130     3.732487     3.724844     3.717201     3.709558     3.701914
      3.694271     3.686628     3.678985     3.671341     3.663698     3.656055     3.648412     3.640769     3.633125     3.625482
      3.617839     3.610196     3.602552     3.594909     3.587266     3.579623     3.571980     3.564336     3.556693     3.549050
      3.541407     3.533763     3.526120     3.518477     3.510834     3.503191     3.495547     3.487904     3.480261     3.472618
      3.464974     3.457331     3.449688     3.442045     3.434402     3.426758     3.419115     3.411472     3.403829     3.396185
      3.388542     3.380899     3.373256     3.365613     3.357969     3.350326     3.342683     3.335040     3.327396     3.319753
      3.312110     3.304467     3.296824     3.289180     3.281537     3.273894     3.266251     3.258607     3.250964     3.243321
      3.235678     3.228034     3.220391     3.212748     3.205105     3.197462     3.189818     3.182175     3.174532     3.166889
      3.159245     3.151602     3.143959     3.136316     3.128673     3.121029     3.113386     3.105743     3.098100     3.090456
      3.082813     3.075170     3.067527     3.059884     3.052240     3.044597     3.036954     3.029311     3.021667     3.014024
      3.006381     2.998738     2.991095     2.983451     2.975808     2.968165     2.960522     2.952878     2.945235     2.937592
      2.929949     2.922306     2.914662     2.907019     2.899376     2.891733     2.884089     2.876446     2.868803     2.861160
      2.853517     2.845873     2.838230     2.830587     2.822944     2.815300     2.807657     2.800014     2.792371     2.784728
      2.777084     2.769441     2.761798     2.754155     2.746511     2.738868     2.731225     2.723582     2.715939     2.708295
      2.700652     2.693009     2.685366     2.677722     2.670079     2.662436     2.654793     2.647150     2.639506     2.631863
      2.624220     2.616577     2.608933     2.601290     2.593647     2.586004     2.578361     2.570717     2.563074     2.555431
      2.547788     2.540144     2.532501     2.524858     2.517215     2.509572     2.501928     2.494285     2.486642     2.478999
      2.471355     2.463712     2.456069     2.448426     2.440783     2.433139     2.425496     2.417853     2.410210     2.402566
      2.394923     2.387280     2.379637     2.371994     2.364350     2.356707     2.349064     2.341421     2.333777     2.326134
      2.318491     2.310848     2.303205     2.295561     2.287918     2.280275     2.272632     2.264988     2.257345     2.249702
      2.242059     2.234416     2.226772     2.219129     2.211486     2.203843     2.196199     2.188556     2.180913     2.173270
      2.165627     2.157983     2.150340     2.142697     2.135054     2.127410     2.119767     2.112124     2.104481     2.096838
      2.089194     2.081551     2.073908     2.066265     2.058621     2.050978     2.043335     2.035692     2.028049     2.020405
      2.012762     2.005119     1.997476     1.989833     1.982190     1.974546     1.966903     1.959260     1.951617     1.943974
      1.936331     1.928688     1.921045     1.913402     1.905759     1.898115     1.890472     1.882829     1.875186     1.867543
      1.859900     1.852257     1.844614     1.836971     1.829327     1.821684     1.814041     1.806398     1.798755     1.791112
      1.783469     1.775826     1.768183     1.760540     1.752896     1.745253     1.737610     1.729967     1.722324     1.714681
      1.707038     1.699395     1.691752     1.684108     1.676465     1.668822     1.661179     1.653536     1.645893     1.638250
      1.630607     1.622964     1.615321     1.607677     1.600034     1.592391     1.584748     1.577105     1.569462     1.561819
      1.554176     1.546533     1.538890     1.531246     1.523603     1.515960     1.508317     1.500674     1.493031     1.485388
      1.477745     1.470102     1.462458     1.454815     1.447172     1.439529     1.431886     1.424243     1.416600     1.408957
      1.401314     1.393671     1.386027     1.378384     1.370741     1.363098     1.355455     1.347812     1.340169     1.332526
      1.324883     1.317240     1.309596     1.301953     1.294310     1.286667     1.279024     1.271381     1.263738     1.256095
      1.248452     1.240808     1.233165     1.225522     1.217879     1.210236     1.202593     1.194950     1.187307     1.179664
      1.172021     1.164377     1.156734     1.149091     1.141448     1.133805     1.126162     1.118519     1.110876     1.103233
      1.095590     1.087946     1.080303     1.072660     1.065017     1.057374     1.049731     1.042088     1.034445     1.026802
      1.019158     1.011515     1.003872     0.996229     0.988586     0.980943     0.973300     0.965657     0.958014     0.950371
      0.942727     0.935084     0.927441     0.919798     0.912155     0.904512     0.896869     0.889226     0.881583     0.873940
      0.866296     0.858653     0.851010     0.843367     0.835724     0.828081     0.820438     0.812795     0.805152     0.797508
      0.789865     0.782222     0.774579     0.766936     0.759293     0.751650     0.744007     0.736364     0.728721     0.721077
      0.713434     0.705791     0.698148     0.690505     0.682862     0.675219     0.667576     0.659933     0.652290     0.644646
      0.637003     0.629360     0.621717     0.614074     0.606431     0.598788     0.591145     0.583502     0.575858     0.568215
      0.560572     0.552929     0.545286     0.537643     0.530000     0.522357     0.514714     0.507071     0.499427     0.491784
      0.484141     0.476498     0.468855     0.461212     0.453569     0.445925     0.438282     0.430639     0.422996     0.415353
      0.407710     0.400067     0.392424     0.384780     0.377137     0.369494     0.361851     0.354208     0.346565     0.338922
      0.331278     0.323635     0.315992     0.308349     0.300706     0.293063     0.285420     0.277777     0.270133     0.262490
      0.254847     0.247204     0.239561     0.231918     0.224275     0.216631     0.208988     0.201345
 NY phased data points follow
  -4.25166E+01 -4.33211E+01 -4.25770E+01 -3.76196E+01 -3.58438E+01 -3.32423E+01 -3.37127E+01 -2.95491E+01 -2.87328E+01 -2.21266E+01
  -2.43917E+01 -2.39029E+01 -2.22382E+01 -2.63241E+01 -2.63242E+01 -3.01865E+01 -2.90671E+01 -3.06286E+01 -3.23983E+01 -3.31869E+01
  -3.37259E+01 -3.52187E+01 -3.57734E+01 -3.20835E+01 -2.93655E+01 -3.20994E+01 -3.05910E+01 -3.07761E+01 -3.02005E+01 -2.71791E+01
  -2.57153E+01 -2.56671E+01 -2.46632E+01 -2.54067E+01 -2.49844E+01 -2.68348E+01 -2.50560E+01 -2.58252E+01 -2.84435E+01 -2.19118E+01
  -2.74457E+01 -2.34230E+01 -2.26672E+01 -2.19017E+01 -2.02733E+01 -2.09370E+01 -1.63844E+01 -2.07761E+01 -2.02831E+01 -2.05003E+01
  -1.92368E+01 -2.10056E+01 -1.88252E+01 -1.89721E+01 -2.01252E+01 -2.00692E+01 -2.10698E+01 -2.01630E+01 -2.10251E+01 -1.90679E+01
  -2.05325E+01 -1.95511E+01 -2.00293E+01 -2.07740E+01 -1.91432E+01 -1.98051E+01 -2.13729E+01 -1.84372E+01 -2.15992E+01 -1.99465E+01
  -2.05597E+01 -1.77536E+01 -1.84852E+01 -1.81121E+01 -1.72144E+01 -1.74132E+01 -1.92887E+01 -1.89476E+01 -1.79613E+01 -1.48703E+01
  -1.61613E+01 -1.49118E+01 -1.38312E+01 -1.35892E+01 -1.58596E+01 -1.17210E+01 -1.34489E+01 -1.50667E+01 -1.35643E+01 -1.41876E+01
  -1.06717E+01 -1.28230E+01 -9.01519E+00 -9.74960E+00 -8.42847E+00 -1.14732E+01 -8.87685E+00 -6.79160E+00 -6.02055E+00 -2.24594E+00
  -2.45676E+00  1.86255E-01 -1.42044E+00  2.81861E+00  1.98501E+00  5.54087E-01 -7.13655E-01 -5.85715E-01 -3.22689E+00 -3.22165E-01
  -5.81243E+00 -4.47976E+00 -8.28333E+00 -8.58851E+00 -1.24038E+01 -8.16203E+00 -8.65173E+00 -4.43256E+00 -6.10595E+00 -4.56202E+00
  -5.75123E+00 -1.90403E+00  3.65815E+00  2.54750E+00  7.32679E+00  6.40794E+00  1.48539E+01  1.54063E+01  1.50481E+01  1.17241E+01
   9.52792E+00  7.25507E+00  8.20732E+00  2.17596E+00  1.66379E+00 -3.80141E-01 -4.19384E+00 -6.23966E+00 -6.94086E+00 -1.10713E+01
  -8.92767E+00 -8.85737E+00 -8.99564E+00 -6.95908E+00 -2.72322E+00 -6.49473E+00 -6.76032E+00 -6.04366E+00 -7.87112E+00 -7.13184E+00
  -7.62222E+00 -7.64591E+00 -5.45821E+00 -7.50149E+00 -5.33343E+00 -7.16280E+00 -5.61113E+00 -7.58879E+00 -5.06378E+00 -3.57790E+00
  -8.09167E+00 -8.08128E+00 -8.26044E+00 -5.95224E+00 -8.43044E+00 -8.72600E+00 -5.75828E+00 -7.59649E+00 -8.96181E+00 -1.03884E+01
  -8.21761E+00 -7.10789E+00 -1.13241E+01 -5.76334E+00 -1.02356E+01 -1.02043E+01 -9.32686E+00 -7.26951E+00 -9.75233E+00 -6.95797E+00
  -7.73684E+00 -1.15390E+01 -6.56929E+00 -6.93748E+00 -6.19767E+00 -5.04753E+00 -8.18104E+00 -6.24944E+00 -3.46873E+00 -1.84792E+00
  -9.97275E-01 -2.84672E+00  3.75335E-01 -7.39184E-01 -2.34756E+00 -2.46097E+00 -6.73930E-01 -4.88777E-01 -1.40334E+00 -9.37458E-02
  -8.96561E-01  6.62899E-01 -8.95822E-01  6.45503E-02 -2.63627E-01  4.66334E-01 -1.28227E+00  2.55514E+00  2.40587E+00 -4.57322E+00
  -5.68210E-01  3.02038E+00  1.71204E+00  2.30861E+00  4.47340E+00  4.95863E+00  5.88967E+00  3.95477E+00  3.89307E+00  1.02973E+00
   1.20581E+00  3.20769E+00  2.34705E-01  1.26954E-01  2.31194E+00  4.53654E+00  2.87416E+00  5.13418E+00  6.98332E+00  5.86152E+00
   8.75811E+00  6.87352E+00  8.44040E+00  3.62691E+00  1.91657E+00  5.50792E+00  5.92660E+00  9.64203E+00  4.16787E+00  9.54720E-01
   2.29586E+00  3.83953E+00  3.38684E+00  2.28888E+00  6.23789E+00  6.08837E+00  7.48662E+00  9.38912E+00  8.45176E+00  9.90483E+00
   1.13504E+01  7.22680E+00  1.29870E+01  1.46123E+01  1.41642E+01  1.94425E+01  2.63432E+01  3.37162E+01  3.76640E+01  4.65860E+01
   4.86179E+01  5.35172E+01  4.98433E+01  4.24689E+01  3.61739E+01  2.95348E+01  3.14611E+01  2.14566E+01  2.06779E+01  1.66067E+01
   1.40848E+01  9.87783E+00  7.59351E+00  7.89386E+00  7.51331E+00  9.00415E+00  5.67617E+00  6.92507E+00  7.39188E+00  8.14436E+00
   8.38984E+00  4.88411E+00  7.21537E+00  8.32207E+00  7.52341E+00  6.09516E+00  1.14584E+01  7.43321E+00  9.71019E+00  5.62868E+00
   7.56321E+00  6.11226E+00  6.48370E+00  8.81268E+00  5.45372E+00  1.17240E+01  7.71161E+00  7.60443E+00  5.79741E+00  9.54453E+00
   6.77434E+00  4.79311E+00  7.52748E+00  8.40693E+00  7.80423E+00  1.01742E+01  8.86891E+00  1.01704E+01  6.30910E+00  1.02107E+01
   9.50785E+00  9.59823E+00  1.14651E+01  8.89665E+00  6.34158E+00  1.18626E+01  7.89791E+00  1.09589E+01  1.21061E+01  1.08081E+01
   9.69715E+00  1.15544E+01  7.36589E+00  8.77895E+00  5.20797E+00  5.23412E+00  7.03084E+00  7.73981E+00  7.86584E+00  8.53012E+00
   8.54606E+00  8.72215E+00  9.35836E+00  8.75443E+00  6.67532E+00  1.20800E+01  8.70785E+00  1.18247E+01  1.17346E+01  9.24834E+00
   1.03824E+01  5.89944E+00  7.91595E+00  9.60611E+00  1.14641E+01  1.10836E+01  1.07380E+01  1.01319E+01  1.10520E+01  9.12261E+00
   1.19100E+01  1.21718E+01  9.39694E+00  8.39372E+00  1.23249E+01  8.84682E+00  7.94413E+00  9.80638E+00  8.66857E+00  1.20959E+01
   1.20188E+01  1.00853E+01  6.91819E+00  9.84065E+00  7.64035E+00  8.54503E+00  8.23925E+00  8.54853E+00  1.03301E+01  7.29605E+00
   7.28220E+00  6.81377E+00  9.19230E+00  6.09210E+00  6.58599E+00  9.90201E+00  7.92354E+00  8.78280E+00  1.05039E+01  6.63389E+00
   8.89298E+00  6.07165E+00  5.52515E+00  9.76515E+00  4.58587E+00  5.84425E+00  4.50495E+00  8.26746E+00  5.00580E+00  8.00147E+00
   6.45331E+00  5.18087E+00  8.30370E+00  5.82784E+00  7.48227E+00  4.65183E+00  6.11904E+00  5.28377E+00  5.10238E+00  8.90959E+00
   7.10494E+00  1.20919E+01  9.21386E+00  8.60014E+00  8.86524E+00  6.54969E+00  7.70935E+00  1.06530E+01  1.03518E+01  7.83549E+00
   7.44918E+00  1.02386E+01  1.17103E+01  9.41364E+00  1.03846E+01  6.94856E+00  1.24653E+01  1.05701E+01  9.55990E+00  8.08485E+00
   8.55909E+00  7.46072E+00  7.28138E+00  8.26151E+00  1.00620E+01  9.27288E+00  7.99075E+00  9.65129E+00  1.13993E+01  8.55892E+00
   7.55257E+00  9.41914E+00  4.92354E+00  9.27830E+00  4.97403E+00  6.62208E+00  7.89498E+00  6.67074E+00  6.86910E+00  7.63148E+00
   8.96696E+00  7.43571E+00  1.05109E+01  5.86015E+00  1.04365E+01  9.16313E+00  9.53087E+00  9.94693E+00  6.80523E+00  5.72575E+00
   5.86989E+00  4.38664E+00  7.12083E+00  7.40334E+00  5.40516E+00  6.06414E+00  6.84003E+00  6.19702E+00  8.30782E+00  7.49554E+00
   7.43141E+00  9.45002E+00  4.01645E+00  1.09870E+01  5.63418E+00  4.51711E+00  7.85592E+00  1.06743E+01  9.30235E+00  7.61296E+00
   5.68560E+00  6.29902E+00  7.93819E+00  6.81866E+00  6.99314E+00  5.22575E+00  7.69692E+00  7.74290E+00  7.77487E+00  7.36799E+00
   7.53784E+00  1.00956E+01  7.06764E+00  6.63206E+00  7.11461E+00  5.64245E+00  7.54301E+00  7.30433E+00  7.57722E+00  7.88199E+00
   6.82774E+00  7.85153E+00  7.32240E+00  7.97360E+00  7.11236E+00  7.63939E+00  7.31871E+00  6.42786E+00
 NY points of the fit to the data follow
  -3.93545E+01 -3.88946E+01 -3.82084E+01 -3.72517E+01 -3.59521E+01 -3.42410E+01 -3.21627E+01 -2.99009E+01 -2.76147E+01 -2.55568E+01
  -2.41815E+01 -2.38777E+01 -2.45950E+01 -2.58272E+01 -2.70003E+01 -2.79292E+01 -2.87278E+01 -2.95697E+01 -3.05319E+01 -3.16418E+01
  -3.25702E+01 -3.29288E+01 -3.27419E+01 -3.24000E+01 -3.19824E+01 -3.13847E+01 -3.06359E+01 -2.97423E+01 -2.85727E+01 -2.71605E+01
  -2.57742E+01 -2.47537E+01 -2.43866E+01 -2.46125E+01 -2.51014E+01 -2.56234E+01 -2.60732E+01 -2.62516E+01 -2.60885E+01 -2.58997E+01
  -2.57588E+01 -2.52880E+01 -2.43843E+01 -2.33184E+01 -2.21914E+01 -2.09989E+01 -1.99680E+01 -1.94771E+01 -1.97226E+01 -2.05050E+01
  -2.13241E+01 -2.18290E+01 -2.20601E+01 -2.21627E+01 -2.21608E+01 -2.21150E+01 -2.20990E+01 -2.19349E+01 -2.14573E+01 -2.08713E+01
  -2.04473E+01 -2.02691E+01 -2.02152E+01 -2.01428E+01 -1.99856E+01 -1.97245E+01 -1.93222E+01 -1.88587E+01 -1.85080E+01 -1.82307E+01
  -1.78990E+01 -1.75238E+01 -1.71566E+01 -1.68455E+01 -1.65990E+01 -1.64400E+01 -1.63799E+01 -1.63639E+01 -1.62464E+01 -1.61474E+01
  -1.59732E+01 -1.55973E+01 -1.50464E+01 -1.44707E+01 -1.39591E+01 -1.35127E+01 -1.31153E+01 -1.28557E+01 -1.29035E+01 -1.31289E+01
  -1.32738E+01 -1.32993E+01 -1.32645E+01 -1.30243E+01 -1.22016E+01 -1.13398E+01 -1.05708E+01 -9.23883E+00 -7.05034E+00 -4.57317E+00
  -2.10981E+00  3.89617E-01  2.61447E+00  3.84914E+00  3.52197E+00  1.85511E+00 -2.08366E-01 -1.89674E+00 -3.21092E+00 -4.53586E+00
  -5.90221E+00 -7.33531E+00 -8.94728E+00 -1.04057E+01 -1.10069E+01 -1.10527E+01 -1.08689E+01 -1.02418E+01 -8.70791E+00 -7.04060E+00
  -5.46151E+00 -3.16160E+00  5.35754E-02  3.61035E+00  7.21820E+00  1.09517E+01  1.42349E+01  1.59159E+01  1.52523E+01  1.26881E+01
   9.55410E+00  6.95124E+00  4.93380E+00  2.88529E+00  6.34502E-01 -1.78642E+00 -4.43909E+00 -6.76905E+00 -7.69877E+00 -7.71672E+00
  -7.51437E+00 -7.29147E+00 -7.13232E+00 -7.06172E+00 -7.02146E+00 -6.93197E+00 -6.81888E+00 -6.72668E+00 -6.66943E+00 -6.65941E+00
  -6.68848E+00 -6.72351E+00 -6.78489E+00 -6.83156E+00 -6.82441E+00 -6.79546E+00 -6.76410E+00 -6.75213E+00 -6.78741E+00 -6.83473E+00
  -6.86351E+00 -6.85618E+00 -6.77461E+00 -6.59033E+00 -6.36727E+00 -6.23787E+00 -6.28532E+00 -6.47285E+00 -6.68532E+00 -6.78540E+00
  -6.79807E+00 -6.83071E+00 -6.95499E+00 -7.12895E+00 -7.26510E+00 -7.36831E+00 -7.37852E+00 -7.25187E+00 -7.04754E+00 -6.84352E+00
  -6.67753E+00 -6.55963E+00 -6.39190E+00 -6.06828E+00 -5.63387E+00 -5.17535E+00 -4.68095E+00 -4.11660E+00 -3.45945E+00 -2.74617E+00
  -2.08704E+00 -1.55676E+00 -1.23516E+00 -1.11332E+00 -1.04126E+00 -8.63395E-01 -5.61732E-01 -2.28004E-01  7.78194E-02  4.25946E-01
   8.53186E-01  1.21095E+00  1.52753E+00  1.73756E+00  1.66690E+00  1.31215E+00  8.37312E-01  3.86904E-01 -5.19327E-02 -3.46703E-01
  -2.58987E-01  2.36402E-01  9.06454E-01  1.50399E+00  2.00036E+00  2.45263E+00  2.65629E+00  2.33330E+00  1.64775E+00  1.01101E+00
   5.62665E-01  2.33896E-01  1.73166E-01  5.41352E-01  1.23613E+00  1.96942E+00  2.54501E+00  3.05019E+00  3.55841E+00  4.05575E+00
   4.45152E+00  4.77928E+00  5.15742E+00  5.46311E+00  5.58214E+00  5.67267E+00  5.81415E+00  5.92767E+00  5.94277E+00  5.83166E+00
   5.61946E+00  5.40469E+00  5.28794E+00  5.30582E+00  5.50573E+00  5.85394E+00  6.21971E+00  6.48357E+00  6.72589E+00  7.05668E+00
   7.62719E+00  9.19656E+00  1.23480E+01  1.51848E+01  1.78822E+01  2.19846E+01  2.73876E+01  3.30283E+01  3.87465E+01  4.46912E+01
   4.95398E+01  5.11579E+01  4.85202E+01  4.29633E+01  3.70852E+01  3.24879E+01  2.88214E+01  2.50216E+01  2.11486E+01  1.70903E+01
   1.25943E+01  8.91335E+00  7.65593E+00  7.37859E+00  7.29222E+00  7.26877E+00  7.24498E+00  7.20744E+00  7.18094E+00  7.16219E+00
   7.14762E+00  7.14172E+00  7.14110E+00  7.13517E+00  7.12937E+00  7.13425E+00  7.15105E+00  7.17836E+00  7.21520E+00  7.26253E+00
   7.32065E+00  7.38501E+00  7.45230E+00  7.52476E+00  7.60318E+00  7.68671E+00  7.77398E+00  7.86448E+00  7.95748E+00  8.05068E+00
   8.14216E+00  8.23089E+00  8.31521E+00  8.39329E+00  8.46368E+00  8.52518E+00  8.57710E+00  8.61931E+00  8.65212E+00  8.67604E+00
   8.69189E+00  8.70086E+00  8.70448E+00  8.70483E+00  8.70470E+00  8.70714E+00  8.71607E+00  8.73878E+00  8.78227E+00  8.81919E+00
   8.84721E+00  8.89300E+00  8.94953E+00  8.98850E+00  8.99894E+00  8.98335E+00  8.95110E+00  8.88444E+00  8.76115E+00  8.63173E+00
   8.57035E+00  8.59501E+00  8.67419E+00  8.78570E+00  8.93663E+00  9.11277E+00  9.26736E+00  9.37800E+00  9.47064E+00  9.54040E+00
   9.58776E+00  9.63142E+00  9.66975E+00  9.69609E+00  9.69867E+00  9.67362E+00  9.66307E+00  9.68049E+00  9.70016E+00  9.73438E+00
   9.80840E+00  9.92191E+00  1.00506E+01  1.01701E+01  1.02662E+01  1.03215E+01  1.03091E+01  1.02188E+01  1.00718E+01  9.88611E+00
   9.67080E+00  9.43793E+00  9.19860E+00  8.96466E+00  8.73943E+00  8.52439E+00  8.33768E+00  8.18626E+00  8.06185E+00  7.95865E+00
   7.87232E+00  7.79927E+00  7.73661E+00  7.68212E+00  7.63429E+00  7.59210E+00  7.55495E+00  7.52248E+00  7.49456E+00  7.47123E+00
   7.45269E+00  7.43920E+00  7.43106E+00  7.42859E+00  7.43215E+00  7.44221E+00  7.45928E+00  7.48391E+00  7.51664E+00  7.55801E+00
   7.60858E+00  7.66893E+00  7.73954E+00  7.82077E+00  7.91278E+00  8.01546E+00  8.12850E+00  8.25121E+00  8.38253E+00  8.52090E+00
   8.66434E+00  8.81038E+00  8.95624E+00  9.09878E+00  9.23463E+00  9.36027E+00  9.47223E+00  9.56723E+00  9.64241E+00  9.69537E+00
   9.72436E+00  9.72831E+00  9.70700E+00  9.66102E+00  9.59180E+00  9.50142E+00  9.39255E+00  9.26828E+00  9.13204E+00  8.98738E+00
   8.83786E+00  8.68677E+00  8.53714E+00  8.39159E+00  8.25233E+00  8.12109E+00  7.99916E+00  7.88731E+00  7.78592E+00  7.69502E+00
   7.61440E+00  7.54363E+00  7.48211E+00  7.42907E+00  7.38375E+00  7.34534E+00  7.31310E+00  7.28632E+00  7.26430E+00  7.24638E+00
   7.23200E+00  7.22068E+00  7.21200E+00  7.20558E+00  7.20109E+00  7.19819E+00  7.19668E+00  7.19632E+00  7.19699E+00  7.19848E+00
   7.20068E+00  7.20341E+00  7.20661E+00  7.21020E+00  7.21413E+00  7.21834E+00  7.22277E+00  7.22736E+00  7.23212E+00  7.23703E+00
   7.24208E+00  7.24721E+00  7.25240E+00  7.25764E+00  7.26295E+00  7.26832E+00  7.27374E+00  7.27917E+00  7.28461E+00  7.29006E+00
   7.29556E+00  7.30109E+00  7.30664E+00  7.31218E+00  7.31774E+00  7.32331E+00  7.32894E+00  7.33459E+00  7.34027E+00  7.34595E+00
   7.35167E+00  7.35744E+00  7.36328E+00  7.36916E+00  7.37509E+00  7.38107E+00  7.38712E+00  7.39327E+00  7.39952E+00  7.40586E+00
   7.41229E+00  7.41882E+00  7.42551E+00  7.43234E+00  7.43935E+00  7.44651E+00  7.45386E+00  7.46141E+00
 NY background values follow
    -4.355E+01   -4.322E+01   -4.289E+01   -4.257E+01   -4.224E+01   -4.191E+01   -4.158E+01   -4.126E+01   -4.093E+01   -4.060E+01
    -4.028E+01   -3.995E+01   -3.962E+01   -3.930E+01   -3.897E+01   -3.865E+01   -3.832E+01   -3.800E+01   -3.767E+01   -3.735E+01
    -3.703E+01   -3.670E+01   -3.638E+01   -3.606E+01   -3.574E+01   -3.542E+01   -3.510E+01   -3.478E+01   -3.446E+01   -3.414E+01
    -3.383E+01   -3.351E+01   -3.319E+01   -3.288E+01   -3.257E+01   -3.225E+01   -3.194E+01   -3.163E+01   -3.132E+01   -3.102E+01
    -3.071E+01   -3.040E+01   -3.010E+01   -2.980E+01   -2.949E+01   -2.919E+01   -2.889E+01   -2.860E+01   -2.830E+01   -2.800E+01
    -2.771E+01   -2.742E+01   -2.713E+01   -2.684E+01   -2.655E+01   -2.626E+01   -2.598E+01   -2.570E+01   -2.541E+01   -2.513E+01
    -2.486E+01   -2.458E+01   -2.430E+01   -2.403E+01   -2.376E+01   -2.349E+01   -2.322E+01   -2.295E+01   -2.269E+01   -2.242E+01
    -2.216E+01   -2.190E+01   -2.164E+01   -2.139E+01   -2.113E+01   -2.088E+01   -2.063E+01   -2.038E+01   -2.014E+01   -1.989E+01
    -1.965E+01   -1.941E+01   -1.917E+01   -1.893E+01   -1.870E+01   -1.847E+01   -1.824E+01   -1.801E+01   -1.778E+01   -1.756E+01
    -1.734E+01   -1.712E+01   -1.690E+01   -1.668E+01   -1.647E+01   -1.626E+01   -1.605E+01   -1.584E+01   -1.564E+01   -1.544E+01
    -1.524E+01   -1.504E+01   -1.484E+01   -1.465E+01   -1.445E+01   -1.426E+01   -1.407E+01   -1.389E+01   -1.370E+01   -1.352E+01
    -1.334E+01   -1.316E+01   -1.298E+01   -1.280E+01   -1.263E+01   -1.246E+01   -1.229E+01   -1.212E+01   -1.195E+01   -1.178E+01
    -1.162E+01   -1.146E+01   -1.130E+01   -1.114E+01   -1.098E+01   -1.083E+01   -1.067E+01   -1.052E+01   -1.037E+01   -1.022E+01
    -1.007E+01   -9.924E+00   -9.779E+00   -9.635E+00   -9.493E+00   -9.352E+00   -9.212E+00   -9.074E+00   -8.938E+00   -8.802E+00
    -8.668E+00   -8.535E+00   -8.403E+00   -8.272E+00   -8.142E+00   -8.013E+00   -7.885E+00   -7.758E+00   -7.632E+00   -7.507E+00
    -7.383E+00   -7.259E+00   -7.136E+00   -7.014E+00   -6.893E+00   -6.772E+00   -6.651E+00   -6.531E+00   -6.412E+00   -6.293E+00
    -6.174E+00   -6.056E+00   -5.937E+00   -5.820E+00   -5.702E+00   -5.584E+00   -5.467E+00   -5.350E+00   -5.232E+00   -5.115E+00
    -4.998E+00   -4.880E+00   -4.762E+00   -4.645E+00   -4.527E+00   -4.408E+00   -4.290E+00   -4.171E+00   -4.051E+00   -3.931E+00
    -3.811E+00   -3.690E+00   -3.569E+00   -3.447E+00   -3.324E+00   -3.201E+00   -3.078E+00   -2.955E+00   -2.831E+00   -2.706E+00
    -2.582E+00   -2.457E+00   -2.332E+00   -2.207E+00   -2.082E+00   -1.957E+00   -1.832E+00   -1.707E+00   -1.582E+00   -1.457E+00
    -1.332E+00   -1.208E+00   -1.083E+00   -9.590E-01   -8.352E-01   -7.117E-01   -5.886E-01   -4.659E-01   -3.436E-01   -2.219E-01
    -1.006E-01    2.005E-02    1.401E-01    2.595E-01    3.783E-01    4.963E-01    6.135E-01    7.300E-01    8.456E-01    9.603E-01
     1.074E+00    1.187E+00    1.299E+00    1.410E+00    1.519E+00    1.628E+00    1.736E+00    1.842E+00    1.947E+00    2.051E+00
     2.154E+00    2.255E+00    2.356E+00    2.455E+00    2.553E+00    2.650E+00    2.746E+00    2.841E+00    2.934E+00    3.027E+00
     3.118E+00    3.208E+00    3.297E+00    3.385E+00    3.472E+00    3.557E+00    3.642E+00    3.725E+00    3.807E+00    3.888E+00
     3.968E+00    4.047E+00    4.125E+00    4.202E+00    4.278E+00    4.352E+00    4.426E+00    4.498E+00    4.569E+00    4.640E+00
     4.709E+00    4.777E+00    4.844E+00    4.910E+00    4.975E+00    5.039E+00    5.101E+00    5.163E+00    5.224E+00    5.284E+00
     5.342E+00    5.400E+00    5.456E+00    5.512E+00    5.566E+00    5.620E+00    5.672E+00    5.724E+00    5.774E+00    5.823E+00
     5.872E+00    5.919E+00    5.966E+00    6.011E+00    6.055E+00    6.099E+00    6.141E+00    6.182E+00    6.223E+00    6.262E+00
     6.300E+00    6.338E+00    6.374E+00    6.410E+00    6.444E+00    6.477E+00    6.510E+00    6.541E+00    6.572E+00    6.601E+00
     6.630E+00    6.657E+00    6.684E+00    6.710E+00    6.734E+00    6.758E+00    6.781E+00    6.803E+00    6.824E+00    6.844E+00
     6.863E+00    6.881E+00    6.898E+00    6.914E+00    6.929E+00    6.943E+00    6.957E+00    6.969E+00    6.980E+00    6.991E+00
     7.001E+00    7.009E+00    7.017E+00    7.025E+00    7.031E+00    7.037E+00    7.042E+00    7.046E+00    7.049E+00    7.052E+00
     7.054E+00    7.055E+00    7.056E+00    7.056E+00    7.056E+00    7.055E+00    7.053E+00    7.051E+00    7.049E+00    7.046E+00
     7.042E+00    7.038E+00    7.034E+00    7.029E+00    7.024E+00    7.018E+00    7.012E+00    7.006E+00    7.000E+00    6.993E+00
     6.986E+00    6.978E+00    6.971E+00    6.963E+00    6.955E+00    6.947E+00    6.939E+00    6.931E+00    6.922E+00    6.914E+00
     6.905E+00    6.897E+00    6.888E+00    6.880E+00    6.871E+00    6.863E+00    6.854E+00    6.846E+00    6.837E+00    6.829E+00
     6.821E+00    6.813E+00    6.805E+00    6.797E+00    6.789E+00    6.781E+00    6.774E+00    6.767E+00    6.760E+00    6.753E+00
     6.746E+00    6.740E+00    6.733E+00    6.727E+00    6.722E+00    6.716E+00    6.711E+00    6.706E+00    6.701E+00    6.697E+00
     6.693E+00    6.690E+00    6.686E+00    6.684E+00    6.681E+00    6.679E+00    6.677E+00    6.676E+00    6.675E+00    6.675E+00
     6.675E+00    6.675E+00    6.676E+00    6.677E+00    6.679E+00    6.682E+00    6.685E+00    6.688E+00    6.692E+00    6.697E+00
     6.702E+00    6.707E+00    6.713E+00    6.720E+00    6.726E+00    6.734E+00    6.741E+00    6.749E+00    6.758E+00    6.767E+00
     6.776E+00    6.785E+00    6.795E+00    6.805E+00    6.815E+00    6.826E+00    6.836E+00    6.847E+00    6.858E+00    6.870E+00
     6.881E+00    6.893E+00    6.904E+00    6.916E+00    6.928E+00    6.940E+00    6.952E+00    6.964E+00    6.976E+00    6.989E+00
     7.001E+00    7.013E+00    7.025E+00    7.037E+00    7.049E+00    7.061E+00    7.072E+00    7.084E+00    7.095E+00    7.107E+00
     7.118E+00    7.129E+00    7.139E+00    7.150E+00    7.160E+00    7.170E+00    7.180E+00    7.190E+00    7.199E+00    7.208E+00
     7.217E+00    7.226E+00    7.235E+00    7.244E+00    7.252E+00    7.260E+00    7.268E+00    7.276E+00    7.284E+00    7.292E+00
     7.300E+00    7.307E+00    7.314E+00    7.322E+00    7.329E+00    7.336E+00    7.343E+00    7.350E+00    7.357E+00    7.364E+00
     7.371E+00    7.378E+00    7.384E+00    7.391E+00    7.398E+00    7.405E+00    7.411E+00    7.418E+00    7.425E+00    7.431E+00
     7.438E+00    7.445E+00    7.451E+00    7.458E+00    7.465E+00    7.472E+00    7.479E+00    7.486E+00
 Ala      Conc. = 6.49E+01
