 LCModel (Version 6.3-1L) Copyright: S.W. Provencher.          Ref.: Magn. Reson. Med. 30:672-679 (1993).                
 Slice#3 Row#9 Col#9  K_02_press_1_raw_act
 36 lines in following concentration table = NCONC+1
    Conc.  %SD /Cr+PCr  Metabolite                                         
  167.235  57% 8.0E-02 Ala                                                 
    0.000 999%   0.000 Asp                                                 
  671.986  29%   0.323 Cr                                                  
 1.41E+03  14%   0.677 PCr                                                 
    0.000 999%   0.000 GABA                                                
    0.000 999%   0.000 Glc                                                 
  253.676  77%   0.122 Gln                                                 
 1.57E+03  14%   0.753 Glu                                                 
  723.268   3%   0.347 GPC                                                 
    0.000 999%   0.000 PCh                                                 
  549.797  13%   0.264 GSH                                                 
 1.22E+03  20%   0.587 Ins                                                 
   23.352 448% 1.1E-02 Lac                                                 
 2.35E+03   5%   1.128 NAA                                                 
  721.937  14%   0.346 NAAG                                                
   83.468  34% 4.0E-02 Scyllo                                              
    0.000 999%   0.000 Tau                                                 
    0.000 999%   0.000 -CrCH2                                              
  723.268   3%   0.347 GPC+PCh                                             
 3.07E+03   3%   1.475 NAA+NAAG                                            
 2.08E+03   3%   1.000 Cr+PCr                                              
 1.82E+03  16%   0.874 Glu+Gln                                             
  170.967 410% 8.2E-02 Lip13a                                              
   93.484 313% 4.5E-02 Lip13b                                              
   32.283 544% 1.5E-02 Lip09                                               
 1.57E+03  16%   0.752 MM09                                                
   40.461 274% 1.9E-02 Lip20                                               
 3.18E+03  14%   1.527 MM20                                                
  579.423  34%   0.278 MM12                                                
    0.000 999%   0.000 MM14                                                
 1.28E+03  22%   0.616 MM17                                                
  264.451 182%   0.127 Lip13a+Lip13b                                       
  843.874  53%   0.405 MM14+Lip13a+Lip13b+MM12                             
 1.60E+03  16%   0.768 MM09+Lip09                                          
 3.22E+03  14%   1.546 MM20+Lip20                                          
   6 lines in following misc. output table
  FWHM = 0.038 ppm    S/N =  14                                            
  Data shift = 0.023 ppm                                                   
  Ph: -28 deg     -14.8 deg/ppm                                            
  alphaB,S = 1.4E+00,   7.5E+01                                            
   14 spline knots.   Ns = 6(1)                                            
  ( 8) 2 infls.   ( 3) 1 extrs.                                            
  498 points on ppm-axis = NY
      4.000000     3.992357     3.984714     3.977070     3.969427     3.961784     3.954141     3.946497     3.938854     3.931211
      3.923568     3.915925     3.908281     3.900638     3.892995     3.885352     3.877708     3.870065     3.862422     3.854779
      3.847136     3.839492     3.831849     3.824206     3.816563     3.808919     3.801276     3.793633     3.785990     3.778347
      3.770703     3.763060     3.755417     3.747774     3.740130     3.732487     3.724844     3.717201     3.709558     3.701914
      3.694271     3.686628     3.678985     3.671341     3.663698     3.656055     3.648412     3.640769     3.633125     3.625482
      3.617839     3.610196     3.602552     3.594909     3.587266     3.579623     3.571980     3.564336     3.556693     3.549050
      3.541407     3.533763     3.526120     3.518477     3.510834     3.503191     3.495547     3.487904     3.480261     3.472618
      3.464974     3.457331     3.449688     3.442045     3.434402     3.426758     3.419115     3.411472     3.403829     3.396185
      3.388542     3.380899     3.373256     3.365613     3.357969     3.350326     3.342683     3.335040     3.327396     3.319753
      3.312110     3.304467     3.296824     3.289180     3.281537     3.273894     3.266251     3.258607     3.250964     3.243321
      3.235678     3.228034     3.220391     3.212748     3.205105     3.197462     3.189818     3.182175     3.174532     3.166889
      3.159245     3.151602     3.143959     3.136316     3.128673     3.121029     3.113386     3.105743     3.098100     3.090456
      3.082813     3.075170     3.067527     3.059884     3.052240     3.044597     3.036954     3.029311     3.021667     3.014024
      3.006381     2.998738     2.991095     2.983451     2.975808     2.968165     2.960522     2.952878     2.945235     2.937592
      2.929949     2.922306     2.914662     2.907019     2.899376     2.891733     2.884089     2.876446     2.868803     2.861160
      2.853517     2.845873     2.838230     2.830587     2.822944     2.815300     2.807657     2.800014     2.792371     2.784728
      2.777084     2.769441     2.761798     2.754155     2.746511     2.738868     2.731225     2.723582     2.715939     2.708295
      2.700652     2.693009     2.685366     2.677722     2.670079     2.662436     2.654793     2.647150     2.639506     2.631863
      2.624220     2.616577     2.608933     2.601290     2.593647     2.586004     2.578361     2.570717     2.563074     2.555431
      2.547788     2.540144     2.532501     2.524858     2.517215     2.509572     2.501928     2.494285     2.486642     2.478999
      2.471355     2.463712     2.456069     2.448426     2.440783     2.433139     2.425496     2.417853     2.410210     2.402566
      2.394923     2.387280     2.379637     2.371994     2.364350     2.356707     2.349064     2.341421     2.333777     2.326134
      2.318491     2.310848     2.303205     2.295561     2.287918     2.280275     2.272632     2.264988     2.257345     2.249702
      2.242059     2.234416     2.226772     2.219129     2.211486     2.203843     2.196199     2.188556     2.180913     2.173270
      2.165627     2.157983     2.150340     2.142697     2.135054     2.127410     2.119767     2.112124     2.104481     2.096838
      2.089194     2.081551     2.073908     2.066265     2.058621     2.050978     2.043335     2.035692     2.028049     2.020405
      2.012762     2.005119     1.997476     1.989833     1.982190     1.974546     1.966903     1.959260     1.951617     1.943974
      1.936331     1.928688     1.921045     1.913402     1.905759     1.898115     1.890472     1.882829     1.875186     1.867543
      1.859900     1.852257     1.844614     1.836971     1.829327     1.821684     1.814041     1.806398     1.798755     1.791112
      1.783469     1.775826     1.768183     1.760540     1.752896     1.745253     1.737610     1.729967     1.722324     1.714681
      1.707038     1.699395     1.691752     1.684108     1.676465     1.668822     1.661179     1.653536     1.645893     1.638250
      1.630607     1.622964     1.615321     1.607677     1.600034     1.592391     1.584748     1.577105     1.569462     1.561819
      1.554176     1.546533     1.538890     1.531246     1.523603     1.515960     1.508317     1.500674     1.493031     1.485388
      1.477745     1.470102     1.462458     1.454815     1.447172     1.439529     1.431886     1.424243     1.416600     1.408957
      1.401314     1.393671     1.386027     1.378384     1.370741     1.363098     1.355455     1.347812     1.340169     1.332526
      1.324883     1.317240     1.309596     1.301953     1.294310     1.286667     1.279024     1.271381     1.263738     1.256095
      1.248452     1.240808     1.233165     1.225522     1.217879     1.210236     1.202593     1.194950     1.187307     1.179664
      1.172021     1.164377     1.156734     1.149091     1.141448     1.133805     1.126162     1.118519     1.110876     1.103233
      1.095590     1.087946     1.080303     1.072660     1.065017     1.057374     1.049731     1.042088     1.034445     1.026802
      1.019158     1.011515     1.003872     0.996229     0.988586     0.980943     0.973300     0.965657     0.958014     0.950371
      0.942727     0.935084     0.927441     0.919798     0.912155     0.904512     0.896869     0.889226     0.881583     0.873940
      0.866296     0.858653     0.851010     0.843367     0.835724     0.828081     0.820438     0.812795     0.805152     0.797508
      0.789865     0.782222     0.774579     0.766936     0.759293     0.751650     0.744007     0.736364     0.728721     0.721077
      0.713434     0.705791     0.698148     0.690505     0.682862     0.675219     0.667576     0.659933     0.652290     0.644646
      0.637003     0.629360     0.621717     0.614074     0.606431     0.598788     0.591145     0.583502     0.575858     0.568215
      0.560572     0.552929     0.545286     0.537643     0.530000     0.522357     0.514714     0.507071     0.499427     0.491784
      0.484141     0.476498     0.468855     0.461212     0.453569     0.445925     0.438282     0.430639     0.422996     0.415353
      0.407710     0.400067     0.392424     0.384780     0.377137     0.369494     0.361851     0.354208     0.346565     0.338922
      0.331278     0.323635     0.315992     0.308349     0.300706     0.293063     0.285420     0.277777     0.270133     0.262490
      0.254847     0.247204     0.239561     0.231918     0.224275     0.216631     0.208988     0.201345
 NY phased data points follow
  -3.13402E+01 -3.52423E+01 -3.20746E+01 -2.38192E+01 -2.56004E+01 -1.68295E+01 -1.88566E+00 -1.07096E-01  1.41022E+01  2.39367E+01
   3.22786E+01  2.58539E+01  2.31557E+01  9.44524E+00 -3.03445E+00 -5.82732E+00 -1.64324E+01 -2.27479E+01 -2.07670E+01 -2.34620E+01
  -2.68942E+01 -2.21706E+01 -2.04530E+01 -1.89947E+01 -1.70797E+01 -1.77388E+01 -1.54193E+01 -1.83942E+01 -8.71011E+00 -6.70149E+00
  -6.86393E+00 -2.82932E+00 -4.18919E+00 -9.02486E+00 -1.33381E+01 -1.40252E+01 -1.22961E+01 -1.10521E+01 -8.75573E+00 -9.42008E+00
  -1.20968E+01 -1.01799E+01 -9.81263E+00 -1.00705E+01 -9.21535E+00 -3.14157E+00 -1.62587E+00  3.40702E+00  4.68410E+00 -1.33893E+00
  -6.26296E+00 -6.40652E+00 -6.06031E+00 -4.73999E+00 -6.95117E+00 -5.62146E+00 -3.43121E+00 -7.31539E+00 -5.06764E+00 -5.36956E+00
  -8.19705E+00 -1.10806E+01 -1.05408E+01 -1.41211E+01 -1.70616E+01 -1.60637E+01 -1.48119E+01 -1.79906E+01 -1.50307E+01 -1.50900E+01
  -8.21725E+00 -9.42038E+00 -1.20338E+01 -1.07160E+01 -6.80138E+00 -9.41123E+00 -1.00071E+01 -8.59723E+00 -1.21016E+01 -8.21098E+00
  -1.06879E+01 -4.17595E+00 -3.90222E+00 -5.05324E+00 -8.14804E+00 -7.75438E+00 -7.40604E+00 -3.42565E+00 -2.98460E-01 -1.87256E+00
  -8.12591E-01  1.64442E+00 -1.19113E-02  3.49443E+00  1.21963E+00  4.87796E+00  7.77864E+00  6.34015E+00  1.02793E+01  1.15199E+01
   3.35550E+01  5.60227E+01  7.21405E+01  7.70684E+01  6.84381E+01  5.14861E+01  3.98801E+01  2.88445E+01  2.21644E+01  1.11813E+01
   7.91782E+00  3.09504E+00  4.86538E+00  1.34383E+00 -7.45025E-01  3.84487E+00  4.34850E+00  5.04891E+00  6.38020E+00  1.03881E+01
   1.44159E+01  1.05531E+01  1.10933E+01  1.77619E+01  3.48267E+01  5.83590E+01  7.40845E+01  7.61859E+01  7.82593E+01  7.13716E+01
   5.32528E+01  4.15624E+01  2.91214E+01  2.00974E+01  1.05501E+01  7.38021E+00  5.00498E+00  2.71189E+00  5.15137E+00  4.24527E+00
   1.75582E+00  6.41446E+00  4.20591E+00  7.58624E+00  4.77056E+00  4.71320E+00  9.48934E+00  5.32965E+00  5.71261E+00  8.77979E+00
   5.75880E+00  7.42861E+00  2.88445E+00  2.17378E+00  3.63850E+00  2.87504E+00  1.65867E+00  4.14525E+00  1.05401E+01  4.22306E+00
   6.71433E+00 -1.29672E-02  1.14506E+00  2.44186E+00  4.21876E+00  8.24728E+00  5.91645E+00  6.54207E+00  6.80976E+00 -1.74990E+00
   2.54455E+00 -1.85185E+00  2.92243E+00 -5.32730E+00 -7.41992E+00 -9.61417E+00 -6.73025E+00 -7.72159E-01 -2.85839E+00  7.32564E-01
  -4.22083E-01 -5.56426E+00 -6.51418E+00 -9.56677E+00 -9.13220E+00 -4.59585E+00 -3.53052E+00  1.52813E+00  6.01604E+00  9.95023E+00
   1.55563E+01  1.86808E+01  2.03795E+01  2.00257E+01  1.99969E+01  1.95343E+01  1.87028E+01  1.38925E+01  8.51377E+00  7.92473E+00
   1.00657E+01  1.11842E+01  1.53021E+01  1.21826E+01  1.13566E+01  1.51557E+01  8.92992E+00  6.21723E+00  6.45663E+00  4.44193E+00
   7.12871E+00  7.64295E+00  7.41313E+00  1.67043E+01  1.96535E+01  2.17718E+01  2.38898E+01  2.75153E+01  2.09067E+01  1.38431E+01
   1.04841E+01  3.97554E+00  7.18216E+00  6.60710E+00  1.11222E+01  1.67887E+01  1.69121E+01  1.94715E+01  2.58454E+01  2.44917E+01
   2.28762E+01  1.96079E+01  2.13166E+01  1.95436E+01  2.40119E+01  2.21042E+01  1.94339E+01  2.44357E+01  2.14858E+01  1.86334E+01
   1.84720E+01  1.41542E+01  1.37612E+01  1.61148E+01  1.74472E+01  1.85790E+01  2.11219E+01  2.95697E+01  2.63423E+01  3.09449E+01
   3.28248E+01  2.74925E+01  3.76055E+01  4.96932E+01  6.00442E+01  6.31712E+01  6.65210E+01  7.80635E+01  9.29069E+01  1.21504E+02
   1.30601E+02  1.22218E+02  1.00378E+02  8.19274E+01  6.08536E+01  4.26160E+01  3.18604E+01  2.55497E+01  2.42010E+01  2.60052E+01
   2.42793E+01  2.21495E+01  2.27697E+01  2.81429E+01  2.44954E+01  2.40287E+01  2.63132E+01  2.48290E+01  2.29441E+01  2.16554E+01
   1.91742E+01  2.32205E+01  2.12737E+01  2.31085E+01  2.00009E+01  1.79941E+01  1.76369E+01  1.78078E+01  1.77244E+01  2.01865E+01
   2.01160E+01  1.84095E+01  2.69166E+01  2.25405E+01  2.56930E+01  2.04142E+01  2.19127E+01  2.69122E+01  2.30899E+01  2.86715E+01
   2.51140E+01  3.07339E+01  2.78327E+01  2.72291E+01  2.39655E+01  2.57689E+01  2.84348E+01  2.54679E+01  2.49248E+01  2.26135E+01
   2.29630E+01  2.43557E+01  1.90745E+01  2.19407E+01  2.12852E+01  2.06849E+01  1.75935E+01  2.03788E+01  2.20844E+01  1.75720E+01
   1.66528E+01  1.54768E+01  1.38484E+01  1.38015E+01  1.89123E+01  1.69427E+01  1.14840E+01  1.24687E+01  1.20100E+01  1.30651E+01
   9.88100E+00  9.24006E+00  1.17719E+01  1.88759E+01  1.83625E+01  1.98786E+01  1.95942E+01  2.03323E+01  2.20608E+01  2.03324E+01
   1.66058E+01  1.64894E+01  1.57930E+01  1.90542E+01  2.12448E+01  2.09819E+01  2.33443E+01  2.23270E+01  1.95846E+01  2.11327E+01
   1.99465E+01  2.02587E+01  2.41815E+01  2.04669E+01  2.13354E+01  2.18337E+01  2.20979E+01  2.00277E+01  2.38310E+01  2.33973E+01
   2.58033E+01  2.07600E+01  2.32242E+01  2.11659E+01  2.25393E+01  2.19876E+01  2.64761E+01  2.37104E+01  2.41456E+01  2.38971E+01
   2.40717E+01  2.51052E+01  2.72239E+01  2.33755E+01  2.41442E+01  2.08082E+01  2.31716E+01  2.04042E+01  2.24298E+01  2.40144E+01
   2.58305E+01  2.21610E+01  2.12983E+01  2.02690E+01  1.94863E+01  2.09214E+01  2.28358E+01  2.36628E+01  2.64508E+01  1.89674E+01
   2.39360E+01  2.48705E+01  2.75460E+01  2.77317E+01  3.19009E+01  2.90950E+01  2.66517E+01  3.19115E+01  2.79818E+01  2.79847E+01
   2.61245E+01  2.69195E+01  2.81234E+01  3.22549E+01  2.55717E+01  3.02524E+01  3.10405E+01  3.20451E+01  3.66615E+01  3.09702E+01
   3.18542E+01  2.92219E+01  3.09064E+01  3.00592E+01  3.03718E+01  3.01778E+01  3.02501E+01  2.58945E+01  2.81229E+01  2.72615E+01
   2.79237E+01  2.25740E+01  2.81305E+01  2.77958E+01  2.27610E+01  2.62161E+01  2.29395E+01  2.28732E+01  2.64415E+01  2.53624E+01
   2.33868E+01  2.37449E+01  2.48996E+01  2.48476E+01  2.25634E+01  2.12577E+01  2.29092E+01  2.03452E+01  2.33916E+01  2.18146E+01
   2.07729E+01  2.12902E+01  2.42479E+01  2.04015E+01  2.44144E+01  2.74638E+01  2.62800E+01  2.44245E+01  2.69060E+01  2.50613E+01
   2.13732E+01  2.16100E+01  2.63764E+01  2.15108E+01  1.87744E+01  2.57939E+01  2.26287E+01  2.35845E+01  2.00554E+01  2.72852E+01
   2.24361E+01  2.45981E+01  2.71339E+01  1.94674E+01  2.46105E+01  1.81510E+01  2.85891E+01  2.10615E+01  2.32654E+01  1.97331E+01
   2.49778E+01  2.15470E+01  2.36593E+01  2.06440E+01  2.07288E+01  2.55648E+01  2.50050E+01  2.06240E+01  2.31495E+01  2.06902E+01
   2.07967E+01  2.46869E+01  1.88445E+01  2.19978E+01  2.09220E+01  1.99757E+01  1.71284E+01  2.07040E+01  1.97386E+01  2.06133E+01
   1.86200E+01  2.11679E+01  2.30067E+01  1.90591E+01  2.06237E+01  2.29842E+01  1.89914E+01  1.26057E+01
 NY points of the fit to the data follow
  -2.74038E+01 -2.71061E+01 -2.63004E+01 -2.44830E+01 -2.11233E+01 -1.65660E+01 -9.51202E+00  1.57399E+00  1.49888E+01  2.58973E+01
   3.00507E+01  2.67246E+01  1.83965E+01  8.58235E+00 -2.84496E-01 -7.37422E+00 -1.26927E+01 -1.62222E+01 -1.80219E+01 -1.86890E+01
  -1.88899E+01 -1.90053E+01 -1.92663E+01 -1.94412E+01 -1.92174E+01 -1.90812E+01 -1.85297E+01 -1.61941E+01 -1.20272E+01 -7.48260E+00
  -4.16021E+00 -2.64438E+00 -2.92886E+00 -4.66656E+00 -7.20311E+00 -1.00615E+01 -1.27200E+01 -1.46075E+01 -1.55129E+01 -1.56130E+01
  -1.49365E+01 -1.36408E+01 -1.21736E+01 -1.04846E+01 -8.07829E+00 -5.11835E+00 -2.65764E+00 -1.73040E+00 -2.53122E+00 -4.52189E+00
  -6.89798E+00 -9.06086E+00 -1.07250E+01 -1.17402E+01 -1.21215E+01 -1.19197E+01 -1.12209E+01 -1.01782E+01 -8.99916E+00 -8.06474E+00
  -7.72880E+00 -8.07752E+00 -8.92382E+00 -9.87047E+00 -1.05745E+01 -1.08113E+01 -1.05639E+01 -9.98880E+00 -9.19688E+00 -8.28261E+00
  -7.40596E+00 -6.77365E+00 -6.48503E+00 -6.48833E+00 -6.63871E+00 -6.78759E+00 -6.86402E+00 -6.85490E+00 -6.77849E+00 -6.63252E+00
  -6.40784E+00 -6.03698E+00 -5.65806E+00 -5.16951E+00 -4.33776E+00 -3.38119E+00 -2.79716E+00 -2.84315E+00 -3.33595E+00 -3.88596E+00
  -4.12670E+00 -3.99314E+00 -3.57285E+00 -2.98034E+00 -2.31948E+00 -1.56085E+00 -5.84563E-02  3.60883E+00  8.53033E+00  1.74276E+01
   3.39160E+01  5.48064E+01  7.13654E+01  7.66511E+01  7.01842E+01  5.64695E+01  4.10257E+01  2.73106E+01  1.63967E+01  8.28583E+00
   3.14459E+00  1.03957E+00  5.57498E-01  5.29704E-01  6.58811E-01  8.77841E-01  1.15574E+00  1.47275E+00  1.86401E+00  2.47989E+00
   3.87014E+00  7.30604E+00  1.25739E+01  2.04000E+01  3.47321E+01  5.49000E+01  7.35942E+01  8.27957E+01  7.98989E+01  6.81293E+01
   5.31984E+01  3.93581E+01  2.78674E+01  1.84440E+01  1.10549E+01  6.24599E+00  3.83999E+00  2.86419E+00  3.01736E+00  4.00511E+00
   5.32300E+00  6.47201E+00  7.15120E+00  7.29249E+00  7.03163E+00  6.59393E+00  6.14274E+00  5.75176E+00  5.41661E+00  5.13081E+00
   4.86661E+00  4.55131E+00  4.22690E+00  4.02140E+00  4.03845E+00  4.24688E+00  4.59833E+00  4.79541E+00  4.49960E+00  3.79499E+00
   3.01111E+00  2.68841E+00  3.06972E+00  3.77543E+00  4.20845E+00  4.09041E+00  3.49595E+00  2.75255E+00  2.17772E+00  1.86552E+00
   1.76117E+00  1.71425E+00  1.54737E+00  1.01512E+00  3.10874E-01 -8.30961E-02  2.10662E-01  9.63547E-01  1.53575E+00  1.60198E+00
   1.46263E+00  1.54827E+00  2.03702E+00  2.60660E+00  2.90321E+00  3.20741E+00  4.12400E+00  5.89752E+00  8.32769E+00  1.08588E+01
   1.28263E+01  1.38081E+01  1.36693E+01  1.28806E+01  1.17608E+01  1.04530E+01  9.32394E+00  8.84588E+00  9.23267E+00  1.02334E+01
   1.16457E+01  1.32576E+01  1.48042E+01  1.59362E+01  1.61685E+01  1.54262E+01  1.37612E+01  1.15048E+01  9.38032E+00  7.88087E+00
   7.33741E+00  7.77128E+00  9.52811E+00  1.28593E+01  1.69102E+01  2.00255E+01  2.08828E+01  1.93911E+01  1.62663E+01  1.21974E+01
   7.84406E+00  4.51226E+00  3.50809E+00  5.16455E+00  8.69779E+00  1.27178E+01  1.61841E+01  1.86837E+01  1.99830E+01  2.00764E+01
   1.94042E+01  1.87965E+01  1.88864E+01  1.97036E+01  2.10115E+01  2.24687E+01  2.35639E+01  2.37430E+01  2.29028E+01  2.12836E+01
   1.94512E+01  1.81158E+01  1.79642E+01  1.91559E+01  2.12510E+01  2.35992E+01  2.56193E+01  2.69412E+01  2.75634E+01  2.82453E+01
   2.94583E+01  3.14627E+01  3.61434E+01  4.41229E+01  5.47621E+01  6.40872E+01  7.03946E+01  8.15345E+01  1.00279E+02  1.18968E+02
   1.26984E+02  1.20379E+02  1.03078E+02  8.23994E+01  6.37162E+01  4.85682E+01  3.67970E+01  2.83461E+01  2.38135E+01  2.22440E+01
   2.14949E+01  2.10964E+01  2.09542E+01  2.08891E+01  2.07244E+01  2.04257E+01  2.00565E+01  1.96916E+01  1.93600E+01  1.91050E+01
   1.89650E+01  1.89533E+01  1.90438E+01  1.91834E+01  1.93237E+01  1.94680E+01  1.96344E+01  1.98366E+01  2.01088E+01  2.04918E+01
   2.10033E+01  2.16173E+01  2.22758E+01  2.29330E+01  2.35631E+01  2.41364E+01  2.46365E+01  2.50656E+01  2.54341E+01  2.57484E+01
   2.59989E+01  2.61636E+01  2.62225E+01  2.61646E+01  2.59876E+01  2.56965E+01  2.53013E+01  2.48195E+01  2.42742E+01  2.36868E+01
   2.30767E+01  2.24618E+01  2.18589E+01  2.12835E+01  2.07491E+01  2.02660E+01  1.98418E+01  1.94827E+01  1.91955E+01  1.89913E+01
   1.88955E+01  1.89125E+01  1.89655E+01  1.91594E+01  1.94432E+01  1.94967E+01  1.90418E+01  1.81069E+01  1.69867E+01  1.60589E+01
   1.54033E+01  1.50704E+01  1.52663E+01  1.60776E+01  1.72881E+01  1.84892E+01  1.93346E+01  1.97576E+01  1.98804E+01  1.98497E+01
   1.97616E+01  1.96647E+01  1.95958E+01  1.96232E+01  1.97556E+01  1.99300E+01  2.00838E+01  2.01914E+01  2.02765E+01  2.03909E+01
   2.05553E+01  2.07745E+01  2.10683E+01  2.14387E+01  2.18469E+01  2.22297E+01  2.25308E+01  2.27299E+01  2.28422E+01  2.28922E+01
   2.28989E+01  2.28752E+01  2.28339E+01  2.27900E+01  2.27494E+01  2.27101E+01  2.26714E+01  2.26324E+01  2.25930E+01  2.25529E+01
   2.25125E+01  2.24720E+01  2.24324E+01  2.23952E+01  2.23631E+01  2.23389E+01  2.23256E+01  2.23256E+01  2.23419E+01  2.23772E+01
   2.24350E+01  2.25180E+01  2.26288E+01  2.27696E+01  2.29424E+01  2.31497E+01  2.33934E+01  2.36752E+01  2.39955E+01  2.43546E+01
   2.47519E+01  2.51864E+01  2.56558E+01  2.61564E+01  2.66828E+01  2.72284E+01  2.77857E+01  2.83459E+01  2.88989E+01  2.94336E+01
   2.99382E+01  3.04012E+01  3.08117E+01  3.11597E+01  3.14362E+01  3.16338E+01  3.17475E+01  3.17747E+01  3.17156E+01  3.15729E+01
   3.13512E+01  3.10573E+01  3.06997E+01  3.02888E+01  2.98356E+01  2.93516E+01  2.88475E+01  2.83338E+01  2.78204E+01  2.73160E+01
   2.68281E+01  2.63625E+01  2.59232E+01  2.55134E+01  2.51350E+01  2.47890E+01  2.44752E+01  2.41925E+01  2.39392E+01  2.37135E+01
   2.35136E+01  2.33372E+01  2.31822E+01  2.30460E+01  2.29265E+01  2.28217E+01  2.27301E+01  2.26503E+01  2.25804E+01  2.25190E+01
   2.24650E+01  2.24176E+01  2.23761E+01  2.23396E+01  2.23073E+01  2.22785E+01  2.22527E+01  2.22298E+01  2.22093E+01  2.21910E+01
   2.21742E+01  2.21586E+01  2.21442E+01  2.21310E+01  2.21188E+01  2.21073E+01  2.20962E+01  2.20855E+01  2.20752E+01  2.20656E+01
   2.20562E+01  2.20470E+01  2.20377E+01  2.20285E+01  2.20195E+01  2.20108E+01  2.20020E+01  2.19931E+01  2.19840E+01  2.19750E+01
   2.19660E+01  2.19571E+01  2.19481E+01  2.19388E+01  2.19293E+01  2.19199E+01  2.19106E+01  2.19013E+01  2.18917E+01  2.18819E+01
   2.18721E+01  2.18623E+01  2.18527E+01  2.18429E+01  2.18330E+01  2.18229E+01  2.18130E+01  2.18032E+01  2.17935E+01  2.17838E+01
   2.17739E+01  2.17641E+01  2.17545E+01  2.17452E+01  2.17359E+01  2.17267E+01  2.17175E+01  2.17086E+01
 NY background values follow
    -3.176E+01   -3.146E+01   -3.115E+01   -3.085E+01   -3.054E+01   -3.024E+01   -2.993E+01   -2.963E+01   -2.932E+01   -2.902E+01
    -2.872E+01   -2.841E+01   -2.811E+01   -2.780E+01   -2.750E+01   -2.720E+01   -2.689E+01   -2.659E+01   -2.629E+01   -2.599E+01
    -2.568E+01   -2.538E+01   -2.508E+01   -2.478E+01   -2.448E+01   -2.418E+01   -2.388E+01   -2.358E+01   -2.329E+01   -2.299E+01
    -2.269E+01   -2.240E+01   -2.210E+01   -2.181E+01   -2.151E+01   -2.122E+01   -2.093E+01   -2.064E+01   -2.035E+01   -2.006E+01
    -1.977E+01   -1.948E+01   -1.920E+01   -1.891E+01   -1.863E+01   -1.834E+01   -1.806E+01   -1.778E+01   -1.750E+01   -1.722E+01
    -1.694E+01   -1.666E+01   -1.639E+01   -1.611E+01   -1.584E+01   -1.557E+01   -1.529E+01   -1.502E+01   -1.476E+01   -1.449E+01
    -1.422E+01   -1.396E+01   -1.369E+01   -1.343E+01   -1.317E+01   -1.291E+01   -1.265E+01   -1.240E+01   -1.214E+01   -1.189E+01
    -1.163E+01   -1.138E+01   -1.113E+01   -1.088E+01   -1.064E+01   -1.039E+01   -1.015E+01   -9.907E+00   -9.667E+00   -9.428E+00
    -9.191E+00   -8.955E+00   -8.721E+00   -8.489E+00   -8.258E+00   -8.029E+00   -7.801E+00   -7.576E+00   -7.352E+00   -7.130E+00
    -6.909E+00   -6.691E+00   -6.474E+00   -6.259E+00   -6.045E+00   -5.834E+00   -5.624E+00   -5.416E+00   -5.210E+00   -5.005E+00
    -4.803E+00   -4.602E+00   -4.402E+00   -4.205E+00   -4.009E+00   -3.816E+00   -3.623E+00   -3.433E+00   -3.245E+00   -3.058E+00
    -2.873E+00   -2.689E+00   -2.508E+00   -2.328E+00   -2.150E+00   -1.974E+00   -1.799E+00   -1.626E+00   -1.455E+00   -1.286E+00
    -1.119E+00   -9.529E-01   -7.889E-01   -6.266E-01   -4.661E-01   -3.073E-01   -1.503E-01    5.034E-03    1.586E-01    3.104E-01
     4.605E-01    6.088E-01    7.554E-01    9.002E-01    1.043E+00    1.185E+00    1.324E+00    1.462E+00    1.599E+00    1.733E+00
     1.866E+00    1.998E+00    2.128E+00    2.256E+00    2.383E+00    2.509E+00    2.633E+00    2.756E+00    2.878E+00    2.998E+00
     3.118E+00    3.236E+00    3.353E+00    3.469E+00    3.583E+00    3.697E+00    3.810E+00    3.922E+00    4.033E+00    4.144E+00
     4.253E+00    4.362E+00    4.470E+00    4.577E+00    4.684E+00    4.790E+00    4.896E+00    5.001E+00    5.106E+00    5.210E+00
     5.314E+00    5.417E+00    5.520E+00    5.623E+00    5.725E+00    5.828E+00    5.930E+00    6.032E+00    6.134E+00    6.236E+00
     6.338E+00    6.440E+00    6.542E+00    6.644E+00    6.747E+00    6.849E+00    6.951E+00    7.053E+00    7.155E+00    7.257E+00
     7.359E+00    7.461E+00    7.563E+00    7.664E+00    7.765E+00    7.867E+00    7.967E+00    8.068E+00    8.168E+00    8.269E+00
     8.368E+00    8.468E+00    8.567E+00    8.666E+00    8.764E+00    8.862E+00    8.960E+00    9.057E+00    9.154E+00    9.250E+00
     9.345E+00    9.441E+00    9.535E+00    9.629E+00    9.723E+00    9.815E+00    9.908E+00    9.999E+00    1.009E+01    1.018E+01
     1.027E+01    1.036E+01    1.045E+01    1.053E+01    1.062E+01    1.071E+01    1.079E+01    1.087E+01    1.096E+01    1.104E+01
     1.112E+01    1.120E+01    1.128E+01    1.136E+01    1.144E+01    1.151E+01    1.159E+01    1.167E+01    1.174E+01    1.182E+01
     1.189E+01    1.196E+01    1.203E+01    1.210E+01    1.217E+01    1.224E+01    1.231E+01    1.238E+01    1.244E+01    1.251E+01
     1.257E+01    1.264E+01    1.270E+01    1.277E+01    1.283E+01    1.289E+01    1.295E+01    1.301E+01    1.307E+01    1.313E+01
     1.318E+01    1.324E+01    1.329E+01    1.335E+01    1.340E+01    1.346E+01    1.351E+01    1.356E+01    1.361E+01    1.366E+01
     1.371E+01    1.376E+01    1.381E+01    1.386E+01    1.391E+01    1.395E+01    1.400E+01    1.404E+01    1.409E+01    1.413E+01
     1.418E+01    1.422E+01    1.426E+01    1.430E+01    1.435E+01    1.439E+01    1.443E+01    1.447E+01    1.451E+01    1.455E+01
     1.459E+01    1.463E+01    1.467E+01    1.471E+01    1.475E+01    1.478E+01    1.482E+01    1.486E+01    1.490E+01    1.494E+01
     1.497E+01    1.501E+01    1.505E+01    1.509E+01    1.513E+01    1.517E+01    1.520E+01    1.524E+01    1.528E+01    1.532E+01
     1.536E+01    1.540E+01    1.544E+01    1.548E+01    1.552E+01    1.556E+01    1.560E+01    1.564E+01    1.568E+01    1.572E+01
     1.577E+01    1.581E+01    1.585E+01    1.590E+01    1.594E+01    1.598E+01    1.603E+01    1.607E+01    1.612E+01    1.616E+01
     1.621E+01    1.625E+01    1.630E+01    1.635E+01    1.639E+01    1.644E+01    1.649E+01    1.653E+01    1.658E+01    1.663E+01
     1.668E+01    1.673E+01    1.677E+01    1.682E+01    1.687E+01    1.692E+01    1.697E+01    1.702E+01    1.707E+01    1.712E+01
     1.717E+01    1.722E+01    1.727E+01    1.732E+01    1.737E+01    1.742E+01    1.747E+01    1.752E+01    1.757E+01    1.762E+01
     1.767E+01    1.772E+01    1.777E+01    1.782E+01    1.788E+01    1.793E+01    1.798E+01    1.803E+01    1.808E+01    1.813E+01
     1.818E+01    1.823E+01    1.828E+01    1.833E+01    1.839E+01    1.844E+01    1.849E+01    1.854E+01    1.859E+01    1.864E+01
     1.869E+01    1.874E+01    1.879E+01    1.884E+01    1.889E+01    1.894E+01    1.899E+01    1.904E+01    1.909E+01    1.914E+01
     1.918E+01    1.923E+01    1.928E+01    1.933E+01    1.938E+01    1.943E+01    1.947E+01    1.952E+01    1.957E+01    1.961E+01
     1.966E+01    1.970E+01    1.975E+01    1.980E+01    1.984E+01    1.988E+01    1.993E+01    1.997E+01    2.002E+01    2.006E+01
     2.010E+01    2.014E+01    2.019E+01    2.023E+01    2.027E+01    2.031E+01    2.035E+01    2.039E+01    2.043E+01    2.047E+01
     2.050E+01    2.054E+01    2.058E+01    2.061E+01    2.065E+01    2.069E+01    2.072E+01    2.075E+01    2.079E+01    2.082E+01
     2.085E+01    2.088E+01    2.091E+01    2.094E+01    2.097E+01    2.100E+01    2.103E+01    2.106E+01    2.109E+01    2.111E+01
     2.114E+01    2.116E+01    2.118E+01    2.121E+01    2.123E+01    2.125E+01    2.127E+01    2.129E+01    2.131E+01    2.133E+01
     2.134E+01    2.136E+01    2.137E+01    2.139E+01    2.140E+01    2.141E+01    2.142E+01    2.144E+01    2.145E+01    2.145E+01
     2.146E+01    2.147E+01    2.148E+01    2.148E+01    2.149E+01    2.149E+01    2.150E+01    2.150E+01    2.150E+01    2.151E+01
     2.151E+01    2.151E+01    2.151E+01    2.151E+01    2.151E+01    2.151E+01    2.151E+01    2.151E+01    2.151E+01    2.150E+01
     2.150E+01    2.150E+01    2.150E+01    2.149E+01    2.149E+01    2.149E+01    2.148E+01    2.148E+01    2.147E+01    2.147E+01
     2.146E+01    2.146E+01    2.145E+01    2.145E+01    2.144E+01    2.144E+01    2.143E+01    2.143E+01
 Ala      Conc. = 1.67E+02
