 LCModel (Version 6.3-1L) Copyright: S.W. Provencher.          Ref.: Magn. Reson. Med. 30:672-679 (1993).                
 Slice#2 Row#8 Col#8  K_02_press_1_raw_act
 Data of: Institute of Biomedical Engineering, Bogazici University, Istanbul
 04-January-2018  00:08
 36 lines in following concentration table = NCONC+1
    Conc.  %SD /Cr+PCr  Metabolite                                         
    0.000 999%   0.000 Ala                                                 
    0.000 999%   0.000 Asp                                                 
  591.570  54%   0.275 Cr                                                  
 1.56E+03  22%   0.725 PCr                                                 
   35.460 632% 1.6E-02 GABA                                                
    0.000 999%   0.000 Glc                                                 
  654.950  49%   0.304 Gln                                                 
 2.53E+03  15%   1.178 Glu                                                 
  765.946   5%   0.356 GPC                                                 
    0.000 999%   0.000 PCh                                                 
  467.740  24%   0.217 GSH                                                 
 2.48E+03  17%   1.155 Ins                                                 
   53.592 330% 2.5E-02 Lac                                                 
 3.17E+03   5%   1.473 NAA                                                 
  348.081  46%   0.162 NAAG                                                
  163.951  27% 7.6E-02 Scyllo                                              
  177.970 181% 8.3E-02 Tau                                                 
  409.181  45%   0.190 -CrCH2                                              
  765.946   5%   0.356 GPC+PCh                                             
 3.52E+03   4%   1.635 NAA+NAAG                                            
 2.15E+03   5%   1.000 Cr+PCr                                              
 3.19E+03  16%   1.483 Glu+Gln                                             
    0.000 999%   0.000 Lip13a                                              
 1.03E+03 132%   0.478 Lip13b                                              
   57.244 652% 2.7E-02 Lip09                                               
 1.69E+03  25%   0.787 MM09                                                
  188.088 132% 8.7E-02 Lip20                                               
 4.22E+03  16%   1.961 MM20                                                
  668.575  46%   0.311 MM12                                                
    0.000 999%   0.000 MM14                                                
 1.22E+03  35%   0.567 MM17                                                
 1.03E+03  85%   0.478 Lip13a+Lip13b                                       
 1.70E+03  49%   0.789 MM14+Lip13a+Lip13b+MM12                             
 1.75E+03  22%   0.813 MM09+Lip09                                          
 4.41E+03  16%   2.048 MM20+Lip20                                          
   6 lines in following misc. output table
  FWHM = 0.038 ppm    S/N =  11                                            
  Data shift = 0.008 ppm                                                   
  Ph: -56 deg     -14.4 deg/ppm                                            
  alphaB,S = 9.2E-01,   5.1E+01                                            
   14 spline knots.   Ns = 6(1)                                            
  (11) 2 infls.   (13) 1 extrs.                                            
  498 points on ppm-axis = NY
      4.000000     3.992357     3.984714     3.977070     3.969427     3.961784     3.954141     3.946497     3.938854     3.931211
      3.923568     3.915925     3.908281     3.900638     3.892995     3.885352     3.877708     3.870065     3.862422     3.854779
      3.847136     3.839492     3.831849     3.824206     3.816563     3.808919     3.801276     3.793633     3.785990     3.778347
      3.770703     3.763060     3.755417     3.747774     3.740130     3.732487     3.724844     3.717201     3.709558     3.701914
      3.694271     3.686628     3.678985     3.671341     3.663698     3.656055     3.648412     3.640769     3.633125     3.625482
      3.617839     3.610196     3.602552     3.594909     3.587266     3.579623     3.571980     3.564336     3.556693     3.549050
      3.541407     3.533763     3.526120     3.518477     3.510834     3.503191     3.495547     3.487904     3.480261     3.472618
      3.464974     3.457331     3.449688     3.442045     3.434402     3.426758     3.419115     3.411472     3.403829     3.396185
      3.388542     3.380899     3.373256     3.365613     3.357969     3.350326     3.342683     3.335040     3.327396     3.319753
      3.312110     3.304467     3.296824     3.289180     3.281537     3.273894     3.266251     3.258607     3.250964     3.243321
      3.235678     3.228034     3.220391     3.212748     3.205105     3.197462     3.189818     3.182175     3.174532     3.166889
      3.159245     3.151602     3.143959     3.136316     3.128673     3.121029     3.113386     3.105743     3.098100     3.090456
      3.082813     3.075170     3.067527     3.059884     3.052240     3.044597     3.036954     3.029311     3.021667     3.014024
      3.006381     2.998738     2.991095     2.983451     2.975808     2.968165     2.960522     2.952878     2.945235     2.937592
      2.929949     2.922306     2.914662     2.907019     2.899376     2.891733     2.884089     2.876446     2.868803     2.861160
      2.853517     2.845873     2.838230     2.830587     2.822944     2.815300     2.807657     2.800014     2.792371     2.784728
      2.777084     2.769441     2.761798     2.754155     2.746511     2.738868     2.731225     2.723582     2.715939     2.708295
      2.700652     2.693009     2.685366     2.677722     2.670079     2.662436     2.654793     2.647150     2.639506     2.631863
      2.624220     2.616577     2.608933     2.601290     2.593647     2.586004     2.578361     2.570717     2.563074     2.555431
      2.547788     2.540144     2.532501     2.524858     2.517215     2.509572     2.501928     2.494285     2.486642     2.478999
      2.471355     2.463712     2.456069     2.448426     2.440783     2.433139     2.425496     2.417853     2.410210     2.402566
      2.394923     2.387280     2.379637     2.371994     2.364350     2.356707     2.349064     2.341421     2.333777     2.326134
      2.318491     2.310848     2.303205     2.295561     2.287918     2.280275     2.272632     2.264988     2.257345     2.249702
      2.242059     2.234416     2.226772     2.219129     2.211486     2.203843     2.196199     2.188556     2.180913     2.173270
      2.165627     2.157983     2.150340     2.142697     2.135054     2.127410     2.119767     2.112124     2.104481     2.096838
      2.089194     2.081551     2.073908     2.066265     2.058621     2.050978     2.043335     2.035692     2.028049     2.020405
      2.012762     2.005119     1.997476     1.989833     1.982190     1.974546     1.966903     1.959260     1.951617     1.943974
      1.936331     1.928688     1.921045     1.913402     1.905759     1.898115     1.890472     1.882829     1.875186     1.867543
      1.859900     1.852257     1.844614     1.836971     1.829327     1.821684     1.814041     1.806398     1.798755     1.791112
      1.783469     1.775826     1.768183     1.760540     1.752896     1.745253     1.737610     1.729967     1.722324     1.714681
      1.707038     1.699395     1.691752     1.684108     1.676465     1.668822     1.661179     1.653536     1.645893     1.638250
      1.630607     1.622964     1.615321     1.607677     1.600034     1.592391     1.584748     1.577105     1.569462     1.561819
      1.554176     1.546533     1.538890     1.531246     1.523603     1.515960     1.508317     1.500674     1.493031     1.485388
      1.477745     1.470102     1.462458     1.454815     1.447172     1.439529     1.431886     1.424243     1.416600     1.408957
      1.401314     1.393671     1.386027     1.378384     1.370741     1.363098     1.355455     1.347812     1.340169     1.332526
      1.324883     1.317240     1.309596     1.301953     1.294310     1.286667     1.279024     1.271381     1.263738     1.256095
      1.248452     1.240808     1.233165     1.225522     1.217879     1.210236     1.202593     1.194950     1.187307     1.179664
      1.172021     1.164377     1.156734     1.149091     1.141448     1.133805     1.126162     1.118519     1.110876     1.103233
      1.095590     1.087946     1.080303     1.072660     1.065017     1.057374     1.049731     1.042088     1.034445     1.026802
      1.019158     1.011515     1.003872     0.996229     0.988586     0.980943     0.973300     0.965657     0.958014     0.950371
      0.942727     0.935084     0.927441     0.919798     0.912155     0.904512     0.896869     0.889226     0.881583     0.873940
      0.866296     0.858653     0.851010     0.843367     0.835724     0.828081     0.820438     0.812795     0.805152     0.797508
      0.789865     0.782222     0.774579     0.766936     0.759293     0.751650     0.744007     0.736364     0.728721     0.721077
      0.713434     0.705791     0.698148     0.690505     0.682862     0.675219     0.667576     0.659933     0.652290     0.644646
      0.637003     0.629360     0.621717     0.614074     0.606431     0.598788     0.591145     0.583502     0.575858     0.568215
      0.560572     0.552929     0.545286     0.537643     0.530000     0.522357     0.514714     0.507071     0.499427     0.491784
      0.484141     0.476498     0.468855     0.461212     0.453569     0.445925     0.438282     0.430639     0.422996     0.415353
      0.407710     0.400067     0.392424     0.384780     0.377137     0.369494     0.361851     0.354208     0.346565     0.338922
      0.331278     0.323635     0.315992     0.308349     0.300706     0.293063     0.285420     0.277777     0.270133     0.262490
      0.254847     0.247204     0.239561     0.231918     0.224275     0.216631     0.208988     0.201345
 NY phased data points follow
  -1.24104E+02 -1.33398E+02 -1.19077E+02 -1.07074E+02 -1.11293E+02 -1.07728E+02 -9.42063E+01 -8.10297E+01 -7.16445E+01 -6.10133E+01
  -5.82629E+01 -6.21221E+01 -6.87195E+01 -8.32007E+01 -9.45470E+01 -9.69679E+01 -1.07708E+02 -9.23567E+01 -1.05590E+02 -9.67071E+01
  -9.81727E+01 -1.03151E+02 -1.06893E+02 -1.01428E+02 -8.62314E+01 -8.90076E+01 -8.42842E+01 -8.72275E+01 -9.16426E+01 -7.61180E+01
  -7.47781E+01 -7.85493E+01 -6.85501E+01 -6.95842E+01 -7.86152E+01 -8.30895E+01 -8.07845E+01 -8.30681E+01 -6.76304E+01 -7.19892E+01
  -7.50916E+01 -6.35683E+01 -6.00899E+01 -6.81956E+01 -6.09874E+01 -4.78454E+01 -5.28467E+01 -4.73057E+01 -5.06653E+01 -5.26585E+01
  -5.97099E+01 -6.91943E+01 -6.30142E+01 -6.35382E+01 -6.19842E+01 -5.36142E+01 -6.13773E+01 -5.74819E+01 -6.40209E+01 -5.78811E+01
  -5.98225E+01 -5.65089E+01 -6.16688E+01 -6.72800E+01 -6.59142E+01 -6.68183E+01 -7.07729E+01 -6.72876E+01 -6.55977E+01 -5.88768E+01
  -6.38383E+01 -6.09120E+01 -5.96475E+01 -5.71317E+01 -5.31088E+01 -5.54419E+01 -4.89587E+01 -4.88280E+01 -5.06223E+01 -6.66363E+01
  -5.24118E+01 -4.93541E+01 -4.34828E+01 -3.91579E+01 -4.73511E+01 -4.42812E+01 -4.71972E+01 -4.08092E+01 -4.15499E+01 -3.98541E+01
  -3.88474E+01 -4.11190E+01 -4.07416E+01 -2.51820E+01 -3.10618E+01 -2.63359E+01 -2.62063E+01 -3.27302E+01 -2.16729E+01 -1.69055E+01
   9.71341E+00  2.30975E+01  3.89026E+01  3.50853E+01  2.42812E+01  1.52815E+01  2.86580E-01 -8.31500E+00 -1.27588E+01 -2.29166E+01
  -2.72597E+01 -3.15110E+01 -3.14405E+01 -2.58049E+01 -3.52639E+01 -3.21637E+01 -2.68666E+01 -2.43541E+01 -3.22649E+01 -1.61520E+01
  -1.39696E+01 -2.26228E+01 -1.22538E+01 -7.67005E+00  1.59016E+01  3.02824E+01  5.45163E+01  6.04421E+01  3.88211E+01  3.63698E+01
   1.10406E+01  9.58971E-01 -1.45591E+01 -1.04690E+01 -2.00010E+01 -1.80853E+01 -2.24192E+01 -2.94684E+01 -2.14852E+01 -3.02188E+01
  -2.42248E+01 -1.83911E+01 -1.92451E+01 -2.48680E+01 -2.96746E+01 -2.49724E+01 -2.39133E+01 -1.85312E+01 -2.29703E+01 -2.37338E+01
  -2.49902E+01 -1.56671E+01 -1.24360E+01 -2.89418E+01 -2.62768E+01 -2.40559E+01 -1.61652E+01 -1.54186E+01 -1.80245E+01 -1.86428E+01
  -1.52298E+01 -2.15124E+01 -2.84956E+01 -2.34048E+01 -1.90432E+01 -1.25636E+01 -1.74725E+01 -1.68405E+01 -2.04062E+01 -2.57439E+01
  -2.97608E+01 -2.45056E+01 -2.13878E+01 -3.79110E+01 -3.65514E+01 -3.68474E+01 -3.57012E+01 -4.02447E+01 -3.12782E+01 -3.21879E+01
  -3.25790E+01 -2.18795E+01 -2.74528E+01 -2.31069E+01 -2.16152E+01 -2.26262E+01 -2.23390E+01 -2.48598E+01 -1.51546E+01 -1.28269E+01
  -7.43058E+00  8.97211E-02 -1.08077E+01 -1.00713E+01 -5.04439E-01 -1.48728E+01 -1.07056E+01 -1.15575E+01 -1.34152E+01 -1.33829E+01
  -1.26018E+01 -6.42977E+00 -4.14004E+00 -2.32995E+00  1.07021E-01  2.15419E+00 -9.94496E+00 -1.00385E+01 -1.43577E+01 -1.98843E+01
  -1.08613E+01 -8.49643E+00 -1.91811E+00 -5.33105E+00  6.03406E+00  1.69829E+01  1.78832E+01 -8.88485E-01  3.22055E+00 -6.65957E+00
  -8.79055E+00 -1.91579E+01 -1.27482E+01 -9.68256E+00 -5.15409E+00 -1.80195E-01  8.58994E+00  7.72217E+00  5.79182E+00  1.12206E+01
   1.24931E+01  7.96307E+00  1.16116E+01  5.34751E+00  1.64874E+01  4.20035E+00  1.44355E+01  1.34366E+01  1.39791E+00  5.64829E+00
   2.61260E+00  4.73382E+00  6.41663E+00  5.28249E-01  1.32049E+01  1.65276E+01  1.97064E+01  1.75648E+01  1.15495E+01  2.60911E+01
   1.59505E+01  1.94549E+01  2.75138E+01  3.36986E+01  4.70455E+01  4.82101E+01  4.77005E+01  5.59734E+01  8.96417E+01  1.29939E+02
   1.55991E+02  1.28400E+02  1.15633E+02  9.50936E+01  7.56734E+01  5.76600E+01  3.41034E+01  2.36497E+01  2.37642E+01  2.22568E+01
   8.47784E+00  1.31669E+01  1.39052E+01  7.90889E+00  1.45716E+01  9.89885E+00  2.21934E+01  1.29134E+01  1.02888E+01  7.58075E+00
   9.57212E+00  1.32527E+01  3.99026E-01  2.90626E+00  1.52914E+00  7.65677E+00  4.97369E+00  6.94635E+00  1.89377E+01  1.30576E+01
   1.35708E+01  5.03344E+00  1.16274E+01  1.65040E+01  1.22224E+01  3.05358E+00  1.65974E+01  5.01715E+00  1.33992E+00  1.48856E+01
   1.07906E+01  7.99841E+00  8.46981E+00  1.60638E+01  1.16259E+01  1.08089E+01  1.56490E+01  1.43973E+01  2.08971E+01  1.45926E+01
   1.42910E+01  1.27119E+01  2.33770E+01  2.44179E+01  2.75074E+01  1.86948E+01  1.77712E+01  2.25896E+01  1.90160E+01  1.53294E+01
   2.34960E+01  1.67852E+01  2.20704E+01  1.51141E+01  2.04240E+01  2.05105E+01  2.56573E+01  9.37572E+00  1.11140E+01  1.88221E+01
   1.54540E+01  1.85531E+01  2.34989E+01  1.96868E+01  8.23993E+00  1.59559E+01  1.42536E+01  1.86783E+01  1.39112E+01  1.32887E+01
   4.51680E+00  1.27835E+01  5.27841E+00  8.83756E+00  2.58117E+01  2.85533E+01  1.77792E+01  2.72444E+01  2.22522E+01  2.40550E+01
   2.58356E+01  2.28795E+01  2.66351E+01  2.44785E+01  2.36145E+01  2.90037E+01  2.72777E+01  2.97995E+01  3.23097E+01  2.98419E+01
   2.88565E+01  2.17912E+01  2.82862E+01  2.68889E+01  2.94832E+01  2.25188E+01  3.01544E+01  2.23062E+01  3.37711E+01  2.48905E+01
   1.63558E+01  2.36545E+01  2.43590E+01  2.08281E+01  2.58578E+01  1.71976E+01  2.14807E+01  2.05149E+01  2.37913E+01  3.48913E+01
   2.96076E+01  2.24860E+01  3.06159E+01  3.03787E+01  2.23212E+01  3.02715E+01  2.17052E+01  1.54248E+01  2.27835E+01  2.02174E+01
   2.63203E+01  1.98472E+01  2.60101E+01  2.74990E+01  2.36502E+01  2.76659E+01  3.38077E+01  3.20164E+01  2.99345E+01  3.01406E+01
   3.08602E+01  2.84200E+01  2.45619E+01  2.83125E+01  2.42516E+01  2.71527E+01  3.55850E+01  3.05084E+01  2.66160E+01  4.21574E+01
   3.57027E+01  2.90696E+01  3.55995E+01  3.76503E+01  3.17411E+01  3.26327E+01  2.79123E+01  2.29164E+01  3.05472E+01  3.46618E+01
   3.23862E+01  2.21417E+01  2.67956E+01  2.51892E+01  2.81952E+01  3.32864E+01  3.18292E+01  1.64662E+01  2.48903E+01  2.62485E+01
   2.70836E+01  3.06532E+01  3.40746E+01  2.69746E+01  2.17653E+01  3.24584E+01  2.19923E+01  2.66910E+01  1.73906E+01  2.22506E+01
   2.70203E+01  2.31238E+01  2.11337E+01  1.99073E+01  2.58200E+01  2.53066E+01  2.60198E+01  1.73817E+01  2.08496E+01  2.10919E+01
   2.67256E+01  2.28686E+01  2.55719E+01  2.20399E+01  2.74950E+01  2.38350E+01  2.56941E+01  2.35129E+01  1.95771E+01  2.58117E+01
   2.71017E+01  1.92576E+01  2.11229E+01  2.87873E+01  1.74023E+01  3.19652E+01  2.22125E+01  1.34457E+01  1.95958E+01  2.50818E+01
   2.55840E+01  1.64763E+01  2.94062E+01  2.02875E+01  2.66070E+01  2.06928E+01  2.23732E+01  2.86385E+01  1.84285E+01  2.60764E+01
   2.81476E+01  2.02202E+01  1.66975E+01  1.86387E+01  2.07244E+01  2.07820E+01  2.52083E+01  1.90185E+01  2.02584E+01  2.59852E+01
   1.26416E+01  3.51150E+01  2.45554E+01  2.03804E+01  2.60727E+01  2.09180E+01  2.49347E+01  2.19095E+01
 NY points of the fit to the data follow
  -1.14807E+02 -1.14153E+02 -1.12898E+02 -1.09943E+02 -1.05784E+02 -1.00952E+02 -9.34128E+01 -8.20482E+01 -6.97869E+01 -6.21998E+01
  -6.19373E+01 -6.68493E+01 -7.37367E+01 -8.05507E+01 -8.62979E+01 -9.05470E+01 -9.37270E+01 -9.57145E+01 -9.63697E+01 -9.60998E+01
  -9.54275E+01 -9.48369E+01 -9.43945E+01 -9.35423E+01 -9.23981E+01 -9.21387E+01 -9.16086E+01 -8.90086E+01 -8.41818E+01 -7.89202E+01
  -7.47457E+01 -7.16977E+01 -7.03949E+01 -7.13608E+01 -7.37921E+01 -7.68244E+01 -7.96731E+01 -8.16873E+01 -8.22444E+01 -8.14527E+01
  -7.93655E+01 -7.63717E+01 -7.32256E+01 -6.95342E+01 -6.40229E+01 -5.74168E+01 -5.28795E+01 -5.27037E+01 -5.58588E+01 -6.01436E+01
  -6.42369E+01 -6.75876E+01 -6.96937E+01 -7.03661E+01 -7.00275E+01 -6.87042E+01 -6.64081E+01 -6.34503E+01 -6.05092E+01 -5.85898E+01
  -5.81184E+01 -5.88502E+01 -6.02328E+01 -6.14391E+01 -6.19576E+01 -6.15117E+01 -6.03667E+01 -5.88963E+01 -5.72061E+01 -5.52826E+01
  -5.34306E+01 -5.21954E+01 -5.16203E+01 -5.13328E+01 -5.11405E+01 -5.10591E+01 -5.11277E+01 -5.11650E+01 -5.10935E+01 -5.07699E+01
  -5.00083E+01 -4.87958E+01 -4.77869E+01 -4.64220E+01 -4.43049E+01 -4.23663E+01 -4.17987E+01 -4.27151E+01 -4.38916E+01 -4.44017E+01
  -4.42091E+01 -4.36620E+01 -4.28172E+01 -4.17702E+01 -4.08236E+01 -3.96104E+01 -3.69156E+01 -3.14334E+01 -2.55971E+01 -1.51876E+01
   4.03593E+00  2.65015E+01  4.04491E+01  3.92871E+01  2.81088E+01  1.42758E+01  6.17170E-01 -1.15704E+01 -2.10979E+01 -2.78980E+01
  -3.26416E+01 -3.42998E+01 -3.43551E+01 -3.40198E+01 -3.35544E+01 -3.30124E+01 -3.24117E+01 -3.17661E+01 -3.09853E+01 -2.98054E+01
  -2.71066E+01 -2.10294E+01 -1.46716E+01 -5.25740E+00  1.31141E+01  3.67196E+01  5.35307E+01  5.47843E+01  4.41109E+01  2.99518E+01
   1.61573E+01  3.75728E+00 -6.49964E+00 -1.45685E+01 -2.13234E+01 -2.50572E+01 -2.62595E+01 -2.63724E+01 -2.56452E+01 -2.43998E+01
  -2.31408E+01 -2.22238E+01 -2.17294E+01 -2.15934E+01 -2.16794E+01 -2.18504E+01 -2.20320E+01 -2.21644E+01 -2.22729E+01 -2.23656E+01
  -2.23923E+01 -2.24198E+01 -2.24499E+01 -2.23929E+01 -2.21822E+01 -2.19257E+01 -2.16613E+01 -2.14237E+01 -2.16051E+01 -2.22716E+01
  -2.30755E+01 -2.33640E+01 -2.26362E+01 -2.14031E+01 -2.05342E+01 -2.04810E+01 -2.10593E+01 -2.17526E+01 -2.22750E+01 -2.26465E+01
  -2.29460E+01 -2.32061E+01 -2.34130E+01 -2.38828E+01 -2.45896E+01 -2.50395E+01 -2.46107E+01 -2.33476E+01 -2.23305E+01 -2.21507E+01
  -2.22792E+01 -2.21122E+01 -2.14887E+01 -2.07056E+01 -2.02971E+01 -2.00662E+01 -1.91194E+01 -1.70244E+01 -1.41339E+01 -1.13245E+01
  -9.36386E+00 -8.39429E+00 -8.39586E+00 -8.97034E+00 -9.63863E+00 -1.02477E+01 -1.07094E+01 -1.06840E+01 -9.86602E+00 -8.44319E+00
  -6.70389E+00 -4.75375E+00 -2.62463E+00 -1.00886E+00 -9.76725E-01 -2.35000E+00 -4.92122E+00 -8.52647E+00 -1.20713E+01 -1.40095E+01
  -1.34427E+01 -1.14867E+01 -7.81264E+00 -1.85076E+00  4.55438E+00  8.07750E+00  7.09088E+00  3.26117E+00 -1.84651E+00 -8.15001E+00
  -1.46535E+01 -1.85699E+01 -1.79620E+01 -1.36272E+01 -7.63977E+00 -2.02963E+00  2.61092E+00  5.96028E+00  7.55932E+00  7.62099E+00
   6.84382E+00  6.31062E+00  6.49427E+00  7.13177E+00  8.04399E+00  9.39971E+00  1.07194E+01  1.11829E+01  1.09667E+01  1.02744E+01
   9.17542E+00  8.21297E+00  8.36776E+00  9.91490E+00  1.20195E+01  1.40137E+01  1.57143E+01  1.68947E+01  1.72874E+01  1.75824E+01
   1.87766E+01  2.05442E+01  2.34814E+01  2.85087E+01  3.67677E+01  4.74402E+01  5.43458E+01  6.72546E+01  9.47503E+01  1.27013E+02
   1.44720E+02  1.38752E+02  1.18643E+02  9.56288E+01  7.33328E+01  5.35038E+01  3.78967E+01  2.62924E+01  1.75550E+01  1.38888E+01
   1.25407E+01  1.19544E+01  1.18930E+01  1.20140E+01  1.19928E+01  1.18073E+01  1.15199E+01  1.11514E+01  1.07067E+01  1.02570E+01
   9.89237E+00  9.65555E+00  9.52279E+00  9.45014E+00  9.41166E+00  9.38792E+00  9.36790E+00  9.35246E+00  9.35896E+00  9.40829E+00
   9.51994E+00  9.69101E+00  9.89789E+00  1.01238E+01  1.03766E+01  1.06542E+01  1.09506E+01  1.12747E+01  1.16421E+01  1.20622E+01
   1.25367E+01  1.30575E+01  1.36136E+01  1.41905E+01  1.47752E+01  1.53584E+01  1.59320E+01  1.64831E+01  1.70022E+01  1.74786E+01
   1.79017E+01  1.82627E+01  1.85549E+01  1.87726E+01  1.89129E+01  1.89749E+01  1.89617E+01  1.88790E+01  1.87350E+01  1.85388E+01
   1.83005E+01  1.80310E+01  1.77424E+01  1.74466E+01  1.71545E+01  1.68750E+01  1.66156E+01  1.63826E+01  1.61817E+01  1.60166E+01
   1.58897E+01  1.58014E+01  1.57518E+01  1.57405E+01  1.57681E+01  1.58344E+01  1.59399E+01  1.60855E+01  1.62747E+01  1.65140E+01
   1.68167E+01  1.72035E+01  1.76547E+01  1.81783E+01  1.88427E+01  1.95944E+01  2.03005E+01  2.09020E+01  2.14944E+01  2.22423E+01
   2.31366E+01  2.41053E+01  2.51881E+01  2.63951E+01  2.75897E+01  2.85629E+01  2.91826E+01  2.94338E+01  2.93667E+01  2.90295E+01
   2.84879E+01  2.78178E+01  2.70735E+01  2.63223E+01  2.56207E+01  2.49866E+01  2.44323E+01  2.39631E+01  2.35771E+01  2.32666E+01
   2.30214E+01  2.28305E+01  2.26845E+01  2.25753E+01  2.24973E+01  2.24458E+01  2.24185E+01  2.24142E+01  2.24333E+01  2.24770E+01
   2.25467E+01  2.26439E+01  2.27704E+01  2.29283E+01  2.31201E+01  2.33481E+01  2.36140E+01  2.39191E+01  2.42647E+01  2.46517E+01
   2.50806E+01  2.55505E+01  2.60594E+01  2.66041E+01  2.71802E+01  2.77821E+01  2.84028E+01  2.90333E+01  2.96632E+01  3.02811E+01
   3.08753E+01  3.14333E+01  3.19431E+01  3.23924E+01  3.27704E+01  3.30679E+01  3.32781E+01  3.33964E+01  3.34207E+01  3.33515E+01
   3.31918E+01  3.29477E+01  3.26275E+01  3.22409E+01  3.17990E+01  3.13134E+01  3.07963E+01  3.02596E+01  2.97150E+01  2.91724E+01
   2.86408E+01  2.81272E+01  2.76379E+01  2.71774E+01  2.67490E+01  2.63541E+01  2.59933E+01  2.56659E+01  2.53713E+01  2.51077E+01
   2.48735E+01  2.46659E+01  2.44826E+01  2.43211E+01  2.41795E+01  2.40555E+01  2.39471E+01  2.38523E+01  2.37692E+01  2.36965E+01
   2.36330E+01  2.35776E+01  2.35292E+01  2.34866E+01  2.34492E+01  2.34163E+01  2.33876E+01  2.33623E+01  2.33401E+01  2.33202E+01
   2.33026E+01  2.32871E+01  2.32734E+01  2.32613E+01  2.32503E+01  2.32403E+01  2.32314E+01  2.32235E+01  2.32165E+01  2.32101E+01
   2.32042E+01  2.31986E+01  2.31937E+01  2.31892E+01  2.31852E+01  2.31814E+01  2.31778E+01  2.31743E+01  2.31713E+01  2.31685E+01
   2.31659E+01  2.31634E+01  2.31609E+01  2.31586E+01  2.31566E+01  2.31549E+01  2.31532E+01  2.31515E+01  2.31499E+01  2.31485E+01
   2.31475E+01  2.31466E+01  2.31457E+01  2.31449E+01  2.31443E+01  2.31440E+01  2.31440E+01  2.31442E+01  2.31445E+01  2.31449E+01
   2.31457E+01  2.31469E+01  2.31484E+01  2.31501E+01  2.31521E+01  2.31543E+01  2.31571E+01  2.31604E+01
 NY background values follow
    -1.220E+02   -1.211E+02   -1.202E+02   -1.192E+02   -1.183E+02   -1.174E+02   -1.165E+02   -1.156E+02   -1.147E+02   -1.137E+02
    -1.128E+02   -1.119E+02   -1.110E+02   -1.101E+02   -1.092E+02   -1.083E+02   -1.073E+02   -1.064E+02   -1.055E+02   -1.046E+02
    -1.037E+02   -1.028E+02   -1.019E+02   -1.010E+02   -1.001E+02   -9.922E+01   -9.832E+01   -9.743E+01   -9.654E+01   -9.566E+01
    -9.477E+01   -9.389E+01   -9.301E+01   -9.213E+01   -9.126E+01   -9.039E+01   -8.952E+01   -8.866E+01   -8.780E+01   -8.694E+01
    -8.609E+01   -8.524E+01   -8.439E+01   -8.355E+01   -8.271E+01   -8.188E+01   -8.105E+01   -8.022E+01   -7.940E+01   -7.859E+01
    -7.777E+01   -7.697E+01   -7.616E+01   -7.536E+01   -7.457E+01   -7.378E+01   -7.299E+01   -7.221E+01   -7.144E+01   -7.067E+01
    -6.990E+01   -6.914E+01   -6.838E+01   -6.763E+01   -6.689E+01   -6.615E+01   -6.541E+01   -6.468E+01   -6.396E+01   -6.324E+01
    -6.252E+01   -6.181E+01   -6.111E+01   -6.041E+01   -5.972E+01   -5.903E+01   -5.835E+01   -5.767E+01   -5.700E+01   -5.634E+01
    -5.568E+01   -5.503E+01   -5.438E+01   -5.374E+01   -5.311E+01   -5.248E+01   -5.186E+01   -5.124E+01   -5.063E+01   -5.003E+01
    -4.943E+01   -4.884E+01   -4.825E+01   -4.768E+01   -4.710E+01   -4.654E+01   -4.598E+01   -4.543E+01   -4.488E+01   -4.434E+01
    -4.380E+01   -4.327E+01   -4.275E+01   -4.224E+01   -4.172E+01   -4.122E+01   -4.072E+01   -4.023E+01   -3.974E+01   -3.926E+01
    -3.879E+01   -3.832E+01   -3.785E+01   -3.739E+01   -3.694E+01   -3.649E+01   -3.605E+01   -3.562E+01   -3.519E+01   -3.476E+01
    -3.435E+01   -3.393E+01   -3.352E+01   -3.312E+01   -3.272E+01   -3.233E+01   -3.195E+01   -3.156E+01   -3.119E+01   -3.082E+01
    -3.045E+01   -3.009E+01   -2.974E+01   -2.939E+01   -2.904E+01   -2.870E+01   -2.837E+01   -2.804E+01   -2.771E+01   -2.739E+01
    -2.708E+01   -2.676E+01   -2.646E+01   -2.615E+01   -2.585E+01   -2.556E+01   -2.527E+01   -2.498E+01   -2.470E+01   -2.442E+01
    -2.414E+01   -2.386E+01   -2.359E+01   -2.333E+01   -2.306E+01   -2.280E+01   -2.254E+01   -2.228E+01   -2.202E+01   -2.177E+01
    -2.152E+01   -2.127E+01   -2.102E+01   -2.078E+01   -2.053E+01   -2.029E+01   -2.005E+01   -1.981E+01   -1.957E+01   -1.933E+01
    -1.910E+01   -1.886E+01   -1.862E+01   -1.839E+01   -1.815E+01   -1.792E+01   -1.768E+01   -1.745E+01   -1.721E+01   -1.698E+01
    -1.674E+01   -1.650E+01   -1.626E+01   -1.603E+01   -1.579E+01   -1.555E+01   -1.531E+01   -1.507E+01   -1.483E+01   -1.459E+01
    -1.435E+01   -1.411E+01   -1.387E+01   -1.362E+01   -1.338E+01   -1.314E+01   -1.290E+01   -1.266E+01   -1.242E+01   -1.218E+01
    -1.194E+01   -1.170E+01   -1.146E+01   -1.122E+01   -1.098E+01   -1.074E+01   -1.050E+01   -1.026E+01   -1.002E+01   -9.788E+00
    -9.552E+00   -9.317E+00   -9.082E+00   -8.849E+00   -8.616E+00   -8.385E+00   -8.154E+00   -7.925E+00   -7.696E+00   -7.469E+00
    -7.243E+00   -7.018E+00   -6.795E+00   -6.572E+00   -6.352E+00   -6.132E+00   -5.914E+00   -5.698E+00   -5.483E+00   -5.270E+00
    -5.058E+00   -4.847E+00   -4.638E+00   -4.431E+00   -4.224E+00   -4.019E+00   -3.816E+00   -3.613E+00   -3.412E+00   -3.212E+00
    -3.013E+00   -2.816E+00   -2.620E+00   -2.424E+00   -2.230E+00   -2.037E+00   -1.845E+00   -1.655E+00   -1.465E+00   -1.276E+00
    -1.088E+00   -9.013E-01   -7.153E-01   -5.302E-01   -3.460E-01   -1.627E-01    1.980E-02    2.015E-01    3.824E-01    5.626E-01
     7.420E-01    9.207E-01    1.099E+00    1.276E+00    1.453E+00    1.629E+00    1.804E+00    1.979E+00    2.154E+00    2.328E+00
     2.501E+00    2.674E+00    2.847E+00    3.019E+00    3.190E+00    3.361E+00    3.532E+00    3.702E+00    3.872E+00    4.042E+00
     4.210E+00    4.379E+00    4.547E+00    4.715E+00    4.882E+00    5.049E+00    5.215E+00    5.381E+00    5.546E+00    5.711E+00
     5.876E+00    6.040E+00    6.204E+00    6.367E+00    6.530E+00    6.693E+00    6.855E+00    7.016E+00    7.177E+00    7.338E+00
     7.498E+00    7.658E+00    7.818E+00    7.977E+00    8.135E+00    8.293E+00    8.451E+00    8.609E+00    8.765E+00    8.922E+00
     9.078E+00    9.234E+00    9.389E+00    9.544E+00    9.698E+00    9.852E+00    1.001E+01    1.016E+01    1.031E+01    1.046E+01
     1.062E+01    1.077E+01    1.092E+01    1.107E+01    1.122E+01    1.137E+01    1.152E+01    1.166E+01    1.181E+01    1.196E+01
     1.210E+01    1.225E+01    1.239E+01    1.254E+01    1.268E+01    1.282E+01    1.297E+01    1.311E+01    1.325E+01    1.339E+01
     1.352E+01    1.366E+01    1.380E+01    1.394E+01    1.407E+01    1.420E+01    1.434E+01    1.447E+01    1.460E+01    1.473E+01
     1.486E+01    1.499E+01    1.512E+01    1.524E+01    1.537E+01    1.549E+01    1.561E+01    1.574E+01    1.586E+01    1.598E+01
     1.609E+01    1.621E+01    1.633E+01    1.644E+01    1.655E+01    1.667E+01    1.678E+01    1.689E+01    1.700E+01    1.710E+01
     1.721E+01    1.731E+01    1.742E+01    1.752E+01    1.762E+01    1.772E+01    1.782E+01    1.792E+01    1.801E+01    1.811E+01
     1.820E+01    1.829E+01    1.839E+01    1.848E+01    1.857E+01    1.865E+01    1.874E+01    1.883E+01    1.891E+01    1.900E+01
     1.908E+01    1.916E+01    1.924E+01    1.932E+01    1.940E+01    1.947E+01    1.955E+01    1.962E+01    1.970E+01    1.977E+01
     1.984E+01    1.991E+01    1.998E+01    2.005E+01    2.012E+01    2.018E+01    2.025E+01    2.031E+01    2.037E+01    2.044E+01
     2.050E+01    2.056E+01    2.061E+01    2.067E+01    2.073E+01    2.078E+01    2.084E+01    2.089E+01    2.094E+01    2.100E+01
     2.105E+01    2.109E+01    2.114E+01    2.119E+01    2.124E+01    2.128E+01    2.133E+01    2.137E+01    2.141E+01    2.146E+01
     2.150E+01    2.154E+01    2.157E+01    2.161E+01    2.165E+01    2.169E+01    2.172E+01    2.176E+01    2.179E+01    2.182E+01
     2.185E+01    2.188E+01    2.191E+01    2.194E+01    2.197E+01    2.200E+01    2.202E+01    2.205E+01    2.208E+01    2.210E+01
     2.212E+01    2.215E+01    2.217E+01    2.219E+01    2.221E+01    2.223E+01    2.225E+01    2.226E+01    2.228E+01    2.230E+01
     2.231E+01    2.233E+01    2.234E+01    2.236E+01    2.237E+01    2.238E+01    2.240E+01    2.241E+01    2.242E+01    2.243E+01
     2.244E+01    2.245E+01    2.246E+01    2.247E+01    2.248E+01    2.249E+01    2.250E+01    2.251E+01    2.251E+01    2.252E+01
     2.253E+01    2.254E+01    2.255E+01    2.255E+01    2.256E+01    2.257E+01    2.258E+01    2.258E+01    2.259E+01    2.260E+01
     2.261E+01    2.261E+01    2.262E+01    2.263E+01    2.264E+01    2.265E+01    2.265E+01    2.266E+01
