 LCModel (Version 6.3-1L) Copyright: S.W. Provencher.          Ref.: Magn. Reson. Med. 30:672-679 (1993).                
 Slice#3 Row#8 Col#14  K_02_press_1_raw_act
 36 lines in following concentration table = NCONC+1
    Conc.  %SD /Cr+PCr  Metabolite                                         
 1.52E+03  45%  13.786 Ala                                                 
   16.924  21%   0.153 Asp                                                 
    0.000 999%   0.000 Cr                                                  
  110.478  29%   1.000 PCr                                                 
   10.154  21% 9.2E-02 GABA                                                
   10.154  21% 9.2E-02 Glc                                                 
    0.000 999%   0.000 Gln                                                 
  909.405  62%   8.232 Glu                                                 
    0.000 999%   0.000 GPC                                                 
   20.000  64%   0.181 PCh                                                 
   21.638 300%   0.196 GSH                                                 
    0.000 999%   0.000 Ins                                                 
    0.000 999%   0.000 Lac                                                 
  167.998  38%   1.521 NAA                                                 
    0.000 999%   0.000 NAAG                                                
    3.385  21% 3.1E-02 Scyllo                                              
   16.923  21%   0.153 Tau                                                 
   11.060  30%   0.100 -CrCH2                                              
   20.000  64%   0.181 GPC+PCh                                             
  167.998  38%   1.521 NAA+NAAG                                            
  110.478  29%   1.000 Cr+PCr                                              
  909.405  62%   8.232 Glu+Gln                                             
 2.94E+04  14% 266.524 Lip13a                                              
    0.000 999%   0.000 Lip13b                                              
 3.60E+03  23%  32.546 Lip09                                               
 3.74E+03  22%  33.855 MM09                                                
  889.864  33%   8.055 Lip20                                               
    0.000 999%   0.000 MM20                                                
 3.19E+03  23%  28.914 MM12                                                
 1.76E+04  14% 159.417+MM14                                                
 5.12E+03  20%  46.347 MM17                                                
 2.94E+04  14% 266.524 Lip13a+Lip13b                                       
 5.03E+04   6% 454.855 MM14+Lip13a+Lip13b+MM12                             
 7.34E+03  13%  66.400 MM09+Lip09                                          
  889.864  33%   8.055 MM20+Lip20                                          
   6 lines in following misc. output table
  FWHM = 0.199 ppm    S/N =  40                                            
  Data shift = 0.161 ppm                                                   
  Ph:  44 deg       1.7 deg/ppm                                            
  alphaB,S = 8.5E+01,   2.7E+02                                            
    7 spline knots.   Ns = 9(2)                                            
  ( 6) 2 infls.   ( 3) 1 extrs.                                            
  498 points on ppm-axis = NY
      4.000000     3.992357     3.984714     3.977070     3.969427     3.961784     3.954141     3.946497     3.938854     3.931211
      3.923568     3.915925     3.908281     3.900638     3.892995     3.885352     3.877708     3.870065     3.862422     3.854779
      3.847136     3.839492     3.831849     3.824206     3.816563     3.808919     3.801276     3.793633     3.785990     3.778347
      3.770703     3.763060     3.755417     3.747774     3.740130     3.732487     3.724844     3.717201     3.709558     3.701914
      3.694271     3.686628     3.678985     3.671341     3.663698     3.656055     3.648412     3.640769     3.633125     3.625482
      3.617839     3.610196     3.602552     3.594909     3.587266     3.579623     3.571980     3.564336     3.556693     3.549050
      3.541407     3.533763     3.526120     3.518477     3.510834     3.503191     3.495547     3.487904     3.480261     3.472618
      3.464974     3.457331     3.449688     3.442045     3.434402     3.426758     3.419115     3.411472     3.403829     3.396185
      3.388542     3.380899     3.373256     3.365613     3.357969     3.350326     3.342683     3.335040     3.327396     3.319753
      3.312110     3.304467     3.296824     3.289180     3.281537     3.273894     3.266251     3.258607     3.250964     3.243321
      3.235678     3.228034     3.220391     3.212748     3.205105     3.197462     3.189818     3.182175     3.174532     3.166889
      3.159245     3.151602     3.143959     3.136316     3.128673     3.121029     3.113386     3.105743     3.098100     3.090456
      3.082813     3.075170     3.067527     3.059884     3.052240     3.044597     3.036954     3.029311     3.021667     3.014024
      3.006381     2.998738     2.991095     2.983451     2.975808     2.968165     2.960522     2.952878     2.945235     2.937592
      2.929949     2.922306     2.914662     2.907019     2.899376     2.891733     2.884089     2.876446     2.868803     2.861160
      2.853517     2.845873     2.838230     2.830587     2.822944     2.815300     2.807657     2.800014     2.792371     2.784728
      2.777084     2.769441     2.761798     2.754155     2.746511     2.738868     2.731225     2.723582     2.715939     2.708295
      2.700652     2.693009     2.685366     2.677722     2.670079     2.662436     2.654793     2.647150     2.639506     2.631863
      2.624220     2.616577     2.608933     2.601290     2.593647     2.586004     2.578361     2.570717     2.563074     2.555431
      2.547788     2.540144     2.532501     2.524858     2.517215     2.509572     2.501928     2.494285     2.486642     2.478999
      2.471355     2.463712     2.456069     2.448426     2.440783     2.433139     2.425496     2.417853     2.410210     2.402566
      2.394923     2.387280     2.379637     2.371994     2.364350     2.356707     2.349064     2.341421     2.333777     2.326134
      2.318491     2.310848     2.303205     2.295561     2.287918     2.280275     2.272632     2.264988     2.257345     2.249702
      2.242059     2.234416     2.226772     2.219129     2.211486     2.203843     2.196199     2.188556     2.180913     2.173270
      2.165627     2.157983     2.150340     2.142697     2.135054     2.127410     2.119767     2.112124     2.104481     2.096838
      2.089194     2.081551     2.073908     2.066265     2.058621     2.050978     2.043335     2.035692     2.028049     2.020405
      2.012762     2.005119     1.997476     1.989833     1.982190     1.974546     1.966903     1.959260     1.951617     1.943974
      1.936331     1.928688     1.921045     1.913402     1.905759     1.898115     1.890472     1.882829     1.875186     1.867543
      1.859900     1.852257     1.844614     1.836971     1.829327     1.821684     1.814041     1.806398     1.798755     1.791112
      1.783469     1.775826     1.768183     1.760540     1.752896     1.745253     1.737610     1.729967     1.722324     1.714681
      1.707038     1.699395     1.691752     1.684108     1.676465     1.668822     1.661179     1.653536     1.645893     1.638250
      1.630607     1.622964     1.615321     1.607677     1.600034     1.592391     1.584748     1.577105     1.569462     1.561819
      1.554176     1.546533     1.538890     1.531246     1.523603     1.515960     1.508317     1.500674     1.493031     1.485388
      1.477745     1.470102     1.462458     1.454815     1.447172     1.439529     1.431886     1.424243     1.416600     1.408957
      1.401314     1.393671     1.386027     1.378384     1.370741     1.363098     1.355455     1.347812     1.340169     1.332526
      1.324883     1.317240     1.309596     1.301953     1.294310     1.286667     1.279024     1.271381     1.263738     1.256095
      1.248452     1.240808     1.233165     1.225522     1.217879     1.210236     1.202593     1.194950     1.187307     1.179664
      1.172021     1.164377     1.156734     1.149091     1.141448     1.133805     1.126162     1.118519     1.110876     1.103233
      1.095590     1.087946     1.080303     1.072660     1.065017     1.057374     1.049731     1.042088     1.034445     1.026802
      1.019158     1.011515     1.003872     0.996229     0.988586     0.980943     0.973300     0.965657     0.958014     0.950371
      0.942727     0.935084     0.927441     0.919798     0.912155     0.904512     0.896869     0.889226     0.881583     0.873940
      0.866296     0.858653     0.851010     0.843367     0.835724     0.828081     0.820438     0.812795     0.805152     0.797508
      0.789865     0.782222     0.774579     0.766936     0.759293     0.751650     0.744007     0.736364     0.728721     0.721077
      0.713434     0.705791     0.698148     0.690505     0.682862     0.675219     0.667576     0.659933     0.652290     0.644646
      0.637003     0.629360     0.621717     0.614074     0.606431     0.598788     0.591145     0.583502     0.575858     0.568215
      0.560572     0.552929     0.545286     0.537643     0.530000     0.522357     0.514714     0.507071     0.499427     0.491784
      0.484141     0.476498     0.468855     0.461212     0.453569     0.445925     0.438282     0.430639     0.422996     0.415353
      0.407710     0.400067     0.392424     0.384780     0.377137     0.369494     0.361851     0.354208     0.346565     0.338922
      0.331278     0.323635     0.315992     0.308349     0.300706     0.293063     0.285420     0.277777     0.270133     0.262490
      0.254847     0.247204     0.239561     0.231918     0.224275     0.216631     0.208988     0.201345
 NY phased data points follow
   1.04126E+01  8.25774E+00  8.54588E+00  1.18009E+01  9.93630E+00  9.81446E+00  9.14889E+00  8.24164E+00  9.79059E+00  8.15265E+00
   8.21499E+00  9.42303E+00  7.07408E+00  7.66322E+00  9.30884E+00  8.34693E+00  8.36920E+00  7.47389E+00  8.38830E+00  8.01414E+00
   1.02967E+01  7.93745E+00  7.43949E+00  8.04588E+00  8.42766E+00  1.03091E+01  8.91165E+00  8.11710E+00  9.21849E+00  8.17022E+00
   7.99526E+00  8.35493E+00  7.51263E+00  8.40001E+00  9.59697E+00  9.15422E+00  9.44550E+00  7.61845E+00  8.56147E+00  7.75987E+00
   7.05134E+00  7.73319E+00  6.42025E+00  7.85287E+00  8.40079E+00  8.82668E+00  8.88269E+00  6.74374E+00  7.16558E+00  7.98011E+00
   7.89844E+00  7.18249E+00  6.99365E+00  6.85877E+00  8.62481E+00  7.43673E+00  8.14289E+00  7.81166E+00  7.70982E+00  6.46683E+00
   6.54271E+00  7.33858E+00  7.57994E+00  5.95294E+00  6.51323E+00  7.11734E+00  4.78707E+00  6.51058E+00  5.93429E+00  5.78569E+00
   7.69023E+00  6.03725E+00  6.38819E+00  5.36647E+00  7.15352E+00  5.20546E+00  5.54900E+00  7.67430E+00  6.11256E+00  5.01586E+00
   4.16810E+00  5.26568E+00  7.03129E+00  6.15376E+00  7.37433E+00  8.06119E+00  7.92899E+00  7.85943E+00  8.21938E+00  5.56664E+00
   8.99366E+00  8.63583E+00  7.74613E+00  6.49264E+00  7.03654E+00  7.13874E+00  4.64497E+00  7.46237E+00  5.37357E+00  6.88215E+00
   6.90445E+00  5.82006E+00  6.25036E+00  6.67813E+00  5.24836E+00  5.80392E+00  7.73044E+00  5.89426E+00  7.15207E+00  7.15320E+00
   8.33911E+00  9.88791E+00  7.88402E+00  8.37032E+00  7.60688E+00  6.65095E+00  7.67106E+00  8.71410E+00  5.82706E+00  7.01132E+00
   7.25633E+00  7.85896E+00  6.46640E+00  7.69551E+00  7.92757E+00  8.55624E+00  8.39674E+00  5.11162E+00  6.84587E+00  6.57724E+00
   7.73106E+00  7.78524E+00  6.71399E+00  6.49544E+00  6.96743E+00  8.34707E+00  8.54395E+00  6.70058E+00  6.81172E+00  6.52781E+00
   7.74992E+00  7.86713E+00  5.29990E+00  8.26347E+00  7.49394E+00  6.85500E+00  7.38200E+00  8.20565E+00  8.67536E+00  6.47983E+00
   7.07982E+00  6.58026E+00  6.82563E+00  7.65128E+00  7.35515E+00  8.50969E+00  4.63066E+00  7.19312E+00  5.35649E+00  8.11417E+00
   7.00417E+00  7.53918E+00  5.62239E+00  7.31455E+00  5.07157E+00  7.83784E+00  5.77058E+00  6.31213E+00  6.34736E+00  4.86029E+00
   5.38406E+00  7.07762E+00  5.05743E+00  5.84858E+00  6.92238E+00  7.00556E+00  7.38223E+00  8.37226E+00  5.46138E+00  6.09285E+00
   6.41839E+00  7.96390E+00  6.58115E+00  7.32292E+00  6.16034E+00  8.26329E+00  8.43553E+00  6.66199E+00  5.92185E+00  5.74104E+00
   4.93556E+00  7.27595E+00  6.04038E+00  5.58813E+00  7.40902E+00  5.42403E+00  6.28231E+00  7.60211E+00  6.68784E+00  7.17732E+00
   6.02823E+00  6.42500E+00  4.71263E+00  4.69068E+00  6.18854E+00  4.49430E+00  6.72563E+00  5.98561E+00  7.50795E+00  4.88890E+00
   7.29981E+00  6.58539E+00  7.16609E+00  7.13603E+00  5.75305E+00  8.43711E+00  7.22884E+00  5.57795E+00  5.78212E+00  6.07939E+00
   6.07442E+00  6.27438E+00  4.68095E+00  6.77009E+00  8.17995E+00  8.49680E+00  6.28776E+00  5.18862E+00  7.77514E+00  7.11677E+00
   8.22483E+00  8.43417E+00  6.31227E+00  6.94617E+00  8.21715E+00  8.95359E+00  8.60583E+00  7.95822E+00  5.28989E+00  7.46400E+00
   8.19864E+00  9.33593E+00  1.04318E+01  1.23056E+01  1.26436E+01  1.21288E+01  1.09784E+01  1.12807E+01  1.41320E+01  1.25733E+01
   1.12775E+01  1.32573E+01  1.38021E+01  1.37106E+01  1.24825E+01  1.44116E+01  1.54169E+01  1.43933E+01  1.32228E+01  1.48744E+01
   1.66300E+01  1.59486E+01  1.62779E+01  1.73845E+01  1.92110E+01  1.79554E+01  1.89702E+01  1.84536E+01  1.87368E+01  2.00813E+01
   2.02290E+01  2.10363E+01  2.12282E+01  2.17811E+01  2.26809E+01  2.25857E+01  2.46658E+01  2.41180E+01  2.40721E+01  2.48528E+01
   2.65428E+01  2.78050E+01  2.82893E+01  2.84555E+01  2.99355E+01  3.08523E+01  3.15580E+01  3.22563E+01  3.20112E+01  3.48468E+01
   3.61701E+01  3.67981E+01  3.53906E+01  3.75718E+01  4.05851E+01  4.02740E+01  4.06056E+01  4.17849E+01  4.36489E+01  4.60757E+01
   4.58716E+01  4.76307E+01  4.98853E+01  5.06734E+01  5.36518E+01  5.39721E+01  5.67653E+01  5.89244E+01  5.86432E+01  6.27970E+01
   6.46901E+01  6.74906E+01  7.06658E+01  7.16176E+01  7.48081E+01  7.72944E+01  8.11419E+01  8.15566E+01  8.31097E+01  8.55486E+01
   8.83055E+01  8.97548E+01  9.42418E+01  9.35588E+01  9.64385E+01  9.92309E+01  1.00725E+02  9.98451E+01  1.03199E+02  1.03116E+02
   1.02132E+02  1.03566E+02  1.04580E+02  1.05050E+02  1.07003E+02  1.06483E+02  1.06878E+02  1.05742E+02  1.06046E+02  1.06174E+02
   1.06428E+02  1.03214E+02  1.06102E+02  1.05725E+02  1.04409E+02  1.05829E+02  1.07600E+02  1.06345E+02  1.06241E+02  1.04525E+02
   1.04344E+02  1.05250E+02  1.02803E+02  1.02630E+02  1.02800E+02  1.02617E+02  1.00432E+02  9.99184E+01  9.93299E+01  9.65857E+01
   9.68913E+01  9.68618E+01  9.39215E+01  9.34507E+01  9.28442E+01  9.41683E+01  9.16285E+01  9.00894E+01  8.87393E+01  8.90536E+01
   8.80987E+01  8.47207E+01  8.56348E+01  8.31337E+01  8.18763E+01  8.01995E+01  7.89603E+01  7.75616E+01  7.67094E+01  7.34847E+01
   7.33621E+01  7.05575E+01  6.91749E+01  6.56432E+01  6.57729E+01  6.57623E+01  6.22156E+01  6.17776E+01  5.96654E+01  5.76027E+01
   5.77511E+01  5.65374E+01  5.30002E+01  5.24295E+01  5.08136E+01  5.04993E+01  4.71852E+01  4.70285E+01  4.64803E+01  4.45935E+01
   4.33008E+01  4.34005E+01  4.22689E+01  4.08587E+01  3.95732E+01  3.71812E+01  3.51111E+01  3.56080E+01  3.45762E+01  3.14491E+01
   3.06493E+01  3.07158E+01  3.05832E+01  2.80257E+01  2.76193E+01  2.52934E+01  2.49247E+01  2.36242E+01  2.14825E+01  2.33089E+01
   2.02688E+01  2.06969E+01  1.94199E+01  1.86399E+01  1.84211E+01  1.69574E+01  1.68182E+01  1.49356E+01  1.53473E+01  1.30946E+01
   1.33171E+01  1.38982E+01  1.25377E+01  1.04518E+01  1.13336E+01  1.05374E+01  1.02160E+01  1.03592E+01  1.06188E+01  7.80561E+00
   6.02909E+00  7.50011E+00  6.63613E+00  5.57900E+00  6.73665E+00  5.69330E+00  4.31742E+00  5.04208E+00  4.05328E+00  4.45810E+00
   2.75805E+00  2.40268E+00  3.69797E+00  3.09080E+00  1.90830E+00  2.35069E+00 -6.58341E-02  3.09002E+00  1.64699E+00  5.35188E-01
   1.84455E+00  3.57586E-01  1.08380E+00  3.81945E-02  2.10668E+00 -6.24706E-02 -8.40406E-01 -6.22959E-01 -3.65193E-01 -1.21007E+00
  -1.60161E+00 -1.82555E+00 -6.55145E-01 -5.50080E-01  1.00154E+00 -3.12096E-01 -2.34511E+00 -2.45540E+00 -1.12366E-01 -1.75654E+00
  -6.79630E-01 -2.79101E+00 -2.91763E+00 -2.72730E+00 -1.47733E+00 -3.19269E+00 -1.23376E+00 -1.56265E+00 -1.89001E+00 -2.58898E+00
  -3.56572E+00 -3.39773E+00 -4.09121E+00 -2.57895E+00 -1.68807E+00 -3.36617E+00 -2.53558E+00 -3.01378E+00
 NY points of the fit to the data follow
   8.98166E+00  9.04961E+00  8.97174E+00  9.03358E+00  8.97801E+00  9.04947E+00  9.03743E+00  9.15676E+00  9.23478E+00  9.27840E+00
   9.34185E+00  9.26872E+00  9.30189E+00  9.12291E+00  9.14304E+00  8.89308E+00  9.02329E+00  8.77702E+00  9.00046E+00  8.74014E+00
   8.99507E+00  8.68813E+00  8.96780E+00  8.57731E+00  8.84058E+00  8.39394E+00  8.66010E+00  8.22357E+00  8.52737E+00  8.15208E+00
   8.48869E+00  8.19226E+00  8.49394E+00  8.20756E+00  8.41976E+00  8.12869E+00  8.24606E+00  7.98234E+00  8.05012E+00  7.86015E+00
   7.91011E+00  7.78984E+00  7.83806E+00  7.79252E+00  7.81677E+00  7.81143E+00  7.80375E+00  7.82599E+00  7.81084E+00  7.76597E+00
   7.66794E+00  7.60264E+00  7.47860E+00  7.41924E+00  7.30480E+00  7.27038E+00  7.23986E+00  7.24958E+00  7.22337E+00  7.23339E+00
   7.19584E+00  7.19879E+00  7.17467E+00  7.15373E+00  7.12067E+00  7.09957E+00  7.06753E+00  7.04899E+00  7.02266E+00  7.00671E+00
   6.98440E+00  6.96908E+00  6.94909E+00  6.93285E+00  6.91465E+00  6.89638E+00  6.87786E+00  6.85725E+00  6.83912E+00  6.81716E+00
   6.80197E+00  6.78070E+00  6.76771E+00  6.74830E+00  6.74338E+00  6.75622E+00  6.76963E+00  6.79422E+00  6.81898E+00  6.84054E+00
   6.87198E+00  6.88522E+00  6.91994E+00  6.91977E+00  6.95514E+00  6.94573E+00  6.98202E+00  6.96721E+00  7.00470E+00  6.97940E+00
   7.01524E+00  6.97455E+00  7.00524E+00  6.94747E+00  6.97253E+00  6.90338E+00  6.92598E+00  6.86143E+00  6.91982E+00  6.92402E+00
   6.97987E+00  7.03195E+00  7.05388E+00  7.13204E+00  7.10688E+00  7.20488E+00  7.12815E+00  7.24406E+00  7.12744E+00  7.27045E+00
   7.12471E+00  7.30547E+00  7.13353E+00  7.34811E+00  7.15533E+00  7.40299E+00  7.19434E+00  7.42670E+00  7.20426E+00  7.41411E+00
   7.19369E+00  7.38719E+00  7.17538E+00  7.35385E+00  7.14662E+00  7.29670E+00  7.09206E+00  7.19657E+00  7.00391E+00  7.05622E+00
   6.89441E+00  6.90554E+00  6.78283E+00  6.76162E+00  6.68385E+00  6.64647E+00  6.61585E+00  6.58294E+00  6.60623E+00  6.61428E+00
   6.63997E+00  6.64776E+00  6.66581E+00  6.66909E+00  6.67611E+00  6.67265E+00  6.66731E+00  6.65344E+00  6.63221E+00  6.60937E+00
   6.57725E+00  6.54793E+00  6.50788E+00  6.46937E+00  6.42366E+00  6.37650E+00  6.32821E+00  6.27407E+00  6.22368E+00  6.16306E+00
   6.11543E+00  6.05554E+00  6.01481E+00  5.95918E+00  5.92692E+00  5.87525E+00  5.85264E+00  5.80583E+00  5.79393E+00  5.75379E+00
   5.74907E+00  5.71808E+00  5.71998E+00  5.69873E+00  5.70982E+00  5.70507E+00  5.73140E+00  5.74733E+00  5.78875E+00  5.80658E+00
   5.85631E+00  5.86864E+00  5.89597E+00  5.90610E+00  5.90684E+00  5.92968E+00  5.93946E+00  6.01829E+00  6.12289E+00  6.20913E+00
   6.37656E+00  6.41670E+00  6.59597E+00  6.53645E+00  6.64503E+00  6.47633E+00  6.56764E+00  6.37213E+00  6.49494E+00  6.32356E+00
   6.50612E+00  6.36603E+00  6.59768E+00  6.45874E+00  6.68779E+00  6.53652E+00  6.73431E+00  6.59673E+00  6.78578E+00  6.70662E+00
   6.92142E+00  6.91600E+00  7.15179E+00  7.18751E+00  7.40196E+00  7.42916E+00  7.60229E+00  7.62571E+00  7.76384E+00  7.80312E+00
   7.95163E+00  8.04004E+00  8.19384E+00  8.33093E+00  8.50688E+00  8.68549E+00  8.90387E+00  9.11047E+00  9.40038E+00  9.56741E+00
   9.84474E+00  9.98992E+00  1.03405E+01  1.05045E+01  1.08448E+01  1.10401E+01  1.14046E+01  1.16638E+01  1.20242E+01  1.23460E+01
   1.26825E+01  1.30564E+01  1.33658E+01  1.37797E+01  1.40495E+01  1.45110E+01  1.47339E+01  1.52357E+01  1.54054E+01  1.59384E+01
   1.60503E+01  1.66022E+01  1.66685E+01  1.72326E+01  1.73007E+01  1.78819E+01  1.80009E+01  1.86200E+01  1.87954E+01  1.94346E+01
   1.96673E+01  2.03154E+01  2.06000E+01  2.12578E+01  2.16384E+01  2.23415E+01  2.28447E+01  2.36065E+01  2.42438E+01  2.50714E+01
   2.58357E+01  2.67449E+01  2.76807E+01  2.86705E+01  2.96633E+01  3.06818E+01  3.17059E+01  3.27258E+01  3.37529E+01  3.47684E+01
   3.57870E+01  3.67917E+01  3.78006E+01  3.88007E+01  3.98105E+01  4.08286E+01  4.18691E+01  4.29344E+01  4.40381E+01  4.51888E+01
   4.63986E+01  4.76804E+01  4.90439E+01  5.05050E+01  5.20734E+01  5.37640E+01  5.55878E+01  5.75637E+01  5.97192E+01  6.21289E+01
   6.47850E+01  6.71948E+01  7.00579E+01  7.22697E+01  7.51704E+01  7.70886E+01  7.98696E+01  8.13856E+01  8.43801E+01  8.57831E+01
   8.89517E+01  9.02051E+01  9.33635E+01  9.43093E+01  9.72699E+01  9.78071E+01  1.00383E+02  1.00471E+02  1.02633E+02  1.02392E+02
   1.04239E+02  1.03830E+02  1.05437E+02  1.04911E+02  1.06246E+02  1.05578E+02  1.06536E+02  1.05744E+02  1.06311E+02  1.05531E+02
   1.05856E+02  1.05297E+02  1.05554E+02  1.05300E+02  1.05488E+02  1.05495E+02  1.05523E+02  1.05644E+02  1.05438E+02  1.05545E+02
   1.05170E+02  1.04861E+02  1.04099E+02  1.03473E+02  1.02466E+02  1.01608E+02  1.00466E+02  9.94711E+01  9.85674E+01  9.77040E+01
   9.68621E+01  9.60327E+01  9.52074E+01  9.43783E+01  9.35350E+01  9.26665E+01  9.17593E+01  9.08008E+01  8.97775E+01  8.86789E+01
   8.74958E+01  8.62236E+01  8.48609E+01  8.34118E+01  8.18838E+01  8.02895E+01  7.86436E+01  7.69641E+01  7.52686E+01  7.35754E+01
   7.19002E+01  7.02568E+01  6.86543E+01  6.70991E+01  6.55923E+01  6.41322E+01  6.27128E+01  6.13270E+01  5.99647E+01  5.86171E+01
   5.72742E+01  5.59290E+01  5.45750E+01  5.32095E+01  5.18309E+01  5.04415E+01  4.90442E+01  4.76449E+01  4.62494E+01  4.48651E+01
   4.34980E+01  4.21550E+01  4.08405E+01  3.95588E+01  3.83117E+01  3.71006E+01  3.59244E+01  3.47819E+01  3.36699E+01  3.25855E+01
   3.15245E+01  3.04838E+01  2.94591E+01  2.84480E+01  2.74473E+01  2.64558E+01  2.54717E+01  2.44953E+01  2.35263E+01  2.25662E+01
   2.16159E+01  2.06778E+01  1.97533E+01  1.88454E+01  1.79556E+01  1.70868E+01  1.62403E+01  1.54185E+01  1.46225E+01  1.38538E+01
   1.31130E+01  1.24011E+01  1.17179E+01  1.10638E+01  1.04382E+01  9.84109E+00  9.27122E+00  8.72839E+00  8.21107E+00  7.71885E+00
   7.25002E+00  6.80408E+00  6.37928E+00  5.97511E+00  5.58983E+00  5.22297E+00  4.87284E+00  4.53907E+00  4.22007E+00  3.91553E+00
   3.62398E+00  3.34522E+00  3.07785E+00  2.82179E+00  2.57574E+00  2.33971E+00  2.11247E+00  1.89411E+00  1.68351E+00  1.48080E+00
   1.28494E+00  1.09612E+00  9.13365E-01  7.36922E-01  5.65845E-01  4.00447E-01  2.39822E-01  8.43197E-02 -6.69281E-02 -2.13540E-01
  -3.56349E-01 -4.94945E-01 -6.30133E-01 -7.61479E-01 -8.89770E-01 -1.01454E+00 -1.13657E+00 -1.25537E+00 -1.37168E+00 -1.48503E+00
  -1.59613E+00 -1.70450E+00 -1.81083E+00 -1.91462E+00 -2.01658E+00 -2.11617E+00 -2.21410E+00 -2.30982E+00 -2.40403E+00 -2.49618E+00
  -2.58694E+00 -2.67577E+00 -2.76334E+00 -2.84909E+00 -2.93368E+00 -3.01654E+00 -3.09833E+00 -3.17847E+00
 NY background values follow
     7.845E+00    7.819E+00    7.793E+00    7.767E+00    7.741E+00    7.715E+00    7.689E+00    7.663E+00    7.637E+00    7.611E+00
     7.585E+00    7.559E+00    7.533E+00    7.507E+00    7.481E+00    7.455E+00    7.429E+00    7.404E+00    7.378E+00    7.352E+00
     7.326E+00    7.300E+00    7.274E+00    7.248E+00    7.222E+00    7.196E+00    7.170E+00    7.144E+00    7.118E+00    7.092E+00
     7.066E+00    7.041E+00    7.015E+00    6.989E+00    6.963E+00    6.937E+00    6.911E+00    6.885E+00    6.859E+00    6.833E+00
     6.807E+00    6.781E+00    6.755E+00    6.729E+00    6.704E+00    6.678E+00    6.652E+00    6.626E+00    6.600E+00    6.574E+00
     6.548E+00    6.522E+00    6.496E+00    6.470E+00    6.444E+00    6.418E+00    6.392E+00    6.366E+00    6.340E+00    6.314E+00
     6.288E+00    6.262E+00    6.236E+00    6.210E+00    6.184E+00    6.158E+00    6.132E+00    6.106E+00    6.080E+00    6.054E+00
     6.028E+00    6.002E+00    5.976E+00    5.949E+00    5.923E+00    5.897E+00    5.871E+00    5.845E+00    5.819E+00    5.793E+00
     5.766E+00    5.740E+00    5.714E+00    5.688E+00    5.662E+00    5.635E+00    5.609E+00    5.583E+00    5.557E+00    5.530E+00
     5.504E+00    5.478E+00    5.452E+00    5.425E+00    5.399E+00    5.373E+00    5.346E+00    5.320E+00    5.293E+00    5.267E+00
     5.241E+00    5.214E+00    5.188E+00    5.161E+00    5.135E+00    5.108E+00    5.082E+00    5.055E+00    5.029E+00    5.002E+00
     4.976E+00    4.949E+00    4.922E+00    4.896E+00    4.869E+00    4.842E+00    4.816E+00    4.789E+00    4.762E+00    4.736E+00
     4.709E+00    4.682E+00    4.655E+00    4.628E+00    4.602E+00    4.575E+00    4.548E+00    4.521E+00    4.494E+00    4.467E+00
     4.440E+00    4.413E+00    4.386E+00    4.359E+00    4.332E+00    4.305E+00    4.278E+00    4.251E+00    4.224E+00    4.197E+00
     4.170E+00    4.142E+00    4.115E+00    4.088E+00    4.061E+00    4.034E+00    4.006E+00    3.979E+00    3.952E+00    3.924E+00
     3.897E+00    3.870E+00    3.842E+00    3.815E+00    3.787E+00    3.760E+00    3.733E+00    3.705E+00    3.678E+00    3.650E+00
     3.623E+00    3.595E+00    3.567E+00    3.540E+00    3.512E+00    3.485E+00    3.457E+00    3.429E+00    3.402E+00    3.374E+00
     3.346E+00    3.319E+00    3.291E+00    3.263E+00    3.235E+00    3.208E+00    3.180E+00    3.152E+00    3.124E+00    3.096E+00
     3.068E+00    3.040E+00    3.012E+00    2.985E+00    2.957E+00    2.929E+00    2.901E+00    2.873E+00    2.845E+00    2.817E+00
     2.789E+00    2.760E+00    2.732E+00    2.704E+00    2.676E+00    2.648E+00    2.620E+00    2.592E+00    2.564E+00    2.535E+00
     2.507E+00    2.479E+00    2.451E+00    2.422E+00    2.394E+00    2.366E+00    2.337E+00    2.309E+00    2.281E+00    2.252E+00
     2.224E+00    2.196E+00    2.167E+00    2.139E+00    2.110E+00    2.082E+00    2.054E+00    2.025E+00    1.997E+00    1.968E+00
     1.940E+00    1.911E+00    1.882E+00    1.854E+00    1.825E+00    1.797E+00    1.768E+00    1.739E+00    1.711E+00    1.682E+00
     1.653E+00    1.625E+00    1.596E+00    1.567E+00    1.539E+00    1.510E+00    1.481E+00    1.452E+00    1.424E+00    1.395E+00
     1.366E+00    1.337E+00    1.308E+00    1.279E+00    1.250E+00    1.222E+00    1.193E+00    1.164E+00    1.135E+00    1.106E+00
     1.077E+00    1.048E+00    1.019E+00    9.900E-01    9.610E-01    9.320E-01    9.029E-01    8.739E-01    8.448E-01    8.158E-01
     7.867E-01    7.576E-01    7.285E-01    6.993E-01    6.702E-01    6.411E-01    6.119E-01    5.827E-01    5.535E-01    5.243E-01
     4.951E-01    4.659E-01    4.367E-01    4.074E-01    3.781E-01    3.489E-01    3.196E-01    2.903E-01    2.610E-01    2.316E-01
     2.023E-01    1.730E-01    1.436E-01    1.142E-01    8.485E-02    5.546E-02    2.605E-02   -3.366E-03   -3.279E-02   -6.224E-02
    -9.169E-02   -1.212E-01   -1.506E-01   -1.801E-01   -2.096E-01   -2.391E-01   -2.686E-01   -2.982E-01   -3.277E-01   -3.573E-01
    -3.868E-01   -4.164E-01   -4.460E-01   -4.756E-01   -5.052E-01   -5.348E-01   -5.644E-01   -5.941E-01   -6.237E-01   -6.534E-01
    -6.831E-01   -7.127E-01   -7.424E-01   -7.721E-01   -8.018E-01   -8.316E-01   -8.613E-01   -8.910E-01   -9.208E-01   -9.505E-01
    -9.803E-01   -1.010E+00   -1.040E+00   -1.070E+00   -1.100E+00   -1.129E+00   -1.159E+00   -1.189E+00   -1.219E+00   -1.249E+00
    -1.279E+00   -1.308E+00   -1.338E+00   -1.368E+00   -1.398E+00   -1.428E+00   -1.458E+00   -1.488E+00   -1.518E+00   -1.548E+00
    -1.578E+00   -1.608E+00   -1.638E+00   -1.668E+00   -1.698E+00   -1.728E+00   -1.758E+00   -1.788E+00   -1.818E+00   -1.848E+00
    -1.878E+00   -1.908E+00   -1.938E+00   -1.968E+00   -1.998E+00   -2.028E+00   -2.058E+00   -2.088E+00   -2.119E+00   -2.149E+00
    -2.179E+00   -2.209E+00   -2.239E+00   -2.269E+00   -2.299E+00   -2.330E+00   -2.360E+00   -2.390E+00   -2.420E+00   -2.450E+00
    -2.480E+00   -2.511E+00   -2.541E+00   -2.571E+00   -2.601E+00   -2.632E+00   -2.662E+00   -2.692E+00   -2.722E+00   -2.753E+00
    -2.783E+00   -2.813E+00   -2.843E+00   -2.874E+00   -2.904E+00   -2.934E+00   -2.965E+00   -2.995E+00   -3.025E+00   -3.056E+00
    -3.086E+00   -3.116E+00   -3.147E+00   -3.177E+00   -3.207E+00   -3.238E+00   -3.268E+00   -3.299E+00   -3.329E+00   -3.359E+00
    -3.390E+00   -3.420E+00   -3.451E+00   -3.481E+00   -3.511E+00   -3.542E+00   -3.572E+00   -3.603E+00   -3.633E+00   -3.664E+00
    -3.694E+00   -3.725E+00   -3.755E+00   -3.785E+00   -3.816E+00   -3.846E+00   -3.877E+00   -3.907E+00   -3.938E+00   -3.968E+00
    -3.999E+00   -4.029E+00   -4.060E+00   -4.090E+00   -4.121E+00   -4.151E+00   -4.182E+00   -4.212E+00   -4.243E+00   -4.274E+00
    -4.304E+00   -4.335E+00   -4.365E+00   -4.396E+00   -4.426E+00   -4.457E+00   -4.487E+00   -4.518E+00   -4.548E+00   -4.579E+00
    -4.610E+00   -4.640E+00   -4.671E+00   -4.701E+00   -4.732E+00   -4.763E+00   -4.793E+00   -4.824E+00   -4.854E+00   -4.885E+00
    -4.915E+00   -4.946E+00   -4.977E+00   -5.007E+00   -5.038E+00   -5.069E+00   -5.099E+00   -5.130E+00   -5.160E+00   -5.191E+00
    -5.222E+00   -5.252E+00   -5.283E+00   -5.313E+00   -5.344E+00   -5.375E+00   -5.405E+00   -5.436E+00   -5.467E+00   -5.497E+00
    -5.528E+00   -5.559E+00   -5.589E+00   -5.620E+00   -5.650E+00   -5.681E+00   -5.712E+00   -5.742E+00   -5.773E+00   -5.804E+00
    -5.834E+00   -5.865E+00   -5.896E+00   -5.926E+00   -5.957E+00   -5.988E+00   -6.018E+00   -6.049E+00   -6.079E+00   -6.110E+00
    -6.141E+00   -6.171E+00   -6.202E+00   -6.233E+00   -6.263E+00   -6.294E+00   -6.325E+00   -6.355E+00
 Ala      Conc. = 1.52E+03
