 LCModel (Version 6.3-1L) Copyright: S.W. Provencher.          Ref.: Magn. Reson. Med. 30:672-679 (1993).                
 Slice#2 Row#5 Col#13  K_02_press_1_raw_act
 36 lines in following concentration table = NCONC+1
    Conc.  %SD /Cr+PCr  Metabolite                                         
    0.000 999%   0.000 Ala                                                 
  100.037 101%   0.317 Asp                                                 
  315.116 300%   1.000 Cr                                                  
    0.000 999%   0.000 PCr                                                 
   46.191 133%   0.147 GABA                                                
   60.068 102%   0.191 Glc                                                 
    0.000 999%   0.000 Gln                                                 
 2.38E+03  58%   7.564 Glu                                                 
    0.000 999%   0.000 GPC                                                 
  141.371  31%   0.449 PCh                                                 
   51.553 348%   0.164 GSH                                                 
  999.516  51%   3.172 Ins                                                 
 1.25E+04  33%  39.622 Lac                                                 
  384.663  87%   1.221 NAA                                                 
  539.712  58%   1.713 NAAG                                                
   26.180  74% 8.3E-02 Scyllo                                              
  126.719  78%   0.402 Tau                                                 
   99.067  75%   0.314 -CrCH2                                              
  141.371  31%   0.449 GPC+PCh                                             
  924.376  16%   2.933 NAA+NAAG                                            
  315.116  32%   1.000 Cr+PCr                                              
 2.38E+03  58%   7.564 Glu+Gln                                             
 6.37E+04  10% 202.173 Lip13a                                              
 1.43E+03  43%   4.527 Lip13b                                              
 1.57E+04  12%  49.930 Lip09                                               
 1.29E+04  16%  40.836 MM09                                                
 5.88E+03  19%  18.646-Lip20                                               
    0.000 999%   0.000-MM20                                                
 7.24E+03  20%  22.979 MM12                                                
 5.48E+04  11% 173.874+MM14                                                
 2.54E+04  14%  80.531+MM17                                                
 6.51E+04  10% 206.700 Lip13a+Lip13b                                       
 1.27E+05   4% 403.554 MM14+Lip13a+Lip13b+MM12                             
 2.86E+04   7%  90.766 MM09+Lip09                                          
 5.88E+03  19%  18.646 MM20+Lip20                                          
   6 lines in following misc. output table
  FWHM = 0.168 ppm    S/N =  67                                            
  Data shift = 0.084 ppm                                                   
  Ph: -14 deg     -14.9 deg/ppm                                            
  alphaB,S = 8.5E+01,   8.2E+02                                            
    6 spline knots.   Ns = 9(2)                                            
   2 inflections.     1 extrema                                            
  498 points on ppm-axis = NY
      4.000000     3.992357     3.984714     3.977070     3.969427     3.961784     3.954141     3.946497     3.938854     3.931211
      3.923568     3.915925     3.908281     3.900638     3.892995     3.885352     3.877708     3.870065     3.862422     3.854779
      3.847136     3.839492     3.831849     3.824206     3.816563     3.808919     3.801276     3.793633     3.785990     3.778347
      3.770703     3.763060     3.755417     3.747774     3.740130     3.732487     3.724844     3.717201     3.709558     3.701914
      3.694271     3.686628     3.678985     3.671341     3.663698     3.656055     3.648412     3.640769     3.633125     3.625482
      3.617839     3.610196     3.602552     3.594909     3.587266     3.579623     3.571980     3.564336     3.556693     3.549050
      3.541407     3.533763     3.526120     3.518477     3.510834     3.503191     3.495547     3.487904     3.480261     3.472618
      3.464974     3.457331     3.449688     3.442045     3.434402     3.426758     3.419115     3.411472     3.403829     3.396185
      3.388542     3.380899     3.373256     3.365613     3.357969     3.350326     3.342683     3.335040     3.327396     3.319753
      3.312110     3.304467     3.296824     3.289180     3.281537     3.273894     3.266251     3.258607     3.250964     3.243321
      3.235678     3.228034     3.220391     3.212748     3.205105     3.197462     3.189818     3.182175     3.174532     3.166889
      3.159245     3.151602     3.143959     3.136316     3.128673     3.121029     3.113386     3.105743     3.098100     3.090456
      3.082813     3.075170     3.067527     3.059884     3.052240     3.044597     3.036954     3.029311     3.021667     3.014024
      3.006381     2.998738     2.991095     2.983451     2.975808     2.968165     2.960522     2.952878     2.945235     2.937592
      2.929949     2.922306     2.914662     2.907019     2.899376     2.891733     2.884089     2.876446     2.868803     2.861160
      2.853517     2.845873     2.838230     2.830587     2.822944     2.815300     2.807657     2.800014     2.792371     2.784728
      2.777084     2.769441     2.761798     2.754155     2.746511     2.738868     2.731225     2.723582     2.715939     2.708295
      2.700652     2.693009     2.685366     2.677722     2.670079     2.662436     2.654793     2.647150     2.639506     2.631863
      2.624220     2.616577     2.608933     2.601290     2.593647     2.586004     2.578361     2.570717     2.563074     2.555431
      2.547788     2.540144     2.532501     2.524858     2.517215     2.509572     2.501928     2.494285     2.486642     2.478999
      2.471355     2.463712     2.456069     2.448426     2.440783     2.433139     2.425496     2.417853     2.410210     2.402566
      2.394923     2.387280     2.379637     2.371994     2.364350     2.356707     2.349064     2.341421     2.333777     2.326134
      2.318491     2.310848     2.303205     2.295561     2.287918     2.280275     2.272632     2.264988     2.257345     2.249702
      2.242059     2.234416     2.226772     2.219129     2.211486     2.203843     2.196199     2.188556     2.180913     2.173270
      2.165627     2.157983     2.150340     2.142697     2.135054     2.127410     2.119767     2.112124     2.104481     2.096838
      2.089194     2.081551     2.073908     2.066265     2.058621     2.050978     2.043335     2.035692     2.028049     2.020405
      2.012762     2.005119     1.997476     1.989833     1.982190     1.974546     1.966903     1.959260     1.951617     1.943974
      1.936331     1.928688     1.921045     1.913402     1.905759     1.898115     1.890472     1.882829     1.875186     1.867543
      1.859900     1.852257     1.844614     1.836971     1.829327     1.821684     1.814041     1.806398     1.798755     1.791112
      1.783469     1.775826     1.768183     1.760540     1.752896     1.745253     1.737610     1.729967     1.722324     1.714681
      1.707038     1.699395     1.691752     1.684108     1.676465     1.668822     1.661179     1.653536     1.645893     1.638250
      1.630607     1.622964     1.615321     1.607677     1.600034     1.592391     1.584748     1.577105     1.569462     1.561819
      1.554176     1.546533     1.538890     1.531246     1.523603     1.515960     1.508317     1.500674     1.493031     1.485388
      1.477745     1.470102     1.462458     1.454815     1.447172     1.439529     1.431886     1.424243     1.416600     1.408957
      1.401314     1.393671     1.386027     1.378384     1.370741     1.363098     1.355455     1.347812     1.340169     1.332526
      1.324883     1.317240     1.309596     1.301953     1.294310     1.286667     1.279024     1.271381     1.263738     1.256095
      1.248452     1.240808     1.233165     1.225522     1.217879     1.210236     1.202593     1.194950     1.187307     1.179664
      1.172021     1.164377     1.156734     1.149091     1.141448     1.133805     1.126162     1.118519     1.110876     1.103233
      1.095590     1.087946     1.080303     1.072660     1.065017     1.057374     1.049731     1.042088     1.034445     1.026802
      1.019158     1.011515     1.003872     0.996229     0.988586     0.980943     0.973300     0.965657     0.958014     0.950371
      0.942727     0.935084     0.927441     0.919798     0.912155     0.904512     0.896869     0.889226     0.881583     0.873940
      0.866296     0.858653     0.851010     0.843367     0.835724     0.828081     0.820438     0.812795     0.805152     0.797508
      0.789865     0.782222     0.774579     0.766936     0.759293     0.751650     0.744007     0.736364     0.728721     0.721077
      0.713434     0.705791     0.698148     0.690505     0.682862     0.675219     0.667576     0.659933     0.652290     0.644646
      0.637003     0.629360     0.621717     0.614074     0.606431     0.598788     0.591145     0.583502     0.575858     0.568215
      0.560572     0.552929     0.545286     0.537643     0.530000     0.522357     0.514714     0.507071     0.499427     0.491784
      0.484141     0.476498     0.468855     0.461212     0.453569     0.445925     0.438282     0.430639     0.422996     0.415353
      0.407710     0.400067     0.392424     0.384780     0.377137     0.369494     0.361851     0.354208     0.346565     0.338922
      0.331278     0.323635     0.315992     0.308349     0.300706     0.293063     0.285420     0.277777     0.270133     0.262490
      0.254847     0.247204     0.239561     0.231918     0.224275     0.216631     0.208988     0.201345
 NY phased data points follow
   2.74039E+01  2.98419E+01  2.77375E+01  2.93241E+01  3.12425E+01  2.67849E+01  2.87952E+01  2.88482E+01  2.82970E+01  2.70419E+01
   2.59252E+01  2.95162E+01  3.05544E+01  2.86371E+01  3.10460E+01  2.94737E+01  2.62900E+01  2.95877E+01  3.00673E+01  3.12005E+01
   3.14489E+01  2.99823E+01  3.01372E+01  2.70882E+01  2.95920E+01  2.91025E+01  3.08148E+01  3.21288E+01  3.23594E+01  3.10948E+01
   3.30247E+01  3.08030E+01  3.15752E+01  3.07745E+01  3.27390E+01  3.00499E+01  3.14235E+01  3.11145E+01  3.06643E+01  3.16391E+01
   2.94728E+01  3.12866E+01  3.11017E+01  3.03467E+01  2.84635E+01  2.84429E+01  3.54641E+01  3.03106E+01  3.15847E+01  3.09403E+01
   3.19307E+01  2.81905E+01  3.11356E+01  3.13979E+01  3.31132E+01  3.27491E+01  3.01043E+01  2.78249E+01  3.68699E+01  2.85274E+01
   3.38001E+01  3.23435E+01  3.48909E+01  3.09492E+01  3.38587E+01  3.21157E+01  2.74779E+01  3.10515E+01  3.12779E+01  3.12950E+01
   3.13856E+01  2.79542E+01  3.12821E+01  3.00544E+01  2.90258E+01  2.82349E+01  3.29926E+01  2.79558E+01  3.00145E+01  3.25937E+01
   3.00551E+01  3.08377E+01  3.05562E+01  3.03656E+01  3.15847E+01  3.04911E+01  3.00044E+01  3.07707E+01  3.19283E+01  3.16544E+01
   3.48503E+01  3.34867E+01  3.30957E+01  3.19320E+01  3.13876E+01  3.23033E+01  2.95834E+01  3.09852E+01  3.18534E+01  3.23935E+01
   3.44752E+01  3.25457E+01  3.14252E+01  3.28826E+01  3.30808E+01  3.38475E+01  3.29779E+01  3.28431E+01  3.20199E+01  3.29796E+01
   3.40327E+01  3.60902E+01  3.06268E+01  3.60034E+01  3.63974E+01  3.58881E+01  3.62287E+01  3.55240E+01  3.43414E+01  3.36567E+01
   3.17197E+01  3.09988E+01  3.47540E+01  3.25195E+01  3.26177E+01  3.76031E+01  3.33105E+01  3.81877E+01  3.54759E+01  3.82853E+01
   3.60660E+01  3.40104E+01  3.57184E+01  3.76406E+01  3.60688E+01  3.50576E+01  3.26767E+01  3.57672E+01  3.65172E+01  3.25234E+01
   3.36198E+01  3.25373E+01  3.22009E+01  3.71718E+01  3.63849E+01  3.64062E+01  3.75183E+01  3.51878E+01  3.56604E+01  3.36398E+01
   3.58301E+01  3.23517E+01  3.57292E+01  3.40222E+01  3.45943E+01  3.67427E+01  3.65163E+01  3.41590E+01  3.58759E+01  3.55064E+01
   3.21548E+01  3.64541E+01  3.24744E+01  3.35793E+01  3.56865E+01  3.34794E+01  3.64671E+01  3.70137E+01  3.52938E+01  3.29869E+01
   3.48656E+01  3.44461E+01  3.62980E+01  3.62560E+01  3.69447E+01  3.40073E+01  3.64049E+01  3.63258E+01  3.67093E+01  3.56448E+01
   3.61972E+01  3.73788E+01  3.61352E+01  3.55016E+01  3.40360E+01  3.17086E+01  3.28301E+01  3.46045E+01  3.42287E+01  3.13823E+01
   3.30591E+01  3.35144E+01  3.76861E+01  4.07898E+01  3.58865E+01  3.57199E+01  3.93100E+01  3.73740E+01  3.71704E+01  3.77340E+01
   3.69222E+01  3.83075E+01  3.71695E+01  3.69558E+01  3.72578E+01  3.91251E+01  4.02258E+01  3.92790E+01  3.91350E+01  4.18752E+01
   3.95303E+01  3.99254E+01  3.83639E+01  3.97770E+01  3.92022E+01  3.98272E+01  4.28250E+01  4.17896E+01  4.07029E+01  4.21658E+01
   4.13088E+01  4.19967E+01  4.24310E+01  4.10748E+01  4.14482E+01  4.27437E+01  4.27618E+01  4.35739E+01  4.68308E+01  4.23803E+01
   4.55082E+01  4.59559E+01  4.68594E+01  4.44734E+01  4.83282E+01  4.62805E+01  4.76951E+01  4.90786E+01  4.88097E+01  4.79902E+01
   5.00275E+01  4.91757E+01  5.54629E+01  5.47630E+01  5.40774E+01  5.54071E+01  5.42804E+01  6.06070E+01  6.90097E+01  7.15800E+01
   7.51554E+01  7.53912E+01  7.39429E+01  7.39270E+01  7.14710E+01  7.36755E+01  7.06596E+01  7.38933E+01  7.13134E+01  7.69840E+01
   7.51210E+01  7.53713E+01  7.24198E+01  7.42499E+01  7.30013E+01  7.70028E+01  7.59819E+01  7.80362E+01  7.88705E+01  8.34601E+01
   8.42408E+01  8.26369E+01  8.49531E+01  8.60782E+01  9.18436E+01  8.98071E+01  9.21318E+01  9.22356E+01  9.73753E+01  9.76426E+01
   9.69373E+01  1.02614E+02  1.05049E+02  1.08906E+02  1.10682E+02  1.13258E+02  1.17100E+02  1.18948E+02  1.20717E+02  1.25465E+02
   1.28143E+02  1.32083E+02  1.38162E+02  1.36874E+02  1.42623E+02  1.47543E+02  1.49148E+02  1.57865E+02  1.63368E+02  1.66346E+02
   1.74558E+02  1.79318E+02  1.85973E+02  1.92885E+02  1.97322E+02  2.02609E+02  2.09588E+02  2.18132E+02  2.26768E+02  2.36725E+02
   2.43026E+02  2.51991E+02  2.57350E+02  2.67151E+02  2.78175E+02  2.88282E+02  3.01874E+02  3.09011E+02  3.21851E+02  3.38599E+02
   3.49138E+02  3.64670E+02  3.72176E+02  3.86848E+02  3.95613E+02  4.07758E+02  4.19423E+02  4.29561E+02  4.39427E+02  4.47475E+02
   4.58069E+02  4.67776E+02  4.75731E+02  4.87241E+02  4.92426E+02  4.98848E+02  5.06011E+02  5.09133E+02  5.10916E+02  5.10626E+02
   5.10738E+02  5.07762E+02  4.98347E+02  4.94382E+02  4.87307E+02  4.76200E+02  4.61348E+02  4.51511E+02  4.41620E+02  4.30151E+02
   4.18132E+02  4.04458E+02  3.91776E+02  3.81150E+02  3.67036E+02  3.53631E+02  3.41635E+02  3.33572E+02  3.22719E+02  3.13484E+02
   3.02844E+02  2.94148E+02  2.84894E+02  2.78603E+02  2.73794E+02  2.64897E+02  2.58323E+02  2.53181E+02  2.45647E+02  2.39683E+02
   2.34232E+02  2.34365E+02  2.25116E+02  2.24690E+02  2.17263E+02  2.08289E+02  2.06782E+02  2.00217E+02  1.96699E+02  1.93055E+02
   1.92239E+02  1.85950E+02  1.79855E+02  1.78496E+02  1.71765E+02  1.69251E+02  1.66762E+02  1.64468E+02  1.61796E+02  1.58043E+02
   1.53658E+02  1.51297E+02  1.47413E+02  1.41441E+02  1.41247E+02  1.36778E+02  1.35222E+02  1.32765E+02  1.29242E+02  1.24771E+02
   1.22779E+02  1.19281E+02  1.19758E+02  1.16113E+02  1.12505E+02  1.11766E+02  1.10056E+02  1.04636E+02  1.02761E+02  1.01624E+02
   9.83969E+01  9.54521E+01  9.54772E+01  9.06318E+01  8.90916E+01  8.92213E+01  8.46626E+01  8.31448E+01  8.29942E+01  7.95194E+01
   7.87079E+01  7.69972E+01  7.62579E+01  7.28701E+01  6.98082E+01  6.91233E+01  7.01744E+01  6.53757E+01  6.61180E+01  6.43632E+01
   6.38717E+01  6.30279E+01  6.30542E+01  6.09843E+01  5.78293E+01  5.82755E+01  5.61057E+01  5.47084E+01  5.49142E+01  5.41871E+01
   5.12476E+01  5.06751E+01  5.05864E+01  5.23656E+01  4.46411E+01  4.81565E+01  4.64854E+01  4.63452E+01  4.64887E+01  4.86033E+01
   4.36075E+01  4.53015E+01  4.01820E+01  4.11962E+01  4.24471E+01  4.18891E+01  4.29458E+01  4.35918E+01  3.99950E+01  3.70638E+01
   3.95579E+01  3.92373E+01  3.53483E+01  3.65517E+01  3.66979E+01  3.82912E+01  3.73847E+01  3.55496E+01  3.18204E+01  3.40743E+01
   3.39924E+01  3.50385E+01  3.49495E+01  3.12209E+01  3.20305E+01  3.19730E+01  3.07524E+01  3.31478E+01  3.04295E+01  3.28943E+01
   3.24065E+01  2.80836E+01  2.86198E+01  3.11528E+01  3.06315E+01  2.72702E+01  2.95493E+01  2.88482E+01  3.11464E+01  2.93806E+01
   2.81241E+01  2.94616E+01  2.65241E+01  3.13214E+01  2.63693E+01  2.38900E+01  2.82793E+01  2.49937E+01
 NY points of the fit to the data follow
   2.79809E+01  3.03372E+01  2.85783E+01  3.05623E+01  2.93174E+01  3.09684E+01  2.98094E+01  3.07571E+01  2.98156E+01  3.02080E+01
   2.94571E+01  2.95262E+01  2.90656E+01  2.94396E+01  2.93469E+01  2.97928E+01  2.98671E+01  3.02691E+01  3.03366E+01  3.06004E+01
   3.04228E+01  3.06715E+01  3.04282E+01  3.07019E+01  3.04213E+01  3.07079E+01  3.04042E+01  3.06803E+01  3.03717E+01  3.06598E+01
   3.04053E+01  3.06968E+01  3.05289E+01  3.08622E+01  3.07766E+01  3.10598E+01  3.10352E+01  3.12474E+01  3.12688E+01  3.13894E+01
   3.14284E+01  3.14564E+01  3.15125E+01  3.14601E+01  3.15353E+01  3.14120E+01  3.15094E+01  3.13383E+01  3.14543E+01  3.12489E+01
   3.13197E+01  3.11009E+01  3.11715E+01  3.09622E+01  3.10691E+01  3.08932E+01  3.10133E+01  3.08304E+01  3.09072E+01  3.07067E+01
   3.07603E+01  3.05502E+01  3.06391E+01  3.04521E+01  3.05669E+01  3.03908E+01  3.05243E+01  3.03704E+01  3.05445E+01  3.04251E+01
   3.06282E+01  3.04735E+01  3.06357E+01  3.04250E+01  3.05636E+01  3.03110E+01  3.04364E+01  3.01516E+01  3.02766E+01  2.99742E+01
   3.00951E+01  2.98013E+01  2.99279E+01  2.96541E+01  2.98151E+01  2.97089E+01  2.99061E+01  2.99515E+01  3.01685E+01  3.03635E+01
   3.05883E+01  3.09188E+01  3.11370E+01  3.15635E+01  3.17686E+01  3.22407E+01  3.24012E+01  3.28549E+01  3.29534E+01  3.33266E+01
   3.33484E+01  3.36166E+01  3.35662E+01  3.37342E+01  3.36308E+01  3.37122E+01  3.35718E+01  3.35680E+01  3.34469E+01  3.34598E+01
   3.33361E+01  3.33664E+01  3.32444E+01  3.33283E+01  3.32107E+01  3.33811E+01  3.32611E+01  3.35296E+01  3.33956E+01  3.37554E+01
   3.35819E+01  3.40007E+01  3.37864E+01  3.42624E+01  3.40447E+01  3.46300E+01  3.43955E+01  3.49228E+01  3.46637E+01  3.51225E+01
   3.48549E+01  3.52320E+01  3.49689E+01  3.52572E+01  3.50125E+01  3.52071E+01  3.49917E+01  3.50976E+01  3.49300E+01  3.49687E+01
   3.48649E+01  3.48648E+01  3.48245E+01  3.48041E+01  3.48250E+01  3.48010E+01  3.48847E+01  3.49004E+01  3.50513E+01  3.51740E+01
   3.53233E+01  3.54334E+01  3.55444E+01  3.56361E+01  3.57080E+01  3.57780E+01  3.58100E+01  3.58465E+01  3.58318E+01  3.58381E+01
   3.57868E+01  3.57688E+01  3.56884E+01  3.56426E+01  3.55353E+01  3.54613E+01  3.53464E+01  3.52532E+01  3.51404E+01  3.50302E+01
   3.49311E+01  3.48170E+01  3.47456E+01  3.46398E+01  3.46082E+01  3.45155E+01  3.45213E+01  3.44457E+01  3.44936E+01  3.44463E+01
   3.45271E+01  3.45160E+01  3.46200E+01  3.46392E+01  3.47637E+01  3.48223E+01  3.49732E+01  3.50788E+01  3.52597E+01  3.53875E+01
   3.55865E+01  3.57196E+01  3.58873E+01  3.60239E+01  3.61505E+01  3.62990E+01  3.64081E+01  3.66278E+01  3.68450E+01  3.71100E+01
   3.74190E+01  3.76811E+01  3.80554E+01  3.82298E+01  3.85721E+01  3.85878E+01  3.89629E+01  3.88706E+01  3.92690E+01  3.90950E+01
   3.94907E+01  3.92825E+01  3.96601E+01  3.94623E+01  3.98341E+01  3.97245E+01  4.01345E+01  4.01887E+01  4.06745E+01  4.09096E+01
   4.14394E+01  4.18308E+01  4.23443E+01  4.28341E+01  4.32816E+01  4.38286E+01  4.42566E+01  4.48791E+01  4.53279E+01  4.59888E+01
   4.64841E+01  4.71545E+01  4.76703E+01  4.82972E+01  4.88814E+01  4.94799E+01  5.02284E+01  5.08729E+01  5.20239E+01  5.26264E+01
   5.39566E+01  5.44934E+01  5.60528E+01  5.66085E+01  5.82850E+01  5.89306E+01  6.07928E+01  6.16438E+01  6.35551E+01  6.45898E+01
   6.63822E+01  6.75344E+01  6.90463E+01  7.02466E+01  7.13673E+01  7.26039E+01  7.33263E+01  7.45862E+01  7.49498E+01  7.62056E+01
   7.62458E+01  7.74829E+01  7.72659E+01  7.84674E+01  7.80947E+01  7.92732E+01  7.88953E+01  8.01127E+01  7.98439E+01  8.11165E+01
   8.10748E+01  8.24415E+01  8.27153E+01  8.42262E+01  8.49346E+01  8.67001E+01  8.79716E+01  9.00679E+01  9.20215E+01  9.44142E+01
   9.68502E+01  9.95496E+01  1.02510E+02  1.05568E+02  1.08855E+02  1.12174E+02  1.15737E+02  1.19271E+02  1.23037E+02  1.26759E+02
   1.30680E+02  1.34550E+02  1.38588E+02  1.42586E+02  1.46734E+02  1.50874E+02  1.55165E+02  1.59489E+02  1.63981E+02  1.68570E+02
   1.73373E+02  1.78360E+02  1.83628E+02  1.89181E+02  1.95099E+02  2.01406E+02  2.08158E+02  2.15383E+02  2.23116E+02  2.31375E+02
   2.40167E+02  2.49488E+02  2.59315E+02  2.69620E+02  2.80348E+02  2.91444E+02  3.02831E+02  3.14433E+02  3.26161E+02  3.37936E+02
   3.49670E+02  3.61297E+02  3.72752E+02  3.83997E+02  3.95005E+02  4.05787E+02  4.16386E+02  4.26929E+02  4.37736E+02  4.49251E+02
   4.59338E+02  4.70155E+02  4.78841E+02  4.87961E+02  4.94500E+02  5.00612E+02  5.04115E+02  5.08162E+02  5.08880E+02  5.10188E+02
   5.07614E+02  5.05536E+02  4.99501E+02  4.94028E+02  4.84875E+02  4.76564E+02  4.65012E+02  4.54767E+02  4.41753E+02  4.30333E+02
   4.16715E+02  4.04636E+02  3.91276E+02  3.79176E+02  3.66710E+02  3.55096E+02  3.43813E+02  3.33011E+02  3.22876E+02  3.12809E+02
   3.03627E+02  2.94276E+02  2.86084E+02  2.77597E+02  2.70582E+02  2.63197E+02  2.57607E+02  2.51716E+02  2.47416E+02  2.42945E+02
   2.38283E+02  2.32657E+02  2.27596E+02  2.21227E+02  2.15853E+02  2.09423E+02  2.04208E+02  1.99741E+02  1.95682E+02  1.91898E+02
   1.88307E+02  1.84860E+02  1.81507E+02  1.78216E+02  1.74951E+02  1.71687E+02  1.68401E+02  1.65082E+02  1.61720E+02  1.58320E+02
   1.54885E+02  1.51431E+02  1.47973E+02  1.44533E+02  1.41127E+02  1.37779E+02  1.34502E+02  1.31317E+02  1.28229E+02  1.25252E+02
   1.22384E+02  1.19631E+02  1.16985E+02  1.14446E+02  1.12001E+02  1.09646E+02  1.07367E+02  1.05159E+02  1.03008E+02  1.00909E+02
   9.88509E+01  9.68303E+01  9.48376E+01  9.28729E+01  9.09290E+01  8.90081E+01  8.71054E+01  8.52253E+01  8.33643E+01  8.15282E+01
   7.97147E+01  7.79303E+01  7.61731E+01  7.44500E+01  7.27589E+01  7.11065E+01  6.94905E+01  6.79171E+01  6.63835E+01  6.48955E+01
   6.34495E+01  6.20507E+01  6.06950E+01  5.93869E+01  5.81219E+01  5.69041E+01  5.57285E+01  5.45986E+01  5.35093E+01  5.24639E+01
   5.14569E+01  5.04915E+01  4.95620E+01  4.86715E+01  4.78142E+01  4.69933E+01  4.62029E+01  4.54462E+01  4.47174E+01  4.40197E+01
   4.33472E+01  4.27034E+01  4.20825E+01  4.14878E+01  4.09137E+01  4.03637E+01  3.98323E+01  3.93230E+01  3.88304E+01  3.83581E+01
   3.79007E+01  3.74619E+01  3.70365E+01  3.66282E+01  3.62319E+01  3.58514E+01  3.54815E+01  3.51262E+01  3.47805E+01  3.44482E+01
   3.41245E+01  3.38132E+01  3.35094E+01  3.32173E+01  3.29319E+01  3.26573E+01  3.23887E+01  3.21302E+01  3.18769E+01  3.16331E+01
   3.13940E+01  3.11638E+01  3.09376E+01  3.07199E+01  3.05057E+01  3.02994E+01  3.00963E+01  2.99007E+01  2.97078E+01  2.95220E+01
   2.93387E+01  2.91621E+01  2.89876E+01  2.88196E+01  2.86535E+01  2.84936E+01  2.83354E+01  2.81833E+01
 NY background values follow
     2.449E+01    2.451E+01    2.452E+01    2.453E+01    2.454E+01    2.455E+01    2.456E+01    2.457E+01    2.458E+01    2.459E+01
     2.460E+01    2.461E+01    2.462E+01    2.463E+01    2.464E+01    2.465E+01    2.466E+01    2.467E+01    2.468E+01    2.469E+01
     2.470E+01    2.471E+01    2.472E+01    2.473E+01    2.474E+01    2.475E+01    2.476E+01    2.476E+01    2.477E+01    2.478E+01
     2.479E+01    2.480E+01    2.481E+01    2.482E+01    2.483E+01    2.483E+01    2.484E+01    2.485E+01    2.486E+01    2.487E+01
     2.487E+01    2.488E+01    2.489E+01    2.490E+01    2.490E+01    2.491E+01    2.492E+01    2.493E+01    2.493E+01    2.494E+01
     2.495E+01    2.496E+01    2.496E+01    2.497E+01    2.498E+01    2.498E+01    2.499E+01    2.500E+01    2.500E+01    2.501E+01
     2.502E+01    2.502E+01    2.503E+01    2.503E+01    2.504E+01    2.505E+01    2.505E+01    2.506E+01    2.506E+01    2.507E+01
     2.507E+01    2.508E+01    2.508E+01    2.509E+01    2.510E+01    2.510E+01    2.511E+01    2.511E+01    2.511E+01    2.512E+01
     2.512E+01    2.513E+01    2.513E+01    2.514E+01    2.514E+01    2.515E+01    2.515E+01    2.515E+01    2.516E+01    2.516E+01
     2.517E+01    2.517E+01    2.517E+01    2.518E+01    2.518E+01    2.518E+01    2.519E+01    2.519E+01    2.519E+01    2.520E+01
     2.520E+01    2.520E+01    2.521E+01    2.521E+01    2.521E+01    2.521E+01    2.522E+01    2.522E+01    2.522E+01    2.522E+01
     2.523E+01    2.523E+01    2.523E+01    2.523E+01    2.523E+01    2.523E+01    2.524E+01    2.524E+01    2.524E+01    2.524E+01
     2.524E+01    2.524E+01    2.524E+01    2.525E+01    2.525E+01    2.525E+01    2.525E+01    2.525E+01    2.525E+01    2.525E+01
     2.525E+01    2.525E+01    2.525E+01    2.525E+01    2.525E+01    2.525E+01    2.525E+01    2.525E+01    2.525E+01    2.525E+01
     2.525E+01    2.525E+01    2.525E+01    2.525E+01    2.525E+01    2.525E+01    2.525E+01    2.524E+01    2.524E+01    2.524E+01
     2.524E+01    2.524E+01    2.524E+01    2.524E+01    2.523E+01    2.523E+01    2.523E+01    2.523E+01    2.523E+01    2.522E+01
     2.522E+01    2.522E+01    2.522E+01    2.522E+01    2.521E+01    2.521E+01    2.521E+01    2.521E+01    2.520E+01    2.520E+01
     2.520E+01    2.519E+01    2.519E+01    2.519E+01    2.518E+01    2.518E+01    2.518E+01    2.517E+01    2.517E+01    2.516E+01
     2.516E+01    2.516E+01    2.515E+01    2.515E+01    2.514E+01    2.514E+01    2.514E+01    2.513E+01    2.513E+01    2.512E+01
     2.512E+01    2.511E+01    2.511E+01    2.510E+01    2.510E+01    2.509E+01    2.509E+01    2.508E+01    2.508E+01    2.507E+01
     2.507E+01    2.506E+01    2.505E+01    2.505E+01    2.504E+01    2.504E+01    2.503E+01    2.502E+01    2.502E+01    2.501E+01
     2.500E+01    2.500E+01    2.499E+01    2.498E+01    2.498E+01    2.497E+01    2.496E+01    2.496E+01    2.495E+01    2.494E+01
     2.494E+01    2.493E+01    2.492E+01    2.491E+01    2.491E+01    2.490E+01    2.489E+01    2.488E+01    2.488E+01    2.487E+01
     2.486E+01    2.485E+01    2.484E+01    2.484E+01    2.483E+01    2.482E+01    2.481E+01    2.480E+01    2.479E+01    2.478E+01
     2.478E+01    2.477E+01    2.476E+01    2.475E+01    2.474E+01    2.473E+01    2.472E+01    2.471E+01    2.470E+01    2.469E+01
     2.468E+01    2.467E+01    2.467E+01    2.466E+01    2.465E+01    2.464E+01    2.463E+01    2.462E+01    2.461E+01    2.460E+01
     2.459E+01    2.458E+01    2.456E+01    2.455E+01    2.454E+01    2.453E+01    2.452E+01    2.451E+01    2.450E+01    2.449E+01
     2.448E+01    2.447E+01    2.446E+01    2.445E+01    2.443E+01    2.442E+01    2.441E+01    2.440E+01    2.439E+01    2.438E+01
     2.437E+01    2.435E+01    2.434E+01    2.433E+01    2.432E+01    2.431E+01    2.429E+01    2.428E+01    2.427E+01    2.426E+01
     2.425E+01    2.423E+01    2.422E+01    2.421E+01    2.420E+01    2.418E+01    2.417E+01    2.416E+01    2.415E+01    2.413E+01
     2.412E+01    2.411E+01    2.409E+01    2.408E+01    2.407E+01    2.405E+01    2.404E+01    2.403E+01    2.401E+01    2.400E+01
     2.399E+01    2.397E+01    2.396E+01    2.394E+01    2.393E+01    2.392E+01    2.390E+01    2.389E+01    2.387E+01    2.386E+01
     2.385E+01    2.383E+01    2.382E+01    2.380E+01    2.379E+01    2.377E+01    2.376E+01    2.375E+01    2.373E+01    2.372E+01
     2.370E+01    2.369E+01    2.367E+01    2.366E+01    2.364E+01    2.363E+01    2.361E+01    2.359E+01    2.358E+01    2.356E+01
     2.355E+01    2.353E+01    2.352E+01    2.350E+01    2.349E+01    2.347E+01    2.345E+01    2.344E+01    2.342E+01    2.341E+01
     2.339E+01    2.337E+01    2.336E+01    2.334E+01    2.333E+01    2.331E+01    2.329E+01    2.328E+01    2.326E+01    2.324E+01
     2.323E+01    2.321E+01    2.319E+01    2.318E+01    2.316E+01    2.314E+01    2.313E+01    2.311E+01    2.309E+01    2.308E+01
     2.306E+01    2.304E+01    2.302E+01    2.301E+01    2.299E+01    2.297E+01    2.295E+01    2.294E+01    2.292E+01    2.290E+01
     2.288E+01    2.287E+01    2.285E+01    2.283E+01    2.281E+01    2.279E+01    2.278E+01    2.276E+01    2.274E+01    2.272E+01
     2.270E+01    2.268E+01    2.267E+01    2.265E+01    2.263E+01    2.261E+01    2.259E+01    2.257E+01    2.255E+01    2.253E+01
     2.252E+01    2.250E+01    2.248E+01    2.246E+01    2.244E+01    2.242E+01    2.240E+01    2.238E+01    2.236E+01    2.234E+01
     2.232E+01    2.230E+01    2.229E+01    2.227E+01    2.225E+01    2.223E+01    2.221E+01    2.219E+01    2.217E+01    2.215E+01
     2.213E+01    2.211E+01    2.209E+01    2.207E+01    2.205E+01    2.203E+01    2.201E+01    2.199E+01    2.197E+01    2.194E+01
     2.192E+01    2.190E+01    2.188E+01    2.186E+01    2.184E+01    2.182E+01    2.180E+01    2.178E+01    2.176E+01    2.174E+01
     2.172E+01    2.170E+01    2.167E+01    2.165E+01    2.163E+01    2.161E+01    2.159E+01    2.157E+01    2.155E+01    2.153E+01
     2.150E+01    2.148E+01    2.146E+01    2.144E+01    2.142E+01    2.140E+01    2.137E+01    2.135E+01    2.133E+01    2.131E+01
     2.129E+01    2.126E+01    2.124E+01    2.122E+01    2.120E+01    2.117E+01    2.115E+01    2.113E+01    2.111E+01    2.109E+01
     2.106E+01    2.104E+01    2.102E+01    2.099E+01    2.097E+01    2.095E+01    2.093E+01    2.090E+01    2.088E+01    2.086E+01
     2.083E+01    2.081E+01    2.079E+01    2.077E+01    2.074E+01    2.072E+01    2.070E+01    2.067E+01    2.065E+01    2.063E+01
     2.060E+01    2.058E+01    2.055E+01    2.053E+01    2.051E+01    2.048E+01    2.046E+01    2.044E+01
 Asp      Conc. = 1.00E+02
