 LCModel (Version 6.3-1L) Copyright: S.W. Provencher.          Ref.: Magn. Reson. Med. 30:672-679 (1993).                
 Slice#3 Row#3 Col#9  K_02_press_1_raw_act
 36 lines in following concentration table = NCONC+1
    Conc.  %SD /Cr+PCr  Metabolite                                         
  156.642  64% 8.7E-02 Ala                                                 
   25.753 908% 1.4E-02 Asp                                                 
  833.490  25%   0.463 Cr                                                  
  967.358  23%   0.537 PCr                                                 
    0.000 999%   0.000 GABA                                                
    0.000 999%   0.000 Glc                                                 
  385.040  52%   0.214 Gln                                                 
 1.60E+03  14%   0.887 Glu                                                 
  453.198   5%   0.252 GPC                                                 
    0.000 999%   0.000 PCh                                                 
  458.556  16%   0.255 GSH                                                 
  891.596  26%   0.495 Ins                                                 
  158.739  68% 8.8E-02 Lac                                                 
 2.42E+03   4%   1.345 NAA                                                 
  172.519  61% 9.6E-02 NAAG                                                
    0.000 999%   0.000 Scyllo                                              
    0.000 999%   0.000 Tau                                                 
   33.814 359% 1.9E-02 -CrCH2                                              
  453.198   5%   0.252 GPC+PCh                                             
 2.59E+03   3%   1.440 NAA+NAAG                                            
 1.80E+03   3%   1.000 Cr+PCr                                              
 1.98E+03  16%   1.101 Glu+Gln                                             
 2.17E+03  28%   1.208 Lip13a                                              
    0.000 999%   0.000 Lip13b                                              
  140.531 208% 7.8E-02 Lip09                                               
  876.497  30%   0.487 MM09                                                
  365.209  59%   0.203 Lip20                                               
 1.27E+03  31%   0.706 MM20                                                
  314.182  47%   0.174 MM12                                                
 3.18E+03   6%   1.768+MM14                                                
    0.000 999%   0.000 MM17                                                
 2.17E+03  28%   1.208 Lip13a+Lip13b                                       
 5.67E+03  11%   3.150 MM14+Lip13a+Lip13b+MM12                             
 1.02E+03  22%   0.565 MM09+Lip09                                          
 1.64E+03  23%   0.909 MM20+Lip20                                          
   6 lines in following misc. output table
  FWHM = 0.046 ppm    S/N =  13                                            
  Data shift = 0.038 ppm                                                   
  Ph:  19 deg      -8.9 deg/ppm                                            
  alphaB,S = 6.6E-01,   1.0E+02                                            
   14 spline knots.   Ns = 6(1)                                            
  ( 8) 4 infls.   ( 3) 1 extrs.                                            
  498 points on ppm-axis = NY
      4.000000     3.992357     3.984714     3.977070     3.969427     3.961784     3.954141     3.946497     3.938854     3.931211
      3.923568     3.915925     3.908281     3.900638     3.892995     3.885352     3.877708     3.870065     3.862422     3.854779
      3.847136     3.839492     3.831849     3.824206     3.816563     3.808919     3.801276     3.793633     3.785990     3.778347
      3.770703     3.763060     3.755417     3.747774     3.740130     3.732487     3.724844     3.717201     3.709558     3.701914
      3.694271     3.686628     3.678985     3.671341     3.663698     3.656055     3.648412     3.640769     3.633125     3.625482
      3.617839     3.610196     3.602552     3.594909     3.587266     3.579623     3.571980     3.564336     3.556693     3.549050
      3.541407     3.533763     3.526120     3.518477     3.510834     3.503191     3.495547     3.487904     3.480261     3.472618
      3.464974     3.457331     3.449688     3.442045     3.434402     3.426758     3.419115     3.411472     3.403829     3.396185
      3.388542     3.380899     3.373256     3.365613     3.357969     3.350326     3.342683     3.335040     3.327396     3.319753
      3.312110     3.304467     3.296824     3.289180     3.281537     3.273894     3.266251     3.258607     3.250964     3.243321
      3.235678     3.228034     3.220391     3.212748     3.205105     3.197462     3.189818     3.182175     3.174532     3.166889
      3.159245     3.151602     3.143959     3.136316     3.128673     3.121029     3.113386     3.105743     3.098100     3.090456
      3.082813     3.075170     3.067527     3.059884     3.052240     3.044597     3.036954     3.029311     3.021667     3.014024
      3.006381     2.998738     2.991095     2.983451     2.975808     2.968165     2.960522     2.952878     2.945235     2.937592
      2.929949     2.922306     2.914662     2.907019     2.899376     2.891733     2.884089     2.876446     2.868803     2.861160
      2.853517     2.845873     2.838230     2.830587     2.822944     2.815300     2.807657     2.800014     2.792371     2.784728
      2.777084     2.769441     2.761798     2.754155     2.746511     2.738868     2.731225     2.723582     2.715939     2.708295
      2.700652     2.693009     2.685366     2.677722     2.670079     2.662436     2.654793     2.647150     2.639506     2.631863
      2.624220     2.616577     2.608933     2.601290     2.593647     2.586004     2.578361     2.570717     2.563074     2.555431
      2.547788     2.540144     2.532501     2.524858     2.517215     2.509572     2.501928     2.494285     2.486642     2.478999
      2.471355     2.463712     2.456069     2.448426     2.440783     2.433139     2.425496     2.417853     2.410210     2.402566
      2.394923     2.387280     2.379637     2.371994     2.364350     2.356707     2.349064     2.341421     2.333777     2.326134
      2.318491     2.310848     2.303205     2.295561     2.287918     2.280275     2.272632     2.264988     2.257345     2.249702
      2.242059     2.234416     2.226772     2.219129     2.211486     2.203843     2.196199     2.188556     2.180913     2.173270
      2.165627     2.157983     2.150340     2.142697     2.135054     2.127410     2.119767     2.112124     2.104481     2.096838
      2.089194     2.081551     2.073908     2.066265     2.058621     2.050978     2.043335     2.035692     2.028049     2.020405
      2.012762     2.005119     1.997476     1.989833     1.982190     1.974546     1.966903     1.959260     1.951617     1.943974
      1.936331     1.928688     1.921045     1.913402     1.905759     1.898115     1.890472     1.882829     1.875186     1.867543
      1.859900     1.852257     1.844614     1.836971     1.829327     1.821684     1.814041     1.806398     1.798755     1.791112
      1.783469     1.775826     1.768183     1.760540     1.752896     1.745253     1.737610     1.729967     1.722324     1.714681
      1.707038     1.699395     1.691752     1.684108     1.676465     1.668822     1.661179     1.653536     1.645893     1.638250
      1.630607     1.622964     1.615321     1.607677     1.600034     1.592391     1.584748     1.577105     1.569462     1.561819
      1.554176     1.546533     1.538890     1.531246     1.523603     1.515960     1.508317     1.500674     1.493031     1.485388
      1.477745     1.470102     1.462458     1.454815     1.447172     1.439529     1.431886     1.424243     1.416600     1.408957
      1.401314     1.393671     1.386027     1.378384     1.370741     1.363098     1.355455     1.347812     1.340169     1.332526
      1.324883     1.317240     1.309596     1.301953     1.294310     1.286667     1.279024     1.271381     1.263738     1.256095
      1.248452     1.240808     1.233165     1.225522     1.217879     1.210236     1.202593     1.194950     1.187307     1.179664
      1.172021     1.164377     1.156734     1.149091     1.141448     1.133805     1.126162     1.118519     1.110876     1.103233
      1.095590     1.087946     1.080303     1.072660     1.065017     1.057374     1.049731     1.042088     1.034445     1.026802
      1.019158     1.011515     1.003872     0.996229     0.988586     0.980943     0.973300     0.965657     0.958014     0.950371
      0.942727     0.935084     0.927441     0.919798     0.912155     0.904512     0.896869     0.889226     0.881583     0.873940
      0.866296     0.858653     0.851010     0.843367     0.835724     0.828081     0.820438     0.812795     0.805152     0.797508
      0.789865     0.782222     0.774579     0.766936     0.759293     0.751650     0.744007     0.736364     0.728721     0.721077
      0.713434     0.705791     0.698148     0.690505     0.682862     0.675219     0.667576     0.659933     0.652290     0.644646
      0.637003     0.629360     0.621717     0.614074     0.606431     0.598788     0.591145     0.583502     0.575858     0.568215
      0.560572     0.552929     0.545286     0.537643     0.530000     0.522357     0.514714     0.507071     0.499427     0.491784
      0.484141     0.476498     0.468855     0.461212     0.453569     0.445925     0.438282     0.430639     0.422996     0.415353
      0.407710     0.400067     0.392424     0.384780     0.377137     0.369494     0.361851     0.354208     0.346565     0.338922
      0.331278     0.323635     0.315992     0.308349     0.300706     0.293063     0.285420     0.277777     0.270133     0.262490
      0.254847     0.247204     0.239561     0.231918     0.224275     0.216631     0.208988     0.201345
 NY phased data points follow
   3.35924E+01  3.29370E+01  3.42971E+01  3.22691E+01  3.57792E+01  4.19087E+01  4.00155E+01  5.20619E+01  5.47543E+01  6.78753E+01
   6.54353E+01  6.77879E+01  5.85359E+01  5.37985E+01  4.60192E+01  3.85523E+01  3.57589E+01  3.42629E+01  2.34730E+01  2.72719E+01
   2.32289E+01  3.15296E+01  2.38633E+01  2.51766E+01  3.06235E+01  2.68898E+01  2.99455E+01  2.75049E+01  2.71137E+01  3.76558E+01
   3.27579E+01  3.01139E+01  3.02991E+01  2.99014E+01  2.70749E+01  2.62531E+01  2.62906E+01  2.70545E+01  3.12974E+01  2.28321E+01
   2.83044E+01  2.41842E+01  2.17088E+01  2.57635E+01  2.52841E+01  3.09811E+01  3.17782E+01  3.11584E+01  3.56410E+01  3.30293E+01
   2.60262E+01  2.34778E+01  2.11887E+01  2.48656E+01  1.42479E+01  1.83841E+01  2.58620E+01  2.47408E+01  1.73161E+01  1.87336E+01
   1.66804E+01  1.48589E+01  1.23755E+01  1.03340E+01  9.28112E+00  7.16357E+00  7.51259E+00  8.78323E+00  1.06994E+01  9.97472E+00
   8.48203E+00  4.26183E+00  1.14790E+01  1.15396E+01  1.31625E+01  1.30876E+01  1.15787E+01  1.04392E+01  6.76356E+00  6.11676E+00
   6.29944E+00  8.14638E+00  1.00326E+01  8.44549E+00  1.07429E+01  6.14582E+00  9.22416E+00  1.24714E+01  9.46287E+00  9.90599E+00
   1.28584E+01  1.38465E+01  1.31787E+01  1.50139E+01  1.30833E+01  1.60919E+01  2.03645E+01  1.84408E+01  1.85525E+01  2.60133E+01
   3.89887E+01  4.75532E+01  5.72600E+01  6.45793E+01  5.80729E+01  4.72625E+01  4.12678E+01  2.72719E+01  2.67541E+01  2.24196E+01
   1.79622E+01  1.78986E+01  1.85671E+01  1.72055E+01  1.77136E+01  1.49055E+01  1.31884E+01  1.82926E+01  1.77687E+01  1.81278E+01
   1.93930E+01  2.11163E+01  2.62667E+01  3.96319E+01  4.87986E+01  6.10458E+01  7.74586E+01  8.49855E+01  8.15018E+01  6.61093E+01
   5.21849E+01  4.27943E+01  3.99920E+01  3.02910E+01  2.62663E+01  2.31397E+01  2.19432E+01  2.26256E+01  2.10134E+01  2.00194E+01
   1.64292E+01  1.79535E+01  1.87674E+01  1.99737E+01  1.71728E+01  2.40151E+01  2.13152E+01  1.74380E+01  2.02125E+01  1.96507E+01
   2.00872E+01  1.74503E+01  1.91256E+01  1.98968E+01  1.94433E+01  2.18857E+01  2.03083E+01  1.86131E+01  1.61304E+01  2.25623E+01
   1.89786E+01  1.49998E+01  1.73276E+01  1.22284E+01  2.11317E+01  1.75452E+01  1.96080E+01  1.90809E+01  1.41871E+01  1.58674E+01
   1.59823E+01  1.71552E+01  1.84108E+01  1.32527E+01  1.35955E+01  1.12467E+01  9.74557E+00  1.30648E+01  1.43923E+01  1.38279E+01
   1.57905E+01  1.08915E+01  1.06379E+01  1.20720E+01  1.43033E+01  1.55567E+01  1.31589E+01  1.55738E+01  1.67365E+01  2.64759E+01
   2.81197E+01  2.60939E+01  2.94351E+01  3.00275E+01  3.12425E+01  3.38589E+01  3.18326E+01  2.63845E+01  2.30025E+01  2.04834E+01
   2.39344E+01  2.58093E+01  2.85585E+01  3.35603E+01  2.72638E+01  2.66471E+01  2.49579E+01  2.27461E+01  2.00317E+01  2.01220E+01
   2.10784E+01  1.96703E+01  2.69617E+01  3.20353E+01  3.18848E+01  3.98603E+01  4.01967E+01  3.98029E+01  3.58381E+01  2.65764E+01
   2.21939E+01  1.98680E+01  1.80479E+01  2.40441E+01  2.35690E+01  2.41110E+01  2.98875E+01  2.99055E+01  2.65804E+01  2.98115E+01
   3.07132E+01  2.53568E+01  2.79404E+01  2.63415E+01  2.80554E+01  3.18902E+01  3.01439E+01  2.75035E+01  2.24730E+01  2.51694E+01
   2.29989E+01  1.99738E+01  1.87568E+01  2.16868E+01  2.53876E+01  2.74008E+01  2.57974E+01  3.18951E+01  3.01817E+01  3.24751E+01
   2.57802E+01  3.15255E+01  3.48180E+01  3.76310E+01  4.39919E+01  4.42461E+01  5.04591E+01  7.33038E+01  8.91760E+01  1.11499E+02
   1.24539E+02  1.23103E+02  1.03358E+02  8.14496E+01  6.16542E+01  5.23023E+01  4.72374E+01  3.85668E+01  3.17136E+01  3.03956E+01
   2.88996E+01  2.78273E+01  2.52981E+01  2.51156E+01  2.45214E+01  2.69308E+01  2.59523E+01  2.43135E+01  2.39473E+01  2.94905E+01
   2.70103E+01  2.16081E+01  2.23872E+01  2.27389E+01  1.86542E+01  1.86745E+01  1.72469E+01  2.32197E+01  2.07628E+01  1.81869E+01
   2.04292E+01  1.99132E+01  2.04123E+01  1.92977E+01  2.23932E+01  2.06180E+01  1.41631E+01  1.98048E+01  2.34873E+01  1.79750E+01
   2.33071E+01  2.57328E+01  2.01540E+01  1.64373E+01  1.87068E+01  2.15971E+01  2.22519E+01  1.91623E+01  2.57803E+01  2.51126E+01
   2.95136E+01  2.93551E+01  3.32678E+01  3.22339E+01  3.06881E+01  3.43854E+01  3.68453E+01  3.85481E+01  4.29455E+01  4.48057E+01
   4.21535E+01  4.27017E+01  3.97539E+01  4.76911E+01  4.43106E+01  4.38468E+01  4.62124E+01  4.33575E+01  4.21809E+01  4.14511E+01
   3.95541E+01  3.73874E+01  3.63766E+01  3.91455E+01  3.76749E+01  3.66503E+01  3.78512E+01  3.49305E+01  3.25908E+01  2.50579E+01
   3.10043E+01  3.10392E+01  2.83995E+01  2.72056E+01  2.78875E+01  2.94576E+01  2.59776E+01  2.55336E+01  2.43427E+01  2.39196E+01
   2.24727E+01  2.26485E+01  2.33474E+01  2.51239E+01  2.98156E+01  2.33006E+01  2.77165E+01  2.57578E+01  2.92780E+01  2.52203E+01
   2.62022E+01  2.60695E+01  2.34221E+01  2.65739E+01  2.50553E+01  2.44404E+01  2.31976E+01  2.67241E+01  2.15819E+01  2.48884E+01
   2.15417E+01  2.35069E+01  2.15406E+01  2.18844E+01  1.69312E+01  2.07323E+01  2.34778E+01  2.04733E+01  2.09069E+01  1.92911E+01
   2.20588E+01  1.80664E+01  1.53246E+01  1.46923E+01  1.87275E+01  1.59600E+01  1.58195E+01  1.81647E+01  1.46949E+01  1.66416E+01
   1.90185E+01  1.39722E+01  1.47816E+01  1.59996E+01  1.43340E+01  1.92347E+01  1.74704E+01  1.55447E+01  1.55157E+01  1.89733E+01
   1.98695E+01  1.47931E+01  1.40584E+01  1.81974E+01  1.63779E+01  1.46759E+01  1.98394E+01  1.67059E+01  1.61337E+01  1.89027E+01
   1.49465E+01  1.68284E+01  1.46283E+01  1.66238E+01  1.82651E+01  2.01177E+01  1.73442E+01  1.20836E+01  1.83528E+01  8.87531E+00
   1.86251E+01  1.21532E+01  1.19080E+01  1.51371E+01  1.44485E+01  1.22074E+01  1.20353E+01  1.08314E+01  8.92373E+00  1.12944E+01
   1.11375E+01  1.27674E+01  9.52976E+00  7.36321E+00  6.98827E+00  4.59097E+00  7.33439E+00  7.55789E+00  3.20409E+00  6.43302E+00
   7.97322E+00  5.83974E+00  5.10806E+00  8.49402E+00  7.34108E+00  8.39478E+00  8.68734E+00  8.42098E+00  5.10171E+00  4.46195E+00
   4.98692E+00  1.31516E+01  7.85002E+00  4.45071E+00  6.86574E+00  3.56883E+00  2.63241E+00  5.54906E+00  8.82871E-01  8.81561E+00
   3.52718E+00  5.46123E+00  8.04424E+00  6.67212E+00  8.37100E+00  4.15385E+00  4.93207E+00  4.80693E+00  8.90433E+00  5.78441E+00
   1.31891E+01  7.41553E+00  3.33674E+00  3.25324E+00  8.06965E+00  8.57900E+00  8.44315E+00  6.70355E+00  2.06928E+00  5.76783E+00
   8.54178E+00  3.49869E+00  8.67463E-01  5.14642E+00  4.46218E+00  2.18822E+00  3.36127E+00  1.02972E+01  2.01825E+00  4.16653E+00
   3.20059E+00  8.44539E-01  3.64048E+00  2.24186E+00  2.36195E+00  2.58651E+00  1.66324E+00 -2.09178E+00
 NY points of the fit to the data follow
   2.89000E+01  2.87223E+01  2.89889E+01  3.01473E+01  3.26524E+01  3.68930E+01  4.32260E+01  5.10134E+01  5.89690E+01  6.50241E+01
   6.73551E+01  6.53778E+01  5.99075E+01  5.27841E+01  4.58365E+01  3.99788E+01  3.54084E+01  3.21973E+01  2.97667E+01  2.79003E+01
   2.70117E+01  2.65283E+01  2.60160E+01  2.54655E+01  2.52099E+01  2.53955E+01  2.62501E+01  2.79179E+01  3.02826E+01  3.27956E+01
   3.45014E+01  3.47797E+01  3.36893E+01  3.17772E+01  2.95478E+01  2.71630E+01  2.45893E+01  2.23645E+01  2.12504E+01  2.09483E+01
   2.10716E+01  2.15386E+01  2.23482E+01  2.34450E+01  2.46994E+01  2.60744E+01  2.72898E+01  2.77557E+01  2.70688E+01  2.53166E+01
   2.31003E+01  2.11706E+01  1.97950E+01  1.87976E+01  1.80817E+01  1.77549E+01  1.78613E+01  1.82192E+01  1.86545E+01  1.89759E+01
   1.89653E+01  1.84988E+01  1.76452E+01  1.66805E+01  1.59075E+01  1.54623E+01  1.53256E+01  1.54205E+01  1.56624E+01  1.59432E+01
   1.62036E+01  1.63621E+01  1.63521E+01  1.61481E+01  1.57980E+01  1.54203E+01  1.51121E+01  1.48867E+01  1.46933E+01  1.44957E+01
   1.43253E+01  1.41362E+01  1.38695E+01  1.34670E+01  1.29064E+01  1.22097E+01  1.14789E+01  1.09001E+01  1.06635E+01  1.08435E+01
   1.13664E+01  1.20556E+01  1.27404E+01  1.33439E+01  1.38360E+01  1.42142E+01  1.47845E+01  1.67808E+01  2.10847E+01  2.81676E+01
   3.81087E+01  4.93819E+01  5.88229E+01  6.25392E+01  5.86901E+01  4.93708E+01  3.90337E+01  3.11694E+01  2.61309E+01  2.20393E+01
   1.79873E+01  1.55914E+01  1.50126E+01  1.49076E+01  1.49343E+01  1.50168E+01  1.51341E+01  1.52905E+01  1.55291E+01  1.59718E+01
   1.70607E+01  2.02511E+01  2.65997E+01  3.64724E+01  4.98770E+01  6.49349E+01  7.77288E+01  8.33497E+01  7.92021E+01  6.76312E+01
   5.42930E+01  4.37775E+01  3.66450E+01  3.04487E+01  2.38757E+01  1.91285E+01  1.72427E+01  1.68427E+01  1.73468E+01  1.82724E+01
   1.91702E+01  1.98186E+01  2.01426E+01  2.01317E+01  1.99389E+01  1.97201E+01  1.95116E+01  1.93208E+01  1.91270E+01  1.89396E+01
   1.87995E+01  1.86874E+01  1.86242E+01  1.86457E+01  1.87624E+01  1.88960E+01  1.89541E+01  1.88460E+01  1.85001E+01  1.80190E+01
   1.76107E+01  1.75468E+01  1.79693E+01  1.86762E+01  1.92352E+01  1.92545E+01  1.87187E+01  1.80132E+01  1.75188E+01  1.72459E+01
   1.70072E+01  1.66316E+01  1.61231E+01  1.56182E+01  1.52218E+01  1.50124E+01  1.51639E+01  1.56773E+01  1.62399E+01  1.65022E+01
   1.64012E+01  1.61844E+01  1.61977E+01  1.65082E+01  1.68498E+01  1.71857E+01  1.79518E+01  1.94666E+01  2.16132E+01  2.37477E+01
   2.51928E+01  2.57286E+01  2.54605E+01  2.47788E+01  2.40360E+01  2.33584E+01  2.28700E+01  2.27696E+01  2.31746E+01  2.40915E+01
   2.54054E+01  2.68427E+01  2.80742E+01  2.88485E+01  2.88381E+01  2.79178E+01  2.61015E+01  2.37824E+01  2.15940E+01  2.00817E+01
   1.96258E+01  2.04359E+01  2.24790E+01  2.55167E+01  2.89310E+01  3.17434E+01  3.27639E+01  3.12984E+01  2.76846E+01  2.32826E+01
   1.93465E+01  1.65608E+01  1.54071E+01  1.62577E+01  1.90414E+01  2.27776E+01  2.59291E+01  2.78317E+01  2.86399E+01  2.88196E+01
   2.86072E+01  2.81679E+01  2.79491E+01  2.83056E+01  2.90609E+01  2.98241E+01  3.02779E+01  3.01457E+01  2.93266E+01  2.79191E+01
   2.63107E+01  2.50953E+01  2.47095E+01  2.52204E+01  2.64034E+01  2.78797E+01  2.91070E+01  2.97112E+01  2.97670E+01  2.96429E+01
   2.97947E+01  3.04166E+01  3.17191E+01  3.39311E+01  3.81989E+01  4.60421E+01  5.73657E+01  7.31321E+01  9.23768E+01  1.11116E+02
   1.22313E+02  1.19938E+02  1.04621E+02  8.38963E+01  6.62078E+01  5.45949E+01  4.61673E+01  3.75482E+01  3.05129E+01  2.78583E+01
   2.67941E+01  2.61535E+01  2.58102E+01  2.56896E+01  2.56036E+01  2.54547E+01  2.52041E+01  2.48711E+01  2.45171E+01  2.41863E+01
   2.38735E+01  2.35798E+01  2.33357E+01  2.31463E+01  2.29773E+01  2.27986E+01  2.26112E+01  2.24308E+01  2.22661E+01  2.21121E+01
   2.19753E+01  2.18637E+01  2.17715E+01  2.16865E+01  2.16047E+01  2.15292E+01  2.14674E+01  2.14265E+01  2.14140E+01  2.14398E+01
   2.15155E+01  2.16489E+01  2.18457E+01  2.21121E+01  2.24565E+01  2.28895E+01  2.34215E+01  2.40618E+01  2.48199E+01  2.57020E+01
   2.67089E+01  2.78384E+01  2.90844E+01  3.04354E+01  3.18744E+01  3.33788E+01  3.49215E+01  3.64723E+01  3.80002E+01  3.94769E+01
   4.08863E+01  4.22297E+01  4.34457E+01  4.44571E+01  4.51631E+01  4.54105E+01  4.50504E+01  4.40245E+01  4.24733E+01  4.07508E+01
   3.91866E+01  3.79099E+01  3.69135E+01  3.61511E+01  3.56161E+01  3.52219E+01  3.46565E+01  3.37263E+01  3.25512E+01  3.13806E+01
   3.04070E+01  2.96681E+01  2.90657E+01  2.86133E+01  2.83120E+01  2.79733E+01  2.74061E+01  2.65047E+01  2.53728E+01  2.43540E+01
   2.37457E+01  2.36623E+01  2.40371E+01  2.47267E+01  2.56088E+01  2.65152E+01  2.71234E+01  2.72637E+01  2.70763E+01  2.67776E+01
   2.64697E+01  2.60974E+01  2.56079E+01  2.51114E+01  2.46475E+01  2.41843E+01  2.37109E+01  2.32262E+01  2.27329E+01  2.22352E+01
   2.17375E+01  2.12442E+01  2.07598E+01  2.02885E+01  1.98341E+01  1.94002E+01  1.89893E+01  1.86035E+01  1.82447E+01  1.79145E+01
   1.76144E+01  1.73453E+01  1.71079E+01  1.69027E+01  1.67301E+01  1.65909E+01  1.64855E+01  1.64142E+01  1.63767E+01  1.63727E+01
   1.64018E+01  1.64631E+01  1.65549E+01  1.66750E+01  1.68198E+01  1.69856E+01  1.71675E+01  1.73600E+01  1.75566E+01  1.77499E+01
   1.79321E+01  1.80954E+01  1.82322E+01  1.83352E+01  1.83976E+01  1.84135E+01  1.83785E+01  1.82899E+01  1.81466E+01  1.79491E+01
   1.76993E+01  1.74008E+01  1.70583E+01  1.66784E+01  1.62677E+01  1.58335E+01  1.53830E+01  1.49232E+01  1.44610E+01  1.40025E+01
   1.35531E+01  1.31170E+01  1.26973E+01  1.22967E+01  1.19169E+01  1.15589E+01  1.12228E+01  1.09081E+01  1.06139E+01  1.03393E+01
   1.00832E+01  9.84406E+00  9.62044E+00  9.41071E+00  9.21344E+00  9.02746E+00  8.85167E+00  8.68496E+00  8.52616E+00  8.37430E+00
   8.22863E+00  8.08863E+00  7.95377E+00  7.82345E+00  7.69703E+00  7.57409E+00  7.45437E+00  7.33773E+00  7.22391E+00  7.11252E+00
   7.00325E+00  6.89595E+00  6.79061E+00  6.68720E+00  6.58549E+00  6.48522E+00  6.38621E+00  6.28847E+00  6.19201E+00  6.09681E+00
   6.00263E+00  5.90929E+00  5.81674E+00  5.72504E+00  5.63424E+00  5.54425E+00  5.45486E+00  5.36595E+00  5.27753E+00  5.18973E+00
   5.10254E+00  5.01582E+00  4.92939E+00  4.84323E+00  4.75740E+00  4.67201E+00  4.58698E+00  4.50215E+00  4.41740E+00  4.33275E+00
   4.24832E+00  4.16414E+00  4.08010E+00  3.99605E+00  3.91191E+00  3.82778E+00  3.74376E+00  3.65983E+00  3.57582E+00  3.49162E+00
   3.40723E+00  3.32277E+00  3.23831E+00  3.15375E+00  3.06894E+00  2.98380E+00  2.89841E+00  2.81290E+00
 NY background values follow
     2.594E+01    2.573E+01    2.551E+01    2.529E+01    2.508E+01    2.486E+01    2.465E+01    2.443E+01    2.421E+01    2.400E+01
     2.378E+01    2.357E+01    2.335E+01    2.313E+01    2.292E+01    2.270E+01    2.249E+01    2.228E+01    2.206E+01    2.185E+01
     2.164E+01    2.143E+01    2.122E+01    2.101E+01    2.080E+01    2.060E+01    2.039E+01    2.019E+01    1.998E+01    1.978E+01
     1.958E+01    1.938E+01    1.919E+01    1.899E+01    1.879E+01    1.860E+01    1.841E+01    1.822E+01    1.804E+01    1.785E+01
     1.767E+01    1.749E+01    1.731E+01    1.713E+01    1.696E+01    1.678E+01    1.662E+01    1.645E+01    1.628E+01    1.612E+01
     1.596E+01    1.581E+01    1.565E+01    1.550E+01    1.535E+01    1.521E+01    1.506E+01    1.492E+01    1.479E+01    1.465E+01
     1.452E+01    1.440E+01    1.427E+01    1.415E+01    1.404E+01    1.392E+01    1.381E+01    1.371E+01    1.360E+01    1.350E+01
     1.341E+01    1.332E+01    1.323E+01    1.315E+01    1.307E+01    1.299E+01    1.292E+01    1.285E+01    1.279E+01    1.273E+01
     1.267E+01    1.262E+01    1.257E+01    1.253E+01    1.250E+01    1.246E+01    1.243E+01    1.241E+01    1.239E+01    1.238E+01
     1.237E+01    1.236E+01    1.236E+01    1.237E+01    1.238E+01    1.239E+01    1.241E+01    1.244E+01    1.246E+01    1.250E+01
     1.253E+01    1.257E+01    1.261E+01    1.266E+01    1.271E+01    1.276E+01    1.282E+01    1.288E+01    1.295E+01    1.301E+01
     1.308E+01    1.316E+01    1.323E+01    1.331E+01    1.339E+01    1.348E+01    1.356E+01    1.365E+01    1.374E+01    1.383E+01
     1.393E+01    1.402E+01    1.412E+01    1.422E+01    1.432E+01    1.443E+01    1.453E+01    1.464E+01    1.474E+01    1.485E+01
     1.496E+01    1.507E+01    1.518E+01    1.529E+01    1.540E+01    1.551E+01    1.562E+01    1.574E+01    1.585E+01    1.596E+01
     1.608E+01    1.619E+01    1.630E+01    1.642E+01    1.653E+01    1.664E+01    1.676E+01    1.687E+01    1.698E+01    1.710E+01
     1.721E+01    1.732E+01    1.744E+01    1.755E+01    1.766E+01    1.777E+01    1.789E+01    1.800E+01    1.811E+01    1.822E+01
     1.833E+01    1.844E+01    1.855E+01    1.866E+01    1.877E+01    1.888E+01    1.899E+01    1.910E+01    1.920E+01    1.931E+01
     1.942E+01    1.952E+01    1.963E+01    1.973E+01    1.983E+01    1.994E+01    2.004E+01    2.014E+01    2.024E+01    2.034E+01
     2.044E+01    2.053E+01    2.063E+01    2.072E+01    2.082E+01    2.091E+01    2.100E+01    2.109E+01    2.118E+01    2.127E+01
     2.136E+01    2.144E+01    2.153E+01    2.161E+01    2.169E+01    2.177E+01    2.185E+01    2.192E+01    2.200E+01    2.207E+01
     2.214E+01    2.221E+01    2.228E+01    2.234E+01    2.240E+01    2.246E+01    2.252E+01    2.258E+01    2.263E+01    2.269E+01
     2.274E+01    2.278E+01    2.283E+01    2.287E+01    2.291E+01    2.295E+01    2.298E+01    2.302E+01    2.305E+01    2.307E+01
     2.310E+01    2.312E+01    2.314E+01    2.315E+01    2.316E+01    2.317E+01    2.318E+01    2.318E+01    2.318E+01    2.318E+01
     2.318E+01    2.317E+01    2.316E+01    2.314E+01    2.313E+01    2.311E+01    2.309E+01    2.306E+01    2.304E+01    2.301E+01
     2.298E+01    2.294E+01    2.291E+01    2.287E+01    2.283E+01    2.279E+01    2.275E+01    2.271E+01    2.266E+01    2.261E+01
     2.256E+01    2.251E+01    2.246E+01    2.241E+01    2.235E+01    2.230E+01    2.224E+01    2.218E+01    2.213E+01    2.207E+01
     2.201E+01    2.195E+01    2.188E+01    2.182E+01    2.176E+01    2.169E+01    2.163E+01    2.157E+01    2.150E+01    2.144E+01
     2.137E+01    2.131E+01    2.124E+01    2.118E+01    2.111E+01    2.105E+01    2.098E+01    2.092E+01    2.085E+01    2.079E+01
     2.072E+01    2.065E+01    2.059E+01    2.052E+01    2.046E+01    2.039E+01    2.033E+01    2.026E+01    2.019E+01    2.013E+01
     2.006E+01    1.999E+01    1.993E+01    1.986E+01    1.979E+01    1.973E+01    1.966E+01    1.959E+01    1.952E+01    1.946E+01
     1.939E+01    1.932E+01    1.925E+01    1.918E+01    1.911E+01    1.904E+01    1.897E+01    1.890E+01    1.883E+01    1.876E+01
     1.869E+01    1.862E+01    1.855E+01    1.848E+01    1.840E+01    1.833E+01    1.826E+01    1.819E+01    1.811E+01    1.804E+01
     1.796E+01    1.789E+01    1.782E+01    1.774E+01    1.766E+01    1.759E+01    1.751E+01    1.744E+01    1.736E+01    1.728E+01
     1.720E+01    1.712E+01    1.704E+01    1.697E+01    1.689E+01    1.680E+01    1.672E+01    1.664E+01    1.656E+01    1.648E+01
     1.640E+01    1.631E+01    1.623E+01    1.615E+01    1.606E+01    1.598E+01    1.589E+01    1.580E+01    1.572E+01    1.563E+01
     1.554E+01    1.545E+01    1.536E+01    1.527E+01    1.518E+01    1.509E+01    1.500E+01    1.491E+01    1.482E+01    1.473E+01
     1.463E+01    1.454E+01    1.444E+01    1.435E+01    1.425E+01    1.415E+01    1.406E+01    1.396E+01    1.386E+01    1.376E+01
     1.366E+01    1.356E+01    1.347E+01    1.336E+01    1.326E+01    1.316E+01    1.306E+01    1.296E+01    1.286E+01    1.276E+01
     1.266E+01    1.255E+01    1.245E+01    1.235E+01    1.225E+01    1.214E+01    1.204E+01    1.194E+01    1.183E+01    1.173E+01
     1.163E+01    1.152E+01    1.142E+01    1.132E+01    1.122E+01    1.111E+01    1.101E+01    1.091E+01    1.081E+01    1.071E+01
     1.061E+01    1.050E+01    1.040E+01    1.030E+01    1.020E+01    1.010E+01    1.001E+01    9.906E+00    9.808E+00    9.710E+00
     9.613E+00    9.516E+00    9.419E+00    9.323E+00    9.228E+00    9.132E+00    9.037E+00    8.943E+00    8.849E+00    8.756E+00
     8.663E+00    8.570E+00    8.478E+00    8.386E+00    8.294E+00    8.203E+00    8.113E+00    8.022E+00    7.933E+00    7.843E+00
     7.754E+00    7.666E+00    7.578E+00    7.490E+00    7.402E+00    7.315E+00    7.229E+00    7.143E+00    7.057E+00    6.971E+00
     6.886E+00    6.802E+00    6.717E+00    6.633E+00    6.550E+00    6.467E+00    6.384E+00    6.301E+00    6.219E+00    6.138E+00
     6.056E+00    5.975E+00    5.895E+00    5.814E+00    5.734E+00    5.655E+00    5.576E+00    5.497E+00    5.418E+00    5.339E+00
     5.261E+00    5.183E+00    5.105E+00    5.028E+00    4.950E+00    4.873E+00    4.796E+00    4.719E+00    4.642E+00    4.566E+00
     4.489E+00    4.412E+00    4.336E+00    4.259E+00    4.183E+00    4.106E+00    4.030E+00    3.953E+00    3.877E+00    3.800E+00
     3.723E+00    3.646E+00    3.569E+00    3.492E+00    3.415E+00    3.338E+00    3.260E+00    3.183E+00    3.105E+00    3.027E+00
     2.948E+00    2.870E+00    2.791E+00    2.711E+00    2.632E+00    2.552E+00    2.472E+00    2.391E+00
 Ala      Conc. = 1.57E+02
