 LCModel (Version 6.3-1L) Copyright: S.W. Provencher.          Ref.: Magn. Reson. Med. 30:672-679 (1993).                
 Slice#2 Row#8 Col#10  K_02_press_1_raw_act
 36 lines in following concentration table = NCONC+1
    Conc.  %SD /Cr+PCr  Metabolite                                         
  164.968  59% 9.4E-02 Ala                                                 
    0.000 999%   0.000 Asp                                                 
  693.621  27%   0.397 Cr                                                  
 1.05E+03  19%   0.603 PCr                                                 
    0.000 999%   0.000 GABA                                                
    0.000 999%   0.000 Glc                                                 
  315.055  62%   0.180 Gln                                                 
 1.73E+03  13%   0.990 Glu                                                 
  740.738   4%   0.424 GPC                                                 
    0.000 999%   0.000 PCh                                                 
  521.457  14%   0.298 GSH                                                 
  954.641  27%   0.546 Ins                                                 
    0.000 999%   0.000 Lac                                                 
 2.93E+03   4%   1.676 NAA                                                 
 1.18E+03   9%   0.673 NAAG                                                
   44.223  70% 2.5E-02 Scyllo                                              
    0.000 999%   0.000 Tau                                                 
  316.413  41%   0.181 -CrCH2                                              
  740.738   4%   0.424 GPC+PCh                                             
 4.11E+03   3%   2.349 NAA+NAAG                                            
 1.75E+03   4%   1.000 Cr+PCr                                              
 2.05E+03  14%   1.171 Glu+Gln                                             
   96.908 877% 5.5E-02 Lip13a                                              
  287.431  85%   0.164 Lip13b                                              
   38.926 593% 2.2E-02 Lip09                                               
 1.81E+03  19%   1.038 MM09                                                
   87.381 161% 5.0E-02 Lip20                                               
 3.78E+03  15%   2.163 MM20                                                
  604.189  37%   0.346 MM12                                                
  887.763  51%   0.508 MM14                                                
  763.735  46%   0.437 MM17                                                
  384.339 175%   0.220 Lip13a+Lip13b                                       
 1.88E+03  37%   1.073 MM14+Lip13a+Lip13b+MM12                             
 1.85E+03  18%   1.060 MM09+Lip09                                          
 3.87E+03  15%   2.213 MM20+Lip20                                          
   6 lines in following misc. output table
  FWHM = 0.031 ppm    S/N =  18                                            
  Data shift = 0.008 ppm                                                   
  Ph: -39 deg      -9.3 deg/ppm                                            
  alphaB,S = 4.7E-01,   3.7E+01                                            
   14 spline knots.   Ns = 5(1)                                            
  ( 8) 2 infls.   ( 3) 1 extrs.                                            
  498 points on ppm-axis = NY
      4.000000     3.992357     3.984714     3.977070     3.969427     3.961784     3.954141     3.946497     3.938854     3.931211
      3.923568     3.915925     3.908281     3.900638     3.892995     3.885352     3.877708     3.870065     3.862422     3.854779
      3.847136     3.839492     3.831849     3.824206     3.816563     3.808919     3.801276     3.793633     3.785990     3.778347
      3.770703     3.763060     3.755417     3.747774     3.740130     3.732487     3.724844     3.717201     3.709558     3.701914
      3.694271     3.686628     3.678985     3.671341     3.663698     3.656055     3.648412     3.640769     3.633125     3.625482
      3.617839     3.610196     3.602552     3.594909     3.587266     3.579623     3.571980     3.564336     3.556693     3.549050
      3.541407     3.533763     3.526120     3.518477     3.510834     3.503191     3.495547     3.487904     3.480261     3.472618
      3.464974     3.457331     3.449688     3.442045     3.434402     3.426758     3.419115     3.411472     3.403829     3.396185
      3.388542     3.380899     3.373256     3.365613     3.357969     3.350326     3.342683     3.335040     3.327396     3.319753
      3.312110     3.304467     3.296824     3.289180     3.281537     3.273894     3.266251     3.258607     3.250964     3.243321
      3.235678     3.228034     3.220391     3.212748     3.205105     3.197462     3.189818     3.182175     3.174532     3.166889
      3.159245     3.151602     3.143959     3.136316     3.128673     3.121029     3.113386     3.105743     3.098100     3.090456
      3.082813     3.075170     3.067527     3.059884     3.052240     3.044597     3.036954     3.029311     3.021667     3.014024
      3.006381     2.998738     2.991095     2.983451     2.975808     2.968165     2.960522     2.952878     2.945235     2.937592
      2.929949     2.922306     2.914662     2.907019     2.899376     2.891733     2.884089     2.876446     2.868803     2.861160
      2.853517     2.845873     2.838230     2.830587     2.822944     2.815300     2.807657     2.800014     2.792371     2.784728
      2.777084     2.769441     2.761798     2.754155     2.746511     2.738868     2.731225     2.723582     2.715939     2.708295
      2.700652     2.693009     2.685366     2.677722     2.670079     2.662436     2.654793     2.647150     2.639506     2.631863
      2.624220     2.616577     2.608933     2.601290     2.593647     2.586004     2.578361     2.570717     2.563074     2.555431
      2.547788     2.540144     2.532501     2.524858     2.517215     2.509572     2.501928     2.494285     2.486642     2.478999
      2.471355     2.463712     2.456069     2.448426     2.440783     2.433139     2.425496     2.417853     2.410210     2.402566
      2.394923     2.387280     2.379637     2.371994     2.364350     2.356707     2.349064     2.341421     2.333777     2.326134
      2.318491     2.310848     2.303205     2.295561     2.287918     2.280275     2.272632     2.264988     2.257345     2.249702
      2.242059     2.234416     2.226772     2.219129     2.211486     2.203843     2.196199     2.188556     2.180913     2.173270
      2.165627     2.157983     2.150340     2.142697     2.135054     2.127410     2.119767     2.112124     2.104481     2.096838
      2.089194     2.081551     2.073908     2.066265     2.058621     2.050978     2.043335     2.035692     2.028049     2.020405
      2.012762     2.005119     1.997476     1.989833     1.982190     1.974546     1.966903     1.959260     1.951617     1.943974
      1.936331     1.928688     1.921045     1.913402     1.905759     1.898115     1.890472     1.882829     1.875186     1.867543
      1.859900     1.852257     1.844614     1.836971     1.829327     1.821684     1.814041     1.806398     1.798755     1.791112
      1.783469     1.775826     1.768183     1.760540     1.752896     1.745253     1.737610     1.729967     1.722324     1.714681
      1.707038     1.699395     1.691752     1.684108     1.676465     1.668822     1.661179     1.653536     1.645893     1.638250
      1.630607     1.622964     1.615321     1.607677     1.600034     1.592391     1.584748     1.577105     1.569462     1.561819
      1.554176     1.546533     1.538890     1.531246     1.523603     1.515960     1.508317     1.500674     1.493031     1.485388
      1.477745     1.470102     1.462458     1.454815     1.447172     1.439529     1.431886     1.424243     1.416600     1.408957
      1.401314     1.393671     1.386027     1.378384     1.370741     1.363098     1.355455     1.347812     1.340169     1.332526
      1.324883     1.317240     1.309596     1.301953     1.294310     1.286667     1.279024     1.271381     1.263738     1.256095
      1.248452     1.240808     1.233165     1.225522     1.217879     1.210236     1.202593     1.194950     1.187307     1.179664
      1.172021     1.164377     1.156734     1.149091     1.141448     1.133805     1.126162     1.118519     1.110876     1.103233
      1.095590     1.087946     1.080303     1.072660     1.065017     1.057374     1.049731     1.042088     1.034445     1.026802
      1.019158     1.011515     1.003872     0.996229     0.988586     0.980943     0.973300     0.965657     0.958014     0.950371
      0.942727     0.935084     0.927441     0.919798     0.912155     0.904512     0.896869     0.889226     0.881583     0.873940
      0.866296     0.858653     0.851010     0.843367     0.835724     0.828081     0.820438     0.812795     0.805152     0.797508
      0.789865     0.782222     0.774579     0.766936     0.759293     0.751650     0.744007     0.736364     0.728721     0.721077
      0.713434     0.705791     0.698148     0.690505     0.682862     0.675219     0.667576     0.659933     0.652290     0.644646
      0.637003     0.629360     0.621717     0.614074     0.606431     0.598788     0.591145     0.583502     0.575858     0.568215
      0.560572     0.552929     0.545286     0.537643     0.530000     0.522357     0.514714     0.507071     0.499427     0.491784
      0.484141     0.476498     0.468855     0.461212     0.453569     0.445925     0.438282     0.430639     0.422996     0.415353
      0.407710     0.400067     0.392424     0.384780     0.377137     0.369494     0.361851     0.354208     0.346565     0.338922
      0.331278     0.323635     0.315992     0.308349     0.300706     0.293063     0.285420     0.277777     0.270133     0.262490
      0.254847     0.247204     0.239561     0.231918     0.224275     0.216631     0.208988     0.201345
 NY phased data points follow
  -8.76736E+00 -7.98616E+00 -1.00145E+01 -4.83296E+00 -7.39369E-01  5.47030E-01  6.92554E+00  1.12930E+01  2.79978E+01  3.31745E+01
   3.65413E+01  3.78196E+01  3.45143E+01  2.15259E+01  7.85074E+00  3.11861E+00 -3.53509E+00  1.49130E-02 -2.17034E+00 -6.55507E+00
   3.01793E+00 -1.11570E+00  6.90266E-01  3.16847E+00  5.66312E+00  6.74552E+00  2.28893E+00  2.34611E+00  8.06215E+00  1.23543E+01
   8.12238E+00  1.26509E+01  8.75190E+00  9.72093E+00  9.46954E+00  4.35168E+00  4.27910E+00  6.08117E+00  8.06475E+00  4.07534E+00
   4.77229E+00  7.75438E+00  7.52502E+00  4.30844E+00  9.58517E+00  1.84536E+01  1.49049E+01  1.89905E+01  2.15019E+01  1.92062E+01
   1.21671E+01  1.03016E+01  6.38771E+00  8.69630E+00  7.28442E+00  9.70314E+00  8.75792E+00  6.58319E+00  1.33037E+01  9.21131E+00
   2.60243E-01 -3.82723E+00 -2.83834E+00 -8.85528E+00 -2.69493E+00 -4.84176E+00 -8.17189E+00 -5.24305E+00 -4.83517E+00 -2.54368E+00
  -3.11349E+00 -6.40050E+00  8.18381E-01 -2.29313E+00 -2.09600E+00  1.95255E+00 -4.78344E-01 -2.95727E+00  5.82610E+00 -2.34473E+00
   3.63197E+00 -1.03054E+00  1.22356E+00  4.01010E+00 -1.68450E+00  5.03133E-01  3.79738E-02  4.19450E+00  4.52643E+00  9.15260E+00
   6.44613E+00  1.18826E+01  8.95533E+00  4.87749E+00  1.00630E+01  7.51849E+00  1.56831E+01  1.26496E+01  1.78691E+01  2.71367E+01
   4.41479E+01  7.08914E+01  9.44011E+01  9.69606E+01  8.67799E+01  5.83294E+01  3.80466E+01  2.55957E+01  1.66738E+01  1.75879E+01
   1.20787E+01  6.86218E+00  5.18783E+00  6.71594E+00  5.82339E+00  6.36937E+00  8.62333E+00  6.05008E+00  8.18692E+00  7.03461E+00
   1.42538E+01  1.31718E+01  1.38862E+01  1.58875E+01  2.97477E+01  6.04690E+01  8.28357E+01  8.82749E+01  8.21685E+01  5.41044E+01
   3.88578E+01  3.21598E+01  2.25903E+01  1.66651E+01  1.04826E+01  8.30131E+00  8.85767E+00  5.76005E+00  9.91433E+00  6.34096E+00
   7.76901E+00  1.10253E+01  5.67005E+00  1.18927E+01  8.34546E+00  1.04064E+01  1.04300E+01  4.09282E+00  7.37687E+00  3.48968E+00
   4.43234E+00  8.02162E+00  3.42675E+00  8.11548E+00  6.09750E+00  1.39930E+00  7.96460E-01  3.99884E+00  1.06674E+01  9.99753E+00
   7.97784E+00 -1.35798E+00 -5.27731E+00 -6.84719E-01  2.63514E+00  5.90356E+00  2.44146E+00 -1.36843E+00 -6.89283E+00 -1.01046E+01
  -1.54240E+01 -8.59663E+00 -1.00245E+01 -1.51911E+01 -1.58733E+01 -2.76399E+01 -2.34039E+01 -1.04326E+01 -1.35877E+01 -6.37352E+00
  -8.83396E+00 -1.74176E+01 -1.67041E+01 -1.27517E+01 -9.82878E+00 -5.82259E+00 -1.06507E+01 -1.19198E+01 -6.15930E+00  3.39861E+00
   1.16170E+01  9.75276E+00  5.52026E+00  3.48360E+00  5.76821E+00  3.56218E+00 -1.12014E+00 -2.59303E+00 -9.01780E+00 -5.18343E+00
  -6.41912E+00 -4.20304E-01  4.22750E+00  1.49809E+01  1.65083E+01  7.12591E+00  3.57883E+00  4.11968E+00  1.41571E+00  4.23780E+00
  -2.94100E-01  6.22904E+00  8.44763E+00  1.20734E+01  2.03521E+01  2.29452E+01  2.32260E+01  2.43408E+01  1.80858E+01  1.14159E+01
   3.19428E+00 -1.72788E+00 -2.16157E+00 -3.27751E-01  8.65279E+00  1.18046E+01  1.51135E+01  2.26239E+01  2.47492E+01  2.29467E+01
   1.88939E+01  1.79903E+01  1.51322E+01  1.11619E+01  1.76849E+01  1.75621E+01  1.47899E+01  1.66894E+01  2.01994E+01  1.57039E+01
   9.78826E+00  8.93814E+00  4.82511E+00  3.90262E+00  1.39245E+01  1.84469E+01  2.00148E+01  2.40635E+01  2.06336E+01  3.17921E+01
   2.94038E+01  2.48729E+01  2.68127E+01  5.01927E+01  8.08300E+01  9.55580E+01  8.39015E+01  7.81279E+01  1.14635E+02  1.65201E+02
   1.84006E+02  1.58862E+02  1.13837E+02  7.67035E+01  5.37482E+01  3.26900E+01  2.67493E+01  2.13649E+01  1.86884E+01  1.20356E+01
   1.68238E+01  2.06927E+01  1.88247E+01  1.89235E+01  1.83136E+01  1.19910E+01  1.39897E+01  1.77303E+01  1.62452E+01  1.27592E+01
   1.02663E+01  1.02564E+01  1.76695E+01  8.05645E+00  6.86743E+00  7.38021E+00  9.41749E+00  1.21220E+01  1.69918E+01  1.68727E+01
   1.47421E+01  1.50300E+01  1.39620E+01  1.74143E+01  1.87697E+01  9.60428E+00  1.55005E+01  1.08565E+01  1.02910E+01  1.43725E+01
   9.84624E+00  8.73158E+00  1.07085E+01  8.07285E+00  1.01718E+01  1.38624E+01  1.57188E+01  1.49500E+01  1.76907E+01  1.61030E+01
   2.24722E+01  1.65644E+01  1.76828E+01  1.33632E+01  1.17530E+01  1.30115E+01  1.13565E+01  1.03411E+01  9.21365E+00  1.46893E+01
   1.00122E+01  9.74639E+00  1.29522E+01  9.00881E+00  6.38306E+00  9.87603E+00  1.22506E+01  1.47076E+01  1.42422E+01  1.00992E+01
   9.74588E+00  7.34045E+00  1.37801E+01  1.15831E+01  1.48541E+01  2.02981E+01  2.53899E+01  1.63363E+01  1.98423E+01  1.49714E+01
   1.67517E+01  1.29413E+01  1.13455E+01  1.30268E+01  1.19233E+01  1.36718E+01  1.28460E+01  1.20604E+01  7.15802E+00  1.60648E+01
   1.34890E+01  2.03137E+01  1.74185E+01  2.30406E+01  1.93077E+01  1.81743E+01  1.46430E+01  1.68470E+01  2.00734E+01  1.12229E+01
   1.48513E+01  1.52403E+01  1.52528E+01  1.78832E+01  1.79017E+01  1.59281E+01  1.33544E+01  1.03771E+01  1.37916E+01  1.44954E+01
   1.40242E+01  1.43205E+01  1.57969E+01  2.07853E+01  1.28768E+01  1.98767E+01  1.58340E+01  1.62106E+01  1.40506E+01  1.29664E+01
   1.18139E+01  1.38794E+01  8.01490E+00  1.37873E+01  6.24872E+00  1.17310E+01  1.02226E+01  7.73757E+00  1.45250E+01  1.55603E+01
   1.23556E+01  1.45532E+01  1.66788E+01  1.83436E+01  2.34447E+01  1.83220E+01  1.78183E+01  2.31187E+01  2.29873E+01  1.74616E+01
   1.38005E+01  2.04965E+01  2.42364E+01  2.34186E+01  2.17785E+01  1.92330E+01  2.49208E+01  2.62159E+01  2.32197E+01  2.51931E+01
   2.62300E+01  2.38945E+01  2.07870E+01  2.38066E+01  1.85770E+01  1.99955E+01  2.05134E+01  1.94608E+01  1.86642E+01  1.68372E+01
   1.55105E+01  1.72945E+01  1.35320E+01  9.29073E+00  1.43050E+01  1.16776E+01  1.39508E+01  1.28432E+01  1.42092E+01  1.58371E+01
   1.51752E+01  1.39495E+01  1.08422E+01  1.43778E+01  1.12956E+01  9.76352E+00  1.51257E+01  1.22467E+01  1.76329E+01  1.66564E+01
   1.01676E+01  1.04860E+01  1.26703E+01  9.32043E+00  1.61328E+01  1.59440E+01  1.36438E+01  1.25275E+01  6.63795E+00  9.07638E+00
   1.29709E+01  1.17356E+01  1.13370E+01  1.24981E+01  1.11230E+01  1.20964E+01  1.24599E+01  1.51001E+01  1.65457E+01  1.14584E+01
   1.60163E+01  1.12747E+01  8.29926E+00  1.06932E+01  1.23706E+01  8.19062E+00  1.18379E+01  1.06898E+01  1.01598E+01  8.31941E+00
   7.50282E+00  1.30392E+01  1.45385E+01  1.04241E+01  1.10283E+01  6.14010E+00  8.92560E+00  1.05802E+01  1.66913E+01  1.37971E+01
   1.58373E+01  1.19018E+01  9.96073E+00  1.20625E+01  1.42049E+01  6.54711E+00  1.30105E+01  7.81750E+00  8.02022E+00  1.16958E+01
   1.10702E+01  1.09078E+01  6.92833E+00  1.44430E+01  9.25432E+00  6.07445E+00  1.27491E+01  1.13949E+01
 NY points of the fit to the data follow
  -6.01132E+00 -5.83659E+00 -5.28030E+00 -4.18355E+00 -2.05325E+00  6.11962E-01  5.54919E+00  1.43009E+01  2.48473E+01  3.44958E+01
   3.92213E+01  3.67306E+01  2.89663E+01  1.99184E+01  1.27873E+01  8.18771E+00  5.24371E+00  3.18495E+00  1.79119E+00  1.11687E+00
   9.29447E-01  7.59858E-01  4.22569E-01 -6.22985E-02 -1.06833E-02  3.90804E-01 -2.08160E-01  1.11659E+00  6.25592E+00  1.21897E+01
   1.55500E+01  1.58352E+01  1.49035E+01  1.33013E+01  1.04716E+01  6.88629E+00  3.44969E+00  1.28025E+00  4.58239E-01  4.72675E-01
   1.47718E+00  3.25033E+00  4.73788E+00  5.56945E+00  6.99727E+00  9.90784E+00  1.28700E+01  1.39063E+01  1.25261E+01  9.85139E+00
   7.20156E+00  5.05960E+00  3.47308E+00  2.58130E+00  2.39336E+00  2.47864E+00  2.72112E+00  3.40914E+00  4.47302E+00  5.44110E+00
   5.68013E+00  4.98232E+00  3.73161E+00  2.42734E+00  1.53687E+00  1.22985E+00  1.51257E+00  2.12248E+00  2.71141E+00  3.34625E+00
   4.03058E+00  4.51231E+00  4.56411E+00  4.23497E+00  3.81488E+00  3.50776E+00  3.34462E+00  3.26565E+00  3.23319E+00  3.24917E+00
   3.28910E+00  3.37141E+00  3.50509E+00  3.63712E+00  4.13243E+00  4.71607E+00  4.61604E+00  3.71072E+00  2.66409E+00  2.14863E+00
   2.29644E+00  2.89771E+00  3.61655E+00  4.34619E+00  5.08067E+00  5.64702E+00  6.24976E+00  8.46955E+00  1.35708E+01  2.09178E+01
   4.08400E+01  7.31017E+01  9.84404E+01  1.00887E+02  8.28270E+01  5.83542E+01  3.86519E+01  2.53508E+01  1.63549E+01  1.03805E+01
   7.65427E+00  6.69179E+00  6.27773E+00  6.08165E+00  5.99243E+00  5.97152E+00  6.01775E+00  6.06680E+00  6.10161E+00  6.24120E+00
   6.72521E+00  8.38970E+00  1.29750E+01  1.79083E+01  3.10451E+01  5.79182E+01  8.38373E+01  9.11911E+01  7.82859E+01  5.69292E+01
   3.91078E+01  2.80147E+01  2.08787E+01  1.47975E+01  1.00124E+01  6.52588E+00  4.18475E+00  3.44688E+00  4.08707E+00  5.67542E+00
   7.43168E+00  8.52596E+00  8.61303E+00  7.97252E+00  7.09628E+00  6.27310E+00  5.63953E+00  5.19195E+00  4.79128E+00  4.35339E+00
   3.89635E+00  3.20493E+00  2.27092E+00  1.56364E+00  1.46355E+00  2.03239E+00  2.82603E+00  3.41755E+00  2.77403E+00  6.07754E-01
  -1.67860E+00 -2.85505E+00 -1.97093E+00  1.53234E-01  1.30330E+00  5.70964E-01 -1.32139E+00 -3.39118E+00 -4.68350E+00 -4.87317E+00
  -4.38800E+00 -3.95112E+00 -4.18532E+00 -5.44878E+00 -7.65818E+00 -9.00416E+00 -8.32183E+00 -6.15328E+00 -4.53749E+00 -5.09252E+00
  -6.73198E+00 -7.12589E+00 -5.93299E+00 -4.20233E+00 -3.64540E+00 -4.22187E+00 -3.86200E+00 -1.31760E+00  2.58634E+00  6.50626E+00
   9.13305E+00  9.70901E+00  8.49306E+00  6.30825E+00  4.63667E+00  3.36974E+00  2.22656E+00  1.75747E+00  2.46353E+00  4.01480E+00
   5.48919E+00  7.24862E+00  9.49761E+00  1.13353E+01  1.18978E+01  1.02903E+01  7.35187E+00  3.87419E+00  3.32409E-01 -1.86685E+00
  -2.69694E+00 -2.29039E+00 -4.14899E-01  3.90352E+00  1.09505E+01  1.72943E+01  1.92724E+01  1.63910E+01  1.10538E+01  5.47922E+00
  -3.94227E-01 -5.94961E+00 -8.05791E+00 -4.95920E+00  1.47814E+00  7.79743E+00  1.22072E+01  1.48062E+01  1.58858E+01  1.52240E+01
   1.33779E+01  1.20252E+01  1.25355E+01  1.44390E+01  1.64833E+01  1.82513E+01  1.94030E+01  1.94689E+01  1.79663E+01  1.54102E+01
   1.27549E+01  1.09829E+01  1.09780E+01  1.32732E+01  1.69862E+01  2.04369E+01  2.26221E+01  2.35608E+01  2.35312E+01  2.32035E+01
   2.46180E+01  2.72278E+01  3.40105E+01  5.17282E+01  7.34966E+01  8.91969E+01  8.93005E+01  8.76364E+01  1.17073E+02  1.62240E+02
   1.81636E+02  1.60124E+02  1.17224E+02  7.90764E+01  5.42168E+01  3.80863E+01  2.65519E+01  1.96927E+01  1.75316E+01  1.65667E+01
   1.59585E+01  1.55738E+01  1.55458E+01  1.56148E+01  1.53410E+01  1.46093E+01  1.37541E+01  1.31282E+01  1.27435E+01  1.23977E+01
   1.22110E+01  1.22687E+01  1.24362E+01  1.25023E+01  1.23988E+01  1.21906E+01  1.19943E+01  1.17770E+01  1.15712E+01  1.15523E+01
   1.18043E+01  1.21972E+01  1.25648E+01  1.28171E+01  1.29917E+01  1.31091E+01  1.31219E+01  1.30741E+01  1.30826E+01  1.32012E+01
   1.33890E+01  1.35774E+01  1.37288E+01  1.38367E+01  1.39000E+01  1.39134E+01  1.38785E+01  1.38090E+01  1.37146E+01  1.36049E+01
   1.34859E+01  1.33580E+01  1.32233E+01  1.30894E+01  1.29680E+01  1.28677E+01  1.27930E+01  1.27463E+01  1.27337E+01  1.27653E+01
   1.28568E+01  1.30365E+01  1.33398E+01  1.36566E+01  1.42109E+01  1.49625E+01  1.50762E+01  1.41130E+01  1.25721E+01  1.12527E+01
   1.06263E+01  1.04098E+01  1.03608E+01  1.10996E+01  1.27943E+01  1.46401E+01  1.57703E+01  1.60296E+01  1.58083E+01  1.54910E+01
   1.51908E+01  1.49017E+01  1.46606E+01  1.45273E+01  1.44732E+01  1.44860E+01  1.45704E+01  1.47358E+01  1.49889E+01  1.53266E+01
   1.57341E+01  1.61843E+01  1.66410E+01  1.70605E+01  1.73970E+01  1.76086E+01  1.76663E+01  1.75607E+01  1.73045E+01  1.69270E+01
   1.64685E+01  1.59713E+01  1.54757E+01  1.50143E+01  1.46098E+01  1.42719E+01  1.39992E+01  1.37821E+01  1.36097E+01  1.34712E+01
   1.33584E+01  1.32638E+01  1.31816E+01  1.31078E+01  1.30429E+01  1.29891E+01  1.29500E+01  1.29273E+01  1.29233E+01  1.29400E+01
   1.29822E+01  1.30542E+01  1.31603E+01  1.33022E+01  1.34824E+01  1.37036E+01  1.39703E+01  1.42855E+01  1.46513E+01  1.50671E+01
   1.55326E+01  1.60468E+01  1.66089E+01  1.72146E+01  1.78574E+01  1.85274E+01  1.92145E+01  1.99074E+01  2.05938E+01  2.12583E+01
   2.18843E+01  2.24546E+01  2.29547E+01  2.33712E+01  2.36929E+01  2.39093E+01  2.40127E+01  2.39995E+01  2.38711E+01  2.36324E+01
   2.32911E+01  2.28561E+01  2.23395E+01  2.17554E+01  2.11209E+01  2.04521E+01  1.97641E+01  1.90700E+01  1.83825E+01  1.77132E+01
   1.70728E+01  1.64682E+01  1.59042E+01  1.53825E+01  1.49052E+01  1.44729E+01  1.40858E+01  1.37412E+01  1.34358E+01  1.31656E+01
   1.29282E+01  1.27210E+01  1.25415E+01  1.23857E+01  1.22499E+01  1.21310E+01  1.20280E+01  1.19392E+01  1.18631E+01  1.17967E+01
   1.17384E+01  1.16867E+01  1.16422E+01  1.16040E+01  1.15712E+01  1.15417E+01  1.15150E+01  1.14911E+01  1.14707E+01  1.14531E+01
   1.14375E+01  1.14225E+01  1.14083E+01  1.13953E+01  1.13843E+01  1.13744E+01  1.13649E+01  1.13549E+01  1.13454E+01  1.13366E+01
   1.13292E+01  1.13219E+01  1.13142E+01  1.13059E+01  1.12980E+01  1.12909E+01  1.12845E+01  1.12777E+01  1.12703E+01  1.12623E+01
   1.12551E+01  1.12485E+01  1.12422E+01  1.12351E+01  1.12274E+01  1.12195E+01  1.12126E+01  1.12061E+01  1.11996E+01  1.11921E+01
   1.11843E+01  1.11768E+01  1.11703E+01  1.11639E+01  1.11572E+01  1.11497E+01  1.11423E+01  1.11355E+01  1.11297E+01  1.11238E+01
   1.11174E+01  1.11105E+01  1.11042E+01  1.10988E+01  1.10942E+01  1.10893E+01  1.10840E+01  1.10787E+01
 NY background values follow
    -8.424E+00   -8.267E+00   -8.111E+00   -7.954E+00   -7.798E+00   -7.642E+00   -7.486E+00   -7.330E+00   -7.174E+00   -7.019E+00
    -6.864E+00   -6.710E+00   -6.555E+00   -6.402E+00   -6.248E+00   -6.095E+00   -5.943E+00   -5.791E+00   -5.640E+00   -5.489E+00
    -5.339E+00   -5.190E+00   -5.041E+00   -4.893E+00   -4.746E+00   -4.599E+00   -4.454E+00   -4.309E+00   -4.165E+00   -4.023E+00
    -3.881E+00   -3.740E+00   -3.600E+00   -3.461E+00   -3.323E+00   -3.186E+00   -3.051E+00   -2.917E+00   -2.783E+00   -2.652E+00
    -2.521E+00   -2.392E+00   -2.264E+00   -2.137E+00   -2.012E+00   -1.888E+00   -1.766E+00   -1.645E+00   -1.526E+00   -1.408E+00
    -1.292E+00   -1.177E+00   -1.064E+00   -9.517E-01   -8.413E-01   -7.324E-01   -6.249E-01   -5.190E-01   -4.145E-01   -3.115E-01
    -2.100E-01   -1.099E-01   -1.139E-02    8.566E-02    1.812E-01    2.753E-01    3.679E-01    4.590E-01    5.486E-01    6.368E-01
     7.234E-01    8.085E-01    8.922E-01    9.744E-01    1.055E+00    1.134E+00    1.212E+00    1.288E+00    1.363E+00    1.436E+00
     1.508E+00    1.578E+00    1.647E+00    1.714E+00    1.780E+00    1.844E+00    1.907E+00    1.968E+00    2.028E+00    2.086E+00
     2.143E+00    2.198E+00    2.252E+00    2.304E+00    2.354E+00    2.403E+00    2.451E+00    2.496E+00    2.540E+00    2.582E+00
     2.622E+00    2.661E+00    2.697E+00    2.732E+00    2.765E+00    2.796E+00    2.824E+00    2.851E+00    2.876E+00    2.898E+00
     2.919E+00    2.937E+00    2.953E+00    2.967E+00    2.978E+00    2.987E+00    2.994E+00    2.999E+00    3.001E+00    3.000E+00
     2.997E+00    2.992E+00    2.984E+00    2.973E+00    2.960E+00    2.944E+00    2.925E+00    2.904E+00    2.880E+00    2.853E+00
     2.823E+00    2.790E+00    2.755E+00    2.716E+00    2.675E+00    2.630E+00    2.583E+00    2.532E+00    2.479E+00    2.423E+00
     2.365E+00    2.304E+00    2.242E+00    2.177E+00    2.111E+00    2.044E+00    1.975E+00    1.905E+00    1.835E+00    1.763E+00
     1.691E+00    1.619E+00    1.547E+00    1.475E+00    1.403E+00    1.331E+00    1.260E+00    1.191E+00    1.122E+00    1.054E+00
     9.875E-01    9.228E-01    8.599E-01    7.990E-01    7.402E-01    6.839E-01    6.300E-01    5.790E-01    5.308E-01    4.858E-01
     4.442E-01    4.060E-01    3.715E-01    3.410E-01    3.145E-01    2.923E-01    2.746E-01    2.615E-01    2.533E-01    2.501E-01
     2.522E-01    2.597E-01    2.726E-01    2.910E-01    3.145E-01    3.430E-01    3.764E-01    4.145E-01    4.571E-01    5.041E-01
     5.553E-01    6.106E-01    6.697E-01    7.325E-01    7.989E-01    8.686E-01    9.416E-01    1.018E+00    1.096E+00    1.178E+00
     1.262E+00    1.349E+00    1.438E+00    1.528E+00    1.621E+00    1.716E+00    1.812E+00    1.909E+00    2.008E+00    2.108E+00
     2.208E+00    2.310E+00    2.412E+00    2.514E+00    2.617E+00    2.720E+00    2.822E+00    2.925E+00    3.027E+00    3.128E+00
     3.229E+00    3.329E+00    3.428E+00    3.525E+00    3.621E+00    3.716E+00    3.809E+00    3.900E+00    3.989E+00    4.076E+00
     4.162E+00    4.246E+00    4.328E+00    4.408E+00    4.487E+00    4.564E+00    4.640E+00    4.714E+00    4.786E+00    4.857E+00
     4.926E+00    4.994E+00    5.060E+00    5.125E+00    5.189E+00    5.251E+00    5.312E+00    5.372E+00    5.430E+00    5.487E+00
     5.543E+00    5.597E+00    5.651E+00    5.703E+00    5.754E+00    5.805E+00    5.854E+00    5.902E+00    5.949E+00    5.995E+00
     6.040E+00    6.085E+00    6.128E+00    6.171E+00    6.212E+00    6.253E+00    6.294E+00    6.333E+00    6.372E+00    6.410E+00
     6.447E+00    6.484E+00    6.520E+00    6.556E+00    6.591E+00    6.625E+00    6.659E+00    6.693E+00    6.726E+00    6.758E+00
     6.790E+00    6.821E+00    6.852E+00    6.882E+00    6.912E+00    6.941E+00    6.970E+00    6.999E+00    7.027E+00    7.055E+00
     7.082E+00    7.109E+00    7.135E+00    7.162E+00    7.187E+00    7.213E+00    7.238E+00    7.262E+00    7.287E+00    7.311E+00
     7.335E+00    7.358E+00    7.381E+00    7.404E+00    7.427E+00    7.449E+00    7.472E+00    7.494E+00    7.515E+00    7.537E+00
     7.558E+00    7.579E+00    7.600E+00    7.621E+00    7.642E+00    7.662E+00    7.682E+00    7.703E+00    7.723E+00    7.743E+00
     7.763E+00    7.782E+00    7.802E+00    7.822E+00    7.841E+00    7.860E+00    7.880E+00    7.899E+00    7.918E+00    7.937E+00
     7.956E+00    7.975E+00    7.993E+00    8.012E+00    8.031E+00    8.049E+00    8.068E+00    8.086E+00    8.105E+00    8.123E+00
     8.141E+00    8.160E+00    8.178E+00    8.196E+00    8.214E+00    8.232E+00    8.250E+00    8.269E+00    8.287E+00    8.305E+00
     8.323E+00    8.341E+00    8.359E+00    8.377E+00    8.395E+00    8.413E+00    8.431E+00    8.449E+00    8.467E+00    8.485E+00
     8.503E+00    8.522E+00    8.540E+00    8.558E+00    8.576E+00    8.595E+00    8.613E+00    8.631E+00    8.650E+00    8.669E+00
     8.687E+00    8.706E+00    8.725E+00    8.744E+00    8.763E+00    8.782E+00    8.802E+00    8.821E+00    8.841E+00    8.861E+00
     8.881E+00    8.901E+00    8.922E+00    8.943E+00    8.963E+00    8.984E+00    9.006E+00    9.027E+00    9.049E+00    9.071E+00
     9.093E+00    9.116E+00    9.138E+00    9.161E+00    9.185E+00    9.208E+00    9.232E+00    9.257E+00    9.281E+00    9.306E+00
     9.331E+00    9.357E+00    9.383E+00    9.409E+00    9.435E+00    9.462E+00    9.490E+00    9.518E+00    9.546E+00    9.574E+00
     9.603E+00    9.632E+00    9.661E+00    9.691E+00    9.721E+00    9.751E+00    9.781E+00    9.811E+00    9.842E+00    9.872E+00
     9.903E+00    9.933E+00    9.964E+00    9.994E+00    1.002E+01    1.005E+01    1.008E+01    1.011E+01    1.014E+01    1.017E+01
     1.020E+01    1.023E+01    1.026E+01    1.029E+01    1.032E+01    1.035E+01    1.037E+01    1.040E+01    1.043E+01    1.045E+01
     1.048E+01    1.050E+01    1.053E+01    1.055E+01    1.057E+01    1.059E+01    1.062E+01    1.064E+01    1.066E+01    1.068E+01
     1.069E+01    1.071E+01    1.073E+01    1.074E+01    1.076E+01    1.077E+01    1.079E+01    1.080E+01    1.081E+01    1.082E+01
     1.083E+01    1.084E+01    1.085E+01    1.086E+01    1.087E+01    1.087E+01    1.088E+01    1.089E+01    1.089E+01    1.090E+01
     1.090E+01    1.090E+01    1.091E+01    1.091E+01    1.091E+01    1.091E+01    1.092E+01    1.092E+01    1.092E+01    1.092E+01
     1.092E+01    1.092E+01    1.092E+01    1.092E+01    1.092E+01    1.092E+01    1.092E+01    1.091E+01    1.091E+01    1.091E+01
     1.091E+01    1.091E+01    1.091E+01    1.091E+01    1.090E+01    1.090E+01    1.090E+01    1.090E+01
 Ala      Conc. = 1.65E+02
