 LCModel (Version 6.3-1L) Copyright: S.W. Provencher.          Ref.: Magn. Reson. Med. 30:672-679 (1993).                
 Slice#3 Row#2 Col#13  K_02_press_1_raw_act
 36 lines in following concentration table = NCONC+1
    Conc.  %SD /Cr+PCr  Metabolite                                         
 4.12E+04   9%   0.000 Ala                                                 
    0.396 999%   0.000 Asp                                                 
    0.000 999%   0.000 Cr                                                  
    0.000 999%   0.000 PCr                                                 
    0.000 999%   0.000 GABA                                                
    0.000 999%   0.000 Glc                                                 
    0.000 999%   0.000 Gln                                                 
    0.000 999%   0.000 Glu                                                 
    0.000 999%   0.000 GPC                                                 
    0.000 999%   0.000 PCh                                                 
  635.892  54%   0.000 GSH                                                 
    0.000 999%   0.000 Ins                                                 
 1.10E+04  36%   0.000 Lac                                                 
    0.000 999%   0.000 NAA                                                 
    0.000 999%   0.000 NAAG                                                
    0.000 999%   0.000 Scyllo                                              
    0.000 999%   0.000 Tau                                                 
    2.016 999%   0.000 -CrCH2                                              
    0.000 999%   0.000 GPC+PCh                                             
    0.000 999%   0.000 NAA+NAAG                                            
    0.000 999%   0.000 Cr+PCr                                              
    0.000 999%   0.000 Glu+Gln                                             
    0.000 999%   0.000 Lip13a                                              
  262.517 154%   0.000 Lip13b                                              
    0.000 999%   0.000 Lip09                                               
 7.29E+03  11%   0.000 MM09                                                
    0.000 999%   0.000 Lip20                                               
    0.000 999%   0.000-MM20                                                
 1.98E+03  25%   0.000 MM12                                                
 3.87E+04   3%   0.000+MM14                                                
 7.88E+03  15%   0.000+MM17                                                
  262.517 154%   0.000 Lip13a+Lip13b                                       
 4.09E+04   3%   0.000 MM14+Lip13a+Lip13b+MM12                             
 7.29E+03  11%   0.000 MM09+Lip09                                          
    0.000 999%   0.000 MM20+Lip20                                          
   6 lines in following misc. output table
  FWHM = 0.168 ppm    S/N =  20                                            
  Data shift = 0.115 ppm                                                   
  Ph: -65 deg     -40.0 deg/ppm                                            
  alphaB,S = 8.5E+01,   1.6E+03                                            
    7 spline knots.   Ns = 9(2)                                            
   2 inflections.     1 extrema                                            
  498 points on ppm-axis = NY
      4.000000     3.992357     3.984714     3.977070     3.969427     3.961784     3.954141     3.946497     3.938854     3.931211
      3.923568     3.915925     3.908281     3.900638     3.892995     3.885352     3.877708     3.870065     3.862422     3.854779
      3.847136     3.839492     3.831849     3.824206     3.816563     3.808919     3.801276     3.793633     3.785990     3.778347
      3.770703     3.763060     3.755417     3.747774     3.740130     3.732487     3.724844     3.717201     3.709558     3.701914
      3.694271     3.686628     3.678985     3.671341     3.663698     3.656055     3.648412     3.640769     3.633125     3.625482
      3.617839     3.610196     3.602552     3.594909     3.587266     3.579623     3.571980     3.564336     3.556693     3.549050
      3.541407     3.533763     3.526120     3.518477     3.510834     3.503191     3.495547     3.487904     3.480261     3.472618
      3.464974     3.457331     3.449688     3.442045     3.434402     3.426758     3.419115     3.411472     3.403829     3.396185
      3.388542     3.380899     3.373256     3.365613     3.357969     3.350326     3.342683     3.335040     3.327396     3.319753
      3.312110     3.304467     3.296824     3.289180     3.281537     3.273894     3.266251     3.258607     3.250964     3.243321
      3.235678     3.228034     3.220391     3.212748     3.205105     3.197462     3.189818     3.182175     3.174532     3.166889
      3.159245     3.151602     3.143959     3.136316     3.128673     3.121029     3.113386     3.105743     3.098100     3.090456
      3.082813     3.075170     3.067527     3.059884     3.052240     3.044597     3.036954     3.029311     3.021667     3.014024
      3.006381     2.998738     2.991095     2.983451     2.975808     2.968165     2.960522     2.952878     2.945235     2.937592
      2.929949     2.922306     2.914662     2.907019     2.899376     2.891733     2.884089     2.876446     2.868803     2.861160
      2.853517     2.845873     2.838230     2.830587     2.822944     2.815300     2.807657     2.800014     2.792371     2.784728
      2.777084     2.769441     2.761798     2.754155     2.746511     2.738868     2.731225     2.723582     2.715939     2.708295
      2.700652     2.693009     2.685366     2.677722     2.670079     2.662436     2.654793     2.647150     2.639506     2.631863
      2.624220     2.616577     2.608933     2.601290     2.593647     2.586004     2.578361     2.570717     2.563074     2.555431
      2.547788     2.540144     2.532501     2.524858     2.517215     2.509572     2.501928     2.494285     2.486642     2.478999
      2.471355     2.463712     2.456069     2.448426     2.440783     2.433139     2.425496     2.417853     2.410210     2.402566
      2.394923     2.387280     2.379637     2.371994     2.364350     2.356707     2.349064     2.341421     2.333777     2.326134
      2.318491     2.310848     2.303205     2.295561     2.287918     2.280275     2.272632     2.264988     2.257345     2.249702
      2.242059     2.234416     2.226772     2.219129     2.211486     2.203843     2.196199     2.188556     2.180913     2.173270
      2.165627     2.157983     2.150340     2.142697     2.135054     2.127410     2.119767     2.112124     2.104481     2.096838
      2.089194     2.081551     2.073908     2.066265     2.058621     2.050978     2.043335     2.035692     2.028049     2.020405
      2.012762     2.005119     1.997476     1.989833     1.982190     1.974546     1.966903     1.959260     1.951617     1.943974
      1.936331     1.928688     1.921045     1.913402     1.905759     1.898115     1.890472     1.882829     1.875186     1.867543
      1.859900     1.852257     1.844614     1.836971     1.829327     1.821684     1.814041     1.806398     1.798755     1.791112
      1.783469     1.775826     1.768183     1.760540     1.752896     1.745253     1.737610     1.729967     1.722324     1.714681
      1.707038     1.699395     1.691752     1.684108     1.676465     1.668822     1.661179     1.653536     1.645893     1.638250
      1.630607     1.622964     1.615321     1.607677     1.600034     1.592391     1.584748     1.577105     1.569462     1.561819
      1.554176     1.546533     1.538890     1.531246     1.523603     1.515960     1.508317     1.500674     1.493031     1.485388
      1.477745     1.470102     1.462458     1.454815     1.447172     1.439529     1.431886     1.424243     1.416600     1.408957
      1.401314     1.393671     1.386027     1.378384     1.370741     1.363098     1.355455     1.347812     1.340169     1.332526
      1.324883     1.317240     1.309596     1.301953     1.294310     1.286667     1.279024     1.271381     1.263738     1.256095
      1.248452     1.240808     1.233165     1.225522     1.217879     1.210236     1.202593     1.194950     1.187307     1.179664
      1.172021     1.164377     1.156734     1.149091     1.141448     1.133805     1.126162     1.118519     1.110876     1.103233
      1.095590     1.087946     1.080303     1.072660     1.065017     1.057374     1.049731     1.042088     1.034445     1.026802
      1.019158     1.011515     1.003872     0.996229     0.988586     0.980943     0.973300     0.965657     0.958014     0.950371
      0.942727     0.935084     0.927441     0.919798     0.912155     0.904512     0.896869     0.889226     0.881583     0.873940
      0.866296     0.858653     0.851010     0.843367     0.835724     0.828081     0.820438     0.812795     0.805152     0.797508
      0.789865     0.782222     0.774579     0.766936     0.759293     0.751650     0.744007     0.736364     0.728721     0.721077
      0.713434     0.705791     0.698148     0.690505     0.682862     0.675219     0.667576     0.659933     0.652290     0.644646
      0.637003     0.629360     0.621717     0.614074     0.606431     0.598788     0.591145     0.583502     0.575858     0.568215
      0.560572     0.552929     0.545286     0.537643     0.530000     0.522357     0.514714     0.507071     0.499427     0.491784
      0.484141     0.476498     0.468855     0.461212     0.453569     0.445925     0.438282     0.430639     0.422996     0.415353
      0.407710     0.400067     0.392424     0.384780     0.377137     0.369494     0.361851     0.354208     0.346565     0.338922
      0.331278     0.323635     0.315992     0.308349     0.300706     0.293063     0.285420     0.277777     0.270133     0.262490
      0.254847     0.247204     0.239561     0.231918     0.224275     0.216631     0.208988     0.201345
 NY phased data points follow
   2.46570E+01  2.23986E+01  2.33610E+01  2.15274E+01  2.52118E+01  2.27931E+01  2.09273E+01  2.19762E+01  2.42298E+01  2.01259E+01
   2.17934E+01  2.31908E+01  2.40711E+01  2.67916E+01  1.98346E+01  2.25082E+01  2.43755E+01  2.16234E+01  2.06500E+01  2.32617E+01
   2.41628E+01  2.30259E+01  2.32631E+01  2.21007E+01  2.21252E+01  2.41936E+01  2.30567E+01  2.05626E+01  2.06110E+01  2.10904E+01
   2.18214E+01  2.31179E+01  2.30377E+01  2.53987E+01  1.98446E+01  2.34829E+01  2.28640E+01  2.50697E+01  2.28414E+01  1.79370E+01
   2.34724E+01  2.31362E+01  2.24560E+01  2.02406E+01  2.37378E+01  2.46298E+01  2.13366E+01  2.50759E+01  2.36338E+01  2.16507E+01
   2.33125E+01  2.07879E+01  2.32430E+01  2.28236E+01  2.40500E+01  2.32943E+01  1.95654E+01  1.94073E+01  2.42477E+01  2.31751E+01
   2.32112E+01  2.37524E+01  2.23009E+01  2.39351E+01  2.32034E+01  2.56546E+01  2.34803E+01  2.29412E+01  2.19345E+01  2.35757E+01
   2.76366E+01  2.47511E+01  2.22566E+01  2.11541E+01  2.56469E+01  2.48801E+01  2.14136E+01  2.22581E+01  2.36734E+01  2.33493E+01
   2.49231E+01  2.44058E+01  2.41868E+01  2.44012E+01  2.24883E+01  2.23129E+01  2.40164E+01  2.60730E+01  2.97446E+01  2.79037E+01
   2.51799E+01  2.77200E+01  2.54846E+01  2.52793E+01  2.51671E+01  1.96820E+01  2.08196E+01  2.47607E+01  2.33763E+01  2.33786E+01
   2.42003E+01  2.29852E+01  2.68913E+01  2.55840E+01  2.33714E+01  2.43017E+01  2.38995E+01  2.56687E+01  2.39983E+01  2.59454E+01
   2.64993E+01  2.69239E+01  2.63053E+01  2.62169E+01  3.06521E+01  2.70029E+01  2.56937E+01  2.67542E+01  2.75875E+01  2.49857E+01
   2.53663E+01  2.53638E+01  2.61201E+01  2.80502E+01  2.88098E+01  2.60129E+01  2.42324E+01  2.49283E+01  2.82302E+01  2.26278E+01
   2.51634E+01  2.47158E+01  2.60622E+01  2.49832E+01  2.48873E+01  2.58884E+01  2.85897E+01  2.41636E+01  2.13573E+01  2.58664E+01
   2.38963E+01  2.45868E+01  2.59947E+01  2.37178E+01  2.60967E+01  2.78107E+01  2.52613E+01  2.56624E+01  2.37224E+01  2.43148E+01
   2.90632E+01  2.67180E+01  2.45324E+01  2.64047E+01  2.84820E+01  2.71847E+01  2.60421E+01  2.60585E+01  2.70697E+01  2.40778E+01
   2.62221E+01  2.40256E+01  2.44750E+01  2.81158E+01  2.58228E+01  2.86595E+01  2.70840E+01  2.90044E+01  2.94039E+01  2.69786E+01
   2.84474E+01  2.98756E+01  3.12209E+01  2.83305E+01  3.07530E+01  2.69293E+01  3.08152E+01  3.22117E+01  3.04771E+01  3.10476E+01
   3.55525E+01  3.37111E+01  3.20788E+01  3.35083E+01  3.42799E+01  2.88330E+01  3.37983E+01  3.42004E+01  3.45592E+01  3.65406E+01
   3.50510E+01  3.46029E+01  3.38598E+01  3.19447E+01  3.54359E+01  3.56861E+01  3.53161E+01  3.70271E+01  3.51994E+01  3.80037E+01
   3.51777E+01  3.77344E+01  3.86862E+01  3.61213E+01  3.73469E+01  3.85396E+01  3.43149E+01  3.41795E+01  3.55625E+01  3.44270E+01
   3.54004E+01  3.61592E+01  3.64313E+01  3.44152E+01  3.75161E+01  3.49376E+01  3.78830E+01  3.68248E+01  3.56528E+01  3.45841E+01
   3.33891E+01  3.46483E+01  3.31298E+01  3.36178E+01  3.43793E+01  3.72083E+01  3.31739E+01  3.47249E+01  3.53319E+01  3.28298E+01
   3.36354E+01  3.48486E+01  3.23509E+01  3.48937E+01  3.14773E+01  3.10637E+01  3.08687E+01  2.83548E+01  2.89324E+01  3.05921E+01
   3.14096E+01  2.99937E+01  3.06725E+01  2.65854E+01  3.00461E+01  2.98403E+01  3.29118E+01  3.35003E+01  3.42430E+01  2.95896E+01
   2.93446E+01  2.59856E+01  2.36088E+01  2.31539E+01  2.57975E+01  2.69642E+01  2.92070E+01  2.70513E+01  2.70052E+01  2.84478E+01
   2.67652E+01  3.01195E+01  2.70431E+01  2.74367E+01  3.11813E+01  2.92032E+01  2.99063E+01  2.90410E+01  3.08414E+01  3.24091E+01
   3.27214E+01  2.94138E+01  3.45492E+01  3.48840E+01  3.61496E+01  3.48137E+01  3.94353E+01  3.82095E+01  3.86268E+01  4.29439E+01
   4.06816E+01  4.81953E+01  4.62503E+01  5.17213E+01  5.30088E+01  5.43839E+01  5.85095E+01  6.09680E+01  6.53787E+01  6.90790E+01
   7.20927E+01  7.79329E+01  8.59056E+01  8.73775E+01  9.48605E+01  1.01199E+02  1.02646E+02  1.13901E+02  1.20522E+02  1.27986E+02
   1.34493E+02  1.43512E+02  1.51169E+02  1.61747E+02  1.72521E+02  1.83909E+02  1.96976E+02  2.06664E+02  2.18037E+02  2.34724E+02
   2.43152E+02  2.58362E+02  2.73945E+02  2.84493E+02  2.95736E+02  3.11090E+02  3.29443E+02  3.41765E+02  3.54254E+02  3.65268E+02
   3.69889E+02  3.79966E+02  3.83901E+02  3.85161E+02  3.81904E+02  3.76397E+02  3.70681E+02  3.62842E+02  3.54644E+02  3.42401E+02
   3.31261E+02  3.16797E+02  3.02155E+02  2.86600E+02  2.74229E+02  2.59513E+02  2.44005E+02  2.31174E+02  2.16486E+02  2.05424E+02
   1.92060E+02  1.79197E+02  1.66986E+02  1.59006E+02  1.49382E+02  1.46021E+02  1.35736E+02  1.31060E+02  1.24732E+02  1.21801E+02
   1.18698E+02  1.13347E+02  1.10584E+02  1.07810E+02  1.02221E+02  1.03368E+02  9.67300E+01  9.53896E+01  9.17164E+01  9.16100E+01
   8.61684E+01  8.52730E+01  8.29919E+01  8.13105E+01  7.77453E+01  7.94861E+01  7.71822E+01  7.45449E+01  7.91408E+01  7.43553E+01
   7.26127E+01  6.83610E+01  7.25041E+01  7.11406E+01  7.36440E+01  7.10205E+01  7.25358E+01  6.95123E+01  7.00051E+01  7.17500E+01
   6.53234E+01  6.94215E+01  7.01909E+01  6.96942E+01  7.05998E+01  6.77299E+01  6.62714E+01  6.67046E+01  6.62288E+01  6.76479E+01
   6.61071E+01  6.36046E+01  6.24293E+01  6.14718E+01  5.91539E+01  5.91861E+01  6.24720E+01  5.92391E+01  5.92917E+01  5.91877E+01
   5.87906E+01  5.54566E+01  5.64526E+01  5.32752E+01  5.50996E+01  5.59871E+01  5.57810E+01  5.37242E+01  5.21067E+01  4.90086E+01
   4.79511E+01  4.83866E+01  5.21479E+01  4.99725E+01  5.15459E+01  4.66173E+01  5.09925E+01  4.73449E+01  4.69779E+01  4.51760E+01
   4.53734E+01  4.67754E+01  4.48115E+01  4.64560E+01  4.59014E+01  4.66620E+01  4.46531E+01  4.55209E+01  4.66486E+01  4.28913E+01
   4.14288E+01  4.15086E+01  4.05976E+01  4.37942E+01  3.92621E+01  4.02567E+01  4.24908E+01  4.17965E+01  4.04238E+01  4.06064E+01
   3.60225E+01  3.97147E+01  4.29420E+01  3.98220E+01  3.58920E+01  4.20050E+01  3.72117E+01  3.62187E+01  3.63068E+01  3.73731E+01
   4.04310E+01  3.96976E+01  3.66687E+01  3.76123E+01  3.57404E+01  3.82123E+01  3.57402E+01  3.41194E+01  3.55386E+01  3.26069E+01
   3.72059E+01  3.40562E+01  3.20497E+01  3.58060E+01  3.41114E+01  3.31541E+01  3.16542E+01  3.56469E+01  3.81111E+01  3.41280E+01
   3.72109E+01  3.23518E+01  3.57641E+01  3.41281E+01  3.46594E+01  3.30772E+01  3.12338E+01  3.17792E+01  3.05192E+01  3.18602E+01
   3.36888E+01  3.15406E+01  3.26755E+01  3.52999E+01  2.72679E+01  2.79366E+01  3.12548E+01  3.12608E+01  3.17023E+01  3.09713E+01
   3.13844E+01  3.04214E+01  2.89674E+01  3.03968E+01  2.65588E+01  2.92717E+01  2.75476E+01  2.84277E+01
 NY points of the fit to the data follow
   2.14879E+01  1.99677E+01  2.14229E+01  2.11769E+01  2.34571E+01  2.40271E+01  2.54189E+01  2.56315E+01  2.56070E+01  2.51727E+01
   2.38663E+01  2.31214E+01  2.16278E+01  2.17963E+01  2.09167E+01  2.19388E+01  2.14602E+01  2.28286E+01  2.23741E+01  2.34701E+01
   2.26487E+01  2.32106E+01  2.22238E+01  2.24537E+01  2.16564E+01  2.17849E+01  2.14263E+01  2.15881E+01  2.17640E+01  2.19619E+01
   2.25927E+01  2.26925E+01  2.35354E+01  2.33308E+01  2.40838E+01  2.33949E+01  2.38199E+01  2.26002E+01  2.26993E+01  2.14510E+01
   2.17737E+01  2.09431E+01  2.17959E+01  2.16411E+01  2.30354E+01  2.32458E+01  2.41170E+01  2.37663E+01  2.39355E+01  2.31278E+01
   2.27595E+01  2.19027E+01  2.15130E+01  2.13256E+01  2.15851E+01  2.18815E+01  2.24164E+01  2.28975E+01  2.34467E+01  2.38449E+01
   2.40634E+01  2.41882E+01  2.42667E+01  2.43205E+01  2.43606E+01  2.43926E+01  2.44203E+01  2.44452E+01  2.44692E+01  2.44925E+01
   2.45160E+01  2.45398E+01  2.45643E+01  2.45893E+01  2.46153E+01  2.46419E+01  2.46695E+01  2.46977E+01  2.47269E+01  2.47566E+01
   2.47872E+01  2.48184E+01  2.48504E+01  2.48829E+01  2.49161E+01  2.49500E+01  2.49844E+01  2.50194E+01  2.50550E+01  2.50912E+01
   2.51279E+01  2.51653E+01  2.52033E+01  2.52420E+01  2.52813E+01  2.53215E+01  2.53625E+01  2.54046E+01  2.54481E+01  2.54937E+01
   2.55403E+01  2.55819E+01  2.56290E+01  2.56673E+01  2.57163E+01  2.57551E+01  2.58156E+01  2.58551E+01  2.59241E+01  2.59639E+01
   2.60416E+01  2.60849E+01  2.61776E+01  2.62390E+01  2.63820E+01  2.65028E+01  2.66355E+01  2.67432E+01  2.68336E+01  2.69055E+01
   2.69655E+01  2.70631E+01  2.71075E+01  2.72914E+01  2.72948E+01  2.75473E+01  2.74861E+01  2.77906E+01  2.76562E+01  2.80082E+01
   2.78070E+01  2.82024E+01  2.79349E+01  2.83640E+01  2.80393E+01  2.84906E+01  2.81223E+01  2.85879E+01  2.82023E+01  2.86637E+01
   2.82762E+01  2.87039E+01  2.83249E+01  2.86995E+01  2.83428E+01  2.86524E+01  2.83342E+01  2.85745E+01  2.82993E+01  2.84773E+01
   2.82552E+01  2.83851E+01  2.82291E+01  2.83338E+01  2.82559E+01  2.83507E+01  2.82908E+01  2.83133E+01  2.82656E+01  2.82344E+01
   2.82141E+01  2.81870E+01  2.81961E+01  2.81993E+01  2.82144E+01  2.82278E+01  2.82253E+01  2.82320E+01  2.82182E+01  2.82196E+01
   2.82100E+01  2.82364E+01  2.82588E+01  2.83246E+01  2.83707E+01  2.84415E+01  2.84907E+01  2.85465E+01  2.85760E+01  2.85747E+01
   2.86318E+01  2.86254E+01  2.87263E+01  2.87194E+01  2.88574E+01  2.88406E+01  2.90067E+01  2.89740E+01  2.91601E+01  2.91139E+01
   2.93186E+01  2.92644E+01  2.94819E+01  2.94285E+01  2.96550E+01  2.96102E+01  2.98340E+01  2.98085E+01  3.00276E+01  3.00286E+01
   3.02361E+01  3.02604E+01  3.04462E+01  3.04870E+01  3.06398E+01  3.06899E+01  3.08005E+01  3.08487E+01  3.09310E+01  3.09884E+01
   3.10578E+01  3.11427E+01  3.11953E+01  3.12666E+01  3.13055E+01  3.13590E+01  3.13906E+01  3.14340E+01  3.14837E+01  3.15337E+01
   3.15864E+01  3.16272E+01  3.16546E+01  3.16700E+01  3.16692E+01  3.16616E+01  3.16534E+01  3.16806E+01  3.16759E+01  3.17403E+01
   3.17319E+01  3.18266E+01  3.18036E+01  3.19141E+01  3.18672E+01  3.19865E+01  3.19189E+01  3.20510E+01  3.19773E+01  3.21235E+01
   3.20569E+01  3.22177E+01  3.21698E+01  3.23441E+01  3.23207E+01  3.25026E+01  3.25045E+01  3.26862E+01  3.27104E+01  3.28843E+01
   3.29246E+01  3.30807E+01  3.31258E+01  3.32498E+01  3.33250E+01  3.34558E+01  3.35760E+01  3.37295E+01  3.38987E+01  3.40795E+01
   3.42447E+01  3.44014E+01  3.45577E+01  3.47014E+01  3.48600E+01  3.50050E+01  3.51873E+01  3.53757E+01  3.55903E+01  3.58153E+01
   3.60636E+01  3.63324E+01  3.66281E+01  3.69565E+01  3.73291E+01  3.77606E+01  3.82698E+01  3.88767E+01  3.96087E+01  4.04946E+01
   4.15714E+01  4.28768E+01  4.44552E+01  4.63498E+01  4.86066E+01  5.12660E+01  5.43649E+01  5.79291E+01  6.19735E+01  6.64961E+01
   7.14792E+01  7.68853E+01  8.26610E+01  8.87372E+01  9.50363E+01  1.01478E+02  1.07989E+02  1.14514E+02  1.21026E+02  1.27541E+02
   1.34128E+02  1.40923E+02  1.48148E+02  1.56128E+02  1.65342E+02  1.76486E+02  1.90356E+02  2.06126E+02  2.20944E+02  2.36711E+02
   2.50114E+02  2.64466E+02  2.75675E+02  2.87813E+02  2.97147E+02  3.11114E+02  3.21987E+02  3.36937E+02  3.47068E+02  3.59760E+02
   3.66315E+02  3.74366E+02  3.75836E+02  3.78179E+02  3.74379E+02  3.71212E+02  3.63373E+02  3.56582E+02  3.48010E+02  3.37643E+02
   3.26678E+02  3.13769E+02  3.00933E+02  2.86433E+02  2.71894E+02  2.56130E+02  2.43218E+02  2.28371E+02  2.16642E+02  2.02973E+02
   1.92014E+02  1.79937E+02  1.70330E+02  1.60868E+02  1.53740E+02  1.47966E+02  1.43687E+02  1.40857E+02  1.35678E+02  1.31829E+02
   1.25039E+02  1.20250E+02  1.12276E+02  1.07310E+02  9.97828E+01  9.79267E+01  9.33337E+01  9.31923E+01  8.95252E+01  8.96707E+01
   8.61954E+01  8.61580E+01  8.28431E+01  8.27182E+01  7.99487E+01  8.01324E+01  7.85297E+01  7.93050E+01  7.92822E+01  7.93211E+01
   7.80159E+01  7.73181E+01  7.50387E+01  7.36720E+01  7.09101E+01  6.92477E+01  6.82514E+01  6.75873E+01  6.71250E+01  6.67981E+01
   6.65657E+01  6.64003E+01  6.62811E+01  6.61918E+01  6.61182E+01  6.60483E+01  6.59711E+01  6.58774E+01  6.57586E+01  6.56074E+01
   6.54173E+01  6.51828E+01  6.48997E+01  6.45649E+01  6.41767E+01  6.37342E+01  6.32378E+01  6.26887E+01  6.20893E+01  6.14430E+01
   6.07539E+01  6.00265E+01  5.92659E+01  5.84774E+01  5.76668E+01  5.68397E+01  5.60016E+01  5.51581E+01  5.43139E+01  5.34741E+01
   5.26428E+01  5.18240E+01  5.10211E+01  5.02368E+01  4.94736E+01  4.87335E+01  4.80178E+01  4.73279E+01  4.66643E+01  4.60274E+01
   4.54173E+01  4.48339E+01  4.42768E+01  4.37456E+01  4.32394E+01  4.27575E+01  4.22991E+01  4.18632E+01  4.14490E+01  4.10555E+01
   4.06815E+01  4.03262E+01  3.99886E+01  3.96679E+01  3.93630E+01  3.90733E+01  3.87977E+01  3.85355E+01  3.82859E+01  3.80484E+01
   3.78221E+01  3.76064E+01  3.74007E+01  3.72046E+01  3.70173E+01  3.68385E+01  3.66677E+01  3.65044E+01  3.63481E+01  3.61986E+01
   3.60554E+01  3.59184E+01  3.57869E+01  3.56608E+01  3.55398E+01  3.54238E+01  3.53123E+01  3.52052E+01  3.51022E+01  3.50031E+01
   3.49078E+01  3.48161E+01  3.47278E+01  3.46428E+01  3.45608E+01  3.44817E+01  3.44055E+01  3.43321E+01  3.42611E+01  3.41927E+01
   3.41266E+01  3.40628E+01  3.40012E+01  3.39418E+01  3.38843E+01  3.38289E+01  3.37752E+01  3.37235E+01  3.36736E+01  3.36254E+01
   3.35789E+01  3.35341E+01  3.34909E+01  3.34494E+01  3.34095E+01  3.33713E+01  3.33347E+01  3.32999E+01  3.32667E+01  3.32355E+01
   3.32062E+01  3.31791E+01  3.31543E+01  3.31322E+01  3.31133E+01  3.30984E+01  3.30882E+01  3.30847E+01
 NY background values follow
     2.080E+01    2.084E+01    2.088E+01    2.091E+01    2.095E+01    2.099E+01    2.103E+01    2.107E+01    2.110E+01    2.114E+01
     2.118E+01    2.122E+01    2.126E+01    2.129E+01    2.133E+01    2.137E+01    2.141E+01    2.145E+01    2.149E+01    2.152E+01
     2.156E+01    2.160E+01    2.164E+01    2.168E+01    2.172E+01    2.175E+01    2.179E+01    2.183E+01    2.187E+01    2.191E+01
     2.195E+01    2.198E+01    2.202E+01    2.206E+01    2.210E+01    2.214E+01    2.218E+01    2.221E+01    2.225E+01    2.229E+01
     2.233E+01    2.237E+01    2.241E+01    2.244E+01    2.248E+01    2.252E+01    2.256E+01    2.260E+01    2.264E+01    2.267E+01
     2.271E+01    2.275E+01    2.279E+01    2.283E+01    2.287E+01    2.290E+01    2.294E+01    2.298E+01    2.302E+01    2.306E+01
     2.310E+01    2.313E+01    2.317E+01    2.321E+01    2.325E+01    2.329E+01    2.333E+01    2.336E+01    2.340E+01    2.344E+01
     2.348E+01    2.352E+01    2.355E+01    2.359E+01    2.363E+01    2.367E+01    2.371E+01    2.374E+01    2.378E+01    2.382E+01
     2.386E+01    2.390E+01    2.393E+01    2.397E+01    2.401E+01    2.405E+01    2.409E+01    2.412E+01    2.416E+01    2.420E+01
     2.424E+01    2.427E+01    2.431E+01    2.435E+01    2.439E+01    2.442E+01    2.446E+01    2.450E+01    2.454E+01    2.457E+01
     2.461E+01    2.465E+01    2.468E+01    2.472E+01    2.476E+01    2.480E+01    2.483E+01    2.487E+01    2.491E+01    2.494E+01
     2.498E+01    2.502E+01    2.505E+01    2.509E+01    2.513E+01    2.516E+01    2.520E+01    2.524E+01    2.527E+01    2.531E+01
     2.535E+01    2.538E+01    2.542E+01    2.546E+01    2.549E+01    2.553E+01    2.557E+01    2.560E+01    2.564E+01    2.567E+01
     2.571E+01    2.574E+01    2.578E+01    2.582E+01    2.585E+01    2.589E+01    2.592E+01    2.596E+01    2.599E+01    2.603E+01
     2.606E+01    2.610E+01    2.613E+01    2.617E+01    2.620E+01    2.624E+01    2.627E+01    2.631E+01    2.634E+01    2.638E+01
     2.641E+01    2.645E+01    2.648E+01    2.652E+01    2.655E+01    2.658E+01    2.662E+01    2.665E+01    2.669E+01    2.672E+01
     2.675E+01    2.679E+01    2.682E+01    2.685E+01    2.689E+01    2.692E+01    2.695E+01    2.699E+01    2.702E+01    2.705E+01
     2.709E+01    2.712E+01    2.715E+01    2.718E+01    2.722E+01    2.725E+01    2.728E+01    2.731E+01    2.735E+01    2.738E+01
     2.741E+01    2.744E+01    2.747E+01    2.750E+01    2.753E+01    2.757E+01    2.760E+01    2.763E+01    2.766E+01    2.769E+01
     2.772E+01    2.775E+01    2.778E+01    2.781E+01    2.784E+01    2.787E+01    2.790E+01    2.793E+01    2.796E+01    2.799E+01
     2.802E+01    2.805E+01    2.808E+01    2.811E+01    2.814E+01    2.817E+01    2.819E+01    2.822E+01    2.825E+01    2.828E+01
     2.831E+01    2.833E+01    2.836E+01    2.839E+01    2.842E+01    2.845E+01    2.847E+01    2.850E+01    2.853E+01    2.855E+01
     2.858E+01    2.861E+01    2.863E+01    2.866E+01    2.869E+01    2.871E+01    2.874E+01    2.876E+01    2.879E+01    2.881E+01
     2.884E+01    2.886E+01    2.889E+01    2.891E+01    2.894E+01    2.896E+01    2.899E+01    2.901E+01    2.903E+01    2.906E+01
     2.908E+01    2.910E+01    2.913E+01    2.915E+01    2.917E+01    2.920E+01    2.922E+01    2.924E+01    2.926E+01    2.929E+01
     2.931E+01    2.933E+01    2.935E+01    2.937E+01    2.939E+01    2.941E+01    2.943E+01    2.946E+01    2.948E+01    2.950E+01
     2.952E+01    2.954E+01    2.956E+01    2.958E+01    2.959E+01    2.961E+01    2.963E+01    2.965E+01    2.967E+01    2.969E+01
     2.971E+01    2.973E+01    2.974E+01    2.976E+01    2.978E+01    2.980E+01    2.982E+01    2.983E+01    2.985E+01    2.987E+01
     2.988E+01    2.990E+01    2.992E+01    2.993E+01    2.995E+01    2.997E+01    2.998E+01    3.000E+01    3.001E+01    3.003E+01
     3.004E+01    3.006E+01    3.008E+01    3.009E+01    3.010E+01    3.012E+01    3.013E+01    3.015E+01    3.016E+01    3.018E+01
     3.019E+01    3.020E+01    3.022E+01    3.023E+01    3.025E+01    3.026E+01    3.027E+01    3.028E+01    3.030E+01    3.031E+01
     3.032E+01    3.034E+01    3.035E+01    3.036E+01    3.037E+01    3.038E+01    3.040E+01    3.041E+01    3.042E+01    3.043E+01
     3.044E+01    3.045E+01    3.046E+01    3.048E+01    3.049E+01    3.050E+01    3.051E+01    3.052E+01    3.053E+01    3.054E+01
     3.055E+01    3.056E+01    3.057E+01    3.058E+01    3.059E+01    3.060E+01    3.061E+01    3.062E+01    3.063E+01    3.064E+01
     3.065E+01    3.065E+01    3.066E+01    3.067E+01    3.068E+01    3.069E+01    3.070E+01    3.071E+01    3.071E+01    3.072E+01
     3.073E+01    3.074E+01    3.075E+01    3.075E+01    3.076E+01    3.077E+01    3.078E+01    3.078E+01    3.079E+01    3.080E+01
     3.080E+01    3.081E+01    3.082E+01    3.082E+01    3.083E+01    3.084E+01    3.084E+01    3.085E+01    3.086E+01    3.086E+01
     3.087E+01    3.088E+01    3.088E+01    3.089E+01    3.089E+01    3.090E+01    3.090E+01    3.091E+01    3.092E+01    3.092E+01
     3.093E+01    3.093E+01    3.094E+01    3.094E+01    3.095E+01    3.095E+01    3.096E+01    3.096E+01    3.097E+01    3.097E+01
     3.097E+01    3.098E+01    3.098E+01    3.099E+01    3.099E+01    3.100E+01    3.100E+01    3.100E+01    3.101E+01    3.101E+01
     3.102E+01    3.102E+01    3.102E+01    3.103E+01    3.103E+01    3.103E+01    3.104E+01    3.104E+01    3.104E+01    3.105E+01
     3.105E+01    3.105E+01    3.106E+01    3.106E+01    3.106E+01    3.106E+01    3.107E+01    3.107E+01    3.107E+01    3.108E+01
     3.108E+01    3.108E+01    3.108E+01    3.109E+01    3.109E+01    3.109E+01    3.109E+01    3.109E+01    3.110E+01    3.110E+01
     3.110E+01    3.110E+01    3.110E+01    3.111E+01    3.111E+01    3.111E+01    3.111E+01    3.111E+01    3.111E+01    3.112E+01
     3.112E+01    3.112E+01    3.112E+01    3.112E+01    3.112E+01    3.112E+01    3.113E+01    3.113E+01    3.113E+01    3.113E+01
     3.113E+01    3.113E+01    3.113E+01    3.113E+01    3.113E+01    3.114E+01    3.114E+01    3.114E+01    3.114E+01    3.114E+01
     3.114E+01    3.114E+01    3.114E+01    3.114E+01    3.114E+01    3.114E+01    3.114E+01    3.114E+01    3.114E+01    3.114E+01
     3.114E+01    3.115E+01    3.115E+01    3.115E+01    3.115E+01    3.115E+01    3.115E+01    3.115E+01    3.115E+01    3.115E+01
     3.115E+01    3.115E+01    3.115E+01    3.115E+01    3.115E+01    3.115E+01    3.115E+01    3.115E+01    3.115E+01    3.115E+01
     3.115E+01    3.115E+01    3.115E+01    3.115E+01    3.115E+01    3.115E+01    3.115E+01    3.115E+01
 Ala      Conc. = 4.12E+04
