 LCModel (Version 6.3-1L) Copyright: S.W. Provencher.          Ref.: Magn. Reson. Med. 30:672-679 (1993).                
 Slice#3 Row#7 Col#8  K_02_press_1_raw_act
 36 lines in following concentration table = NCONC+1
    Conc.  %SD /Cr+PCr  Metabolite                                         
  272.255  41%   0.117 Ala                                                 
    0.000 999%   0.000 Asp                                                 
 1.05E+03  21%   0.449 Cr                                                  
 1.29E+03  18%   0.551 PCr                                                 
    0.000 999%   0.000 GABA                                                
    0.000 999%   0.000 Glc                                                 
  474.036  48%   0.203 Gln                                                 
 2.03E+03  13%   0.869 Glu                                                 
  692.211   4%   0.297 GPC                                                 
    0.000 999%   0.000 PCh                                                 
  654.752  13%   0.281 GSH                                                 
 1.33E+03  21%   0.571 Ins                                                 
  580.425  21%   0.249 Lac                                                 
 2.47E+03   4%   1.060 NAA                                                 
  476.493  21%   0.204 NAAG                                                
    5.632 556% 2.4E-03 Scyllo                                              
    0.000 999%   0.000 Tau                                                 
    0.000 999%   0.000 -CrCH2                                              
  692.211   4%   0.297 GPC+PCh                                             
 2.95E+03   3%   1.264 NAA+NAAG                                            
 2.33E+03   3%   1.000 Cr+PCr                                              
 2.50E+03  14%   1.072 Glu+Gln                                             
    0.000 999%   0.000 Lip13a                                              
    0.000 999%   0.000 Lip13b                                              
    0.000 999%   0.000 Lip09                                               
 1.79E+03  15%   0.768 MM09                                                
    1.549 999% 6.6E-04 Lip20                                               
 2.95E+03  14%   1.263 MM20                                                
  530.318  20%   0.227 MM12                                                
 1.99E+03  15%   0.852 MM14                                                
 1.13E+03  15%   0.483 MM17                                                
    0.000 999%   0.000 Lip13a+Lip13b                                       
 2.52E+03  14%   1.079 MM14+Lip13a+Lip13b+MM12                             
 1.79E+03  15%   0.768 MM09+Lip09                                          
 2.95E+03  14%   1.263 MM20+Lip20                                          
   6 lines in following misc. output table
  FWHM = 0.038 ppm    S/N =  12                                            
  Data shift = 0.008 ppm                                                   
  Ph: -21 deg      -2.1 deg/ppm                                            
  alphaB,S = 6.9E-01,   5.2E+01                                            
   14 spline knots.   Ns = 5(1)                                            
  ( 8) 4 infls.   ( 5) 1 extrs.                                            
  498 points on ppm-axis = NY
      4.000000     3.992357     3.984714     3.977070     3.969427     3.961784     3.954141     3.946497     3.938854     3.931211
      3.923568     3.915925     3.908281     3.900638     3.892995     3.885352     3.877708     3.870065     3.862422     3.854779
      3.847136     3.839492     3.831849     3.824206     3.816563     3.808919     3.801276     3.793633     3.785990     3.778347
      3.770703     3.763060     3.755417     3.747774     3.740130     3.732487     3.724844     3.717201     3.709558     3.701914
      3.694271     3.686628     3.678985     3.671341     3.663698     3.656055     3.648412     3.640769     3.633125     3.625482
      3.617839     3.610196     3.602552     3.594909     3.587266     3.579623     3.571980     3.564336     3.556693     3.549050
      3.541407     3.533763     3.526120     3.518477     3.510834     3.503191     3.495547     3.487904     3.480261     3.472618
      3.464974     3.457331     3.449688     3.442045     3.434402     3.426758     3.419115     3.411472     3.403829     3.396185
      3.388542     3.380899     3.373256     3.365613     3.357969     3.350326     3.342683     3.335040     3.327396     3.319753
      3.312110     3.304467     3.296824     3.289180     3.281537     3.273894     3.266251     3.258607     3.250964     3.243321
      3.235678     3.228034     3.220391     3.212748     3.205105     3.197462     3.189818     3.182175     3.174532     3.166889
      3.159245     3.151602     3.143959     3.136316     3.128673     3.121029     3.113386     3.105743     3.098100     3.090456
      3.082813     3.075170     3.067527     3.059884     3.052240     3.044597     3.036954     3.029311     3.021667     3.014024
      3.006381     2.998738     2.991095     2.983451     2.975808     2.968165     2.960522     2.952878     2.945235     2.937592
      2.929949     2.922306     2.914662     2.907019     2.899376     2.891733     2.884089     2.876446     2.868803     2.861160
      2.853517     2.845873     2.838230     2.830587     2.822944     2.815300     2.807657     2.800014     2.792371     2.784728
      2.777084     2.769441     2.761798     2.754155     2.746511     2.738868     2.731225     2.723582     2.715939     2.708295
      2.700652     2.693009     2.685366     2.677722     2.670079     2.662436     2.654793     2.647150     2.639506     2.631863
      2.624220     2.616577     2.608933     2.601290     2.593647     2.586004     2.578361     2.570717     2.563074     2.555431
      2.547788     2.540144     2.532501     2.524858     2.517215     2.509572     2.501928     2.494285     2.486642     2.478999
      2.471355     2.463712     2.456069     2.448426     2.440783     2.433139     2.425496     2.417853     2.410210     2.402566
      2.394923     2.387280     2.379637     2.371994     2.364350     2.356707     2.349064     2.341421     2.333777     2.326134
      2.318491     2.310848     2.303205     2.295561     2.287918     2.280275     2.272632     2.264988     2.257345     2.249702
      2.242059     2.234416     2.226772     2.219129     2.211486     2.203843     2.196199     2.188556     2.180913     2.173270
      2.165627     2.157983     2.150340     2.142697     2.135054     2.127410     2.119767     2.112124     2.104481     2.096838
      2.089194     2.081551     2.073908     2.066265     2.058621     2.050978     2.043335     2.035692     2.028049     2.020405
      2.012762     2.005119     1.997476     1.989833     1.982190     1.974546     1.966903     1.959260     1.951617     1.943974
      1.936331     1.928688     1.921045     1.913402     1.905759     1.898115     1.890472     1.882829     1.875186     1.867543
      1.859900     1.852257     1.844614     1.836971     1.829327     1.821684     1.814041     1.806398     1.798755     1.791112
      1.783469     1.775826     1.768183     1.760540     1.752896     1.745253     1.737610     1.729967     1.722324     1.714681
      1.707038     1.699395     1.691752     1.684108     1.676465     1.668822     1.661179     1.653536     1.645893     1.638250
      1.630607     1.622964     1.615321     1.607677     1.600034     1.592391     1.584748     1.577105     1.569462     1.561819
      1.554176     1.546533     1.538890     1.531246     1.523603     1.515960     1.508317     1.500674     1.493031     1.485388
      1.477745     1.470102     1.462458     1.454815     1.447172     1.439529     1.431886     1.424243     1.416600     1.408957
      1.401314     1.393671     1.386027     1.378384     1.370741     1.363098     1.355455     1.347812     1.340169     1.332526
      1.324883     1.317240     1.309596     1.301953     1.294310     1.286667     1.279024     1.271381     1.263738     1.256095
      1.248452     1.240808     1.233165     1.225522     1.217879     1.210236     1.202593     1.194950     1.187307     1.179664
      1.172021     1.164377     1.156734     1.149091     1.141448     1.133805     1.126162     1.118519     1.110876     1.103233
      1.095590     1.087946     1.080303     1.072660     1.065017     1.057374     1.049731     1.042088     1.034445     1.026802
      1.019158     1.011515     1.003872     0.996229     0.988586     0.980943     0.973300     0.965657     0.958014     0.950371
      0.942727     0.935084     0.927441     0.919798     0.912155     0.904512     0.896869     0.889226     0.881583     0.873940
      0.866296     0.858653     0.851010     0.843367     0.835724     0.828081     0.820438     0.812795     0.805152     0.797508
      0.789865     0.782222     0.774579     0.766936     0.759293     0.751650     0.744007     0.736364     0.728721     0.721077
      0.713434     0.705791     0.698148     0.690505     0.682862     0.675219     0.667576     0.659933     0.652290     0.644646
      0.637003     0.629360     0.621717     0.614074     0.606431     0.598788     0.591145     0.583502     0.575858     0.568215
      0.560572     0.552929     0.545286     0.537643     0.530000     0.522357     0.514714     0.507071     0.499427     0.491784
      0.484141     0.476498     0.468855     0.461212     0.453569     0.445925     0.438282     0.430639     0.422996     0.415353
      0.407710     0.400067     0.392424     0.384780     0.377137     0.369494     0.361851     0.354208     0.346565     0.338922
      0.331278     0.323635     0.315992     0.308349     0.300706     0.293063     0.285420     0.277777     0.270133     0.262490
      0.254847     0.247204     0.239561     0.231918     0.224275     0.216631     0.208988     0.201345
 NY phased data points follow
   2.19707E+01  1.93503E+01  1.98780E+01  2.22643E+01  2.72679E+01  2.86165E+01  3.50930E+01  5.22491E+01  6.21499E+01  7.03456E+01
   8.70442E+01  9.01076E+01  8.05830E+01  7.16106E+01  5.32716E+01  5.07513E+01  4.86489E+01  2.96741E+01  3.17240E+01  2.99906E+01
   2.67250E+01  2.21970E+01  2.76069E+01  1.96644E+01  2.40353E+01  2.73404E+01  2.96413E+01  2.89014E+01  2.80643E+01  3.58951E+01
   4.04288E+01  3.99111E+01  4.02473E+01  3.95893E+01  3.61286E+01  2.72781E+01  2.78139E+01  2.53207E+01  2.00837E+01  2.32826E+01
   2.21239E+01  3.00638E+01  2.15862E+01  2.22744E+01  2.23575E+01  3.02347E+01  3.62605E+01  4.02551E+01  4.38803E+01  3.45677E+01
   3.56637E+01  2.85321E+01  2.32555E+01  1.62522E+01  2.39416E+01  3.05639E+01  2.01999E+01  2.70488E+01  2.28520E+01  2.34733E+01
   2.30599E+01  1.33203E+01  1.28363E+01  8.63580E+00  9.63005E+00  2.38620E+00  7.06094E+00  6.18475E+00  6.99867E-01  6.06534E+00
   4.53340E+00  5.79857E+00  9.29158E+00  7.16177E+00  8.66537E+00  2.26059E+00  1.26440E+01  8.11644E+00  8.92028E+00  8.20913E+00
   2.13931E+00  6.74947E+00  3.81249E+00  8.63554E+00  1.75036E+00  4.66331E+00  6.27792E+00  4.88574E+00  4.92724E+00  5.20293E+00
   1.17312E+01  7.56684E+00  8.30862E+00  1.09332E+01  1.02731E+01  8.83035E+00  1.28402E+01  6.26981E+00  1.50353E+01  1.77816E+01
   3.11427E+01  5.45636E+01  7.81880E+01  8.73283E+01  8.08556E+01  6.83357E+01  4.79272E+01  4.08719E+01  2.45640E+01  2.55389E+01
   1.30393E+01  1.53905E+01  1.23739E+01  1.05058E+01  9.34412E+00  1.40726E+01  8.07199E+00  1.21104E+01  1.54117E+01  9.54976E+00
   1.59110E+01  1.48627E+01  1.25655E+01  1.88750E+01  3.11384E+01  6.32857E+01  8.35515E+01  9.98231E+01  9.52961E+01  8.26199E+01
   6.50894E+01  4.66233E+01  3.70933E+01  2.73277E+01  2.53358E+01  1.88182E+01  1.21338E+01  9.52340E+00  5.65346E+00  5.33116E+00
   4.19753E+00  8.85864E+00  1.15727E+00  6.74889E+00  6.97563E+00  4.78551E+00  4.89576E+00  3.47548E+00  1.47175E+00  6.88608E+00
   4.87212E+00  5.72453E+00  4.17098E+00 -4.61278E-01  1.00641E+00  1.49443E+00 -1.56783E+00 -7.39246E-01  7.05579E+00  3.79319E+00
   2.77063E+00 -6.61795E+00 -5.57987E-01 -5.48125E+00  3.55279E+00  1.29705E+00  5.37985E+00  6.48890E+00  3.80995E-01 -4.94551E+00
   1.73854E+00 -1.34517E+00 -3.36150E+00 -1.50686E+01 -9.47456E+00 -1.79323E+01 -1.00605E+01 -1.35562E+01 -1.10966E+01 -1.03226E+01
  -8.09813E+00 -1.12391E+01 -1.34995E+01 -8.99046E+00 -1.21658E+01 -8.21649E+00 -1.19992E+01 -9.13942E+00  6.47583E-01 -1.82874E+00
   5.75628E+00  7.84638E+00  8.60082E+00  7.18059E+00  1.15921E+01  1.40233E+01  5.10124E+00  4.80765E+00 -4.67871E-01 -9.35940E-01
  -8.08751E-01 -3.41967E+00  5.51734E+00  8.40369E+00  1.04175E+01  4.83963E+00  4.86858E+00 -2.86190E+00 -2.98050E+00 -6.69904E+00
  -2.94424E+00 -5.03501E+00 -3.18414E+00  3.56590E+00  1.18083E+01  1.83034E+01  2.13308E+01  1.73086E+01  1.46425E+01  1.01731E+01
   6.16412E-01 -1.05800E+01 -4.16084E+00 -6.96562E+00  4.82558E+00  1.03782E+01  1.52435E+01  1.69617E+01  1.66117E+01  1.65315E+01
   1.62166E+01  1.01858E+01  1.09381E+01  1.52740E+01  1.04639E+01  1.05379E+01  1.05037E+01  1.05976E+01  1.37741E+01  8.42544E+00
   8.00633E+00  8.92545E+00  1.30060E+00  8.50816E+00  8.30839E+00  1.92188E+01  1.90642E+01  2.34185E+01  1.79248E+01  2.05800E+01
   2.58396E+01  2.72894E+01  2.22814E+01  2.99769E+01  4.54012E+01  4.34577E+01  4.32758E+01  5.12292E+01  8.16269E+01  1.16851E+02
   1.25176E+02  1.17373E+02  9.58985E+01  7.34914E+01  5.23923E+01  3.49649E+01  3.27282E+01  2.51832E+01  1.96164E+01  1.24265E+01
   8.82340E+00  8.25722E+00  1.20147E+01  1.14243E+01  1.44179E+01  1.44503E+01  8.60380E+00  1.07630E+01  8.11551E+00  9.39470E+00
   4.44214E+00  1.34866E+01  8.97765E+00  4.68284E+00  3.53199E+00  4.11343E+00  6.10332E+00  2.67976E+00  3.34452E+00  1.58889E+00
   7.66275E+00  9.41614E+00  1.18652E+01  1.05165E+01  7.62695E+00  1.06523E+01  6.39662E+00  8.67157E+00  1.09158E+01  1.27436E+01
   1.13714E+01  1.15016E+01  1.03850E+01  1.40156E+01  1.45163E+01  1.21900E+01  1.19922E+01  1.31402E+01  1.51041E+01  2.09460E+01
   2.02380E+01  1.90638E+01  1.42365E+01  2.12285E+01  2.15019E+01  2.03089E+01  1.83010E+01  2.01075E+01  1.64154E+01  1.57894E+01
   1.58049E+01  1.52424E+01  1.22159E+01  1.98346E+01  1.93984E+01  1.93928E+01  1.66475E+01  1.60385E+01  1.72241E+01  1.70782E+01
   1.21000E+01  1.10916E+01  1.19629E+01  7.04540E+00  1.43561E+01  7.52994E+00  1.21481E+01  1.20650E+01  1.21639E+01  1.28396E+01
   1.60198E+01  1.94215E+01  1.63913E+01  1.84419E+01  1.65228E+01  1.20028E+01  1.16394E+01  5.48777E+00 -3.72291E+00  1.59600E-01
  -6.11866E+00 -8.63035E+00 -2.63864E+00 -4.70873E+00 -2.20200E+00  2.22092E+00  1.25498E+00  3.02309E+00  3.38205E+00  1.48493E+00
  -1.28471E+00  3.77604E+00 -3.08164E+00  2.51105E+00 -5.77591E-01 -7.23534E+00 -5.01553E+00  3.32114E+00 -4.54387E-01  4.39744E+00
   1.50112E+00  4.37003E-03 -2.88662E+00  3.34756E+00  3.82527E+00  3.69113E+00 -5.10392E+00 -2.47067E+00 -2.66652E+00 -1.99225E+00
  -5.56067E+00 -2.85367E+00  2.23853E+00  9.44637E-01 -8.40813E+00 -6.16452E+00 -4.39331E+00  1.38295E+00  3.54704E-01 -3.12466E+00
  -4.21132E+00 -2.54051E+00 -7.63873E-01 -1.00534E+01 -4.38112E+00 -3.71057E+00 -2.68397E+00 -2.43192E+00 -1.18650E+00 -6.12067E+00
   1.60915E-02 -5.85427E+00 -9.95897E+00 -5.01699E+00 -1.74373E+00  2.53014E-01  3.54285E+00  3.32105E+00  3.76900E+00  2.33612E+00
   1.05539E+00 -3.78487E+00  1.84551E+00 -2.82013E-01  1.76625E+00 -2.75153E+00 -3.64077E+00 -9.32873E+00 -1.72108E+00  3.04439E+00
  -1.03737E+01 -3.97955E+00 -4.78889E+00 -1.14073E+01 -4.10395E+00 -5.33419E+00 -6.61424E+00 -9.87924E+00 -7.17524E+00 -5.86437E+00
  -4.00021E+00  3.89698E-01 -3.00918E+00 -1.23929E+01 -6.56244E+00 -5.58551E+00 -3.07849E+00 -9.79075E+00 -8.95794E+00 -6.75621E+00
  -5.41512E+00 -7.94533E+00 -7.61582E+00 -4.40824E+00 -8.08389E+00 -9.28043E+00 -5.62294E+00 -4.44447E+00 -1.68393E+01 -6.31113E+00
  -8.36926E+00 -4.20340E+00 -4.45921E+00 -7.98694E+00 -6.98357E-01 -8.88875E+00 -6.52352E+00 -4.84278E+00 -1.13456E+01 -4.36399E+00
  -6.01656E+00 -3.14581E+00 -5.60021E+00 -6.06075E+00 -4.92521E+00 -2.18714E+00 -9.15200E+00 -6.44196E+00 -5.88687E+00 -1.13744E+00
  -5.68674E+00 -4.91303E+00 -5.64965E+00 -1.79134E+00 -1.46074E+00 -5.50545E+00 -2.74971E+00 -6.49070E+00 -3.47614E+00 -6.20940E+00
  -1.79424E+00 -4.11641E+00 -3.14166E+00 -2.52710E+00 -6.94727E+00 -1.05229E+01 -3.94236E+00 -4.43768E+00 -1.63814E+00 -1.03089E+01
  -5.92159E+00 -5.04991E+00 -6.11207E+00 -4.15461E+00 -7.92646E-01 -3.21935E+00 -6.91124E+00 -6.08467E+00
 NY points of the fit to the data follow
   2.48471E+01  2.42699E+01  2.39110E+01  2.40666E+01  2.51234E+01  2.79374E+01  3.39497E+01  4.51350E+01  6.02548E+01  7.51050E+01
   8.42887E+01  8.47678E+01  7.78169E+01  6.74359E+01  5.72958E+01  4.86384E+01  4.11647E+01  3.56668E+01  3.15960E+01  2.95598E+01
   2.85792E+01  2.79324E+01  2.72790E+01  2.64405E+01  2.53891E+01  2.41085E+01  2.30299E+01  2.38340E+01  2.80058E+01  3.40273E+01
   3.92160E+01  4.19116E+01  4.19176E+01  3.96876E+01  3.61021E+01  3.18900E+01  2.71906E+01  2.32606E+01  2.14271E+01  2.07292E+01
   2.06575E+01  2.10811E+01  2.20020E+01  2.32014E+01  2.52777E+01  2.85744E+01  3.16232E+01  3.29188E+01  3.19409E+01  2.91423E+01
   2.57742E+01  2.28892E+01  2.05655E+01  1.85963E+01  1.72611E+01  1.67845E+01  1.69539E+01  1.76484E+01  1.86670E+01  1.95297E+01
   1.97193E+01  1.89572E+01  1.74518E+01  1.57495E+01  1.43639E+01  1.34542E+01  1.30610E+01  1.31490E+01  1.34676E+01  1.40092E+01
   1.45950E+01  1.49571E+01  1.49166E+01  1.44694E+01  1.38144E+01  1.31479E+01  1.25987E+01  1.21576E+01  1.17081E+01  1.13464E+01
   1.10498E+01  1.07694E+01  1.04381E+01  9.96455E+00  9.14806E+00  7.87092E+00  6.32497E+00  4.96347E+00  4.19141E+00  4.12853E+00
   4.61259E+00  5.40440E+00  6.28288E+00  7.13719E+00  7.76413E+00  7.96193E+00  7.72232E+00  7.70782E+00  1.00008E+01  1.72311E+01
   3.27907E+01  5.65243E+01  7.83555E+01  8.76370E+01  8.25140E+01  6.83783E+01  5.22148E+01  3.87935E+01  2.87577E+01  1.92763E+01
   1.19576E+01  9.32351E+00  8.29474E+00  7.72986E+00  7.35875E+00  7.09317E+00  6.88930E+00  6.70945E+00  6.53794E+00  6.44535E+00
   6.59927E+00  7.41404E+00  1.05228E+01  1.86234E+01  3.50098E+01  6.11667E+01  8.75562E+01  1.01133E+02  9.77909E+01  8.29515E+01
   6.48583E+01  4.95877E+01  3.83317E+01  2.73588E+01  1.64442E+01  1.03304E+01  6.79810E+00  4.93865E+00  4.66889E+00  5.54694E+00
   6.83821E+00  8.02406E+00  8.67055E+00  8.56888E+00  8.00530E+00  7.26514E+00  6.46455E+00  5.80792E+00  5.15262E+00  4.57580E+00
   4.03562E+00  3.45082E+00  2.85640E+00  2.39017E+00  2.19679E+00  2.28134E+00  2.47725E+00  2.49085E+00  1.99169E+00  9.20365E-01
  -1.78590E-01 -6.88622E-01 -3.70353E-01  4.61925E-01  1.01529E+00  7.67582E-01 -1.04965E-01 -1.06684E+00 -1.77803E+00 -2.20499E+00
  -2.39842E+00 -2.68209E+00 -3.19711E+00 -3.93380E+00 -4.93408E+00 -5.57707E+00 -5.39559E+00 -4.69906E+00 -4.14559E+00 -4.20690E+00
  -4.62081E+00 -4.74833E+00 -4.41849E+00 -4.05482E+00 -4.19835E+00 -4.49811E+00 -4.08377E+00 -2.32593E+00  5.21296E-01  3.50871E+00
   5.86212E+00  7.02025E+00  6.90292E+00  5.86562E+00  4.36437E+00  2.58089E+00  9.92913E-01  1.70544E-01  4.75334E-01  1.84744E+00
   3.86939E+00  6.11770E+00  8.26878E+00  9.81915E+00  1.04067E+01  9.41000E+00  6.93177E+00  3.61391E+00  1.74882E-01 -2.32887E+00
  -3.35380E+00 -2.55080E+00  3.30338E-01  5.31195E+00  1.13449E+01  1.58066E+01  1.70592E+01  1.46394E+01  9.57232E+00  3.36555E+00
  -2.98415E+00 -7.94824E+00 -9.68261E+00 -7.36940E+00 -2.14133E+00  3.49079E+00  8.05615E+00  1.10238E+01  1.25493E+01  1.26665E+01
   1.14738E+01  1.00625E+01  9.73297E+00  1.04748E+01  1.18996E+01  1.37206E+01  1.53520E+01  1.60731E+01  1.53887E+01  1.34312E+01
   1.08776E+01  8.80206E+00  8.17802E+00  9.24958E+00  1.15099E+01  1.42227E+01  1.66068E+01  1.80271E+01  1.83639E+01  1.82775E+01
   1.84812E+01  2.00604E+01  2.38215E+01  3.01362E+01  3.68573E+01  4.23346E+01  4.87755E+01  6.09863E+01  8.43756E+01  1.10625E+02
   1.24154E+02  1.18239E+02  9.84737E+01  7.53307E+01  5.55991E+01  4.13615E+01  2.92129E+01  1.76163E+01  1.28570E+01  1.12697E+01
   1.03369E+01  9.83911E+00  9.79399E+00  9.83335E+00  9.78127E+00  9.55493E+00  9.18550E+00  8.75045E+00  8.32588E+00  7.91542E+00
   7.54660E+00  7.28174E+00  7.12969E+00  7.01827E+00  6.88568E+00  6.72196E+00  6.55086E+00  6.40000E+00  6.27378E+00  6.21205E+00
   6.25432E+00  6.38087E+00  6.55702E+00  6.76521E+00  7.00291E+00  7.27704E+00  7.59392E+00  7.96258E+00  8.40444E+00  8.93896E+00
   9.55755E+00  1.02401E+01  1.09608E+01  1.16936E+01  1.24193E+01  1.31179E+01  1.37629E+01  1.43428E+01  1.48444E+01  1.52547E+01
   1.55660E+01  1.57772E+01  1.58916E+01  1.59181E+01  1.58706E+01  1.57665E+01  1.56270E+01  1.54751E+01  1.53351E+01  1.52318E+01
   1.51920E+01  1.52524E+01  1.54806E+01  1.59394E+01  1.65837E+01  1.72186E+01  1.71713E+01  1.60052E+01  1.40617E+01  1.20216E+01
   1.03573E+01  9.28448E+00  8.82470E+00  9.20544E+00  1.05478E+01  1.24443E+01  1.38156E+01  1.42572E+01  1.39533E+01  1.32984E+01
   1.26852E+01  1.22883E+01  1.21101E+01  1.24449E+01  1.31637E+01  1.29352E+01  1.04243E+01  5.91819E+00  8.67774E-01 -3.41612E+00
  -6.18372E+00 -7.20104E+00 -6.04206E+00 -2.90633E+00  1.31957E+00  4.62772E+00  6.04075E+00  5.97257E+00  5.20113E+00  4.37710E+00
   3.52031E+00  2.28009E+00  1.35212E+00  8.00044E-01  4.09859E-01  1.00308E-01 -1.63010E-01 -3.97266E-01 -6.11909E-01 -8.12756E-01
  -1.00347E+00 -1.18578E+00 -1.35954E+00 -1.52345E+00 -1.67600E+00 -1.81595E+00 -1.94206E+00 -2.05257E+00 -2.14509E+00 -2.21719E+00
  -2.26702E+00 -2.29333E+00 -2.29501E+00 -2.27059E+00 -2.21840E+00 -2.13721E+00 -2.02660E+00 -1.88682E+00 -1.71824E+00 -1.52121E+00
  -1.29645E+00 -1.04567E+00 -7.71771E-01 -4.78461E-01 -1.69842E-01  1.49608E-01  4.74576E-01  7.98594E-01  1.11428E+00  1.41399E+00
   1.69031E+00  1.93611E+00  2.14427E+00  2.30778E+00  2.42034E+00  2.47706E+00  2.47478E+00  2.41181E+00  2.28762E+00  2.10288E+00
   1.85991E+00  1.56287E+00  1.21749E+00  8.30364E-01  4.08461E-01 -4.09499E-02 -5.10138E-01 -9.91060E-01 -1.47593E+00 -1.95780E+00
  -2.43081E+00 -2.88992E+00 -3.33062E+00 -3.74904E+00 -4.14232E+00 -4.50882E+00 -4.84790E+00 -5.15942E+00 -5.44343E+00 -5.70030E+00
  -5.93099E+00 -6.13707E+00 -6.32036E+00 -6.48246E+00 -6.62469E+00 -6.74842E+00 -6.85527E+00 -6.94705E+00 -7.02535E+00 -7.09133E+00
  -7.14585E+00 -7.18986E+00 -7.22453E+00 -7.25106E+00 -7.27031E+00 -7.28273E+00 -7.28870E+00 -7.28879E+00 -7.28380E+00 -7.27444E+00
  -7.26101E+00 -7.24359E+00 -7.22235E+00 -7.19772E+00 -7.17025E+00 -7.14027E+00 -7.10777E+00 -7.07266E+00 -7.03508E+00 -6.99544E+00
  -6.95412E+00 -6.91121E+00 -6.86654E+00 -6.82002E+00 -6.77186E+00 -6.72244E+00 -6.67198E+00 -6.62041E+00 -6.56753E+00 -6.51332E+00
  -6.45806E+00 -6.40206E+00 -6.34541E+00 -6.28788E+00 -6.22933E+00 -6.16985E+00 -6.10976E+00 -6.04929E+00 -5.98836E+00 -5.92673E+00
  -5.86433E+00 -5.80136E+00 -5.73812E+00 -5.67471E+00 -5.61092E+00 -5.54654E+00 -5.48161E+00 -5.41641E+00 -5.35116E+00 -5.28580E+00
  -5.22009E+00 -5.15388E+00 -5.08732E+00 -5.02068E+00 -4.95406E+00 -4.88727E+00 -4.82005E+00 -4.75234E+00
 NY background values follow
     2.434E+01    2.415E+01    2.395E+01    2.375E+01    2.356E+01    2.336E+01    2.316E+01    2.296E+01    2.277E+01    2.257E+01
     2.237E+01    2.217E+01    2.197E+01    2.178E+01    2.158E+01    2.138E+01    2.118E+01    2.098E+01    2.078E+01    2.058E+01
     2.038E+01    2.019E+01    1.999E+01    1.979E+01    1.959E+01    1.939E+01    1.919E+01    1.899E+01    1.879E+01    1.860E+01
     1.840E+01    1.820E+01    1.800E+01    1.781E+01    1.761E+01    1.741E+01    1.722E+01    1.702E+01    1.682E+01    1.663E+01
     1.643E+01    1.624E+01    1.604E+01    1.585E+01    1.565E+01    1.546E+01    1.527E+01    1.508E+01    1.488E+01    1.469E+01
     1.450E+01    1.431E+01    1.412E+01    1.393E+01    1.375E+01    1.356E+01    1.337E+01    1.319E+01    1.300E+01    1.282E+01
     1.263E+01    1.245E+01    1.227E+01    1.209E+01    1.191E+01    1.173E+01    1.155E+01    1.137E+01    1.120E+01    1.102E+01
     1.085E+01    1.068E+01    1.051E+01    1.034E+01    1.017E+01    1.000E+01    9.835E+00    9.670E+00    9.507E+00    9.344E+00
     9.184E+00    9.024E+00    8.866E+00    8.710E+00    8.555E+00    8.402E+00    8.250E+00    8.100E+00    7.951E+00    7.804E+00
     7.659E+00    7.515E+00    7.374E+00    7.234E+00    7.095E+00    6.958E+00    6.823E+00    6.689E+00    6.558E+00    6.427E+00
     6.298E+00    6.171E+00    6.045E+00    5.921E+00    5.799E+00    5.677E+00    5.558E+00    5.440E+00    5.323E+00    5.207E+00
     5.093E+00    4.981E+00    4.870E+00    4.760E+00    4.651E+00    4.544E+00    4.438E+00    4.334E+00    4.230E+00    4.128E+00
     4.027E+00    3.928E+00    3.830E+00    3.732E+00    3.636E+00    3.541E+00    3.448E+00    3.355E+00    3.264E+00    3.173E+00
     3.084E+00    2.996E+00    2.908E+00    2.822E+00    2.737E+00    2.653E+00    2.570E+00    2.487E+00    2.406E+00    2.326E+00
     2.247E+00    2.169E+00    2.092E+00    2.017E+00    1.943E+00    1.870E+00    1.798E+00    1.728E+00    1.660E+00    1.592E+00
     1.527E+00    1.463E+00    1.400E+00    1.339E+00    1.280E+00    1.223E+00    1.167E+00    1.114E+00    1.062E+00    1.012E+00
     9.639E-01    9.179E-01    8.739E-01    8.320E-01    7.922E-01    7.546E-01    7.192E-01    6.860E-01    6.551E-01    6.266E-01
     6.004E-01    5.767E-01    5.554E-01    5.366E-01    5.204E-01    5.067E-01    4.957E-01    4.873E-01    4.816E-01    4.787E-01
     4.786E-01    4.813E-01    4.869E-01    4.953E-01    5.063E-01    5.200E-01    5.362E-01    5.549E-01    5.760E-01    5.994E-01
     6.251E-01    6.530E-01    6.829E-01    7.149E-01    7.489E-01    7.848E-01    8.224E-01    8.618E-01    9.029E-01    9.455E-01
     9.897E-01    1.035E+00    1.082E+00    1.130E+00    1.180E+00    1.231E+00    1.282E+00    1.335E+00    1.389E+00    1.443E+00
     1.498E+00    1.554E+00    1.611E+00    1.668E+00    1.725E+00    1.783E+00    1.842E+00    1.900E+00    1.959E+00    2.018E+00
     2.076E+00    2.135E+00    2.194E+00    2.252E+00    2.311E+00    2.368E+00    2.426E+00    2.483E+00    2.539E+00    2.595E+00
     2.651E+00    2.705E+00    2.759E+00    2.813E+00    2.865E+00    2.917E+00    2.968E+00    3.018E+00    3.068E+00    3.116E+00
     3.164E+00    3.211E+00    3.256E+00    3.301E+00    3.344E+00    3.387E+00    3.428E+00    3.468E+00    3.507E+00    3.545E+00
     3.582E+00    3.617E+00    3.651E+00    3.683E+00    3.714E+00    3.744E+00    3.772E+00    3.799E+00    3.824E+00    3.848E+00
     3.870E+00    3.890E+00    3.909E+00    3.926E+00    3.941E+00    3.955E+00    3.967E+00    3.977E+00    3.985E+00    3.991E+00
     3.995E+00    3.997E+00    3.998E+00    3.996E+00    3.992E+00    3.987E+00    3.979E+00    3.969E+00    3.957E+00    3.944E+00
     3.928E+00    3.910E+00    3.890E+00    3.868E+00    3.844E+00    3.817E+00    3.789E+00    3.759E+00    3.726E+00    3.692E+00
     3.655E+00    3.616E+00    3.576E+00    3.533E+00    3.487E+00    3.440E+00    3.391E+00    3.339E+00    3.286E+00    3.230E+00
     3.172E+00    3.112E+00    3.049E+00    2.985E+00    2.918E+00    2.850E+00    2.779E+00    2.705E+00    2.630E+00    2.552E+00
     2.472E+00    2.390E+00    2.306E+00    2.220E+00    2.131E+00    2.040E+00    1.947E+00    1.851E+00    1.753E+00    1.654E+00
     1.552E+00    1.448E+00    1.342E+00    1.234E+00    1.125E+00    1.014E+00    9.009E-01    7.865E-01    6.705E-01    5.531E-01
     4.343E-01    3.142E-01    1.929E-01    7.035E-02   -5.329E-02   -1.780E-01   -3.036E-01   -4.302E-01   -5.576E-01   -6.858E-01
    -8.146E-01   -9.442E-01   -1.074E+00   -1.205E+00   -1.336E+00   -1.467E+00   -1.599E+00   -1.731E+00   -1.863E+00   -1.995E+00
    -2.127E+00   -2.259E+00   -2.391E+00   -2.523E+00   -2.655E+00   -2.786E+00   -2.917E+00   -3.047E+00   -3.177E+00   -3.306E+00
    -3.435E+00   -3.563E+00   -3.690E+00   -3.816E+00   -3.942E+00   -4.066E+00   -4.189E+00   -4.312E+00   -4.433E+00   -4.553E+00
    -4.672E+00   -4.789E+00   -4.906E+00   -5.020E+00   -5.134E+00   -5.246E+00   -5.356E+00   -5.465E+00   -5.572E+00   -5.678E+00
    -5.782E+00   -5.884E+00   -5.984E+00   -6.082E+00   -6.178E+00   -6.272E+00   -6.365E+00   -6.455E+00   -6.543E+00   -6.628E+00
    -6.712E+00   -6.793E+00   -6.872E+00   -6.948E+00   -7.022E+00   -7.093E+00   -7.162E+00   -7.228E+00   -7.292E+00   -7.352E+00
    -7.410E+00   -7.465E+00   -7.518E+00   -7.567E+00   -7.613E+00   -7.656E+00   -7.697E+00   -7.734E+00   -7.767E+00   -7.798E+00
    -7.826E+00   -7.851E+00   -7.872E+00   -7.891E+00   -7.907E+00   -7.920E+00   -7.931E+00   -7.939E+00   -7.944E+00   -7.946E+00
    -7.946E+00   -7.944E+00   -7.939E+00   -7.932E+00   -7.922E+00   -7.911E+00   -7.897E+00   -7.881E+00   -7.862E+00   -7.842E+00
    -7.820E+00   -7.795E+00   -7.769E+00   -7.741E+00   -7.712E+00   -7.680E+00   -7.647E+00   -7.612E+00   -7.576E+00   -7.538E+00
    -7.499E+00   -7.458E+00   -7.416E+00   -7.372E+00   -7.328E+00   -7.282E+00   -7.235E+00   -7.186E+00   -7.137E+00   -7.087E+00
    -7.036E+00   -6.984E+00   -6.931E+00   -6.877E+00   -6.823E+00   -6.767E+00   -6.712E+00   -6.655E+00   -6.598E+00   -6.540E+00
    -6.481E+00   -6.422E+00   -6.362E+00   -6.302E+00   -6.241E+00   -6.180E+00   -6.118E+00   -6.056E+00   -5.993E+00   -5.930E+00
    -5.867E+00   -5.803E+00   -5.739E+00   -5.675E+00   -5.610E+00   -5.545E+00   -5.480E+00   -5.414E+00   -5.349E+00   -5.283E+00
    -5.217E+00   -5.151E+00   -5.085E+00   -5.019E+00   -4.953E+00   -4.887E+00   -4.821E+00   -4.755E+00   -4.689E+00   -4.623E+00
    -4.557E+00   -4.491E+00   -4.426E+00   -4.360E+00   -4.295E+00   -4.230E+00   -4.166E+00   -4.101E+00
 Ala      Conc. = 2.72E+02
