 LCModel (Version 6.3-1L) Copyright: S.W. Provencher.          Ref.: Magn. Reson. Med. 30:672-679 (1993).                
 Slice#3 Row#6 Col#6  K_02_press_1_raw_act
 36 lines in following concentration table = NCONC+1
    Conc.  %SD /Cr+PCr  Metabolite                                         
   39.167 276% 1.7E-02 Ala                                                 
    0.000 999%   0.000 Asp                                                 
  776.062  29%   0.337 Cr                                                  
 1.52E+03  15%   0.663 PCr                                                 
    0.000 999%   0.000 GABA                                                
    0.000 999%   0.000 Glc                                                 
  665.931  34%   0.290 Gln                                                 
 2.05E+03  12%   0.893 Glu                                                 
  783.729   3%   0.341 GPC                                                 
    0.000 999%   0.000 PCh                                                 
  739.873  11%   0.322 GSH                                                 
  984.634  28%   0.428 Ins                                                 
    0.000 999%   0.000 Lac                                                 
 2.52E+03   4%   1.097 NAA                                                 
  411.656  27%   0.179 NAAG                                                
    5.388 564% 2.3E-03 Scyllo                                              
    0.000 999%   0.000 Tau                                                 
    0.000 999%   0.000 -CrCH2                                              
  783.729   3%   0.341 GPC+PCh                                             
 2.94E+03   3%   1.276 NAA+NAAG                                            
 2.30E+03   3%   1.000 Cr+PCr                                              
 2.72E+03  13%   1.183 Glu+Gln                                             
  334.913 164%   0.146 Lip13a                                              
  117.607 155% 5.1E-02 Lip13b                                              
    0.000 999%   0.000 Lip09                                               
  917.544  25%   0.399 MM09                                                
  150.222 109% 6.5E-02 Lip20                                               
 1.93E+03  20%   0.840 MM20                                                
  312.996  36%   0.136 MM12                                                
  805.562  38%   0.350 MM14                                                
  594.246  37%   0.258 MM17                                                
  452.520  95%   0.197 Lip13a+Lip13b                                       
 1.57E+03  35%   0.683 MM14+Lip13a+Lip13b+MM12                             
  917.544  25%   0.399 MM09+Lip09                                          
 2.08E+03  19%   0.906 MM20+Lip20                                          
   6 lines in following misc. output table
  FWHM = 0.046 ppm    S/N =  13                                            
  Data shift = 0.023 ppm                                                   
  Ph:  -9 deg      -6.0 deg/ppm                                            
  alphaB,S = 7.6E-01,   8.4E+01                                            
   14 spline knots.   Ns = 6(1)                                            
  (10) 2 infls.   ( 7) 1 extrs.                                            
  498 points on ppm-axis = NY
      4.000000     3.992357     3.984714     3.977070     3.969427     3.961784     3.954141     3.946497     3.938854     3.931211
      3.923568     3.915925     3.908281     3.900638     3.892995     3.885352     3.877708     3.870065     3.862422     3.854779
      3.847136     3.839492     3.831849     3.824206     3.816563     3.808919     3.801276     3.793633     3.785990     3.778347
      3.770703     3.763060     3.755417     3.747774     3.740130     3.732487     3.724844     3.717201     3.709558     3.701914
      3.694271     3.686628     3.678985     3.671341     3.663698     3.656055     3.648412     3.640769     3.633125     3.625482
      3.617839     3.610196     3.602552     3.594909     3.587266     3.579623     3.571980     3.564336     3.556693     3.549050
      3.541407     3.533763     3.526120     3.518477     3.510834     3.503191     3.495547     3.487904     3.480261     3.472618
      3.464974     3.457331     3.449688     3.442045     3.434402     3.426758     3.419115     3.411472     3.403829     3.396185
      3.388542     3.380899     3.373256     3.365613     3.357969     3.350326     3.342683     3.335040     3.327396     3.319753
      3.312110     3.304467     3.296824     3.289180     3.281537     3.273894     3.266251     3.258607     3.250964     3.243321
      3.235678     3.228034     3.220391     3.212748     3.205105     3.197462     3.189818     3.182175     3.174532     3.166889
      3.159245     3.151602     3.143959     3.136316     3.128673     3.121029     3.113386     3.105743     3.098100     3.090456
      3.082813     3.075170     3.067527     3.059884     3.052240     3.044597     3.036954     3.029311     3.021667     3.014024
      3.006381     2.998738     2.991095     2.983451     2.975808     2.968165     2.960522     2.952878     2.945235     2.937592
      2.929949     2.922306     2.914662     2.907019     2.899376     2.891733     2.884089     2.876446     2.868803     2.861160
      2.853517     2.845873     2.838230     2.830587     2.822944     2.815300     2.807657     2.800014     2.792371     2.784728
      2.777084     2.769441     2.761798     2.754155     2.746511     2.738868     2.731225     2.723582     2.715939     2.708295
      2.700652     2.693009     2.685366     2.677722     2.670079     2.662436     2.654793     2.647150     2.639506     2.631863
      2.624220     2.616577     2.608933     2.601290     2.593647     2.586004     2.578361     2.570717     2.563074     2.555431
      2.547788     2.540144     2.532501     2.524858     2.517215     2.509572     2.501928     2.494285     2.486642     2.478999
      2.471355     2.463712     2.456069     2.448426     2.440783     2.433139     2.425496     2.417853     2.410210     2.402566
      2.394923     2.387280     2.379637     2.371994     2.364350     2.356707     2.349064     2.341421     2.333777     2.326134
      2.318491     2.310848     2.303205     2.295561     2.287918     2.280275     2.272632     2.264988     2.257345     2.249702
      2.242059     2.234416     2.226772     2.219129     2.211486     2.203843     2.196199     2.188556     2.180913     2.173270
      2.165627     2.157983     2.150340     2.142697     2.135054     2.127410     2.119767     2.112124     2.104481     2.096838
      2.089194     2.081551     2.073908     2.066265     2.058621     2.050978     2.043335     2.035692     2.028049     2.020405
      2.012762     2.005119     1.997476     1.989833     1.982190     1.974546     1.966903     1.959260     1.951617     1.943974
      1.936331     1.928688     1.921045     1.913402     1.905759     1.898115     1.890472     1.882829     1.875186     1.867543
      1.859900     1.852257     1.844614     1.836971     1.829327     1.821684     1.814041     1.806398     1.798755     1.791112
      1.783469     1.775826     1.768183     1.760540     1.752896     1.745253     1.737610     1.729967     1.722324     1.714681
      1.707038     1.699395     1.691752     1.684108     1.676465     1.668822     1.661179     1.653536     1.645893     1.638250
      1.630607     1.622964     1.615321     1.607677     1.600034     1.592391     1.584748     1.577105     1.569462     1.561819
      1.554176     1.546533     1.538890     1.531246     1.523603     1.515960     1.508317     1.500674     1.493031     1.485388
      1.477745     1.470102     1.462458     1.454815     1.447172     1.439529     1.431886     1.424243     1.416600     1.408957
      1.401314     1.393671     1.386027     1.378384     1.370741     1.363098     1.355455     1.347812     1.340169     1.332526
      1.324883     1.317240     1.309596     1.301953     1.294310     1.286667     1.279024     1.271381     1.263738     1.256095
      1.248452     1.240808     1.233165     1.225522     1.217879     1.210236     1.202593     1.194950     1.187307     1.179664
      1.172021     1.164377     1.156734     1.149091     1.141448     1.133805     1.126162     1.118519     1.110876     1.103233
      1.095590     1.087946     1.080303     1.072660     1.065017     1.057374     1.049731     1.042088     1.034445     1.026802
      1.019158     1.011515     1.003872     0.996229     0.988586     0.980943     0.973300     0.965657     0.958014     0.950371
      0.942727     0.935084     0.927441     0.919798     0.912155     0.904512     0.896869     0.889226     0.881583     0.873940
      0.866296     0.858653     0.851010     0.843367     0.835724     0.828081     0.820438     0.812795     0.805152     0.797508
      0.789865     0.782222     0.774579     0.766936     0.759293     0.751650     0.744007     0.736364     0.728721     0.721077
      0.713434     0.705791     0.698148     0.690505     0.682862     0.675219     0.667576     0.659933     0.652290     0.644646
      0.637003     0.629360     0.621717     0.614074     0.606431     0.598788     0.591145     0.583502     0.575858     0.568215
      0.560572     0.552929     0.545286     0.537643     0.530000     0.522357     0.514714     0.507071     0.499427     0.491784
      0.484141     0.476498     0.468855     0.461212     0.453569     0.445925     0.438282     0.430639     0.422996     0.415353
      0.407710     0.400067     0.392424     0.384780     0.377137     0.369494     0.361851     0.354208     0.346565     0.338922
      0.331278     0.323635     0.315992     0.308349     0.300706     0.293063     0.285420     0.277777     0.270133     0.262490
      0.254847     0.247204     0.239561     0.231918     0.224275     0.216631     0.208988     0.201345
 NY phased data points follow
   2.99107E+00  4.78096E+00  3.27078E+00  8.33489E+00  8.36688E+00  2.06688E+01  2.93358E+01  4.31831E+01  5.44921E+01  6.28659E+01
   6.20579E+01  5.84865E+01  5.06848E+01  4.60921E+01  3.14770E+01  1.78373E+01  1.30604E+01  7.59977E+00  9.50574E+00  5.31535E+00
   5.43524E+00  4.85637E+00  6.04402E+00  6.76023E+00  9.44240E+00  1.22448E+01  1.09641E+01  1.50737E+01  1.89762E+01  2.27431E+01
   2.59639E+01  2.56700E+01  1.89892E+01  1.83475E+01  1.73298E+01  1.12585E+01  1.49937E+01  1.36682E+01  1.02718E+01  1.66066E+01
   1.65283E+01  1.23776E+01  1.02151E+01  1.47357E+01  1.40920E+01  2.07306E+01  2.05019E+01  1.89542E+01  2.23876E+01  1.55717E+01
   1.28033E+01  1.01184E+01  9.98094E+00  3.48388E+00  5.12109E+00  6.63248E+00  6.28355E+00  1.10392E+01  5.63255E+00  6.29098E+00
   4.29016E+00  3.66025E+00  2.15782E+00 -2.16390E+00 -8.05070E+00 -2.39991E+00 -6.00867E+00 -3.77460E+00 -3.35513E+00 -2.50357E-01
  -5.03694E+00 -1.43794E+00 -2.46851E+00 -3.76720E+00 -3.08408E+00  1.89643E+00 -3.73884E+00 -3.62751E-02  4.70687E-01 -6.05994E-01
  -1.58680E-01 -7.61442E-01  2.65735E+00 -6.91564E-01  1.47047E+00 -2.39254E+00 -3.74252E+00 -2.60665E+00  1.12705E+00  4.07292E+00
   1.38751E+00  5.52301E+00  5.64389E+00  4.65605E+00  6.18668E+00  8.27586E+00  9.32998E+00  1.69224E+01  2.31248E+01  3.50408E+01
   5.49029E+01  6.80143E+01  7.96615E+01  7.77196E+01  6.55283E+01  5.79706E+01  4.15596E+01  2.82619E+01  2.17538E+01  1.38598E+01
   8.49074E+00  5.15455E+00  4.56203E+00  6.66315E+00  4.10036E+00  8.16400E+00  5.49882E+00  1.43906E+01  9.57509E+00  7.10873E+00
   1.13026E+01  1.62002E+01  1.86990E+01  2.91655E+01  4.70681E+01  6.52648E+01  8.27673E+01  8.62396E+01  7.38011E+01  6.45092E+01
   4.73837E+01  3.58154E+01  2.04955E+01  1.47259E+01  1.11712E+01  7.30636E+00  3.73421E+00  7.89593E+00 -5.07549E+00  1.00372E+01
   4.26982E+00 -2.54603E-01  4.79116E+00  3.00052E+00  3.17487E+00  3.07392E+00  1.60288E+00  3.80993E+00  4.19846E-01  8.17981E-01
  -2.66961E+00 -2.09942E+00 -1.79308E+00 -4.13863E+00 -4.38813E-01  2.46613E+00 -4.60240E+00  7.39558E-01  1.82160E-01  1.87645E+00
   1.00677E-01 -3.37723E+00 -3.41697E+00 -4.90326E+00 -2.92383E+00  5.14603E+00 -3.95185E+00 -4.80282E+00 -6.67909E+00 -4.69691E+00
  -1.12341E+01 -1.16724E+01 -1.21572E+01 -1.40493E+01 -2.09181E+01 -1.81234E+01 -1.56699E+01 -9.94686E+00 -1.19358E+01 -1.18488E+01
  -1.58980E+01 -1.30492E+01 -1.46005E+01 -1.93948E+01 -1.44448E+01 -1.59103E+01 -1.57358E+01 -5.92268E+00 -1.20986E+00 -6.20614E-01
   2.40031E+00  5.83511E+00  4.83072E+00  3.98177E+00  4.99490E+00  4.42822E+00 -3.71336E-01 -2.76842E+00  2.30571E+00 -1.40574E+00
  -5.81349E+00  4.88267E+00  5.17424E-01  4.00750E+00  2.90017E+00  1.30704E+00  2.17709E+00 -1.20134E+00 -1.17959E+01 -6.83727E+00
  -4.92788E+00 -3.87897E+00  6.28114E+00  9.97655E+00  1.42526E+01  1.78689E+01  1.81625E+01  1.34590E+01  6.29672E+00  8.61437E-01
  -3.43959E+00 -6.04489E+00 -4.09803E+00 -8.83359E-01  3.39292E+00  5.91160E+00  1.09555E+01  1.32215E+01  1.21574E+01  1.57430E+01
   7.97650E+00  1.14635E+01  7.46514E+00  9.72196E+00  1.35782E+01  1.28688E+01  8.79298E+00  1.16444E+01  7.17785E+00  4.03234E+00
   7.56707E+00  2.52165E+00  8.40669E+00  5.41969E+00  7.58632E+00  9.95797E+00  1.68373E+01  1.54815E+01  1.93788E+01  1.59252E+01
   2.10719E+01  2.32734E+01  3.05511E+01  3.32820E+01  3.81838E+01  4.49826E+01  5.44289E+01  6.76593E+01  9.05586E+01  1.15453E+02
   1.17511E+02  1.01824E+02  8.08000E+01  5.97001E+01  4.06234E+01  3.41554E+01  2.35444E+01  2.35280E+01  1.45704E+01  1.36039E+01
   1.46318E+01  1.34907E+01  1.27327E+01  9.09566E+00  1.60821E+01  1.42996E+01  1.45579E+01  7.19437E+00  6.96694E+00  9.19589E+00
   1.32001E+01  9.06769E+00  8.88091E+00  8.80587E+00  1.51329E+00  7.79864E+00  7.60963E+00  1.12785E+01  1.08631E+01  1.26833E+01
   3.50654E+00  1.19028E+01  7.78412E+00  1.45220E+01  1.07930E+01  1.11979E+01  9.37928E+00  1.27509E+01  6.35147E+00  1.15435E+01
   1.11368E+01  1.02618E+01  6.12177E+00  8.43811E+00  1.71890E+01  1.15013E+01  9.95506E+00  1.46364E+01  1.37413E+01  1.17062E+01
   1.49181E+01  1.68392E+01  1.51836E+01  1.24996E+01  1.62154E+01  1.40477E+01  1.20404E+01  1.78598E+01  1.64667E+01  1.02036E+01
   1.73322E+01  1.75453E+01  1.42427E+01  1.35102E+01  1.69745E+01  1.47392E+01  1.26868E+01  1.56876E+01  1.38674E+01  1.56581E+01
   1.29882E+01  1.41259E+01  1.06438E+01  1.28702E+01  1.27636E+01  1.22638E+01  1.57061E+01  1.07478E+01  1.12624E+01  1.12497E+01
   1.31222E+01  1.36982E+01  1.02242E+01  9.40588E+00  8.08428E+00  9.34538E+00  9.44151E+00  7.78192E+00  5.62451E+00  1.24514E+01
   1.23294E+01  1.58058E+01  1.34555E+01  1.78940E+01  1.46906E+01  1.30732E+01  1.07393E+01  1.31320E+01  1.06239E+01  9.51962E+00
   1.34479E+01  1.53131E+01  5.95977E+00  6.68824E+00  1.02543E+01  1.14817E+01  1.20826E+01  9.02505E+00  1.31309E+01  5.90789E+00
   9.67474E+00  1.58754E+01  1.10873E+01  1.23084E+01  1.07538E+01  1.32308E+01  1.41756E+01  1.00355E+01  1.27876E+01  1.57553E+01
   8.31958E+00  1.04998E+01  1.34327E+01  1.47408E+01  3.19231E+00  7.71373E+00  5.10870E+00  3.72534E+00  5.98521E+00  4.64116E+00
   5.45372E+00  1.34688E+01  4.54644E+00  5.36639E+00  5.84836E+00  1.19505E+01  5.22542E+00  1.05082E+01  3.35050E+00  3.42177E+00
   5.15549E+00  7.55652E+00  5.24552E+00  4.34403E+00  1.47450E+01  7.62416E+00  1.21492E+01  1.26855E+01  1.37111E+01  1.45362E+01
   1.09143E+01  3.57516E+00  1.08311E+01  1.03401E+01  1.31171E+01  3.87242E+00  3.31948E+00  9.28082E+00  6.92014E+00  1.54277E+00
   7.80140E-01  5.04866E+00  8.31914E+00  8.28836E+00  6.40701E+00 -3.52911E-01  6.33255E+00  5.03101E-01  7.56417E+00  7.56907E+00
   5.65374E+00  3.78783E+00  4.15533E+00  3.94026E+00  3.70893E+00  6.37396E+00  4.87381E+00  3.12140E+00  8.57336E+00  4.25995E+00
   5.47239E+00  4.70194E+00  2.63749E+00  2.94362E+00  3.28716E+00  1.66615E+00  4.51110E+00  2.33716E+00  1.42378E+00  1.04327E+00
   2.43157E+00  2.63790E+00  1.50071E+00  4.78824E+00  2.48403E+00  1.44132E+00  6.55231E+00  2.59974E+00  2.60417E+00  3.89163E+00
   1.64723E+00  2.47365E+00 -5.46719E-03  6.66985E+00  3.05095E+00  1.23756E+00  1.16151E+00 -1.03697E+00  2.59816E+00  4.22813E+00
  -7.52882E-01  4.46693E+00  2.53963E+00  3.89059E+00  2.43133E+00  1.83944E+00  1.58058E+00  5.30942E+00  1.82994E+00  1.45454E+00
   4.19850E+00  9.45926E+00  2.99668E+00  2.96933E+00  6.69061E+00  4.79542E+00  8.12898E+00  3.17042E+00  2.69376E+00  4.90703E+00
   3.44312E+00 -1.09982E+00  4.92205E+00  7.70887E+00  4.73740E+00  3.54642E+00  2.83807E+00  4.21447E-02
 NY points of the fit to the data follow
   5.14196E+00  5.34780E+00  6.09029E+00  8.05924E+00  1.25249E+01  1.94571E+01  2.89772E+01  4.10025E+01  5.32393E+01  6.13832E+01
   6.23637E+01  5.67679E+01  4.76127E+01  3.79382E+01  2.96596E+01  2.33207E+01  1.83582E+01  1.43008E+01  1.16721E+01  1.03172E+01
   9.56577E+00  8.91667E+00  8.04682E+00  7.26581E+00  7.36241E+00  8.19703E+00  1.01365E+01  1.39605E+01  1.91992E+01  2.39516E+01
   2.64051E+01  2.63179E+01  2.41269E+01  2.04076E+01  1.61223E+01  1.22124E+01  9.07391E+00  6.95350E+00  6.26606E+00  6.54885E+00
   7.34957E+00  8.49268E+00  9.76472E+00  1.11340E+01  1.27046E+01  1.43346E+01  1.53749E+01  1.52417E+01  1.40493E+01  1.21953E+01
   1.01326E+01  8.30655E+00  6.89515E+00  5.89114E+00  5.26977E+00  5.05478E+00  5.24022E+00  5.64925E+00  6.08705E+00  6.27963E+00
   6.03349E+00  5.36321E+00  4.43781E+00  3.53911E+00  2.89672E+00  2.60988E+00  2.64548E+00  2.88333E+00  3.23068E+00  3.61281E+00
   3.95325E+00  4.11915E+00  4.05380E+00  3.81415E+00  3.49435E+00  3.18429E+00  2.92616E+00  2.73437E+00  2.57766E+00  2.43351E+00
   2.31459E+00  2.14611E+00  1.88390E+00  1.48813E+00  9.27706E-01  2.22993E-01 -4.76612E-01 -9.36488E-01 -9.94688E-01 -6.60420E-01
  -1.95797E-02  7.72904E-01  1.56882E+00  2.31151E+00  3.03216E+00  3.93673E+00  6.22645E+00  1.23947E+01  2.20636E+01  3.55761E+01
   5.33110E+01  7.10261E+01  8.13473E+01  8.00115E+01  6.92807E+01  5.44947E+01  3.98702E+01  2.77828E+01  1.88351E+01  1.20024E+01
   6.46482E+00  3.62490E+00  2.73487E+00  2.40262E+00  2.26152E+00  2.22082E+00  2.24773E+00  2.33609E+00  2.55601E+00  3.13172E+00
   4.87598E+00  1.00294E+01  1.93296E+01  3.21075E+01  4.92312E+01  6.82796E+01  8.23333E+01  8.53480E+01  7.74101E+01  6.34353E+01
   4.84708E+01  3.53924E+01  2.49318E+01  1.62199E+01  8.27514E+00  2.48053E+00  2.69560E-02 -4.93217E-01  1.69895E-01  1.44198E+00
   2.65488E+00  3.39345E+00  3.60260E+00  3.34127E+00  2.78912E+00  2.15605E+00  1.53169E+00  9.51035E-01  3.89936E-01 -1.84782E-01
  -6.86007E-01 -1.13612E+00 -1.50961E+00 -1.72756E+00 -1.76786E+00 -1.77853E+00 -1.87823E+00 -2.15813E+00 -2.73374E+00 -3.44305E+00
  -4.00197E+00 -4.12889E+00 -3.78134E+00 -3.33873E+00 -3.25441E+00 -3.68828E+00 -4.45795E+00 -5.22684E+00 -5.77161E+00 -6.14966E+00
  -6.51493E+00 -6.99075E+00 -7.56505E+00 -8.20022E+00 -8.74994E+00 -9.00506E+00 -8.79010E+00 -8.28636E+00 -7.95924E+00 -8.01100E+00
  -8.20255E+00 -8.28722E+00 -8.16528E+00 -7.88490E+00 -7.55501E+00 -6.95444E+00 -5.58025E+00 -3.37007E+00 -7.39676E-01  1.60146E+00
   2.98336E+00  3.18191E+00  2.27753E+00  8.24520E-01 -6.50606E-01 -1.87835E+00 -2.53308E+00 -2.22763E+00 -8.75652E-01  1.13156E+00
   3.33678E+00  5.35217E+00  6.80378E+00  7.32290E+00  6.45289E+00  4.45859E+00  1.60543E+00 -1.60259E+00 -4.17955E+00 -5.22415E+00
  -4.26344E+00 -1.74795E+00  1.92963E+00  6.44783E+00  1.06247E+01  1.27779E+01  1.18960E+01  8.42565E+00  3.49975E+00 -1.63225E+00
  -5.94729E+00 -8.25158E+00 -7.71751E+00 -4.69922E+00 -2.56328E-01  4.12820E+00  7.39580E+00  9.31486E+00  9.94803E+00  9.66911E+00
   9.00733E+00  8.62504E+00  8.93894E+00  9.89026E+00  1.11803E+01  1.25068E+01  1.32808E+01  1.29188E+01  1.15847E+01  9.73077E+00
   7.85410E+00  6.59792E+00  6.63725E+00  8.02094E+00  1.00745E+01  1.21365E+01  1.37976E+01  1.48664E+01  1.54325E+01  1.61727E+01
   1.78890E+01  2.04945E+01  2.42102E+01  2.92501E+01  3.69507E+01  4.76719E+01  5.92518E+01  7.46185E+01  9.37349E+01  1.09226E+02
   1.12474E+02  1.02141E+02  8.39076E+01  6.42360E+01  4.72906E+01  3.46177E+01  2.55272E+01  1.79966E+01  1.24759E+01  1.07319E+01
   1.02470E+01  1.01233E+01  1.02446E+01  1.04507E+01  1.05283E+01  1.04612E+01  1.02980E+01  1.00914E+01  9.87412E+00  9.69043E+00
   9.56216E+00  9.49378E+00  9.47593E+00  9.48311E+00  9.48424E+00  9.46747E+00  9.44397E+00  9.43239E+00  9.45142E+00  9.50827E+00
   9.60962E+00  9.74969E+00  9.90571E+00  1.00598E+01  1.02110E+01  1.03597E+01  1.05101E+01  1.06735E+01  1.08590E+01  1.10702E+01
   1.13065E+01  1.15586E+01  1.18164E+01  1.20694E+01  1.23104E+01  1.25364E+01  1.27443E+01  1.29293E+01  1.30917E+01  1.32303E+01
   1.33434E+01  1.34311E+01  1.34945E+01  1.35358E+01  1.35579E+01  1.35638E+01  1.35575E+01  1.35436E+01  1.35277E+01  1.35161E+01
   1.35183E+01  1.35464E+01  1.35831E+01  1.36149E+01  1.36360E+01  1.36036E+01  1.34725E+01  1.32490E+01  1.29934E+01  1.27854E+01
   1.26637E+01  1.26217E+01  1.26707E+01  1.28081E+01  1.29865E+01  1.31408E+01  1.32095E+01  1.31772E+01  1.30742E+01  1.29330E+01
   1.27817E+01  1.26341E+01  1.24862E+01  1.23501E+01  1.22483E+01  1.21792E+01  1.21438E+01  1.21448E+01  1.21831E+01  1.22558E+01
   1.23557E+01  1.24705E+01  1.25834E+01  1.26747E+01  1.27245E+01  1.27160E+01  1.26390E+01  1.24912E+01  1.22785E+01  1.20136E+01
   1.17136E+01  1.13969E+01  1.10804E+01  1.07773E+01  1.04960E+01  1.02395E+01  1.00072E+01  9.79614E+00  9.60246E+00  9.42223E+00
   9.25204E+00  9.08943E+00  8.93314E+00  8.78311E+00  8.64007E+00  8.50511E+00  8.37939E+00  8.26417E+00  8.16091E+00  8.07121E+00
   7.99662E+00  7.93838E+00  7.89755E+00  7.87512E+00  7.87218E+00  7.88980E+00  7.92880E+00  7.98960E+00  8.07226E+00  8.17666E+00
   8.30246E+00  8.44881E+00  8.61411E+00  8.79598E+00  8.99131E+00  9.19649E+00  9.40727E+00  9.61868E+00  9.82499E+00  1.00200E+01
   1.01973E+01  1.03509E+01  1.04747E+01  1.05635E+01  1.06123E+01  1.06173E+01  1.05761E+01  1.04877E+01  1.03526E+01  1.01723E+01
   9.94957E+00  9.68863E+00  9.39466E+00  9.07369E+00  8.73207E+00  8.37619E+00  8.01232E+00  7.64655E+00  7.28454E+00  6.93129E+00
   6.59085E+00  6.26633E+00  5.96009E+00  5.67382E+00  5.40857E+00  5.16468E+00  4.94180E+00  4.73911E+00  4.55561E+00  4.39018E+00
   4.24161E+00  4.10848E+00  3.98926E+00  3.88246E+00  3.78685E+00  3.70133E+00  3.62489E+00  3.55646E+00  3.49503E+00  3.43978E+00
   3.39011E+00  3.34556E+00  3.30559E+00  3.26967E+00  3.23727E+00  3.20809E+00  3.18193E+00  3.15863E+00  3.13792E+00  3.11946E+00
   3.10304E+00  3.08857E+00  3.07604E+00  3.06537E+00  3.05636E+00  3.04879E+00  3.04256E+00  3.03770E+00  3.03421E+00  3.03201E+00
   3.03090E+00  3.03076E+00  3.03160E+00  3.03347E+00  3.03638E+00  3.04019E+00  3.04476E+00  3.05002E+00  3.05603E+00  3.06285E+00
   3.07044E+00  3.07867E+00  3.08742E+00  3.09670E+00  3.10660E+00  3.11714E+00  3.12824E+00  3.13975E+00  3.15162E+00  3.16390E+00
   3.17668E+00  3.18995E+00  3.20358E+00  3.21747E+00  3.23163E+00  3.24613E+00  3.26105E+00  3.27630E+00  3.29179E+00  3.30744E+00
   3.32332E+00  3.33952E+00  3.35606E+00  3.37286E+00  3.38983E+00  3.40697E+00  3.42439E+00  3.44220E+00
 NY background values follow
     2.214E+00    2.198E+00    2.182E+00    2.165E+00    2.148E+00    2.130E+00    2.113E+00    2.094E+00    2.076E+00    2.057E+00
     2.038E+00    2.018E+00    1.998E+00    1.978E+00    1.958E+00    1.937E+00    1.916E+00    1.895E+00    1.873E+00    1.851E+00
     1.829E+00    1.807E+00    1.785E+00    1.762E+00    1.739E+00    1.716E+00    1.693E+00    1.670E+00    1.646E+00    1.623E+00
     1.599E+00    1.575E+00    1.551E+00    1.526E+00    1.502E+00    1.478E+00    1.453E+00    1.429E+00    1.404E+00    1.379E+00
     1.354E+00    1.330E+00    1.305E+00    1.280E+00    1.255E+00    1.230E+00    1.205E+00    1.180E+00    1.155E+00    1.130E+00
     1.105E+00    1.081E+00    1.056E+00    1.031E+00    1.006E+00    9.818E-01    9.573E-01    9.328E-01    9.084E-01    8.841E-01
     8.598E-01    8.357E-01    8.117E-01    7.878E-01    7.640E-01    7.403E-01    7.168E-01    6.934E-01    6.702E-01    6.471E-01
     6.242E-01    6.014E-01    5.788E-01    5.564E-01    5.342E-01    5.122E-01    4.903E-01    4.687E-01    4.473E-01    4.261E-01
     4.052E-01    3.844E-01    3.640E-01    3.437E-01    3.237E-01    3.040E-01    2.846E-01    2.654E-01    2.465E-01    2.279E-01
     2.095E-01    1.915E-01    1.738E-01    1.562E-01    1.389E-01    1.216E-01    1.045E-01    8.732E-02    7.015E-02    5.290E-02
     3.552E-02    1.797E-02    1.932E-04   -1.786E-02   -3.624E-02   -5.500E-02   -7.418E-02   -9.384E-02   -1.140E-01   -1.348E-01
    -1.562E-01   -1.782E-01   -2.010E-01   -2.245E-01   -2.489E-01   -2.742E-01   -3.004E-01   -3.275E-01   -3.557E-01   -3.849E-01
    -4.153E-01   -4.468E-01   -4.796E-01   -5.136E-01   -5.489E-01   -5.857E-01   -6.238E-01   -6.634E-01   -7.046E-01   -7.473E-01
    -7.916E-01   -8.376E-01   -8.853E-01   -9.348E-01   -9.860E-01   -1.039E+00   -1.094E+00   -1.151E+00   -1.210E+00   -1.270E+00
    -1.332E+00   -1.394E+00   -1.458E+00   -1.523E+00   -1.589E+00   -1.655E+00   -1.721E+00   -1.788E+00   -1.854E+00   -1.921E+00
    -1.988E+00   -2.054E+00   -2.119E+00   -2.184E+00   -2.248E+00   -2.310E+00   -2.372E+00   -2.432E+00   -2.491E+00   -2.547E+00
    -2.602E+00   -2.655E+00   -2.706E+00   -2.755E+00   -2.800E+00   -2.844E+00   -2.884E+00   -2.921E+00   -2.955E+00   -2.986E+00
    -3.013E+00   -3.037E+00   -3.057E+00   -3.072E+00   -3.084E+00   -3.091E+00   -3.094E+00   -3.092E+00   -3.086E+00   -3.074E+00
    -3.057E+00   -3.035E+00   -3.008E+00   -2.975E+00   -2.937E+00   -2.895E+00   -2.847E+00   -2.795E+00   -2.738E+00   -2.676E+00
    -2.611E+00   -2.541E+00   -2.467E+00   -2.389E+00   -2.308E+00   -2.223E+00   -2.134E+00   -2.042E+00   -1.947E+00   -1.848E+00
    -1.747E+00   -1.643E+00   -1.536E+00   -1.426E+00   -1.314E+00   -1.200E+00   -1.083E+00   -9.650E-01   -8.446E-01   -7.225E-01
    -5.987E-01   -4.735E-01   -3.468E-01   -2.189E-01   -8.995E-02    4.001E-02    1.708E-01    3.023E-01    4.344E-01    5.669E-01
     6.997E-01    8.326E-01    9.656E-01    1.099E+00    1.231E+00    1.364E+00    1.495E+00    1.627E+00    1.757E+00    1.887E+00
     2.016E+00    2.145E+00    2.272E+00    2.399E+00    2.526E+00    2.651E+00    2.776E+00    2.899E+00    3.022E+00    3.144E+00
     3.265E+00    3.386E+00    3.505E+00    3.623E+00    3.740E+00    3.856E+00    3.971E+00    4.086E+00    4.198E+00    4.310E+00
     4.421E+00    4.531E+00    4.639E+00    4.746E+00    4.852E+00    4.957E+00    5.060E+00    5.162E+00    5.263E+00    5.363E+00
     5.461E+00    5.558E+00    5.653E+00    5.747E+00    5.839E+00    5.930E+00    6.020E+00    6.108E+00    6.194E+00    6.279E+00
     6.362E+00    6.444E+00    6.524E+00    6.603E+00    6.679E+00    6.755E+00    6.828E+00    6.900E+00    6.970E+00    7.039E+00
     7.106E+00    7.171E+00    7.235E+00    7.297E+00    7.357E+00    7.416E+00    7.473E+00    7.528E+00    7.582E+00    7.634E+00
     7.684E+00    7.733E+00    7.780E+00    7.826E+00    7.869E+00    7.911E+00    7.952E+00    7.990E+00    8.027E+00    8.063E+00
     8.096E+00    8.128E+00    8.159E+00    8.187E+00    8.214E+00    8.239E+00    8.263E+00    8.285E+00    8.305E+00    8.323E+00
     8.340E+00    8.355E+00    8.368E+00    8.379E+00    8.389E+00    8.397E+00    8.404E+00    8.409E+00    8.412E+00    8.413E+00
     8.413E+00    8.411E+00    8.407E+00    8.402E+00    8.395E+00    8.386E+00    8.376E+00    8.364E+00    8.351E+00    8.336E+00
     8.320E+00    8.302E+00    8.283E+00    8.262E+00    8.240E+00    8.216E+00    8.191E+00    8.165E+00    8.137E+00    8.108E+00
     8.077E+00    8.045E+00    8.012E+00    7.977E+00    7.941E+00    7.904E+00    7.865E+00    7.826E+00    7.785E+00    7.743E+00
     7.699E+00    7.654E+00    7.609E+00    7.562E+00    7.514E+00    7.464E+00    7.414E+00    7.362E+00    7.310E+00    7.256E+00
     7.202E+00    7.146E+00    7.089E+00    7.031E+00    6.973E+00    6.913E+00    6.853E+00    6.791E+00    6.730E+00    6.667E+00
     6.604E+00    6.540E+00    6.476E+00    6.411E+00    6.346E+00    6.280E+00    6.215E+00    6.149E+00    6.082E+00    6.016E+00
     5.950E+00    5.883E+00    5.817E+00    5.750E+00    5.684E+00    5.618E+00    5.552E+00    5.486E+00    5.421E+00    5.356E+00
     5.292E+00    5.228E+00    5.165E+00    5.102E+00    5.040E+00    4.978E+00    4.918E+00    4.858E+00    4.799E+00    4.741E+00
     4.684E+00    4.627E+00    4.572E+00    4.519E+00    4.466E+00    4.414E+00    4.364E+00    4.315E+00    4.268E+00    4.222E+00
     4.177E+00    4.134E+00    4.091E+00    4.051E+00    4.011E+00    3.973E+00    3.936E+00    3.900E+00    3.865E+00    3.832E+00
     3.800E+00    3.769E+00    3.739E+00    3.711E+00    3.683E+00    3.657E+00    3.632E+00    3.608E+00    3.585E+00    3.563E+00
     3.542E+00    3.523E+00    3.504E+00    3.486E+00    3.470E+00    3.454E+00    3.439E+00    3.426E+00    3.413E+00    3.401E+00
     3.391E+00    3.381E+00    3.372E+00    3.364E+00    3.357E+00    3.351E+00    3.345E+00    3.341E+00    3.337E+00    3.334E+00
     3.332E+00    3.331E+00    3.330E+00    3.330E+00    3.331E+00    3.333E+00    3.336E+00    3.339E+00    3.342E+00    3.347E+00
     3.352E+00    3.358E+00    3.364E+00    3.371E+00    3.378E+00    3.386E+00    3.394E+00    3.403E+00    3.413E+00    3.423E+00
     3.433E+00    3.444E+00    3.455E+00    3.466E+00    3.478E+00    3.490E+00    3.502E+00    3.515E+00    3.528E+00    3.541E+00
     3.555E+00    3.569E+00    3.583E+00    3.597E+00    3.611E+00    3.625E+00    3.640E+00    3.654E+00    3.669E+00    3.684E+00
     3.698E+00    3.713E+00    3.728E+00    3.743E+00    3.757E+00    3.772E+00    3.786E+00    3.801E+00
 Ala      Conc. = 3.92E+01
