 LCModel (Version 6.3-1L) Copyright: S.W. Provencher.          Ref.: Magn. Reson. Med. 30:672-679 (1993).                
 Slice#1 Row#2 Col#7  K_02_press_1_raw_act
 36 lines in following concentration table = NCONC+1
    Conc.  %SD /Cr+PCr  Metabolite                                         
  241.339  26%   0.855 Ala                                                 
   76.842  94%   0.272 Asp                                                 
   10.001 966% 3.5E-02 Cr                                                  
  272.169  38%   0.965 PCr                                                 
   50.676  85%   0.180 GABA                                                
   49.264  90%   0.175 Glc                                                 
    0.000 999%   0.000 Gln                                                 
  388.694  33%   1.378 Glu                                                 
   33.630 285%   0.119 GPC                                                 
   45.877 207%   0.163 PCh                                                 
   53.200  82%   0.189 GSH                                                 
  149.208  93%   0.529 Ins                                                 
   73.082  85%   0.259 Lac                                                 
  830.532   8%   2.943 NAA                                                 
  151.149  40%   0.536 NAAG                                                
   16.545  72% 5.9E-02 Scyllo                                              
   72.428  93%   0.257 Tau                                                 
  134.078  40%   0.475 -CrCH2                                              
   79.508  17%   0.282 GPC+PCh                                             
  981.681   7%   3.479 NAA+NAAG                                            
  282.170  14%   1.000 Cr+PCr                                              
  388.694  33%   1.378 Glu+Gln                                             
 3.32E+03  25%  11.767 Lip13a                                              
    0.000 999%   0.000 Lip13b                                              
  646.257  52%   2.290 Lip09                                               
 1.76E+03  19%   6.248 MM09                                                
  471.983  49%   1.673 Lip20                                               
 1.53E+03  24%   5.422 MM20                                                
  629.006  39%   2.229 MM12                                                
 2.95E+03  20%  10.439 MM14                                                
  457.023  51%   1.620 MM17                                                
 3.32E+03  25%  11.767 Lip13a+Lip13b                                       
 6.89E+03   7%  24.435 MM14+Lip13a+Lip13b+MM12                             
 2.41E+03   9%   8.539 MM09+Lip09                                          
 2.00E+03  17%   7.095 MM20+Lip20                                          
   6 lines in following misc. output table
  FWHM = 0.031 ppm    S/N =   7                                            
  Data shift = 0.008 ppm                                                   
  Ph:  67 deg      30.3 deg/ppm                                            
  alphaB,S = 1.7E+00,   2.4E+01                                            
   14 spline knots.   Ns = 5(1)                                            
  ( 6) 2 infls.   ( 5) 1 extrs.                                            
  498 points on ppm-axis = NY
      4.000000     3.992357     3.984714     3.977070     3.969427     3.961784     3.954141     3.946497     3.938854     3.931211
      3.923568     3.915925     3.908281     3.900638     3.892995     3.885352     3.877708     3.870065     3.862422     3.854779
      3.847136     3.839492     3.831849     3.824206     3.816563     3.808919     3.801276     3.793633     3.785990     3.778347
      3.770703     3.763060     3.755417     3.747774     3.740130     3.732487     3.724844     3.717201     3.709558     3.701914
      3.694271     3.686628     3.678985     3.671341     3.663698     3.656055     3.648412     3.640769     3.633125     3.625482
      3.617839     3.610196     3.602552     3.594909     3.587266     3.579623     3.571980     3.564336     3.556693     3.549050
      3.541407     3.533763     3.526120     3.518477     3.510834     3.503191     3.495547     3.487904     3.480261     3.472618
      3.464974     3.457331     3.449688     3.442045     3.434402     3.426758     3.419115     3.411472     3.403829     3.396185
      3.388542     3.380899     3.373256     3.365613     3.357969     3.350326     3.342683     3.335040     3.327396     3.319753
      3.312110     3.304467     3.296824     3.289180     3.281537     3.273894     3.266251     3.258607     3.250964     3.243321
      3.235678     3.228034     3.220391     3.212748     3.205105     3.197462     3.189818     3.182175     3.174532     3.166889
      3.159245     3.151602     3.143959     3.136316     3.128673     3.121029     3.113386     3.105743     3.098100     3.090456
      3.082813     3.075170     3.067527     3.059884     3.052240     3.044597     3.036954     3.029311     3.021667     3.014024
      3.006381     2.998738     2.991095     2.983451     2.975808     2.968165     2.960522     2.952878     2.945235     2.937592
      2.929949     2.922306     2.914662     2.907019     2.899376     2.891733     2.884089     2.876446     2.868803     2.861160
      2.853517     2.845873     2.838230     2.830587     2.822944     2.815300     2.807657     2.800014     2.792371     2.784728
      2.777084     2.769441     2.761798     2.754155     2.746511     2.738868     2.731225     2.723582     2.715939     2.708295
      2.700652     2.693009     2.685366     2.677722     2.670079     2.662436     2.654793     2.647150     2.639506     2.631863
      2.624220     2.616577     2.608933     2.601290     2.593647     2.586004     2.578361     2.570717     2.563074     2.555431
      2.547788     2.540144     2.532501     2.524858     2.517215     2.509572     2.501928     2.494285     2.486642     2.478999
      2.471355     2.463712     2.456069     2.448426     2.440783     2.433139     2.425496     2.417853     2.410210     2.402566
      2.394923     2.387280     2.379637     2.371994     2.364350     2.356707     2.349064     2.341421     2.333777     2.326134
      2.318491     2.310848     2.303205     2.295561     2.287918     2.280275     2.272632     2.264988     2.257345     2.249702
      2.242059     2.234416     2.226772     2.219129     2.211486     2.203843     2.196199     2.188556     2.180913     2.173270
      2.165627     2.157983     2.150340     2.142697     2.135054     2.127410     2.119767     2.112124     2.104481     2.096838
      2.089194     2.081551     2.073908     2.066265     2.058621     2.050978     2.043335     2.035692     2.028049     2.020405
      2.012762     2.005119     1.997476     1.989833     1.982190     1.974546     1.966903     1.959260     1.951617     1.943974
      1.936331     1.928688     1.921045     1.913402     1.905759     1.898115     1.890472     1.882829     1.875186     1.867543
      1.859900     1.852257     1.844614     1.836971     1.829327     1.821684     1.814041     1.806398     1.798755     1.791112
      1.783469     1.775826     1.768183     1.760540     1.752896     1.745253     1.737610     1.729967     1.722324     1.714681
      1.707038     1.699395     1.691752     1.684108     1.676465     1.668822     1.661179     1.653536     1.645893     1.638250
      1.630607     1.622964     1.615321     1.607677     1.600034     1.592391     1.584748     1.577105     1.569462     1.561819
      1.554176     1.546533     1.538890     1.531246     1.523603     1.515960     1.508317     1.500674     1.493031     1.485388
      1.477745     1.470102     1.462458     1.454815     1.447172     1.439529     1.431886     1.424243     1.416600     1.408957
      1.401314     1.393671     1.386027     1.378384     1.370741     1.363098     1.355455     1.347812     1.340169     1.332526
      1.324883     1.317240     1.309596     1.301953     1.294310     1.286667     1.279024     1.271381     1.263738     1.256095
      1.248452     1.240808     1.233165     1.225522     1.217879     1.210236     1.202593     1.194950     1.187307     1.179664
      1.172021     1.164377     1.156734     1.149091     1.141448     1.133805     1.126162     1.118519     1.110876     1.103233
      1.095590     1.087946     1.080303     1.072660     1.065017     1.057374     1.049731     1.042088     1.034445     1.026802
      1.019158     1.011515     1.003872     0.996229     0.988586     0.980943     0.973300     0.965657     0.958014     0.950371
      0.942727     0.935084     0.927441     0.919798     0.912155     0.904512     0.896869     0.889226     0.881583     0.873940
      0.866296     0.858653     0.851010     0.843367     0.835724     0.828081     0.820438     0.812795     0.805152     0.797508
      0.789865     0.782222     0.774579     0.766936     0.759293     0.751650     0.744007     0.736364     0.728721     0.721077
      0.713434     0.705791     0.698148     0.690505     0.682862     0.675219     0.667576     0.659933     0.652290     0.644646
      0.637003     0.629360     0.621717     0.614074     0.606431     0.598788     0.591145     0.583502     0.575858     0.568215
      0.560572     0.552929     0.545286     0.537643     0.530000     0.522357     0.514714     0.507071     0.499427     0.491784
      0.484141     0.476498     0.468855     0.461212     0.453569     0.445925     0.438282     0.430639     0.422996     0.415353
      0.407710     0.400067     0.392424     0.384780     0.377137     0.369494     0.361851     0.354208     0.346565     0.338922
      0.331278     0.323635     0.315992     0.308349     0.300706     0.293063     0.285420     0.277777     0.270133     0.262490
      0.254847     0.247204     0.239561     0.231918     0.224275     0.216631     0.208988     0.201345
 NY phased data points follow
   3.48721E-01  1.74455E+00  4.95270E-01 -3.08844E-01  2.05874E+00 -8.54263E+00 -4.07911E-01 -3.21502E+00 -2.75434E+00  8.37498E-01
   7.24520E-01  5.78867E+00  3.72660E+00  6.98308E-01 -3.92896E-01 -3.47657E+00  2.85184E-01 -1.11535E+00 -1.13076E-01 -6.89620E+00
   2.79856E+00  2.40093E+00 -4.26495E+00 -3.08002E+00 -1.57409E+00 -3.87549E+00  2.37443E+00 -1.92904E+00 -3.10492E+00 -2.64705E+00
  -3.67311E+00 -3.36873E+00 -1.43354E-01  3.21696E+00 -2.05963E+00  8.41386E-01 -6.78040E-02  1.87927E+00 -3.79433E+00 -7.60425E+00
  -4.82086E+00 -3.66802E+00 -3.85759E+00  5.68242E-02 -2.78031E+00 -5.00718E+00  1.62544E+00 -3.32601E+00  4.28833E+00  2.03847E+00
  -2.02932E+00 -1.49221E+00  2.61119E+00 -9.76174E-01 -3.06261E-02  3.90943E-01  1.73943E+00 -6.26304E+00  2.53387E+00 -3.39353E+00
  -1.16750E+00 -6.99416E+00 -9.97067E-01 -5.42967E+00 -8.50307E+00 -3.42185E+00 -6.27522E+00 -1.00581E+00 -1.40761E+00 -5.62440E+00
  -7.33642E+00  1.69138E+00  1.60573E+00 -3.03119E+00 -1.47086E+00 -2.63731E-01 -4.62496E-01 -4.27422E+00 -6.01492E+00  1.56894E+00
  -3.25511E+00 -3.03823E+00  2.99771E+00 -1.13945E+00 -2.82272E+00  2.10257E-01 -2.03582E+00 -1.59819E+00 -1.09729E+00 -4.72663E+00
  -1.42764E+00  3.09085E+00 -2.43971E+00 -2.56234E+00 -5.97656E+00 -2.91757E+00 -8.39246E+00 -2.13817E+00 -1.52344E+00  8.37577E-01
   8.53001E-01  4.01535E+00  4.60313E+00  1.14453E+01  1.16450E+01  2.91446E+00 -5.50682E-01 -7.77099E+00 -1.63485E+00  2.16392E+00
   8.50723E-01 -1.91470E+00  2.62958E+00 -4.09821E+00 -7.16461E-01  1.62498E+00 -5.99172E+00  4.03618E-01 -1.85373E+00 -4.87449E-01
  -2.88661E+00 -2.66388E+00  6.52819E-01  5.23416E-01  2.07416E+00  2.78929E+00  8.17486E+00  1.02006E+01  1.48588E+01  1.44070E+01
   6.56092E+00  2.75377E+00  5.45246E+00  2.41342E+00  3.46052E+00  7.28303E+00  2.21051E+00  2.63986E-01 -3.81312E+00  3.07985E+00
   2.34961E+00 -8.69761E-01 -3.01114E+00 -1.29064E+00  2.51440E+00 -2.97556E+00 -4.33639E-02 -8.78238E-01 -1.82217E+00  3.38079E-01
  -3.54423E+00 -4.27650E+00 -1.13347E-01  3.52630E+00  3.47834E+00  6.88349E+00 -1.20615E+00 -7.25305E+00  7.89067E-01 -2.94761E+00
  -1.51035E+00 -5.74818E+00 -3.98896E+00 -2.95442E+00 -5.73600E+00  2.78821E+00 -3.56550E+00 -3.23376E+00  3.91932E+00 -3.85076E+00
  -3.11679E+00 -5.70288E+00 -3.99108E+00 -2.41843E+00 -8.90002E+00 -6.23146E+00 -6.26870E+00 -6.41309E+00 -9.66095E+00 -7.18588E+00
  -3.09664E+00 -2.69323E+00 -7.97727E+00 -2.10900E+00 -8.83849E+00 -6.49710E-01 -4.83839E+00 -3.74930E-01 -5.42153E+00  6.97337E-01
  -2.07124E+00 -6.63340E-01 -9.55784E+00 -2.99013E+00 -5.26644E+00 -5.20301E+00 -2.98768E+00 -4.85735E+00 -6.14414E+00 -1.12491E+01
  -9.10653E+00 -4.44007E+00 -6.09307E+00 -4.87930E+00 -4.17329E+00 -4.17925E+00 -5.71776E+00 -2.24213E+00  8.56254E-02 -4.97461E+00
  -5.65940E+00 -6.76597E+00 -1.75155E+00  4.88688E+00  3.02806E+00  4.53453E+00 -3.29221E+00 -5.72135E-01 -6.45051E+00 -1.99844E+00
  -3.21065E+00 -6.89426E+00 -3.03963E+00 -5.70114E+00 -4.44348E+00  3.33982E+00  3.43571E-01  2.48145E+00 -1.23267E+00  4.74385E+00
  -1.11687E+00 -5.48457E+00 -4.84116E+00 -3.14748E+00 -1.86169E-01  3.97988E+00  1.37545E+00 -2.19909E+00  2.29848E+00  8.29379E-01
  -5.19808E+00 -1.51640E-01 -2.44069E+00 -2.66346E-02 -2.34360E-01  7.92133E+00  9.35128E+00  7.24596E+00  5.90506E+00  3.56285E+00
   7.85247E+00  1.05566E+01  1.03901E+01  7.61916E+00  1.54259E+01  1.17030E+01  1.67354E+01  2.53309E+01  3.47976E+01  3.72774E+01
   4.72549E+01  5.06660E+01  3.70787E+01  1.00212E+01 -6.15255E-01  3.47899E-02  6.23130E+00  9.13547E-01 -6.06669E+00 -5.59767E+00
  -6.23093E+00 -4.05724E+00 -7.02055E+00 -4.12466E+00 -4.25928E-01 -6.26991E+00 -3.16876E+00  3.44652E+00 -4.05141E+00 -7.32589E+00
  -6.18083E+00 -9.93217E-02 -5.43291E+00 -6.17470E+00 -1.03844E+00 -8.03670E+00 -4.76966E+00 -4.57994E+00  6.98465E-01 -3.85468E+00
  -1.36730E+00 -5.45916E+00 -2.09757E+00 -2.63020E+00 -2.48484E+00 -1.71728E+00  4.61735E-01 -4.55914E+00 -2.60733E+00 -3.71149E+00
  -2.67118E+00 -3.05765E-01 -3.44795E+00  6.37246E-01 -1.63117E-01  6.32500E+00  3.18957E+00  6.05792E+00  2.68746E+00 -2.45565E-01
   2.51469E+00  7.06365E-01  3.29086E+00 -1.23547E+00 -1.21100E+00  1.67538E+00  4.02068E+00  3.41607E+00  3.47935E+00  6.76082E+00
   8.78863E+00  5.46475E+00  4.03397E+00  3.36661E+00  8.99555E+00  1.45596E+01  7.63237E+00  9.54455E+00  1.13636E+01  6.70419E+00
   6.28927E+00  9.23155E+00  1.01771E+01  1.26871E+01  1.66667E+01  1.86913E+01  2.40753E+01  2.50453E+01  2.43632E+01  1.85920E+01
   2.25590E+01  2.57629E+01  2.23760E+01  2.38126E+01  2.43657E+01  2.81237E+01  2.15411E+01  1.96958E+01  1.97494E+01  2.09051E+01
   1.99474E+01  1.59213E+01  2.06773E+01  2.18352E+01  1.94237E+01  2.13861E+01  1.73360E+01  2.27337E+01  1.45624E+01  1.07175E+01
   1.70375E+01  1.33750E+01  1.44461E+01  1.23389E+01  1.16857E+01  1.29234E+01  2.02493E+01  1.36822E+01  1.36483E+01  1.38085E+01
   7.69353E+00  8.75348E+00  8.09602E+00  1.24265E+01  7.11404E+00  4.64069E+00  6.59995E+00  1.66446E+01  1.24243E+01  1.49751E+01
   1.49691E+01  6.15755E+00  9.25862E+00  1.16891E+01  1.10634E+01  9.99421E+00  1.45018E+01  1.15142E+01  8.73675E+00  1.17575E+01
   1.27302E+01  9.33477E+00  1.64984E+01  1.67233E+01  1.38937E+01  1.88879E+01  1.62885E+01  1.39041E+01  1.72272E+01  1.87704E+01
   1.70542E+01  1.54463E+01  1.53630E+01  1.58396E+01  1.42736E+01  1.55435E+01  1.34855E+01  8.13891E+00  1.41690E+01  1.43657E+01
   7.30672E+00  4.27019E+00  5.68087E+00  7.55170E+00  4.72342E+00  4.28644E+00  3.48326E+00  2.09744E+00  2.45464E+00  2.86920E+00
   5.64348E-01  4.59230E+00  2.99325E+00 -1.75612E+00 -1.37575E+00  3.81936E+00  4.10737E-02 -1.85089E-01  3.42659E-01  2.88221E+00
   2.56526E+00  2.62903E+00  3.07874E+00  4.45283E+00 -2.48592E-01  1.96026E+00 -3.26771E-01  3.67077E+00  8.61509E-01  6.45665E-01
   8.77097E-01  1.89188E+00 -7.53175E-01  3.83540E+00 -3.11852E+00  4.30007E+00  2.96502E-01 -2.06888E+00  2.26120E+00  2.37980E+00
   2.76737E+00 -2.58944E+00 -6.94937E-01 -4.68980E-01  1.15322E+00 -2.16687E+00 -1.47014E+00  5.88429E+00 -2.32019E+00 -1.40295E-02
   2.13135E+00 -1.70953E+00 -1.92630E+00 -7.11810E-01  2.17883E+00  1.04610E+00 -9.04578E-01  5.74393E-01 -1.27884E+00 -8.27841E-01
  -1.10795E+01 -9.76605E-01 -5.48768E+00 -3.80204E+00  1.92752E+00 -1.97525E+00 -3.90809E-01  1.39272E+00  3.35131E+00 -3.56262E+00
  -5.07331E+00  5.19417E+00  1.13302E+00 -1.14869E+00  1.91685E+00  3.59742E+00 -4.68579E+00 -1.10184E+00 -2.66069E+00 -1.95153E+00
  -4.27391E+00  4.37496E+00  2.69973E-02 -5.40486E-01  7.88973E-01  1.21633E+00 -3.24378E-01 -2.29627E+00
 NY points of the fit to the data follow
  -1.88684E+00 -1.81560E+00 -1.75426E+00 -1.73663E+00 -1.85472E+00 -2.05995E+00 -1.94611E+00 -1.26903E+00 -1.43278E-01  1.53283E+00
   3.70508E+00  4.93945E+00  3.57955E+00  4.23928E-01 -1.89401E+00 -2.29546E+00 -2.14042E+00 -2.20496E+00 -2.25975E+00 -2.11321E+00
  -1.67671E+00 -1.08437E+00 -6.16489E-01 -4.78181E-01 -6.98282E-01 -1.19924E+00 -1.85771E+00 -2.50789E+00 -2.75767E+00 -2.17145E+00
  -9.29174E-01  1.29652E-01  5.23324E-01  5.15685E-01  3.25696E-01 -3.55238E-01 -1.52835E+00 -2.47642E+00 -2.74211E+00 -2.58529E+00
  -2.36082E+00 -2.16557E+00 -1.99783E+00 -1.80320E+00 -1.51557E+00 -1.15180E+00 -7.87306E-01 -5.03471E-01 -5.41833E-01 -1.04688E+00
  -1.80127E+00 -2.36341E+00 -2.51851E+00 -2.41981E+00 -2.29915E+00 -2.21809E+00 -2.13715E+00 -2.03070E+00 -1.90700E+00 -1.77009E+00
  -1.66969E+00 -1.71175E+00 -1.92318E+00 -2.18355E+00 -2.34246E+00 -2.35451E+00 -2.27014E+00 -2.17233E+00 -2.11576E+00 -2.09203E+00
  -2.06913E+00 -1.98879E+00 -1.82202E+00 -1.63793E+00 -1.52458E+00 -1.51728E+00 -1.62544E+00 -1.90761E+00 -2.30003E+00 -2.56208E+00
  -2.55771E+00 -2.34493E+00 -2.00273E+00 -1.62338E+00 -1.34390E+00 -1.20411E+00 -1.22792E+00 -1.55769E+00 -2.19263E+00 -2.75643E+00
  -2.89571E+00 -2.72134E+00 -2.60756E+00 -2.65299E+00 -2.72497E+00 -2.68351E+00 -2.47731E+00 -2.11683E+00 -1.40941E+00  5.06498E-02
   2.31135E+00  4.98719E+00  7.66629E+00  9.46462E+00  8.69551E+00  4.79566E+00  9.78273E-02 -2.44991E+00 -2.58960E+00 -2.24478E+00
  -2.24996E+00 -2.28025E+00 -2.27240E+00 -2.23626E+00 -2.20183E+00 -2.16751E+00 -2.13700E+00 -2.11191E+00 -2.08909E+00 -2.06728E+00
  -2.02567E+00 -1.89861E+00 -1.54344E+00 -5.72161E-01  1.50531E+00  4.63548E+00  8.22300E+00  1.15503E+01  1.33232E+01  1.16916E+01
   6.63557E+00  1.29083E+00 -1.27417E+00 -1.40962E+00 -1.40111E+00 -1.76652E+00 -2.05701E+00 -2.13185E+00 -1.98646E+00 -1.73288E+00
  -1.50041E+00 -1.37702E+00 -1.40762E+00 -1.52623E+00 -1.62371E+00 -1.67487E+00 -1.72704E+00 -1.83338E+00 -1.98739E+00 -2.11779E+00
  -2.20072E+00 -2.26652E+00 -2.34547E+00 -2.41961E+00 -2.45401E+00 -2.42990E+00 -2.38843E+00 -2.45419E+00 -2.71902E+00 -3.15952E+00
  -3.63923E+00 -3.91416E+00 -3.73399E+00 -3.12466E+00 -2.52262E+00 -2.42958E+00 -2.94373E+00 -3.67522E+00 -4.17493E+00 -4.28370E+00
  -4.20557E+00 -4.21781E+00 -4.36953E+00 -4.66593E+00 -5.02838E+00 -5.29869E+00 -5.33119E+00 -5.03825E+00 -4.53579E+00 -4.25618E+00
  -4.52184E+00 -5.03000E+00 -5.16361E+00 -4.79462E+00 -4.34618E+00 -4.15083E+00 -4.17575E+00 -3.99550E+00 -3.31302E+00 -2.35559E+00
  -1.72812E+00 -1.73829E+00 -2.09109E+00 -2.37020E+00 -2.51844E+00 -2.56848E+00 -2.54134E+00 -2.61958E+00 -2.91291E+00 -3.16607E+00
  -3.03713E+00 -2.55656E+00 -2.01711E+00 -1.58169E+00 -1.30362E+00 -1.47830E+00 -2.19852E+00 -3.08624E+00 -3.75494E+00 -4.17164E+00
  -4.39187E+00 -4.21917E+00 -3.54587E+00 -2.45630E+00 -1.13700E+00  8.33857E-02  5.25960E-01 -4.49534E-01 -2.50016E+00 -4.42162E+00
  -5.43262E+00 -5.60309E+00 -5.21321E+00 -4.01750E+00 -2.05432E+00 -1.56326E-01  7.44029E-01  5.84065E-01  6.51585E-02 -3.38169E-01
  -6.23333E-01 -7.47596E-01 -4.99207E-01  1.46297E-01  9.36885E-01  1.50917E+00  1.70438E+00  1.60311E+00  1.30002E+00  8.99129E-01
   6.06201E-01  6.37631E-01  1.10072E+00  1.93563E+00  2.96899E+00  3.92350E+00  4.48623E+00  4.54439E+00  4.31656E+00  4.10159E+00
   4.06788E+00  4.56934E+00  5.98611E+00  8.15808E+00  1.05927E+01  1.36821E+01  1.86472E+01  2.53712E+01  3.26288E+01  4.05088E+01
   4.76897E+01  4.73590E+01  3.41982E+01  1.52802E+01  3.33796E+00  1.55355E+00  2.62247E+00  2.10887E+00  1.53048E+00  1.05512E+00
   6.53375E-01  4.01125E-01  3.02677E-01  2.62278E-01  1.90022E-01  1.62822E-02 -2.73367E-01 -6.27807E-01 -9.59210E-01 -1.22198E+00
  -1.42538E+00 -1.57970E+00 -1.68019E+00 -1.73143E+00 -1.76504E+00 -1.80706E+00 -1.85161E+00 -1.88336E+00 -1.90211E+00 -1.90262E+00
  -1.86732E+00 -1.78943E+00 -1.68134E+00 -1.56046E+00 -1.44438E+00 -1.33427E+00 -1.20975E+00 -1.05792E+00 -8.85909E-01 -6.95943E-01
  -4.80893E-01 -2.43364E-01 -1.25615E-04  2.32591E-01  4.51297E-01  6.58922E-01  8.53526E-01  1.03478E+00  1.20442E+00  1.36402E+00
   1.51636E+00  1.66561E+00  1.81781E+00  1.98123E+00  2.16640E+00  2.38535E+00  2.65130E+00  2.97836E+00  3.38277E+00  3.88520E+00
   4.51595E+00  5.33167E+00  6.44322E+00  7.88767E+00  9.41215E+00  1.06306E+01  1.12725E+01  1.10130E+01  9.59455E+00  7.66850E+00
   6.80541E+00  7.93672E+00  1.03929E+01  1.30745E+01  1.60300E+01  1.94953E+01  2.26122E+01  2.40571E+01  2.36452E+01  2.27223E+01
   2.24796E+01  2.27230E+01  2.29473E+01  2.31666E+01  2.33108E+01  2.32639E+01  2.29489E+01  2.22659E+01  2.11477E+01  1.98405E+01
   1.88846E+01  1.85719E+01  1.86520E+01  1.87838E+01  1.90060E+01  1.93081E+01  1.93384E+01  1.88043E+01  1.78890E+01  1.70441E+01
   1.64410E+01  1.58982E+01  1.53403E+01  1.47777E+01  1.42116E+01  1.36432E+01  1.30756E+01  1.25128E+01  1.19604E+01  1.14246E+01
   1.09125E+01  1.04316E+01  9.98890E+00  9.59187E+00  9.24801E+00  8.96465E+00  8.74870E+00  8.60606E+00  8.54177E+00  8.55979E+00
   8.66313E+00  8.85317E+00  9.12937E+00  9.48871E+00  9.92589E+00  1.04332E+01  1.10006E+01  1.16156E+01  1.22631E+01  1.29255E+01
   1.35843E+01  1.42198E+01  1.48126E+01  1.53437E+01  1.57953E+01  1.61516E+01  1.64000E+01  1.65315E+01  1.65412E+01  1.64276E+01
   1.61931E+01  1.58440E+01  1.53896E+01  1.48423E+01  1.42163E+01  1.35265E+01  1.27884E+01  1.20175E+01  1.12285E+01  1.04350E+01
   9.64895E+00  8.88016E+00  8.13672E+00  7.42497E+00  6.74976E+00  6.11424E+00  5.52005E+00  4.96750E+00  4.45610E+00  3.98479E+00
   3.55213E+00  3.15609E+00  2.79433E+00  2.46423E+00  2.16341E+00  1.88960E+00  1.64068E+00  1.41438E+00  1.20849E+00  1.02093E+00
   8.50052E-01  6.94364E-01  5.52520E-01  4.23014E-01  3.04514E-01  1.95840E-01  9.62037E-02  4.83229E-03 -7.90096E-02 -1.56232E-01
  -2.27537E-01 -2.93491E-01 -3.54369E-01 -4.10569E-01 -4.62519E-01 -5.10797E-01 -5.55730E-01 -5.97538E-01 -6.36267E-01 -6.72181E-01
  -7.05573E-01 -7.36823E-01 -7.66029E-01 -7.93242E-01 -8.18433E-01 -8.41839E-01 -8.63683E-01 -8.84207E-01 -9.03365E-01 -9.21142E-01
  -9.37522E-01 -9.52751E-01 -9.66987E-01 -9.80356E-01 -9.92722E-01 -1.00407E+00 -1.01443E+00 -1.02405E+00 -1.03302E+00 -1.04137E+00
  -1.04892E+00 -1.05571E+00 -1.06180E+00 -1.06743E+00 -1.07260E+00 -1.07728E+00 -1.08129E+00 -1.08474E+00 -1.08771E+00 -1.09042E+00
  -1.09277E+00 -1.09469E+00 -1.09606E+00 -1.09702E+00 -1.09769E+00 -1.09820E+00 -1.09839E+00 -1.09819E+00 -1.09755E+00 -1.09665E+00
  -1.09559E+00 -1.09441E+00 -1.09293E+00 -1.09111E+00 -1.08895E+00 -1.08667E+00 -1.08431E+00 -1.08185E+00
 NY background values follow
    -2.336E+00   -2.344E+00   -2.351E+00   -2.359E+00   -2.367E+00   -2.375E+00   -2.383E+00   -2.391E+00   -2.398E+00   -2.406E+00
    -2.414E+00   -2.422E+00   -2.430E+00   -2.438E+00   -2.445E+00   -2.453E+00   -2.461E+00   -2.469E+00   -2.477E+00   -2.485E+00
    -2.492E+00   -2.500E+00   -2.508E+00   -2.516E+00   -2.524E+00   -2.531E+00   -2.539E+00   -2.547E+00   -2.555E+00   -2.563E+00
    -2.571E+00   -2.578E+00   -2.586E+00   -2.594E+00   -2.602E+00   -2.610E+00   -2.617E+00   -2.625E+00   -2.633E+00   -2.641E+00
    -2.648E+00   -2.656E+00   -2.664E+00   -2.672E+00   -2.680E+00   -2.687E+00   -2.695E+00   -2.703E+00   -2.711E+00   -2.718E+00
    -2.726E+00   -2.734E+00   -2.742E+00   -2.749E+00   -2.757E+00   -2.765E+00   -2.773E+00   -2.780E+00   -2.788E+00   -2.796E+00
    -2.803E+00   -2.811E+00   -2.819E+00   -2.827E+00   -2.834E+00   -2.842E+00   -2.850E+00   -2.857E+00   -2.865E+00   -2.873E+00
    -2.881E+00   -2.888E+00   -2.896E+00   -2.904E+00   -2.911E+00   -2.919E+00   -2.927E+00   -2.934E+00   -2.942E+00   -2.950E+00
    -2.957E+00   -2.965E+00   -2.973E+00   -2.981E+00   -2.988E+00   -2.996E+00   -3.004E+00   -3.011E+00   -3.019E+00   -3.027E+00
    -3.034E+00   -3.042E+00   -3.050E+00   -3.057E+00   -3.065E+00   -3.073E+00   -3.080E+00   -3.088E+00   -3.095E+00   -3.103E+00
    -3.111E+00   -3.118E+00   -3.126E+00   -3.134E+00   -3.141E+00   -3.149E+00   -3.157E+00   -3.164E+00   -3.172E+00   -3.180E+00
    -3.187E+00   -3.195E+00   -3.203E+00   -3.210E+00   -3.218E+00   -3.226E+00   -3.233E+00   -3.241E+00   -3.249E+00   -3.256E+00
    -3.264E+00   -3.271E+00   -3.279E+00   -3.287E+00   -3.294E+00   -3.302E+00   -3.310E+00   -3.317E+00   -3.325E+00   -3.333E+00
    -3.341E+00   -3.348E+00   -3.356E+00   -3.364E+00   -3.371E+00   -3.379E+00   -3.387E+00   -3.394E+00   -3.402E+00   -3.410E+00
    -3.417E+00   -3.425E+00   -3.433E+00   -3.440E+00   -3.448E+00   -3.456E+00   -3.463E+00   -3.471E+00   -3.479E+00   -3.486E+00
    -3.494E+00   -3.502E+00   -3.509E+00   -3.517E+00   -3.524E+00   -3.532E+00   -3.539E+00   -3.547E+00   -3.554E+00   -3.562E+00
    -3.569E+00   -3.577E+00   -3.584E+00   -3.591E+00   -3.599E+00   -3.606E+00   -3.613E+00   -3.620E+00   -3.628E+00   -3.635E+00
    -3.642E+00   -3.649E+00   -3.656E+00   -3.663E+00   -3.670E+00   -3.677E+00   -3.684E+00   -3.690E+00   -3.697E+00   -3.704E+00
    -3.711E+00   -3.717E+00   -3.724E+00   -3.730E+00   -3.737E+00   -3.743E+00   -3.750E+00   -3.756E+00   -3.762E+00   -3.768E+00
    -3.774E+00   -3.781E+00   -3.787E+00   -3.793E+00   -3.798E+00   -3.804E+00   -3.810E+00   -3.816E+00   -3.821E+00   -3.827E+00
    -3.832E+00   -3.838E+00   -3.843E+00   -3.849E+00   -3.854E+00   -3.859E+00   -3.864E+00   -3.869E+00   -3.874E+00   -3.879E+00
    -3.884E+00   -3.889E+00   -3.893E+00   -3.898E+00   -3.902E+00   -3.907E+00   -3.911E+00   -3.915E+00   -3.919E+00   -3.924E+00
    -3.928E+00   -3.932E+00   -3.935E+00   -3.939E+00   -3.943E+00   -3.946E+00   -3.950E+00   -3.953E+00   -3.957E+00   -3.960E+00
    -3.963E+00   -3.966E+00   -3.969E+00   -3.972E+00   -3.975E+00   -3.977E+00   -3.980E+00   -3.982E+00   -3.985E+00   -3.987E+00
    -3.989E+00   -3.991E+00   -3.993E+00   -3.995E+00   -3.997E+00   -3.999E+00   -4.000E+00   -4.002E+00   -4.003E+00   -4.005E+00
    -4.006E+00   -4.007E+00   -4.008E+00   -4.009E+00   -4.010E+00   -4.010E+00   -4.011E+00   -4.011E+00   -4.012E+00   -4.012E+00
    -4.012E+00   -4.012E+00   -4.012E+00   -4.012E+00   -4.012E+00   -4.011E+00   -4.011E+00   -4.010E+00   -4.009E+00   -4.008E+00
    -4.008E+00   -4.006E+00   -4.005E+00   -4.004E+00   -4.002E+00   -4.001E+00   -3.999E+00   -3.997E+00   -3.996E+00   -3.994E+00
    -3.991E+00   -3.989E+00   -3.987E+00   -3.984E+00   -3.982E+00   -3.979E+00   -3.976E+00   -3.974E+00   -3.971E+00   -3.968E+00
    -3.964E+00   -3.961E+00   -3.958E+00   -3.954E+00   -3.950E+00   -3.947E+00   -3.943E+00   -3.939E+00   -3.935E+00   -3.931E+00
    -3.927E+00   -3.922E+00   -3.918E+00   -3.913E+00   -3.909E+00   -3.904E+00   -3.899E+00   -3.894E+00   -3.889E+00   -3.884E+00
    -3.879E+00   -3.873E+00   -3.868E+00   -3.862E+00   -3.857E+00   -3.851E+00   -3.845E+00   -3.839E+00   -3.833E+00   -3.827E+00
    -3.821E+00   -3.815E+00   -3.809E+00   -3.802E+00   -3.796E+00   -3.789E+00   -3.782E+00   -3.776E+00   -3.769E+00   -3.762E+00
    -3.755E+00   -3.748E+00   -3.740E+00   -3.733E+00   -3.726E+00   -3.718E+00   -3.711E+00   -3.703E+00   -3.696E+00   -3.688E+00
    -3.680E+00   -3.672E+00   -3.664E+00   -3.656E+00   -3.648E+00   -3.640E+00   -3.631E+00   -3.623E+00   -3.615E+00   -3.606E+00
    -3.598E+00   -3.589E+00   -3.580E+00   -3.572E+00   -3.563E+00   -3.554E+00   -3.545E+00   -3.536E+00   -3.527E+00   -3.518E+00
    -3.509E+00   -3.500E+00   -3.490E+00   -3.481E+00   -3.472E+00   -3.462E+00   -3.453E+00   -3.443E+00   -3.433E+00   -3.424E+00
    -3.414E+00   -3.404E+00   -3.394E+00   -3.384E+00   -3.374E+00   -3.364E+00   -3.354E+00   -3.344E+00   -3.334E+00   -3.324E+00
    -3.314E+00   -3.303E+00   -3.293E+00   -3.283E+00   -3.272E+00   -3.262E+00   -3.251E+00   -3.241E+00   -3.230E+00   -3.219E+00
    -3.209E+00   -3.198E+00   -3.187E+00   -3.176E+00   -3.165E+00   -3.154E+00   -3.143E+00   -3.132E+00   -3.121E+00   -3.110E+00
    -3.099E+00   -3.088E+00   -3.077E+00   -3.065E+00   -3.054E+00   -3.043E+00   -3.032E+00   -3.020E+00   -3.009E+00   -2.997E+00
    -2.986E+00   -2.974E+00   -2.963E+00   -2.951E+00   -2.940E+00   -2.928E+00   -2.916E+00   -2.905E+00   -2.893E+00   -2.881E+00
    -2.869E+00   -2.858E+00   -2.846E+00   -2.834E+00   -2.822E+00   -2.810E+00   -2.798E+00   -2.786E+00   -2.774E+00   -2.762E+00
    -2.750E+00   -2.738E+00   -2.726E+00   -2.714E+00   -2.702E+00   -2.690E+00   -2.678E+00   -2.666E+00   -2.653E+00   -2.641E+00
    -2.629E+00   -2.617E+00   -2.605E+00   -2.592E+00   -2.580E+00   -2.568E+00   -2.556E+00   -2.543E+00   -2.531E+00   -2.519E+00
    -2.507E+00   -2.494E+00   -2.482E+00   -2.470E+00   -2.457E+00   -2.445E+00   -2.433E+00   -2.420E+00   -2.408E+00   -2.396E+00
    -2.383E+00   -2.371E+00   -2.359E+00   -2.346E+00   -2.334E+00   -2.321E+00   -2.309E+00   -2.297E+00   -2.284E+00   -2.272E+00
    -2.260E+00   -2.247E+00   -2.235E+00   -2.222E+00   -2.210E+00   -2.197E+00   -2.185E+00   -2.173E+00   -2.160E+00   -2.148E+00
    -2.135E+00   -2.123E+00   -2.111E+00   -2.098E+00   -2.086E+00   -2.073E+00   -2.061E+00   -2.048E+00   -2.036E+00   -2.024E+00
    -2.011E+00   -1.999E+00   -1.986E+00   -1.974E+00   -1.961E+00   -1.949E+00   -1.937E+00   -1.924E+00
 Ala      Conc. = 2.41E+02
