 LCModel (Version 6.3-1L) Copyright: S.W. Provencher.          Ref.: Magn. Reson. Med. 30:672-679 (1993).                
 Slice#3 Row#13 Col#12  K_02_press_1_raw_act
 36 lines in following concentration table = NCONC+1
    Conc.  %SD /Cr+PCr  Metabolite                                         
  331.545  89%   0.000 Ala                                                 
    4.102  55%   0.000 Asp                                                 
    0.000 999%   0.000 Cr                                                  
    0.000 999%   0.000 PCr                                                 
    2.460  55%   0.000 GABA                                                
    2.461  55%   0.000 Glc                                                 
  746.117  47%   0.000 Gln                                                 
    0.000 999%   0.000 Glu                                                 
    0.000 999%   0.000 GPC                                                 
   27.340  54%   0.000 PCh                                                 
   61.642 103%   0.000 GSH                                                 
  266.215  62%   0.000 Ins                                                 
    0.000 999%   0.000 Lac                                                 
    0.000 999%   0.000 NAA                                                 
    0.000 999%   0.000 NAAG                                                
    0.821  55%   0.000 Scyllo                                              
    4.103  55%   0.000 Tau                                                 
    0.106 999%   0.000 -CrCH2                                              
   27.340  54%   0.000 GPC+PCh                                             
    0.000 999%   0.000 NAA+NAAG                                            
    0.000 999%   0.000 Cr+PCr                                              
  746.117  47%   0.000 Glu+Gln                                             
    0.000 999%   0.000 Lip13a                                              
    0.000 999%   0.000 Lip13b                                              
    0.000 999%   0.000 Lip09                                               
  654.945  15%   0.000 MM09                                                
    0.000 999%   0.000 Lip20                                               
  715.008  19%   0.000 MM20                                                
    0.000 999%   0.000 MM12                                                
 2.31E+03   8%   0.000 MM14                                                
 1.30E+03  16%   0.000 MM17                                                
    0.000 999%   0.000 Lip13a+Lip13b                                       
 2.31E+03   8%   0.000 MM14+Lip13a+Lip13b+MM12                             
  654.945  15%   0.000 MM09+Lip09                                          
  715.008  19%   0.000 MM20+Lip20                                          
   6 lines in following misc. output table
  FWHM = 0.168 ppm    S/N =   8                                            
  Data shift = 0.061 ppm                                                   
  Ph: -54 deg      22.1 deg/ppm                                            
  alphaB,S = 8.8E-01,   1.9E+02                                            
    7 spline knots.   Ns = 9(2)                                            
  (16) 2 infls.   (15) 1 extrs.                                            
  498 points on ppm-axis = NY
      4.000000     3.992357     3.984714     3.977070     3.969427     3.961784     3.954141     3.946497     3.938854     3.931211
      3.923568     3.915925     3.908281     3.900638     3.892995     3.885352     3.877708     3.870065     3.862422     3.854779
      3.847136     3.839492     3.831849     3.824206     3.816563     3.808919     3.801276     3.793633     3.785990     3.778347
      3.770703     3.763060     3.755417     3.747774     3.740130     3.732487     3.724844     3.717201     3.709558     3.701914
      3.694271     3.686628     3.678985     3.671341     3.663698     3.656055     3.648412     3.640769     3.633125     3.625482
      3.617839     3.610196     3.602552     3.594909     3.587266     3.579623     3.571980     3.564336     3.556693     3.549050
      3.541407     3.533763     3.526120     3.518477     3.510834     3.503191     3.495547     3.487904     3.480261     3.472618
      3.464974     3.457331     3.449688     3.442045     3.434402     3.426758     3.419115     3.411472     3.403829     3.396185
      3.388542     3.380899     3.373256     3.365613     3.357969     3.350326     3.342683     3.335040     3.327396     3.319753
      3.312110     3.304467     3.296824     3.289180     3.281537     3.273894     3.266251     3.258607     3.250964     3.243321
      3.235678     3.228034     3.220391     3.212748     3.205105     3.197462     3.189818     3.182175     3.174532     3.166889
      3.159245     3.151602     3.143959     3.136316     3.128673     3.121029     3.113386     3.105743     3.098100     3.090456
      3.082813     3.075170     3.067527     3.059884     3.052240     3.044597     3.036954     3.029311     3.021667     3.014024
      3.006381     2.998738     2.991095     2.983451     2.975808     2.968165     2.960522     2.952878     2.945235     2.937592
      2.929949     2.922306     2.914662     2.907019     2.899376     2.891733     2.884089     2.876446     2.868803     2.861160
      2.853517     2.845873     2.838230     2.830587     2.822944     2.815300     2.807657     2.800014     2.792371     2.784728
      2.777084     2.769441     2.761798     2.754155     2.746511     2.738868     2.731225     2.723582     2.715939     2.708295
      2.700652     2.693009     2.685366     2.677722     2.670079     2.662436     2.654793     2.647150     2.639506     2.631863
      2.624220     2.616577     2.608933     2.601290     2.593647     2.586004     2.578361     2.570717     2.563074     2.555431
      2.547788     2.540144     2.532501     2.524858     2.517215     2.509572     2.501928     2.494285     2.486642     2.478999
      2.471355     2.463712     2.456069     2.448426     2.440783     2.433139     2.425496     2.417853     2.410210     2.402566
      2.394923     2.387280     2.379637     2.371994     2.364350     2.356707     2.349064     2.341421     2.333777     2.326134
      2.318491     2.310848     2.303205     2.295561     2.287918     2.280275     2.272632     2.264988     2.257345     2.249702
      2.242059     2.234416     2.226772     2.219129     2.211486     2.203843     2.196199     2.188556     2.180913     2.173270
      2.165627     2.157983     2.150340     2.142697     2.135054     2.127410     2.119767     2.112124     2.104481     2.096838
      2.089194     2.081551     2.073908     2.066265     2.058621     2.050978     2.043335     2.035692     2.028049     2.020405
      2.012762     2.005119     1.997476     1.989833     1.982190     1.974546     1.966903     1.959260     1.951617     1.943974
      1.936331     1.928688     1.921045     1.913402     1.905759     1.898115     1.890472     1.882829     1.875186     1.867543
      1.859900     1.852257     1.844614     1.836971     1.829327     1.821684     1.814041     1.806398     1.798755     1.791112
      1.783469     1.775826     1.768183     1.760540     1.752896     1.745253     1.737610     1.729967     1.722324     1.714681
      1.707038     1.699395     1.691752     1.684108     1.676465     1.668822     1.661179     1.653536     1.645893     1.638250
      1.630607     1.622964     1.615321     1.607677     1.600034     1.592391     1.584748     1.577105     1.569462     1.561819
      1.554176     1.546533     1.538890     1.531246     1.523603     1.515960     1.508317     1.500674     1.493031     1.485388
      1.477745     1.470102     1.462458     1.454815     1.447172     1.439529     1.431886     1.424243     1.416600     1.408957
      1.401314     1.393671     1.386027     1.378384     1.370741     1.363098     1.355455     1.347812     1.340169     1.332526
      1.324883     1.317240     1.309596     1.301953     1.294310     1.286667     1.279024     1.271381     1.263738     1.256095
      1.248452     1.240808     1.233165     1.225522     1.217879     1.210236     1.202593     1.194950     1.187307     1.179664
      1.172021     1.164377     1.156734     1.149091     1.141448     1.133805     1.126162     1.118519     1.110876     1.103233
      1.095590     1.087946     1.080303     1.072660     1.065017     1.057374     1.049731     1.042088     1.034445     1.026802
      1.019158     1.011515     1.003872     0.996229     0.988586     0.980943     0.973300     0.965657     0.958014     0.950371
      0.942727     0.935084     0.927441     0.919798     0.912155     0.904512     0.896869     0.889226     0.881583     0.873940
      0.866296     0.858653     0.851010     0.843367     0.835724     0.828081     0.820438     0.812795     0.805152     0.797508
      0.789865     0.782222     0.774579     0.766936     0.759293     0.751650     0.744007     0.736364     0.728721     0.721077
      0.713434     0.705791     0.698148     0.690505     0.682862     0.675219     0.667576     0.659933     0.652290     0.644646
      0.637003     0.629360     0.621717     0.614074     0.606431     0.598788     0.591145     0.583502     0.575858     0.568215
      0.560572     0.552929     0.545286     0.537643     0.530000     0.522357     0.514714     0.507071     0.499427     0.491784
      0.484141     0.476498     0.468855     0.461212     0.453569     0.445925     0.438282     0.430639     0.422996     0.415353
      0.407710     0.400067     0.392424     0.384780     0.377137     0.369494     0.361851     0.354208     0.346565     0.338922
      0.331278     0.323635     0.315992     0.308349     0.300706     0.293063     0.285420     0.277777     0.270133     0.262490
      0.254847     0.247204     0.239561     0.231918     0.224275     0.216631     0.208988     0.201345
 NY phased data points follow
  -6.45351E+00 -7.18095E+00 -6.32573E+00 -6.43577E+00 -5.74143E+00 -7.66412E+00 -6.84581E+00 -6.02970E+00 -3.09236E+00 -3.76535E+00
  -5.42307E+00 -2.93669E+00 -5.32440E+00 -4.47194E+00 -5.12119E+00 -6.36494E+00 -4.99530E+00 -2.34201E+00 -4.06605E+00 -4.61642E+00
  -6.46328E+00 -5.86224E+00 -3.28112E+00 -3.81953E+00 -3.23737E+00 -4.77365E+00 -5.51612E+00 -3.21377E+00 -3.50123E+00 -3.51818E+00
  -4.02453E+00 -3.41486E+00 -3.93336E+00 -3.18487E+00 -4.78621E+00 -3.96396E+00 -5.16832E+00 -5.17271E+00 -5.60829E+00 -4.37632E+00
  -3.89642E+00 -4.84192E+00 -4.12568E+00 -3.49374E+00 -3.69613E+00 -5.00029E+00 -4.64636E+00 -4.09291E+00 -3.22229E+00 -3.68914E+00
  -6.24280E+00 -2.90756E+00 -4.54346E+00 -3.96227E+00 -3.99107E+00 -5.18111E+00 -4.71752E+00 -4.26928E+00 -2.74498E+00 -3.93710E+00
  -2.94783E+00 -3.79111E+00 -3.73492E+00 -4.04294E+00 -4.73263E+00 -2.28469E+00 -2.37493E+00 -4.76610E+00 -4.66317E+00 -4.69821E+00
  -2.36457E+00 -3.14077E+00 -3.54858E+00 -4.65467E+00 -2.53995E+00 -2.72090E+00 -3.14970E+00 -3.22811E+00 -3.46594E+00 -3.22527E+00
  -2.85992E+00 -2.87918E+00 -4.18599E+00 -3.06213E+00 -5.10158E+00 -4.51642E+00 -4.61120E+00 -2.68224E+00 -3.24052E+00 -2.55020E+00
  -1.72094E+00 -2.68003E+00 -3.58481E+00 -1.77885E+00 -2.74990E+00 -4.64916E+00 -4.28796E+00 -4.71391E+00 -2.05528E+00 -4.09191E+00
  -2.97606E+00 -2.32291E+00 -3.54906E+00 -2.98125E+00 -2.32632E+00 -1.60431E+00 -3.32406E+00 -1.28383E+00 -2.58318E+00 -2.49530E+00
  -4.73198E+00 -2.45473E+00 -2.69328E+00 -3.63394E+00 -4.10262E+00 -3.74734E+00 -3.14651E+00 -3.01432E+00 -3.22691E+00 -5.10821E+00
  -4.25316E+00 -4.33957E+00 -3.70586E+00 -4.86841E+00 -2.11527E+00 -3.24576E+00 -4.15127E+00 -2.72528E+00 -1.52936E+00 -2.49543E+00
  -5.08174E-01 -2.09574E+00 -2.71281E+00 -2.32675E+00 -3.93125E+00 -3.50948E+00 -3.37319E+00 -3.98149E+00 -4.76559E+00 -1.96098E+00
  -1.74064E+00 -3.97643E+00 -5.89041E+00 -2.73108E+00 -1.57670E+00 -6.01652E+00 -4.72350E+00 -3.16953E+00 -2.80408E+00 -3.42907E+00
  -2.86533E+00 -3.26706E+00 -2.03537E+00 -3.30925E+00 -2.96937E+00 -3.81687E+00 -3.00096E+00 -3.58245E+00 -1.37541E+00 -3.94503E+00
  -4.19463E+00 -4.28263E+00 -4.99729E+00 -3.48472E+00 -5.19090E+00 -4.08745E+00 -5.11732E+00 -4.36291E+00 -4.33057E+00 -3.51570E+00
  -3.42255E+00 -4.41775E+00 -5.07497E+00 -3.77395E+00 -4.10793E+00 -5.18954E+00 -4.05547E+00 -2.51336E+00 -4.63435E+00 -4.23271E+00
  -3.08564E+00 -4.89523E+00 -3.08556E+00 -4.28825E+00 -5.79519E+00 -4.07271E+00 -5.15820E+00 -5.94241E+00 -4.12780E+00 -4.52320E+00
  -5.13010E+00 -3.73712E+00 -4.65306E+00 -3.20060E+00 -3.44309E+00 -2.76841E+00 -4.58494E+00 -2.35212E+00 -3.12267E+00 -3.69914E+00
  -3.56694E+00 -3.74566E+00 -3.83695E+00 -3.66929E+00 -2.70043E+00 -2.87315E+00 -3.59934E+00 -1.76876E+00 -1.69236E+00 -3.41468E+00
  -3.09144E+00 -4.55844E+00 -4.07309E+00 -4.07383E+00 -2.34222E+00 -4.93493E+00 -5.62542E-02 -3.58808E+00 -2.36351E+00 -2.92942E+00
  -3.88133E+00 -4.33418E+00 -1.50447E+00 -2.23519E+00 -3.52597E+00 -3.26222E+00 -3.03863E+00 -2.40190E+00 -2.50607E+00 -3.91525E+00
  -3.29158E+00 -3.02735E+00 -3.01563E+00 -3.53476E+00 -4.09297E+00 -5.24002E+00 -2.39458E+00 -2.45122E+00 -2.71635E+00 -2.50914E+00
  -3.98124E+00 -4.10940E+00 -3.59230E+00 -5.80183E+00 -2.08589E+00 -3.66571E+00 -4.02535E+00 -3.09317E+00 -5.22655E+00 -5.37124E+00
  -5.71342E+00 -5.63130E+00 -9.22180E+00 -7.62610E+00 -9.12452E+00 -8.73101E+00 -9.56371E+00 -7.11674E+00 -5.93141E+00 -7.66890E+00
  -7.61281E+00 -7.13263E+00 -8.14146E+00 -6.47147E+00 -8.06507E+00 -1.01710E+01 -7.54757E+00 -8.38624E+00 -6.85887E+00 -7.89883E+00
  -6.29138E+00 -7.79767E+00 -7.23462E+00 -1.07455E+01 -8.57594E+00 -8.09990E+00 -7.98979E+00 -6.86780E+00 -7.85459E+00 -8.54652E+00
  -9.23003E+00 -8.95993E+00 -7.14345E+00 -8.87904E+00 -6.83419E+00 -7.91429E+00 -9.01104E+00 -6.29660E+00 -8.71431E+00 -8.02594E+00
  -5.44840E+00 -8.31858E+00 -7.45428E+00 -5.22797E+00 -5.13336E+00 -5.62364E+00 -4.94865E+00 -5.71586E+00 -5.18408E+00 -6.33715E+00
  -4.04806E+00 -4.20606E+00 -3.75685E-01 -1.94902E+00 -3.87659E-01  2.67943E-02  6.30257E-01  1.20800E+00  1.58263E+00  3.87397E+00
   5.43131E+00  6.57325E+00  7.00660E+00  9.26016E+00  9.35683E+00  1.18498E+01  1.10948E+01  1.33360E+01  1.43610E+01  1.32785E+01
   1.40997E+01  1.55188E+01  1.27216E+01  1.45190E+01  1.28079E+01  1.40577E+01  1.27968E+01  1.44931E+01  1.08480E+01  1.08082E+01
   9.92276E+00  9.93356E+00  6.85303E+00  6.13318E+00  4.85891E+00  5.28997E+00  4.62356E+00  2.41378E+00  2.11786E+00 -7.81172E-01
   1.01454E-01 -6.85333E-01 -4.49281E+00 -2.84028E+00 -4.11240E+00 -4.00631E+00 -4.64415E+00 -5.56291E+00 -6.85265E+00 -7.76914E+00
  -7.42259E+00 -7.06340E+00 -8.25278E+00 -8.68846E+00 -1.09997E+01 -9.73019E+00 -7.81249E+00 -8.94064E+00 -8.06441E+00 -8.25190E+00
  -9.40415E+00 -8.52329E+00 -8.53404E+00 -9.61303E+00 -7.67853E+00 -8.72386E+00 -7.25365E+00 -7.71246E+00 -9.16616E+00 -5.91685E+00
  -7.03220E+00 -5.87590E+00 -6.07080E+00 -5.28172E+00 -4.79773E+00 -6.24443E+00 -6.07858E+00 -6.71867E+00 -7.30957E+00 -5.88699E+00
  -6.40604E+00 -5.17035E+00 -3.53423E+00 -3.12696E+00 -4.33602E+00 -5.47478E+00 -3.49860E+00 -5.64872E+00 -4.40470E+00 -4.69583E+00
  -3.14134E+00 -2.74430E+00 -3.10721E+00 -2.98153E+00 -2.47940E+00 -2.88174E+00 -1.69289E+00 -1.94264E+00 -2.86197E+00 -1.83690E+00
  -1.82767E+00 -2.23518E+00 -2.24461E+00 -2.22829E+00 -2.99126E+00 -3.47759E+00 -1.18947E+00 -1.52680E+00 -3.37836E+00 -2.93498E+00
  -1.43021E+00 -6.09211E-01 -2.48888E+00 -1.98118E+00 -5.67554E-01  7.58624E-01 -2.12224E+00 -1.55587E+00 -1.39865E+00  1.64112E-01
  -1.56952E+00 -5.03773E-02 -2.40207E+00 -4.84638E-01 -4.72046E-01 -2.28115E+00 -3.42927E+00  8.31653E-01 -2.77670E+00 -2.49475E-01
   8.82128E-01  5.73113E-01  1.78280E-01 -5.18271E-01 -1.38493E+00 -7.76607E-01 -1.19512E+00 -1.64767E+00  2.22233E-01 -1.50876E-01
  -9.35390E-02 -5.96542E-01 -1.23302E+00 -2.04613E+00 -5.35227E-01  9.54134E-01  3.50431E-01  1.42900E-01 -8.68700E-01 -7.83966E-01
  -6.27878E-01  1.92222E-01 -2.48459E-01 -3.58938E-01 -1.35546E+00 -9.78871E-01 -3.24325E-01 -3.44302E-01 -5.02417E-01  5.47370E-01
   7.25177E-01 -9.40283E-01 -1.57336E-01 -4.31064E-01  1.32183E-01 -1.54687E+00 -4.85956E-01 -7.80984E-01 -1.18860E+00 -2.75714E-01
   3.26082E-01  9.98928E-01 -1.63786E-01 -7.75199E-01  2.44044E-02 -2.05249E+00  6.64764E-01 -1.98355E+00 -1.53311E+00 -1.82659E+00
  -6.15026E-02  4.03170E-01 -7.79535E-01 -8.44721E-01  5.53528E-02 -1.73992E+00 -1.05810E+00 -1.21402E+00  2.26253E-01 -7.86366E-01
  -5.21842E-01 -3.10159E-01 -2.53535E-01 -1.26165E+00  2.20161E-01 -2.18419E+00  1.04771E+00  5.33189E-01
 NY points of the fit to the data follow
  -5.08388E+00 -5.11577E+00 -5.14755E+00 -5.16120E+00 -5.17009E+00 -5.15905E+00 -5.13995E+00 -5.11014E+00 -5.08876E+00 -5.04652E+00
  -5.02570E+00 -4.96348E+00 -4.93584E+00 -4.85697E+00 -4.79566E+00 -4.70914E+00 -4.63689E+00 -4.55529E+00 -4.48514E+00 -4.41777E+00
  -4.36029E+00 -4.30128E+00 -4.26738E+00 -4.21283E+00 -4.21356E+00 -4.15868E+00 -4.19424E+00 -4.12832E+00 -4.18299E+00 -4.09081E+00
  -4.16162E+00 -4.05181E+00 -4.14911E+00 -4.02799E+00 -4.16332E+00 -4.03420E+00 -4.20431E+00 -4.06418E+00 -4.25768E+00 -4.10911E+00
  -4.31129E+00 -4.15594E+00 -4.35313E+00 -4.19737E+00 -4.37603E+00 -4.23204E+00 -4.37715E+00 -4.25753E+00 -4.37220E+00 -4.28198E+00
  -4.35515E+00 -4.28993E+00 -4.32832E+00 -4.28683E+00 -4.30086E+00 -4.27412E+00 -4.28806E+00 -4.26913E+00 -4.27636E+00 -4.25460E+00
  -4.25061E+00 -4.21787E+00 -4.20272E+00 -4.16500E+00 -4.14257E+00 -4.10465E+00 -4.07871E+00 -4.04352E+00 -4.01902E+00 -3.99192E+00
  -3.97577E+00 -3.96500E+00 -3.95473E+00 -3.95269E+00 -3.93969E+00 -3.94026E+00 -3.92023E+00 -3.92078E+00 -3.89078E+00 -3.89125E+00
  -3.85044E+00 -3.84852E+00 -3.79499E+00 -3.78729E+00 -3.71063E+00 -3.67740E+00 -3.58889E+00 -3.52814E+00 -3.43881E+00 -3.35078E+00
  -3.27087E+00 -3.15915E+00 -3.09823E+00 -2.96865E+00 -2.93492E+00 -2.79694E+00 -2.79637E+00 -2.65623E+00 -2.68956E+00 -2.55141E+00
  -2.61735E+00 -2.48585E+00 -2.58339E+00 -2.46528E+00 -2.58991E+00 -2.49294E+00 -2.63314E+00 -2.55989E+00 -2.70233E+00 -2.65299E+00
  -2.78068E+00 -2.74846E+00 -2.85025E+00 -2.83050E+00 -2.90040E+00 -2.88709E+00 -2.92248E+00 -2.91033E+00 -2.91851E+00 -2.90638E+00
  -2.89723E+00 -2.88237E+00 -2.86311E+00 -2.84429E+00 -2.82259E+00 -2.80332E+00 -2.79259E+00 -2.78720E+00 -2.78486E+00 -2.79220E+00
  -2.79582E+00 -2.81511E+00 -2.82364E+00 -2.85462E+00 -2.86748E+00 -2.90897E+00 -2.92509E+00 -2.97405E+00 -2.99143E+00 -3.04457E+00
  -3.06179E+00 -3.11646E+00 -3.13320E+00 -3.18778E+00 -3.20420E+00 -3.25731E+00 -3.27371E+00 -3.32353E+00 -3.34079E+00 -3.38696E+00
  -3.40586E+00 -3.44845E+00 -3.46933E+00 -3.50783E+00 -3.53012E+00 -3.56391E+00 -3.58746E+00 -3.61824E+00 -3.64238E+00 -3.66903E+00
  -3.69272E+00 -3.71548E+00 -3.73845E+00 -3.75950E+00 -3.78271E+00 -3.80437E+00 -3.82860E+00 -3.85211E+00 -3.87729E+00 -3.90293E+00
  -3.92815E+00 -3.95563E+00 -3.97923E+00 -4.00809E+00 -4.02977E+00 -4.06279E+00 -4.08911E+00 -4.13025E+00 -4.16749E+00 -4.22500E+00
  -4.26858E+00 -4.34003E+00 -4.37940E+00 -4.45146E+00 -4.46497E+00 -4.53043E+00 -4.51395E+00 -4.56737E+00 -4.52307E+00 -4.57667E+00
  -4.51998E+00 -4.59907E+00 -4.56934E+00 -4.67610E+00 -4.64719E+00 -4.77715E+00 -4.72860E+00 -4.87585E+00 -4.79056E+00 -4.94797E+00
  -4.81527E+00 -4.97851E+00 -4.79669E+00 -4.96640E+00 -4.74563E+00 -4.92598E+00 -4.67889E+00 -4.87282E+00 -4.61202E+00 -4.81134E+00
  -4.53659E+00 -4.73116E+00 -4.44058E+00 -4.62246E+00 -4.32807E+00 -4.49018E+00 -4.20175E+00 -4.34770E+00 -4.10269E+00 -4.22742E+00
  -4.02341E+00 -4.12002E+00 -3.95556E+00 -4.02409E+00 -3.91010E+00 -3.99124E+00 -3.92641E+00 -4.04449E+00 -4.00899E+00 -4.17891E+00
  -4.14573E+00 -4.36437E+00 -4.30276E+00 -4.54530E+00 -4.41018E+00 -4.66483E+00 -4.46459E+00 -4.72589E+00 -4.46843E+00 -4.73862E+00
  -4.44334E+00 -4.73070E+00 -4.42125E+00 -4.72874E+00 -4.43279E+00 -4.75215E+00 -4.48980E+00 -4.80724E+00 -4.59052E+00 -4.88808E+00
  -4.72962E+00 -4.99708E+00 -4.89761E+00 -5.12990E+00 -5.08386E+00 -5.27666E+00 -5.27397E+00 -5.43831E+00 -5.47154E+00 -5.61379E+00
  -5.66110E+00 -5.78934E+00 -5.84993E+00 -5.97260E+00 -6.04587E+00 -6.17260E+00 -6.25302E+00 -6.36762E+00 -6.44656E+00 -6.54110E+00
  -6.61109E+00 -6.68315E+00 -6.74279E+00 -6.79454E+00 -6.84389E+00 -6.88431E+00 -6.92606E+00 -6.95908E+00 -6.99309E+00 -7.01983E+00
  -7.04352E+00 -7.06129E+00 -7.07303E+00 -7.07763E+00 -7.07535E+00 -7.06499E+00 -7.04643E+00 -7.01789E+00 -6.97871E+00 -6.92634E+00
  -6.85896E+00 -6.77289E+00 -6.66490E+00 -6.52970E+00 -6.36252E+00 -6.15636E+00 -5.90499E+00 -5.60012E+00 -5.23461E+00 -4.80003E+00
  -4.28976E+00 -3.69696E+00 -3.01735E+00 -2.24785E+00 -1.38850E+00 -4.41577E-01  5.87866E-01  1.69348E+00  2.87127E+00  4.09332E+00
   5.30385E+00  6.56088E+00  7.68609E+00  8.89118E+00  9.82001E+00  1.08878E+01  1.15359E+01  1.24616E+01  1.27846E+01  1.35547E+01
   1.35311E+01  1.41382E+01  1.37686E+01  1.42089E+01  1.35058E+01  1.37720E+01  1.27496E+01  1.28248E+01  1.15091E+01  1.13798E+01
   9.82721E+00  9.50029E+00  7.79027E+00  7.29862E+00  5.53582E+00  4.92869E+00  3.21365E+00  2.53738E+00  9.61591E-01  2.68414E-01
  -1.09030E+00 -1.75550E+00 -2.86666E+00 -3.46759E+00 -4.32938E+00 -4.84678E+00 -5.48222E+00 -5.91327E+00 -6.36212E+00 -6.69873E+00
  -7.01667E+00 -7.26681E+00 -7.46728E+00 -7.63054E+00 -7.73729E+00 -7.81997E+00 -7.85436E+00 -7.85674E+00 -7.83690E+00 -7.80064E+00
  -7.75205E+00 -7.69411E+00 -7.62903E+00 -7.55845E+00 -7.48355E+00 -7.40516E+00 -7.32384E+00 -7.23992E+00 -7.15360E+00 -7.06492E+00
  -6.97386E+00 -6.88028E+00 -6.78402E+00 -6.68483E+00 -6.58246E+00 -6.47659E+00 -6.36690E+00 -6.25300E+00 -6.13450E+00 -6.01096E+00
  -5.88194E+00 -5.74698E+00 -5.60561E+00 -5.45737E+00 -5.30185E+00 -5.13867E+00 -4.96755E+00 -4.78828E+00 -4.60083E+00 -4.40531E+00
  -4.20203E+00 -3.99156E+00 -3.77471E+00 -3.55256E+00 -3.32649E+00 -3.09817E+00 -2.86954E+00 -2.64275E+00 -2.42019E+00 -2.20434E+00
  -1.99776E+00 -1.80297E+00 -1.62240E+00 -1.45824E+00 -1.31239E+00 -1.18638E+00 -1.08131E+00 -9.97778E-01 -9.35880E-01 -8.95189E-01
  -8.74802E-01 -8.73353E-01 -8.89104E-01 -9.19987E-01 -9.63731E-01 -1.01791E+00 -1.08006E+00 -1.14776E+00 -1.21869E+00 -1.29070E+00
  -1.36190E+00 -1.43058E+00 -1.49538E+00 -1.55516E+00 -1.60908E+00 -1.65653E+00 -1.69714E+00 -1.73074E+00 -1.75733E+00 -1.77704E+00
  -1.79012E+00 -1.79687E+00 -1.79770E+00 -1.79300E+00 -1.78322E+00 -1.76879E+00 -1.75013E+00 -1.72765E+00 -1.70175E+00 -1.67279E+00
  -1.64112E+00 -1.60704E+00 -1.57086E+00 -1.53283E+00 -1.49319E+00 -1.45215E+00 -1.40992E+00 -1.36668E+00 -1.32258E+00 -1.27778E+00
  -1.23241E+00 -1.18658E+00 -1.14042E+00 -1.09402E+00 -1.04747E+00 -1.00087E+00 -9.54283E-01 -9.07790E-01 -8.61458E-01 -8.15348E-01
  -7.69520E-01 -7.24026E-01 -6.78921E-01 -6.34248E-01 -5.90058E-01 -5.46389E-01 -5.03286E-01 -4.60782E-01 -4.18919E-01 -3.77728E-01
  -3.37248E-01 -2.97504E-01 -2.58534E-01 -2.20361E-01 -1.83020E-01 -1.46534E-01 -1.10935E-01 -7.62424E-02 -4.24897E-02 -9.69404E-03
   2.21130E-02  5.29144E-02  8.26800E-02  1.11394E-01  1.39027E-01  1.65563E-01  1.90973E-01  2.15242E-01  2.38341E-01  2.60255E-01
   2.80954E-01  3.00423E-01  3.18631E-01  3.35563E-01  3.51186E-01  3.65482E-01  3.78416E-01  3.89966E-01
 NY background values follow
    -6.820E+00   -6.812E+00   -6.802E+00   -6.792E+00   -6.782E+00   -6.771E+00   -6.759E+00   -6.747E+00   -6.735E+00   -6.721E+00
    -6.708E+00   -6.693E+00   -6.679E+00   -6.663E+00   -6.648E+00   -6.631E+00   -6.615E+00   -6.597E+00   -6.580E+00   -6.562E+00
    -6.543E+00   -6.524E+00   -6.504E+00   -6.484E+00   -6.464E+00   -6.443E+00   -6.422E+00   -6.401E+00   -6.379E+00   -6.356E+00
    -6.333E+00   -6.310E+00   -6.287E+00   -6.263E+00   -6.239E+00   -6.214E+00   -6.190E+00   -6.164E+00   -6.139E+00   -6.113E+00
    -6.087E+00   -6.061E+00   -6.035E+00   -6.008E+00   -5.981E+00   -5.954E+00   -5.926E+00   -5.899E+00   -5.871E+00   -5.843E+00
    -5.815E+00   -5.786E+00   -5.758E+00   -5.729E+00   -5.701E+00   -5.672E+00   -5.643E+00   -5.614E+00   -5.585E+00   -5.555E+00
    -5.526E+00   -5.497E+00   -5.467E+00   -5.438E+00   -5.409E+00   -5.379E+00   -5.350E+00   -5.321E+00   -5.292E+00   -5.262E+00
    -5.233E+00   -5.204E+00   -5.175E+00   -5.147E+00   -5.118E+00   -5.089E+00   -5.061E+00   -5.033E+00   -5.005E+00   -4.977E+00
    -4.949E+00   -4.922E+00   -4.895E+00   -4.868E+00   -4.841E+00   -4.815E+00   -4.789E+00   -4.763E+00   -4.738E+00   -4.713E+00
    -4.688E+00   -4.664E+00   -4.640E+00   -4.616E+00   -4.593E+00   -4.571E+00   -4.548E+00   -4.527E+00   -4.505E+00   -4.484E+00
    -4.464E+00   -4.444E+00   -4.425E+00   -4.407E+00   -4.388E+00   -4.371E+00   -4.354E+00   -4.338E+00   -4.322E+00   -4.307E+00
    -4.293E+00   -4.279E+00   -4.266E+00   -4.254E+00   -4.243E+00   -4.232E+00   -4.222E+00   -4.213E+00   -4.205E+00   -4.197E+00
    -4.190E+00   -4.184E+00   -4.180E+00   -4.175E+00   -4.172E+00   -4.170E+00   -4.169E+00   -4.168E+00   -4.169E+00   -4.170E+00
    -4.173E+00   -4.176E+00   -4.180E+00   -4.185E+00   -4.191E+00   -4.198E+00   -4.205E+00   -4.214E+00   -4.223E+00   -4.233E+00
    -4.244E+00   -4.256E+00   -4.269E+00   -4.283E+00   -4.297E+00   -4.312E+00   -4.328E+00   -4.345E+00   -4.363E+00   -4.381E+00
    -4.400E+00   -4.420E+00   -4.441E+00   -4.462E+00   -4.484E+00   -4.507E+00   -4.531E+00   -4.555E+00   -4.580E+00   -4.605E+00
    -4.632E+00   -4.659E+00   -4.687E+00   -4.715E+00   -4.744E+00   -4.774E+00   -4.804E+00   -4.835E+00   -4.866E+00   -4.898E+00
    -4.931E+00   -4.964E+00   -4.998E+00   -5.032E+00   -5.067E+00   -5.102E+00   -5.138E+00   -5.174E+00   -5.211E+00   -5.249E+00
    -5.286E+00   -5.325E+00   -5.363E+00   -5.403E+00   -5.442E+00   -5.482E+00   -5.522E+00   -5.563E+00   -5.604E+00   -5.646E+00
    -5.687E+00   -5.730E+00   -5.772E+00   -5.815E+00   -5.858E+00   -5.901E+00   -5.945E+00   -5.988E+00   -6.032E+00   -6.077E+00
    -6.121E+00   -6.166E+00   -6.210E+00   -6.255E+00   -6.301E+00   -6.346E+00   -6.391E+00   -6.437E+00   -6.482E+00   -6.528E+00
    -6.573E+00   -6.619E+00   -6.665E+00   -6.711E+00   -6.756E+00   -6.802E+00   -6.848E+00   -6.893E+00   -6.939E+00   -6.984E+00
    -7.030E+00   -7.075E+00   -7.120E+00   -7.165E+00   -7.210E+00   -7.255E+00   -7.299E+00   -7.344E+00   -7.388E+00   -7.431E+00
    -7.475E+00   -7.518E+00   -7.561E+00   -7.604E+00   -7.646E+00   -7.688E+00   -7.730E+00   -7.771E+00   -7.812E+00   -7.852E+00
    -7.892E+00   -7.932E+00   -7.971E+00   -8.010E+00   -8.048E+00   -8.085E+00   -8.123E+00   -8.159E+00   -8.195E+00   -8.230E+00
    -8.265E+00   -8.300E+00   -8.333E+00   -8.366E+00   -8.399E+00   -8.430E+00   -8.462E+00   -8.492E+00   -8.522E+00   -8.551E+00
    -8.580E+00   -8.608E+00   -8.636E+00   -8.662E+00   -8.689E+00   -8.714E+00   -8.739E+00   -8.763E+00   -8.787E+00   -8.810E+00
    -8.832E+00   -8.854E+00   -8.875E+00   -8.895E+00   -8.915E+00   -8.934E+00   -8.952E+00   -8.970E+00   -8.987E+00   -9.003E+00
    -9.019E+00   -9.034E+00   -9.048E+00   -9.061E+00   -9.074E+00   -9.086E+00   -9.098E+00   -9.109E+00   -9.119E+00   -9.128E+00
    -9.137E+00   -9.145E+00   -9.152E+00   -9.159E+00   -9.165E+00   -9.170E+00   -9.174E+00   -9.178E+00   -9.181E+00   -9.183E+00
    -9.185E+00   -9.185E+00   -9.185E+00   -9.185E+00   -9.183E+00   -9.181E+00   -9.178E+00   -9.175E+00   -9.171E+00   -9.165E+00
    -9.160E+00   -9.153E+00   -9.146E+00   -9.138E+00   -9.129E+00   -9.119E+00   -9.109E+00   -9.098E+00   -9.086E+00   -9.074E+00
    -9.060E+00   -9.046E+00   -9.031E+00   -9.016E+00   -8.999E+00   -8.982E+00   -8.964E+00   -8.946E+00   -8.926E+00   -8.906E+00
    -8.885E+00   -8.863E+00   -8.841E+00   -8.817E+00   -8.793E+00   -8.769E+00   -8.743E+00   -8.717E+00   -8.689E+00   -8.661E+00
    -8.633E+00   -8.603E+00   -8.573E+00   -8.542E+00   -8.510E+00   -8.477E+00   -8.444E+00   -8.410E+00   -8.375E+00   -8.339E+00
    -8.302E+00   -8.265E+00   -8.227E+00   -8.188E+00   -8.148E+00   -8.108E+00   -8.066E+00   -8.024E+00   -7.981E+00   -7.938E+00
    -7.893E+00   -7.848E+00   -7.802E+00   -7.755E+00   -7.708E+00   -7.659E+00   -7.610E+00   -7.560E+00   -7.509E+00   -7.458E+00
    -7.405E+00   -7.352E+00   -7.298E+00   -7.244E+00   -7.188E+00   -7.132E+00   -7.075E+00   -7.017E+00   -6.959E+00   -6.900E+00
    -6.840E+00   -6.779E+00   -6.718E+00   -6.657E+00   -6.594E+00   -6.531E+00   -6.468E+00   -6.404E+00   -6.339E+00   -6.274E+00
    -6.209E+00   -6.143E+00   -6.076E+00   -6.009E+00   -5.942E+00   -5.874E+00   -5.806E+00   -5.738E+00   -5.669E+00   -5.600E+00
    -5.530E+00   -5.461E+00   -5.391E+00   -5.320E+00   -5.250E+00   -5.179E+00   -5.108E+00   -5.037E+00   -4.966E+00   -4.895E+00
    -4.823E+00   -4.752E+00   -4.680E+00   -4.608E+00   -4.537E+00   -4.465E+00   -4.393E+00   -4.321E+00   -4.250E+00   -4.178E+00
    -4.106E+00   -4.035E+00   -3.963E+00   -3.892E+00   -3.821E+00   -3.750E+00   -3.679E+00   -3.608E+00   -3.538E+00   -3.467E+00
    -3.398E+00   -3.328E+00   -3.258E+00   -3.189E+00   -3.120E+00   -3.052E+00   -2.984E+00   -2.916E+00   -2.849E+00   -2.782E+00
    -2.715E+00   -2.649E+00   -2.584E+00   -2.519E+00   -2.454E+00   -2.390E+00   -2.327E+00   -2.264E+00   -2.201E+00   -2.139E+00
    -2.078E+00   -2.017E+00   -1.958E+00   -1.898E+00   -1.840E+00   -1.782E+00   -1.724E+00   -1.668E+00   -1.612E+00   -1.557E+00
    -1.503E+00   -1.449E+00   -1.397E+00   -1.345E+00   -1.294E+00   -1.244E+00   -1.195E+00   -1.146E+00   -1.099E+00   -1.052E+00
    -1.007E+00   -9.620E-01   -9.184E-01   -8.757E-01   -8.340E-01   -7.933E-01   -7.537E-01   -7.151E-01   -6.775E-01   -6.411E-01
    -6.057E-01   -5.714E-01   -5.383E-01   -5.063E-01   -4.755E-01   -4.458E-01   -4.173E-01   -3.899E-01   -3.638E-01   -3.390E-01
    -3.153E-01   -2.929E-01   -2.718E-01   -2.519E-01   -2.334E-01   -2.161E-01   -2.002E-01   -1.856E-01
 Ala      Conc. = 3.32E+02
