 LCModel (Version 6.3-1L) Copyright: S.W. Provencher.          Ref.: Magn. Reson. Med. 30:672-679 (1993).                
 Slice#2 Row#14 Col#1  K_02_press_1_raw_act
 36 lines in following concentration table = NCONC+1
    Conc.  %SD /Cr+PCr  Metabolite                                         
  647.454  24%   2.960 Ala                                                 
   28.407  67%   0.130 Asp                                                 
  218.718  15%   1.000 Cr                                                  
    0.000 999%   0.000 PCr                                                 
   11.809  97% 5.4E-02 GABA                                                
   14.625  78% 6.7E-02 Glc                                                 
 2.05E+03  17%   9.354 Gln                                                 
 1.26E+03  31%   5.751 Glu                                                 
   28.434  44%   0.130 GPC                                                 
    0.000 999%   0.000 PCh                                                 
   76.512  89%   0.350 GSH                                                 
 1.20E+03  12%   5.482 Ins                                                 
    0.000 999%   0.000 Lac                                                 
    0.000 999%   0.000 NAA                                                 
  128.638  26%   0.588 NAAG                                                
    5.265  71% 2.4E-02 Scyllo                                              
   26.524  71%   0.121 Tau                                                 
    0.000 999%   0.000 -CrCH2                                              
   28.434  44%   0.130 GPC+PCh                                             
  128.638  26%   0.588 NAA+NAAG                                            
  218.718  15%   1.000 Cr+PCr                                              
 3.30E+03  18%  15.105 Glu+Gln                                             
    0.000 999%   0.000 Lip13a                                              
    0.000 999%   0.000 Lip13b                                              
    0.000 999%   0.000 Lip09                                               
    0.000 999%   0.000 MM09                                                
    0.000 999%   0.000 Lip20                                               
 3.33E-02 999% 1.5E-04 MM20                                                
    0.000 999%   0.000 MM12                                                
    0.000 999%   0.000 MM14                                                
    0.151 999% 6.9E-04 MM17                                                
    0.000 999%   0.000 Lip13a+Lip13b                                       
    0.000 999%   0.000 MM14+Lip13a+Lip13b+MM12                             
    0.000 999%   0.000 MM09+Lip09                                          
 3.33E-02 999% 1.5E-04 MM20+Lip20                                          
   6 lines in following misc. output table
  FWHM = 0.168 ppm    S/N =   1                                            
  Data shift = 0.122 ppm                                                   
  Ph: -98 deg      11.4 deg/ppm                                            
  alphaB,S = 4.3E+01,   1.0E+02                                            
    9 spline knots.   Ns = 9(2)                                            
  (13)11 infls.   ( 9) 1 extrs.                                            
  498 points on ppm-axis = NY
      4.000000     3.992357     3.984714     3.977070     3.969427     3.961784     3.954141     3.946497     3.938854     3.931211
      3.923568     3.915925     3.908281     3.900638     3.892995     3.885352     3.877708     3.870065     3.862422     3.854779
      3.847136     3.839492     3.831849     3.824206     3.816563     3.808919     3.801276     3.793633     3.785990     3.778347
      3.770703     3.763060     3.755417     3.747774     3.740130     3.732487     3.724844     3.717201     3.709558     3.701914
      3.694271     3.686628     3.678985     3.671341     3.663698     3.656055     3.648412     3.640769     3.633125     3.625482
      3.617839     3.610196     3.602552     3.594909     3.587266     3.579623     3.571980     3.564336     3.556693     3.549050
      3.541407     3.533763     3.526120     3.518477     3.510834     3.503191     3.495547     3.487904     3.480261     3.472618
      3.464974     3.457331     3.449688     3.442045     3.434402     3.426758     3.419115     3.411472     3.403829     3.396185
      3.388542     3.380899     3.373256     3.365613     3.357969     3.350326     3.342683     3.335040     3.327396     3.319753
      3.312110     3.304467     3.296824     3.289180     3.281537     3.273894     3.266251     3.258607     3.250964     3.243321
      3.235678     3.228034     3.220391     3.212748     3.205105     3.197462     3.189818     3.182175     3.174532     3.166889
      3.159245     3.151602     3.143959     3.136316     3.128673     3.121029     3.113386     3.105743     3.098100     3.090456
      3.082813     3.075170     3.067527     3.059884     3.052240     3.044597     3.036954     3.029311     3.021667     3.014024
      3.006381     2.998738     2.991095     2.983451     2.975808     2.968165     2.960522     2.952878     2.945235     2.937592
      2.929949     2.922306     2.914662     2.907019     2.899376     2.891733     2.884089     2.876446     2.868803     2.861160
      2.853517     2.845873     2.838230     2.830587     2.822944     2.815300     2.807657     2.800014     2.792371     2.784728
      2.777084     2.769441     2.761798     2.754155     2.746511     2.738868     2.731225     2.723582     2.715939     2.708295
      2.700652     2.693009     2.685366     2.677722     2.670079     2.662436     2.654793     2.647150     2.639506     2.631863
      2.624220     2.616577     2.608933     2.601290     2.593647     2.586004     2.578361     2.570717     2.563074     2.555431
      2.547788     2.540144     2.532501     2.524858     2.517215     2.509572     2.501928     2.494285     2.486642     2.478999
      2.471355     2.463712     2.456069     2.448426     2.440783     2.433139     2.425496     2.417853     2.410210     2.402566
      2.394923     2.387280     2.379637     2.371994     2.364350     2.356707     2.349064     2.341421     2.333777     2.326134
      2.318491     2.310848     2.303205     2.295561     2.287918     2.280275     2.272632     2.264988     2.257345     2.249702
      2.242059     2.234416     2.226772     2.219129     2.211486     2.203843     2.196199     2.188556     2.180913     2.173270
      2.165627     2.157983     2.150340     2.142697     2.135054     2.127410     2.119767     2.112124     2.104481     2.096838
      2.089194     2.081551     2.073908     2.066265     2.058621     2.050978     2.043335     2.035692     2.028049     2.020405
      2.012762     2.005119     1.997476     1.989833     1.982190     1.974546     1.966903     1.959260     1.951617     1.943974
      1.936331     1.928688     1.921045     1.913402     1.905759     1.898115     1.890472     1.882829     1.875186     1.867543
      1.859900     1.852257     1.844614     1.836971     1.829327     1.821684     1.814041     1.806398     1.798755     1.791112
      1.783469     1.775826     1.768183     1.760540     1.752896     1.745253     1.737610     1.729967     1.722324     1.714681
      1.707038     1.699395     1.691752     1.684108     1.676465     1.668822     1.661179     1.653536     1.645893     1.638250
      1.630607     1.622964     1.615321     1.607677     1.600034     1.592391     1.584748     1.577105     1.569462     1.561819
      1.554176     1.546533     1.538890     1.531246     1.523603     1.515960     1.508317     1.500674     1.493031     1.485388
      1.477745     1.470102     1.462458     1.454815     1.447172     1.439529     1.431886     1.424243     1.416600     1.408957
      1.401314     1.393671     1.386027     1.378384     1.370741     1.363098     1.355455     1.347812     1.340169     1.332526
      1.324883     1.317240     1.309596     1.301953     1.294310     1.286667     1.279024     1.271381     1.263738     1.256095
      1.248452     1.240808     1.233165     1.225522     1.217879     1.210236     1.202593     1.194950     1.187307     1.179664
      1.172021     1.164377     1.156734     1.149091     1.141448     1.133805     1.126162     1.118519     1.110876     1.103233
      1.095590     1.087946     1.080303     1.072660     1.065017     1.057374     1.049731     1.042088     1.034445     1.026802
      1.019158     1.011515     1.003872     0.996229     0.988586     0.980943     0.973300     0.965657     0.958014     0.950371
      0.942727     0.935084     0.927441     0.919798     0.912155     0.904512     0.896869     0.889226     0.881583     0.873940
      0.866296     0.858653     0.851010     0.843367     0.835724     0.828081     0.820438     0.812795     0.805152     0.797508
      0.789865     0.782222     0.774579     0.766936     0.759293     0.751650     0.744007     0.736364     0.728721     0.721077
      0.713434     0.705791     0.698148     0.690505     0.682862     0.675219     0.667576     0.659933     0.652290     0.644646
      0.637003     0.629360     0.621717     0.614074     0.606431     0.598788     0.591145     0.583502     0.575858     0.568215
      0.560572     0.552929     0.545286     0.537643     0.530000     0.522357     0.514714     0.507071     0.499427     0.491784
      0.484141     0.476498     0.468855     0.461212     0.453569     0.445925     0.438282     0.430639     0.422996     0.415353
      0.407710     0.400067     0.392424     0.384780     0.377137     0.369494     0.361851     0.354208     0.346565     0.338922
      0.331278     0.323635     0.315992     0.308349     0.300706     0.293063     0.285420     0.277777     0.270133     0.262490
      0.254847     0.247204     0.239561     0.231918     0.224275     0.216631     0.208988     0.201345
 NY phased data points follow
   1.28964E+01  1.36169E+01  1.13732E+01  1.29523E+01  1.20092E+01  1.19083E+01  1.09624E+01  1.29169E+01  1.41436E+01  1.18254E+01
   1.17843E+01  1.18901E+01  9.74380E+00  9.78412E+00  9.52860E+00  1.19497E+01  1.21621E+01  9.49116E+00  1.28938E+01  8.14907E+00
   8.89346E+00  9.63002E+00  1.02665E+01  8.04518E+00  9.21745E+00  9.04399E+00  7.35919E+00  8.11255E+00  1.01318E+01  9.40897E+00
   9.51797E+00  1.09460E+01  8.19798E+00  7.17196E+00  9.36396E+00  8.84573E+00  9.37051E+00  9.02585E+00  9.60448E+00  7.44511E+00
   7.87380E+00  7.09576E+00  8.33908E+00  7.79585E+00  6.24874E+00  8.02321E+00  6.34286E+00  1.00392E+01  8.92914E+00  7.20482E+00
   9.02676E+00  6.89246E+00  8.41799E+00  7.27916E+00  6.28665E+00  8.98584E+00  6.43789E+00  6.18147E+00  5.72955E+00  7.85018E+00
   7.17863E+00  6.56981E+00  8.08987E+00  4.86588E+00  5.93949E+00  5.26677E+00  5.84217E+00  5.50822E+00  6.60779E+00  5.95409E+00
   7.26183E+00  5.24210E+00  7.59338E+00  5.56233E+00  7.60703E+00  4.19525E+00  2.99196E+00  5.45920E+00  4.58859E+00  4.03390E+00
   3.78169E+00  3.19184E+00  2.81160E+00  4.46438E+00  3.93599E+00  3.30683E+00  4.12392E+00  3.50022E+00  2.63344E+00  3.94404E+00
   4.75648E+00  4.83800E+00  5.66023E+00  5.29551E+00  3.11190E+00  3.62015E+00  4.35125E+00  2.43945E+00  6.15593E+00  4.61994E+00
   5.69585E+00  6.16137E+00  6.06373E+00  3.84693E+00  4.11256E+00  4.94238E+00  6.40602E+00  6.54785E+00  8.13815E+00  4.97531E+00
   4.16378E+00  4.94595E+00  4.14960E+00  3.03620E+00  5.93505E+00  4.77152E+00  6.45577E+00  6.64985E+00  6.20201E+00  6.16274E+00
   5.48945E+00  7.21724E+00  6.85537E+00  6.88764E+00  5.43161E+00  2.96274E+00  5.63311E+00  6.15469E+00  5.77563E+00  8.47907E+00
   4.48579E+00  3.91483E+00  5.17141E+00  4.44524E+00  6.34698E+00  5.78234E+00  5.51789E+00  4.14428E+00  6.65649E+00  4.63105E+00
   4.84353E+00  4.58319E+00  4.88103E+00  3.76218E+00  4.89661E+00  3.14742E+00  3.80203E+00  2.38265E+00  3.37773E+00  2.11472E+00
   2.77773E+00  3.63487E+00  2.36513E+00  1.01013E+00  3.40540E+00  3.02377E+00  2.91866E+00  2.84870E+00  3.29385E+00  3.03340E+00
   3.02005E+00  2.63423E+00  2.92191E+00  2.71829E+00  2.83843E+00  3.97719E+00  4.12870E+00  4.56438E+00  4.18387E+00  5.23847E+00
   3.71452E+00  6.91520E+00  5.57959E+00  4.89871E+00  5.85137E+00  7.08630E+00  4.92332E+00  4.97920E+00  5.85168E+00  6.60583E+00
   7.80004E+00  5.85619E+00  7.05823E+00  7.60191E+00  6.53135E+00  7.29411E+00  7.70504E+00  6.34888E+00  5.79697E+00  6.81678E+00
   7.71257E+00  5.12349E+00  7.19058E+00  7.39243E+00  5.72279E+00  5.17396E+00  4.91886E+00  7.72769E+00  6.47501E+00  5.60778E+00
   6.46767E+00  4.23844E+00  6.39150E+00  5.12761E+00  5.89838E+00  6.55823E+00  9.28785E+00  7.10329E+00  6.73473E+00  5.62510E+00
   6.56614E+00  6.58398E+00  5.16456E+00  5.23254E+00  7.16895E+00  6.04995E+00  8.12711E+00  6.09382E+00  5.87060E+00  6.73259E+00
   6.99974E+00  5.61365E+00  5.97220E+00  6.28119E+00  7.08994E+00  7.05736E+00  4.77745E+00  6.64351E+00  7.34870E+00  6.14736E+00
   5.46824E+00  5.93587E+00  6.44336E+00  7.30949E+00  5.69891E+00  2.99240E+00  4.31440E+00  5.76085E+00  4.25584E+00  6.40021E+00
   5.81676E+00  4.32670E-01  3.77990E+00  4.51963E+00  3.74419E+00  3.51863E+00  3.60574E+00  4.90036E+00  3.33232E+00  6.88162E+00
   7.09392E+00  5.67224E+00  6.25177E+00  5.40000E+00  6.76490E+00  4.22871E+00  5.23221E+00  5.15058E+00  6.20348E+00  5.31079E+00
   6.22044E+00  5.89401E+00  4.43319E+00  4.54529E+00  4.99443E+00  5.84800E+00  5.48025E+00  4.07411E+00  4.28434E+00  4.83235E+00
   5.48619E+00  4.47304E+00  5.14440E+00  3.83734E+00  5.82412E+00  4.06346E+00  4.44342E+00  4.17733E+00  4.22759E+00  2.29497E+00
   5.16740E+00  3.72858E+00  4.94632E+00  3.33862E+00  4.71595E+00  5.53206E+00  3.91846E+00  5.14255E+00  4.57056E+00  5.16030E+00
   4.58010E+00  6.79179E+00  5.47623E+00  6.20082E+00  6.13296E+00  1.51935E+00  5.50993E+00  5.82168E+00  4.47155E+00  3.59148E+00
   4.48182E+00  3.22717E+00  6.02268E+00  3.24520E+00  6.28993E+00  2.27234E+00  5.09435E+00  3.91233E+00  4.21898E+00  3.34659E+00
   2.71213E+00  4.56769E+00  3.72361E+00  5.82209E+00  3.80337E+00  3.64686E+00  2.93492E+00  3.69491E+00  3.22265E+00  3.73903E+00
   4.50221E+00  3.78394E+00  5.17580E+00  4.76364E+00  3.62377E+00  2.73904E+00  4.87225E+00  3.78811E+00  1.01234E+00  3.06289E+00
   3.15983E+00  1.29978E+00  4.82846E+00  3.35958E+00  2.91940E-01  7.35224E-01  1.74381E+00  4.64191E-01  1.41281E+00  1.50317E+00
   1.68032E+00  2.78371E+00  2.26758E+00  2.88058E+00  3.21859E+00  2.13978E+00  2.76039E+00  3.86858E+00  3.23699E+00  3.71403E+00
   3.46062E+00  4.40789E+00  3.33287E+00  3.56989E+00  4.31349E+00  1.81768E+00  2.17834E+00  2.84236E+00  1.09172E+00  3.38895E+00
   1.18477E+00  1.65520E+00  4.03008E+00  3.73321E+00  4.05274E+00  2.60323E+00  2.73227E+00  1.09752E+00  2.46115E+00  6.31546E-01
   2.78527E+00  5.02889E-01  2.18020E+00  3.11958E+00 -6.38027E-01  4.63666E+00  3.89638E+00  2.33728E+00  3.56381E+00  1.76324E+00
   1.19381E+00  2.87359E+00  4.73071E+00  8.09254E-01  2.74755E+00  2.02042E+00  1.89062E+00  2.68982E+00  1.70699E+00  3.62217E+00
   2.08028E+00  1.65052E+00  2.81203E+00  1.49313E+00  2.28767E+00  2.51331E+00  8.25137E-01  4.19349E+00  1.37695E+00  2.54807E+00
   1.78242E+00  2.70939E+00  1.55862E+00  4.20520E+00  2.51287E+00  2.11738E+00  4.60132E+00  2.25704E+00  2.72827E+00  2.52581E+00
   2.73465E+00  1.99551E+00  1.54483E+00  1.00693E+00  2.73314E+00  4.13340E+00  2.82311E+00  3.56513E+00  2.14139E+00  3.97726E+00
   3.03790E+00  3.27546E+00  2.36912E+00  2.23496E+00  1.15083E+00  2.09974E+00  4.58905E+00  1.84250E+00  7.06508E-01  7.58853E-01
   3.92304E+00  5.15195E+00  3.35319E+00  3.02041E+00  1.67208E+00  1.96204E+00  1.63348E+00  3.30850E+00  2.32358E+00  2.02439E+00
   3.09578E+00  2.61296E+00  1.01868E+00  2.95452E+00  2.04589E+00  3.22912E+00  3.74460E+00  2.81299E+00  1.38595E+00  2.24016E+00
   2.51523E+00  1.91065E+00  3.23270E+00  2.84502E+00  2.59871E+00  3.64096E+00  4.00490E+00  3.04800E+00  3.07559E+00  2.77184E+00
   3.59955E+00  2.84398E+00  3.17641E+00  3.01697E+00  1.68868E+00  1.45916E+00  3.93535E+00  2.80261E+00  3.35949E+00  3.00997E+00
   9.48918E-01  1.14969E+00  2.58086E+00  2.70324E+00  1.53493E-02  2.83495E+00  2.67765E-02  2.58350E+00  2.06331E+00  2.46628E+00
  -3.37714E-02  3.32501E+00  2.90429E+00  1.86554E+00  2.74583E+00  1.75850E+00  1.88672E+00  2.89776E+00  5.41593E-01  1.02775E+00
   1.99975E+00 -1.56360E-01  2.22782E+00  4.53996E+00  4.92831E+00  1.43163E+00  3.05372E+00  1.05710E+00
 NY points of the fit to the data follow
   1.24456E+01  1.21660E+01  1.20135E+01  1.17105E+01  1.16018E+01  1.12844E+01  1.12124E+01  1.08205E+01  1.07337E+01  1.03235E+01
   1.03975E+01  1.01334E+01  1.04257E+01  1.01843E+01  1.05669E+01  1.03827E+01  1.06357E+01  1.03296E+01  1.05439E+01  1.00932E+01
   1.03637E+01  9.91819E+00  1.02101E+01  9.85341E+00  1.01374E+01  9.77835E+00  9.95625E+00  9.54611E+00  9.72506E+00  9.35278E+00
   9.59537E+00  9.24933E+00  9.44655E+00  9.31832E+00  9.59165E+00  9.43084E+00  9.63276E+00  9.39744E+00  9.47034E+00  9.00485E+00
   9.01002E+00  8.56579E+00  8.76152E+00  8.46154E+00  8.75589E+00  8.46778E+00  8.56672E+00  8.06476E+00  7.93445E+00  7.28677E+00
   7.30349E+00  6.91685E+00  7.30390E+00  7.16555E+00  7.31183E+00  6.98600E+00  6.85737E+00  6.38762E+00  6.21790E+00  5.90646E+00
   6.00241E+00  5.73740E+00  5.79390E+00  5.46852E+00  5.51689E+00  5.17523E+00  5.28318E+00  4.99736E+00  5.25090E+00  5.14396E+00
   5.47765E+00  5.24248E+00  5.44780E+00  5.14700E+00  5.30984E+00  4.96541E+00  5.10409E+00  4.72235E+00  4.86518E+00  4.49039E+00
   4.62212E+00  4.39026E+00  4.56585E+00  4.40303E+00  4.58315E+00  4.36697E+00  4.50874E+00  4.26224E+00  4.40373E+00  4.21290E+00
   4.38775E+00  4.25643E+00  4.45732E+00  4.39127E+00  4.68487E+00  4.64373E+00  4.96866E+00  4.93082E+00  5.22039E+00  5.16776E+00
   5.41684E+00  5.36971E+00  5.59554E+00  5.54702E+00  5.73718E+00  5.74479E+00  5.93362E+00  5.96013E+00  6.10035E+00  6.07986E+00
   6.11343E+00  6.03135E+00  6.08092E+00  6.01292E+00  6.11722E+00  6.08306E+00  6.23787E+00  6.19032E+00  6.35812E+00  6.28384E+00
   6.40135E+00  6.30489E+00  6.41197E+00  6.32402E+00  6.46308E+00  6.25734E+00  6.38268E+00  6.18442E+00  6.27254E+00  5.96332E+00
   6.05329E+00  5.72293E+00  5.79362E+00  5.39181E+00  5.39821E+00  4.85755E+00  4.87479E+00  4.36108E+00  4.40990E+00  3.98496E+00
   4.04198E+00  3.69379E+00  3.72994E+00  3.41270E+00  3.45127E+00  3.21844E+00  3.29738E+00  3.23627E+00  3.41006E+00  3.63981E+00
   3.73277E+00  3.86455E+00  3.91838E+00  4.02097E+00  4.06029E+00  4.14501E+00  4.15157E+00  4.20521E+00  4.20555E+00  4.24455E+00
   4.25741E+00  4.30471E+00  4.32823E+00  4.37971E+00  4.39553E+00  4.44834E+00  4.45948E+00  4.51262E+00  4.52213E+00  4.56982E+00
   4.58045E+00  4.62737E+00  4.63418E+00  4.66820E+00  4.65302E+00  4.65523E+00  4.64553E+00  4.62345E+00  4.65241E+00  4.63949E+00
   4.72041E+00  4.72921E+00  4.88050E+00  4.88543E+00  5.02404E+00  4.95941E+00  5.11301E+00  4.92922E+00  5.06632E+00  4.79188E+00
   4.92621E+00  4.60305E+00  5.02248E+00  4.74812E+00  5.29883E+00  4.97306E+00  5.58044E+00  5.15396E+00  5.69112E+00  5.11848E+00
   5.71672E+00  5.08504E+00  5.76083E+00  5.16379E+00  6.03027E+00  5.51497E+00  6.37756E+00  5.77074E+00  6.41465E+00  5.65480E+00
   6.35554E+00  5.63345E+00  6.18050E+00  5.56154E+00  6.20026E+00  5.73441E+00  6.39993E+00  5.97400E+00  6.55292E+00  6.18758E+00
   6.54702E+00  6.24576E+00  6.56463E+00  6.33081E+00  6.61560E+00  6.48486E+00  6.74745E+00  6.55513E+00  6.54367E+00  6.22010E+00
   5.77374E+00  5.23016E+00  5.29599E+00  4.87773E+00  5.09241E+00  4.80938E+00  5.32835E+00  5.28633E+00  5.59758E+00  5.47181E+00
   5.65254E+00  5.40356E+00  5.43488E+00  5.22670E+00  5.19874E+00  5.20741E+00  5.10659E+00  5.22607E+00  5.07030E+00  5.39619E+00
   5.34417E+00  5.74607E+00  5.67509E+00  6.03442E+00  5.88819E+00  6.14450E+00  5.77818E+00  5.89434E+00  5.80812E+00  5.98785E+00
   6.08777E+00  6.12244E+00  6.28865E+00  5.85673E+00  5.89323E+00  5.45581E+00  5.44113E+00  4.97128E+00  4.94957E+00  4.54062E+00
   4.49661E+00  4.17921E+00  4.24121E+00  4.05705E+00  4.18381E+00  4.11477E+00  4.25094E+00  4.29356E+00  4.34951E+00  4.26452E+00
   4.29103E+00  4.25075E+00  4.28706E+00  4.26581E+00  4.29636E+00  4.30517E+00  4.29219E+00  4.31400E+00  4.29759E+00  4.30846E+00
   4.27788E+00  4.28029E+00  4.24799E+00  4.25372E+00  4.24927E+00  4.27176E+00  4.27815E+00  4.30069E+00  4.30940E+00  4.32715E+00
   4.33899E+00  4.35040E+00  4.36708E+00  4.38418E+00  4.41055E+00  4.43653E+00  4.47287E+00  4.51002E+00  4.55867E+00  4.57958E+00
   4.47325E+00  4.44389E+00  4.31512E+00  4.29077E+00  4.17260E+00  4.16981E+00  4.07973E+00  4.21567E+00  4.14016E+00  4.22420E+00
   4.07414E+00  4.09031E+00  3.88756E+00  3.87742E+00  3.68521E+00  3.69632E+00  3.59955E+00  3.64981E+00  3.49328E+00  3.51203E+00
   3.43630E+00  3.40708E+00  3.28783E+00  3.13915E+00  3.01289E+00  2.93667E+00  3.05789E+00  2.95984E+00  3.24746E+00  3.20654E+00
   3.57756E+00  3.49048E+00  3.80692E+00  3.47108E+00  3.79752E+00  3.41645E+00  3.85823E+00  3.56960E+00  4.10476E+00  3.84119E+00
   3.91636E+00  3.44453E+00  3.37628E+00  2.83591E+00  2.69180E+00  2.23386E+00  2.16358E+00  2.20375E+00  2.24846E+00  2.28866E+00
   2.32391E+00  2.35478E+00  2.38187E+00  2.40571E+00  2.42675E+00  2.44534E+00  2.46179E+00  2.47637E+00  2.48931E+00  2.50077E+00
   2.51091E+00  2.51987E+00  2.52775E+00  2.53466E+00  2.54070E+00  2.54593E+00  2.55043E+00  2.55425E+00  2.55745E+00  2.56008E+00
   2.56219E+00  2.56381E+00  2.56497E+00  2.56570E+00  2.56605E+00  2.56603E+00  2.56567E+00  2.56499E+00  2.56402E+00  2.56276E+00
   2.56123E+00  2.55946E+00  2.55746E+00  2.55524E+00  2.55282E+00  2.55020E+00  2.54739E+00  2.54441E+00  2.54128E+00  2.53798E+00
   2.53454E+00  2.53096E+00  2.52725E+00  2.52342E+00  2.51947E+00  2.51540E+00  2.51124E+00  2.50697E+00  2.50261E+00  2.49816E+00
   2.49362E+00  2.48900E+00  2.48431E+00  2.47955E+00  2.47472E+00  2.46982E+00  2.46486E+00  2.45985E+00  2.45478E+00  2.44966E+00
   2.44449E+00  2.43928E+00  2.43403E+00  2.42873E+00  2.42340E+00  2.41804E+00  2.41265E+00  2.40722E+00  2.40177E+00  2.39630E+00
   2.39080E+00  2.38528E+00  2.37975E+00  2.37420E+00  2.36863E+00  2.36305E+00  2.35747E+00  2.35188E+00  2.34628E+00  2.34068E+00
   2.33507E+00  2.32947E+00  2.32387E+00  2.31827E+00  2.31269E+00  2.30710E+00  2.30154E+00  2.29598E+00  2.29044E+00  2.28492E+00
   2.27942E+00  2.27394E+00  2.26849E+00  2.26305E+00  2.25766E+00  2.25229E+00  2.24697E+00  2.24167E+00  2.23642E+00  2.23122E+00
   2.22607E+00  2.22096E+00  2.21591E+00  2.21091E+00  2.20599E+00  2.20113E+00  2.19635E+00  2.19164E+00  2.18701E+00  2.18248E+00
   2.17803E+00  2.17369E+00  2.16946E+00  2.16534E+00  2.16134E+00  2.15747E+00  2.15375E+00  2.15019E+00  2.14678E+00  2.14355E+00
   2.14051E+00  2.13768E+00  2.13508E+00  2.13272E+00  2.13062E+00  2.12881E+00  2.12733E+00  2.12620E+00  2.12545E+00  2.12514E+00
   2.12530E+00  2.12600E+00  2.12731E+00  2.12931E+00  2.13211E+00  2.13581E+00  2.14060E+00  2.14668E+00
 NY background values follow
     8.545E+00    8.529E+00    8.512E+00    8.496E+00    8.480E+00    8.464E+00    8.447E+00    8.431E+00    8.415E+00    8.399E+00
     8.383E+00    8.367E+00    8.351E+00    8.335E+00    8.319E+00    8.303E+00    8.286E+00    8.270E+00    8.254E+00    8.238E+00
     8.223E+00    8.207E+00    8.191E+00    8.175E+00    8.159E+00    8.143E+00    8.127E+00    8.111E+00    8.095E+00    8.079E+00
     8.064E+00    8.048E+00    8.032E+00    8.016E+00    8.000E+00    7.985E+00    7.969E+00    7.953E+00    7.937E+00    7.922E+00
     7.906E+00    7.890E+00    7.875E+00    7.859E+00    7.843E+00    7.828E+00    7.812E+00    7.797E+00    7.781E+00    7.765E+00
     7.750E+00    7.734E+00    7.719E+00    7.703E+00    7.688E+00    7.672E+00    7.657E+00    7.642E+00    7.626E+00    7.611E+00
     7.595E+00    7.580E+00    7.565E+00    7.549E+00    7.534E+00    7.519E+00    7.503E+00    7.488E+00    7.473E+00    7.457E+00
     7.442E+00    7.427E+00    7.412E+00    7.396E+00    7.381E+00    7.366E+00    7.351E+00    7.336E+00    7.321E+00    7.306E+00
     7.290E+00    7.275E+00    7.260E+00    7.245E+00    7.230E+00    7.215E+00    7.200E+00    7.185E+00    7.170E+00    7.155E+00
     7.140E+00    7.125E+00    7.110E+00    7.095E+00    7.080E+00    7.066E+00    7.051E+00    7.036E+00    7.021E+00    7.006E+00
     6.991E+00    6.977E+00    6.962E+00    6.947E+00    6.932E+00    6.918E+00    6.903E+00    6.888E+00    6.873E+00    6.859E+00
     6.844E+00    6.829E+00    6.815E+00    6.800E+00    6.786E+00    6.771E+00    6.756E+00    6.742E+00    6.727E+00    6.713E+00
     6.698E+00    6.684E+00    6.669E+00    6.655E+00    6.640E+00    6.626E+00    6.611E+00    6.597E+00    6.583E+00    6.568E+00
     6.554E+00    6.539E+00    6.525E+00    6.511E+00    6.496E+00    6.482E+00    6.468E+00    6.454E+00    6.439E+00    6.425E+00
     6.411E+00    6.397E+00    6.382E+00    6.368E+00    6.354E+00    6.340E+00    6.326E+00    6.312E+00    6.298E+00    6.283E+00
     6.269E+00    6.255E+00    6.241E+00    6.227E+00    6.213E+00    6.199E+00    6.185E+00    6.171E+00    6.157E+00    6.143E+00
     6.129E+00    6.115E+00    6.102E+00    6.088E+00    6.074E+00    6.060E+00    6.046E+00    6.032E+00    6.018E+00    6.005E+00
     5.991E+00    5.977E+00    5.963E+00    5.950E+00    5.936E+00    5.922E+00    5.908E+00    5.895E+00    5.881E+00    5.867E+00
     5.854E+00    5.840E+00    5.827E+00    5.813E+00    5.799E+00    5.786E+00    5.772E+00    5.759E+00    5.745E+00    5.732E+00
     5.718E+00    5.705E+00    5.691E+00    5.678E+00    5.664E+00    5.651E+00    5.637E+00    5.624E+00    5.611E+00    5.597E+00
     5.584E+00    5.571E+00    5.557E+00    5.544E+00    5.531E+00    5.518E+00    5.504E+00    5.491E+00    5.478E+00    5.465E+00
     5.451E+00    5.438E+00    5.425E+00    5.412E+00    5.399E+00    5.386E+00    5.372E+00    5.359E+00    5.346E+00    5.333E+00
     5.320E+00    5.307E+00    5.294E+00    5.281E+00    5.268E+00    5.255E+00    5.242E+00    5.229E+00    5.216E+00    5.203E+00
     5.190E+00    5.178E+00    5.165E+00    5.152E+00    5.139E+00    5.126E+00    5.113E+00    5.101E+00    5.088E+00    5.075E+00
     5.062E+00    5.050E+00    5.037E+00    5.024E+00    5.011E+00    4.999E+00    4.986E+00    4.973E+00    4.961E+00    4.948E+00
     4.936E+00    4.923E+00    4.910E+00    4.898E+00    4.885E+00    4.873E+00    4.860E+00    4.848E+00    4.835E+00    4.823E+00
     4.810E+00    4.798E+00    4.785E+00    4.773E+00    4.761E+00    4.748E+00    4.736E+00    4.723E+00    4.711E+00    4.699E+00
     4.686E+00    4.674E+00    4.662E+00    4.650E+00    4.637E+00    4.625E+00    4.613E+00    4.601E+00    4.589E+00    4.576E+00
     4.564E+00    4.552E+00    4.540E+00    4.528E+00    4.516E+00    4.504E+00    4.492E+00    4.479E+00    4.467E+00    4.455E+00
     4.443E+00    4.431E+00    4.419E+00    4.407E+00    4.395E+00    4.384E+00    4.372E+00    4.360E+00    4.348E+00    4.336E+00
     4.324E+00    4.312E+00    4.300E+00    4.289E+00    4.277E+00    4.265E+00    4.253E+00    4.241E+00    4.230E+00    4.218E+00
     4.206E+00    4.194E+00    4.183E+00    4.171E+00    4.159E+00    4.148E+00    4.136E+00    4.125E+00    4.113E+00    4.101E+00
     4.090E+00    4.078E+00    4.067E+00    4.055E+00    4.044E+00    4.032E+00    4.021E+00    4.009E+00    3.998E+00    3.986E+00
     3.975E+00    3.964E+00    3.952E+00    3.941E+00    3.929E+00    3.918E+00    3.907E+00    3.895E+00    3.884E+00    3.873E+00
     3.862E+00    3.850E+00    3.839E+00    3.828E+00    3.817E+00    3.805E+00    3.794E+00    3.783E+00    3.772E+00    3.761E+00
     3.750E+00    3.739E+00    3.728E+00    3.716E+00    3.705E+00    3.694E+00    3.683E+00    3.672E+00    3.661E+00    3.650E+00
     3.639E+00    3.628E+00    3.617E+00    3.606E+00    3.596E+00    3.585E+00    3.574E+00    3.563E+00    3.552E+00    3.541E+00
     3.530E+00    3.520E+00    3.509E+00    3.498E+00    3.487E+00    3.477E+00    3.466E+00    3.455E+00    3.444E+00    3.434E+00
     3.423E+00    3.412E+00    3.402E+00    3.391E+00    3.380E+00    3.370E+00    3.359E+00    3.349E+00    3.338E+00    3.328E+00
     3.317E+00    3.307E+00    3.296E+00    3.286E+00    3.275E+00    3.265E+00    3.254E+00    3.244E+00    3.233E+00    3.223E+00
     3.213E+00    3.202E+00    3.192E+00    3.182E+00    3.171E+00    3.161E+00    3.151E+00    3.140E+00    3.130E+00    3.120E+00
     3.110E+00    3.100E+00    3.089E+00    3.079E+00    3.069E+00    3.059E+00    3.049E+00    3.039E+00    3.029E+00    3.018E+00
     3.008E+00    2.998E+00    2.988E+00    2.978E+00    2.968E+00    2.958E+00    2.948E+00    2.938E+00    2.928E+00    2.918E+00
     2.908E+00    2.899E+00    2.889E+00    2.879E+00    2.869E+00    2.859E+00    2.849E+00    2.839E+00    2.830E+00    2.820E+00
     2.810E+00    2.800E+00    2.791E+00    2.781E+00    2.771E+00    2.761E+00    2.752E+00    2.742E+00    2.732E+00    2.723E+00
     2.713E+00    2.703E+00    2.694E+00    2.684E+00    2.675E+00    2.665E+00    2.656E+00    2.646E+00    2.637E+00    2.627E+00
     2.618E+00    2.608E+00    2.599E+00    2.589E+00    2.580E+00    2.571E+00    2.561E+00    2.552E+00    2.542E+00    2.533E+00
     2.524E+00    2.514E+00    2.505E+00    2.496E+00    2.487E+00    2.477E+00    2.468E+00    2.459E+00    2.450E+00    2.441E+00
     2.431E+00    2.422E+00    2.413E+00    2.404E+00    2.395E+00    2.386E+00    2.377E+00    2.368E+00    2.359E+00    2.349E+00
     2.340E+00    2.331E+00    2.322E+00    2.313E+00    2.305E+00    2.296E+00    2.287E+00    2.278E+00
 Ala      Conc. = 6.47E+02
