 LCModel (Version 6.3-1L) Copyright: S.W. Provencher.          Ref.: Magn. Reson. Med. 30:672-679 (1993).                
 Slice#1 Row#6 Col#7  K_02_press_1_raw_act
 36 lines in following concentration table = NCONC+1
    Conc.  %SD /Cr+PCr  Metabolite                                         
    0.000 999%   0.000 Ala                                                 
  102.681 196% 9.3E-02 Asp                                                 
 1.05E+03  17%   0.958 Cr                                                  
   46.603 382% 4.2E-02 PCr                                                 
   16.048 767% 1.5E-02 GABA                                                
   63.174 201% 5.7E-02 Glc                                                 
  358.830  63%   0.326 Gln                                                 
 1.34E+03  20%   1.219 Glu                                                 
  369.137   7%   0.335 GPC                                                 
    0.000 999%   0.000 PCh                                                 
  432.071  19%   0.392 GSH                                                 
 1.22E+03  22%   1.110 Ins                                                 
    0.000 999%   0.000 Lac                                                 
 1.42E+03   8%   1.289 NAA                                                 
  325.968  36%   0.296 NAAG                                                
    0.000 999%   0.000 Scyllo                                              
    0.000 999%   0.000 Tau                                                 
    0.000 999%   0.000 -CrCH2                                              
  369.137   7%   0.335 GPC+PCh                                             
 1.74E+03   6%   1.585 NAA+NAAG                                            
 1.10E+03   6%   1.000 Cr+PCr                                              
 1.70E+03  20%   1.545 Glu+Gln                                             
 3.42E+03  24%   3.102 Lip13a                                              
    0.000 999%   0.000 Lip13b                                              
  998.240  39%   0.907 Lip09                                               
  786.232  48%   0.714 MM09                                                
  661.846  43%   0.601 Lip20                                               
 1.26E+03  38%   1.143 MM20                                                
  227.884 104%   0.207 MM12                                                
  996.520  48%   0.905 MM14                                                
    0.000 999%   0.000 MM17                                                
 3.42E+03  24%   3.102 Lip13a+Lip13b                                       
 4.64E+03  12%   4.214 MM14+Lip13a+Lip13b+MM12                             
 1.78E+03  14%   1.621 MM09+Lip09                                          
 1.92E+03  23%   1.744 MM20+Lip20                                          
   6 lines in following misc. output table
  FWHM = 0.038 ppm    S/N =   7                                            
  Data shift =-0.008 ppm                                                   
  Ph:  43 deg      22.3 deg/ppm                                            
  alphaB,S = 1.5E+00,   2.6E+01                                            
   14 spline knots.   Ns = 5(1)                                            
  ( 9) 2 infls.   ( 5) 1 extrs.                                            
  498 points on ppm-axis = NY
      4.000000     3.992357     3.984714     3.977070     3.969427     3.961784     3.954141     3.946497     3.938854     3.931211
      3.923568     3.915925     3.908281     3.900638     3.892995     3.885352     3.877708     3.870065     3.862422     3.854779
      3.847136     3.839492     3.831849     3.824206     3.816563     3.808919     3.801276     3.793633     3.785990     3.778347
      3.770703     3.763060     3.755417     3.747774     3.740130     3.732487     3.724844     3.717201     3.709558     3.701914
      3.694271     3.686628     3.678985     3.671341     3.663698     3.656055     3.648412     3.640769     3.633125     3.625482
      3.617839     3.610196     3.602552     3.594909     3.587266     3.579623     3.571980     3.564336     3.556693     3.549050
      3.541407     3.533763     3.526120     3.518477     3.510834     3.503191     3.495547     3.487904     3.480261     3.472618
      3.464974     3.457331     3.449688     3.442045     3.434402     3.426758     3.419115     3.411472     3.403829     3.396185
      3.388542     3.380899     3.373256     3.365613     3.357969     3.350326     3.342683     3.335040     3.327396     3.319753
      3.312110     3.304467     3.296824     3.289180     3.281537     3.273894     3.266251     3.258607     3.250964     3.243321
      3.235678     3.228034     3.220391     3.212748     3.205105     3.197462     3.189818     3.182175     3.174532     3.166889
      3.159245     3.151602     3.143959     3.136316     3.128673     3.121029     3.113386     3.105743     3.098100     3.090456
      3.082813     3.075170     3.067527     3.059884     3.052240     3.044597     3.036954     3.029311     3.021667     3.014024
      3.006381     2.998738     2.991095     2.983451     2.975808     2.968165     2.960522     2.952878     2.945235     2.937592
      2.929949     2.922306     2.914662     2.907019     2.899376     2.891733     2.884089     2.876446     2.868803     2.861160
      2.853517     2.845873     2.838230     2.830587     2.822944     2.815300     2.807657     2.800014     2.792371     2.784728
      2.777084     2.769441     2.761798     2.754155     2.746511     2.738868     2.731225     2.723582     2.715939     2.708295
      2.700652     2.693009     2.685366     2.677722     2.670079     2.662436     2.654793     2.647150     2.639506     2.631863
      2.624220     2.616577     2.608933     2.601290     2.593647     2.586004     2.578361     2.570717     2.563074     2.555431
      2.547788     2.540144     2.532501     2.524858     2.517215     2.509572     2.501928     2.494285     2.486642     2.478999
      2.471355     2.463712     2.456069     2.448426     2.440783     2.433139     2.425496     2.417853     2.410210     2.402566
      2.394923     2.387280     2.379637     2.371994     2.364350     2.356707     2.349064     2.341421     2.333777     2.326134
      2.318491     2.310848     2.303205     2.295561     2.287918     2.280275     2.272632     2.264988     2.257345     2.249702
      2.242059     2.234416     2.226772     2.219129     2.211486     2.203843     2.196199     2.188556     2.180913     2.173270
      2.165627     2.157983     2.150340     2.142697     2.135054     2.127410     2.119767     2.112124     2.104481     2.096838
      2.089194     2.081551     2.073908     2.066265     2.058621     2.050978     2.043335     2.035692     2.028049     2.020405
      2.012762     2.005119     1.997476     1.989833     1.982190     1.974546     1.966903     1.959260     1.951617     1.943974
      1.936331     1.928688     1.921045     1.913402     1.905759     1.898115     1.890472     1.882829     1.875186     1.867543
      1.859900     1.852257     1.844614     1.836971     1.829327     1.821684     1.814041     1.806398     1.798755     1.791112
      1.783469     1.775826     1.768183     1.760540     1.752896     1.745253     1.737610     1.729967     1.722324     1.714681
      1.707038     1.699395     1.691752     1.684108     1.676465     1.668822     1.661179     1.653536     1.645893     1.638250
      1.630607     1.622964     1.615321     1.607677     1.600034     1.592391     1.584748     1.577105     1.569462     1.561819
      1.554176     1.546533     1.538890     1.531246     1.523603     1.515960     1.508317     1.500674     1.493031     1.485388
      1.477745     1.470102     1.462458     1.454815     1.447172     1.439529     1.431886     1.424243     1.416600     1.408957
      1.401314     1.393671     1.386027     1.378384     1.370741     1.363098     1.355455     1.347812     1.340169     1.332526
      1.324883     1.317240     1.309596     1.301953     1.294310     1.286667     1.279024     1.271381     1.263738     1.256095
      1.248452     1.240808     1.233165     1.225522     1.217879     1.210236     1.202593     1.194950     1.187307     1.179664
      1.172021     1.164377     1.156734     1.149091     1.141448     1.133805     1.126162     1.118519     1.110876     1.103233
      1.095590     1.087946     1.080303     1.072660     1.065017     1.057374     1.049731     1.042088     1.034445     1.026802
      1.019158     1.011515     1.003872     0.996229     0.988586     0.980943     0.973300     0.965657     0.958014     0.950371
      0.942727     0.935084     0.927441     0.919798     0.912155     0.904512     0.896869     0.889226     0.881583     0.873940
      0.866296     0.858653     0.851010     0.843367     0.835724     0.828081     0.820438     0.812795     0.805152     0.797508
      0.789865     0.782222     0.774579     0.766936     0.759293     0.751650     0.744007     0.736364     0.728721     0.721077
      0.713434     0.705791     0.698148     0.690505     0.682862     0.675219     0.667576     0.659933     0.652290     0.644646
      0.637003     0.629360     0.621717     0.614074     0.606431     0.598788     0.591145     0.583502     0.575858     0.568215
      0.560572     0.552929     0.545286     0.537643     0.530000     0.522357     0.514714     0.507071     0.499427     0.491784
      0.484141     0.476498     0.468855     0.461212     0.453569     0.445925     0.438282     0.430639     0.422996     0.415353
      0.407710     0.400067     0.392424     0.384780     0.377137     0.369494     0.361851     0.354208     0.346565     0.338922
      0.331278     0.323635     0.315992     0.308349     0.300706     0.293063     0.285420     0.277777     0.270133     0.262490
      0.254847     0.247204     0.239561     0.231918     0.224275     0.216631     0.208988     0.201345
 NY phased data points follow
   5.40856E+01  4.43018E+01  4.78240E+01  4.66996E+01  4.81586E+01  5.16043E+01  4.60728E+01  4.13820E+01  5.35446E+01  5.88317E+01
   5.90281E+01  7.08146E+01  6.82325E+01  7.24829E+01  5.20546E+01  5.60678E+01  5.36191E+01  5.41733E+01  4.27537E+01  4.03580E+01
   3.68166E+01  2.83306E+01  3.41776E+01  3.11750E+01  3.39751E+01  4.33675E+01  3.78780E+01  4.13045E+01  4.42553E+01  3.79767E+01
   4.43471E+01  4.14920E+01  4.58275E+01  4.14741E+01  3.99933E+01  3.58368E+01  4.15160E+01  2.82399E+01  3.09235E+01  3.46070E+01
   3.57387E+01  3.10663E+01  3.82805E+01  4.01298E+01  3.44532E+01  3.31701E+01  3.67107E+01  3.68750E+01  4.16065E+01  4.12308E+01
   3.89056E+01  3.25584E+01  3.50862E+01  2.91220E+01  3.07121E+01  2.81709E+01  3.61986E+01  3.23782E+01  4.16666E+01  3.10769E+01
   2.91546E+01  3.07054E+01  2.27357E+01  2.52188E+01  1.82959E+01  1.99415E+01  2.56863E+01  1.97078E+01  1.90546E+01  1.72417E+01
   2.29584E+01  2.03381E+01  2.12257E+01  1.75713E+01  2.25659E+01  2.32164E+01  2.01019E+01  2.16439E+01  1.66850E+01  2.07559E+01
   1.16083E+01  1.75857E+01  1.28414E+01  1.67062E+01  1.02886E+01  1.67773E+01  1.48303E+01  8.72624E+00  1.42869E+01  1.40912E+01
   1.06583E+01  1.83560E+01  1.01717E+01  1.87529E+01  1.16272E+01  7.95278E+00  1.19779E+01  1.23149E+01  9.13107E+00  1.94669E+01
   2.81510E+01  3.98700E+01  4.81081E+01  5.52383E+01  5.75036E+01  5.06388E+01  4.29886E+01  3.51218E+01  2.60842E+01  1.94953E+01
   8.33958E+00  1.52658E+01  1.04895E+01  1.23150E+01  8.16046E+00  1.65343E+01  1.49903E+01  8.53242E+00  1.30682E+01  3.02223E+00
   1.52371E+01  2.37263E+01  1.44929E+01  2.64747E+01  1.91435E+01  3.87185E+01  4.50466E+01  5.50990E+01  4.94496E+01  4.42244E+01
   4.29586E+01  3.25491E+01  2.55057E+01  1.54177E+01  1.40954E+01  1.11264E+01  1.26378E+01  8.59427E+00  4.63870E+00  7.47598E+00
   8.03742E+00  1.44960E+01  1.03519E+01  1.55866E+01  1.34826E+01  1.40239E+01  1.40436E+01  1.42953E+01  1.11117E+01  1.42994E+01
   2.02204E+00  7.75901E+00  1.33348E+01  7.75243E+00  6.00943E+00  2.05655E+00  6.14087E+00  1.08413E+01  1.06106E+01  3.37526E+00
   4.92042E+00  9.31317E+00  8.57541E+00  4.12341E+00  1.94551E+00  1.98582E+00  1.16638E+01  8.32287E+00  1.11610E+01  3.21361E+00
  -2.52180E+00 -8.43663E-01 -1.98043E-01 -7.49887E+00 -4.13389E+00 -8.89178E+00 -6.56996E+00 -1.35870E+01 -4.22177E+00 -8.21908E+00
   3.29406E+00 -3.65918E+00 -9.76332E+00 -5.50371E+00 -3.60795E+00  5.49970E-01 -1.64202E+00  1.16555E+00 -3.75811E+00  3.52082E+00
  -1.46945E+00  2.57954E+00 -4.76407E+00  8.53286E-01  1.48695E-01 -2.60177E-01 -1.40347E+01 -1.85491E+00 -5.82524E+00 -6.38336E+00
  -2.94211E+00 -5.45951E+00  2.49156E+00 -3.10281E+00 -1.75600E+00  6.89279E+00  6.15445E+00  1.97576E+00  6.71127E-01 -4.67084E+00
  -5.78471E+00 -5.88175E+00  2.98667E+00  8.01915E+00  7.00105E+00  9.90436E+00  9.95491E+00  3.72775E+00  1.60421E+01 -4.23679E-01
  -4.28149E+00 -7.47664E+00 -9.53822E+00 -5.24198E+00 -4.15483E+00  6.11403E-02  7.42930E+00  3.21366E+00  1.12916E+01  1.02673E+01
   2.21020E+00 -4.57797E-01  8.74759E+00  4.03204E+00 -1.34491E+00  4.01751E-02  2.63108E+00 -1.85072E-01  4.60301E+00  3.51581E+00
  -5.48980E+00  2.54653E+00 -8.77062E+00 -2.11689E+00  1.81103E+00  2.04702E+00  6.41311E+00  3.62984E+00  1.50763E+00  6.27797E+00
   1.21660E+00  5.87337E+00  8.05823E+00  1.51318E+01  2.16922E+01  2.25513E+01  2.10035E+01  3.22455E+01  5.20146E+01  7.28708E+01
   6.91877E+01  5.83260E+01  4.62330E+01  2.82087E+01  1.39864E+01  2.47620E+00 -3.31198E+00 -1.58673E+01 -3.29982E+00 -7.62610E+00
  -7.89313E+00 -5.92115E+00 -3.38295E-01  1.76322E+00  5.50453E+00 -1.39399E+00  2.23708E+00  3.16174E+00 -2.19941E+00 -8.36942E-01
   2.72985E+00  7.28286E-01 -5.99471E+00 -5.88784E+00 -2.32375E+00 -6.46985E+00 -1.36307E+01 -3.58517E+00 -5.06142E+00 -2.98340E+00
  -6.66599E+00 -5.38215E+00 -3.79475E+00 -5.69568E+00 -4.21909E+00 -3.91594E+00 -8.64570E+00 -1.26377E+01 -3.86765E-01 -5.00239E+00
  -1.32199E+00 -6.19308E+00 -3.98912E+00 -9.84578E+00 -1.37154E+01 -9.64669E+00 -7.98621E+00 -9.00338E+00 -8.71751E+00 -8.25764E+00
  -6.27501E+00 -8.51198E+00 -2.79821E+00 -6.00501E+00 -5.15939E+00 -5.32270E+00 -2.65432E+00 -1.01150E+01 -7.67022E+00 -9.67157E+00
  -5.99171E+00 -1.09907E+01 -1.23171E+01 -1.84653E+00 -9.08786E+00 -1.27151E+01 -4.68601E+00 -2.51983E+00 -5.11925E+00  3.56241E+00
  -3.67930E+00 -2.85527E-01  5.08345E+00  3.73724E+00  1.23148E+01  6.71097E+00  8.58873E+00  3.81365E+00  7.74377E+00  4.99537E+00
   1.83559E+00  4.15869E+00  1.22024E+00  5.68992E+00  4.96948E+00  1.39510E+00  1.51708E+01  1.54319E+01  6.42640E+00  7.27715E+00
   1.34166E+01  1.69109E+01  1.33740E+01  1.18843E+01  9.68222E+00  8.79173E+00  5.66081E+00  7.89350E+00  2.92585E-01  1.79720E+00
   7.98645E+00  1.26062E+01  9.15625E+00  1.39116E+01  7.92055E-01  8.28863E+00  7.19132E+00  7.36023E+00  1.05616E+01 -2.23460E+00
   8.27622E-01  7.15831E+00  6.31601E+00 -1.41576E+00  8.10512E+00  1.57649E+00  8.53884E+00 -3.20630E+00 -3.83159E+00  5.99578E+00
  -3.43977E+00 -8.61634E-02  1.29640E+00 -3.81069E+00 -3.46967E+00 -5.75083E+00 -1.11725E+00 -8.57704E-02 -1.05477E+01  2.65649E+00
  -3.05679E+00  5.60708E-01  2.32253E+00 -1.78199E-01  1.38772E+00  1.33934E+00  3.96187E+00  3.06850E+00  6.75167E+00  3.24407E+00
   1.19093E+01  4.90829E+00  3.34573E+00  4.28839E+00  2.26004E+00  8.49498E-01  1.24052E+01  8.55757E+00  9.57841E+00  1.23424E+01
   5.60535E+00  4.88703E+00  7.00428E+00  6.41085E+00  1.27858E+01  1.49852E+00  8.50794E+00  4.58689E+00 -9.83062E+00  6.65059E+00
   8.62471E-02 -3.58910E+00 -3.19454E+00  2.13290E+00  6.88060E-01  6.23387E+00 -1.64477E+00  1.99933E+00  3.15989E+00 -2.97791E+00
  -7.91520E-01 -4.17639E+00  6.34435E-01  1.23241E+00  4.81255E+00  1.25572E+00 -4.73818E+00 -4.32331E+00  1.62801E+00 -2.63935E+00
   7.18100E-01  1.30031E+00  1.84124E+00 -1.54482E+00 -3.58990E+00  1.05699E+00 -9.39671E+00 -2.34486E-01 -1.03277E+00 -6.92377E-01
   1.05059E+00 -1.29929E+00 -6.94645E-01  7.37371E+00 -3.67306E+00 -1.25119E-01 -1.63879E+00 -3.97604E+00  5.35797E-01 -1.00224E+00
  -4.80870E+00 -5.61113E+00  2.22806E+00 -3.35259E+00 -2.78040E+00  2.54454E+00  2.28646E+00 -3.81899E+00  5.25624E+00  1.36375E-01
  -1.61543E+00 -1.03488E+00 -5.56763E+00 -4.32397E-01  4.68916E+00  3.01000E-01 -2.32694E+00 -8.68917E-01 -6.55419E-01  9.55640E-01
  -8.84478E-01  1.98339E+00  3.58043E+00 -7.77902E+00 -1.19505E+01 -3.58492E+00  2.80037E+00  2.39799E-01 -8.11323E+00 -3.43228E+00
  -4.50405E+00 -8.84166E+00 -2.55565E+00 -3.83043E+00 -4.13069E+00 -5.73129E+00 -4.21668E+00 -1.01980E+01
 NY points of the fit to the data follow
   4.06736E+01  4.00235E+01  3.97601E+01  3.98626E+01  4.02920E+01  4.10228E+01  4.24286E+01  4.52605E+01  4.92546E+01  5.52156E+01
   6.23748E+01  6.71161E+01  6.68134E+01  6.27303E+01  5.71492E+01  5.12393E+01  4.54998E+01  4.08245E+01  3.83084E+01  3.73408E+01
   3.69127E+01  3.65299E+01  3.60866E+01  3.56486E+01  3.55103E+01  3.57237E+01  3.61942E+01  3.81310E+01  4.14972E+01  4.44517E+01
   4.58138E+01  4.59420E+01  4.50539E+01  4.27566E+01  3.92075E+01  3.56459E+01  3.30375E+01  3.12462E+01  3.03436E+01  3.02596E+01
   3.05041E+01  3.09891E+01  3.18534E+01  3.30551E+01  3.47149E+01  3.71152E+01  3.96149E+01  4.05605E+01  3.93090E+01  3.67215E+01
   3.37771E+01  3.08287E+01  2.82049E+01  2.65050E+01  2.59973E+01  2.62162E+01  2.66993E+01  2.74994E+01  2.84770E+01  2.92144E+01
   2.92831E+01  2.85792E+01  2.73252E+01  2.58543E+01  2.44915E+01  2.35654E+01  2.32315E+01  2.34137E+01  2.38640E+01  2.44215E+01
   2.49631E+01  2.52704E+01  2.51642E+01  2.47365E+01  2.41740E+01  2.35801E+01  2.29857E+01  2.24276E+01  2.19822E+01  2.16135E+01
   2.12567E+01  2.08691E+01  2.03777E+01  1.97331E+01  1.87990E+01  1.75536E+01  1.61847E+01  1.50691E+01  1.44909E+01  1.45181E+01
   1.50199E+01  1.58649E+01  1.68532E+01  1.76869E+01  1.81951E+01  1.82654E+01  1.79360E+01  1.75437E+01  1.82224E+01  2.15675E+01
   2.74975E+01  3.79679E+01  5.05340E+01  5.83883E+01  5.77767E+01  5.15072E+01  4.29244E+01  3.35647E+01  2.45162E+01  1.77089E+01
   1.47266E+01  1.38638E+01  1.35722E+01  1.34113E+01  1.32848E+01  1.31591E+01  1.30282E+01  1.28763E+01  1.27270E+01  1.26664E+01
   1.28035E+01  1.33308E+01  1.50211E+01  1.91003E+01  2.55886E+01  3.58513E+01  4.77572E+01  5.53459E+01  5.52400E+01  4.97175E+01
   4.19031E+01  3.33099E+01  2.46053E+01  1.71338E+01  1.25289E+01  9.99853E+00  8.54437E+00  7.97516E+00  8.22077E+00  9.10396E+00
   1.01676E+01  1.08854E+01  1.10802E+01  1.08686E+01  1.03838E+01  9.77104E+00  9.16518E+00  8.66416E+00  8.26780E+00  7.87896E+00
   7.47834E+00  7.07610E+00  6.67699E+00  6.35851E+00  6.21046E+00  6.17827E+00  6.10821E+00  5.89032E+00  5.34167E+00  4.59539E+00
   4.03827E+00  3.84964E+00  4.02600E+00  4.25367E+00  4.22283E+00  3.90447E+00  3.43822E+00  2.83907E+00  2.22999E+00  1.76179E+00
   1.47714E+00  1.23564E+00  8.57645E-01  2.49920E-01 -4.13065E-01 -7.45449E-01 -6.90607E-01 -5.23982E-01 -6.07696E-01 -8.87567E-01
  -1.12335E+00 -1.19526E+00 -1.30224E+00 -1.43685E+00 -1.57477E+00 -1.43055E+00 -6.93972E-01  5.87494E-01  2.07994E+00  3.47315E+00
   4.45666E+00  4.69777E+00  4.07261E+00  2.80353E+00  1.37944E+00 -8.59625E-02 -1.26614E+00 -1.62541E+00 -1.01554E+00  1.40369E-01
   1.55353E+00  3.14052E+00  4.53455E+00  5.27820E+00  5.09572E+00  3.92643E+00  2.03455E+00 -3.81988E-01 -3.05892E+00 -5.12395E+00
  -5.89021E+00 -5.00015E+00 -2.65146E+00  9.45174E-01  4.96789E+00  7.77347E+00  8.04772E+00  5.98560E+00  2.46468E+00 -1.95811E+00
  -6.58982E+00 -1.00784E+01 -1.07409E+01 -8.69327E+00 -5.38234E+00 -1.93639E+00  1.05324E+00  3.13674E+00  3.84356E+00  3.13747E+00
   1.87725E+00  1.02301E+00  9.12824E-01  1.36116E+00  2.08934E+00  2.96239E+00  3.62813E+00  3.53147E+00  2.44914E+00  9.76872E-01
  -4.98985E-01 -1.72774E+00 -2.26351E+00 -1.61496E+00 -1.67863E-01  1.29879E+00  2.40027E+00  3.02117E+00  3.08262E+00  2.65205E+00
   2.48523E+00  3.48667E+00  5.68824E+00  9.40266E+00  1.45149E+01  2.12553E+01  2.81518E+01  3.86145E+01  5.35345E+01  6.49845E+01
   6.55180E+01  5.73568E+01  4.61158E+01  3.37363E+01  2.09045E+01  9.80471E+00  3.64956E+00  1.26986E+00  5.68573E-02 -7.83631E-01
  -1.34583E+00 -1.66104E+00 -1.78892E+00 -1.80990E+00 -1.87515E+00 -2.06071E+00 -2.34499E+00 -2.68471E+00 -3.07702E+00 -3.48090E+00
  -3.80801E+00 -4.01443E+00 -4.14712E+00 -4.26433E+00 -4.38332E+00 -4.50808E+00 -4.65191E+00 -4.81783E+00 -4.98647E+00 -5.12343E+00
  -5.21104E+00 -5.26127E+00 -5.29593E+00 -5.33021E+00 -5.37393E+00 -5.43095E+00 -5.50932E+00 -5.60262E+00 -5.68552E+00 -5.74248E+00
  -5.77548E+00 -5.78962E+00 -5.78921E+00 -5.77925E+00 -5.76569E+00 -5.75326E+00 -5.73946E+00 -5.72090E+00 -5.69534E+00 -5.66011E+00
  -5.61313E+00 -5.55370E+00 -5.48125E+00 -5.39450E+00 -5.29149E+00 -5.17014E+00 -5.02863E+00 -4.86535E+00 -4.67864E+00 -4.46687E+00
  -4.22856E+00 -3.96252E+00 -3.66797E+00 -3.34464E+00 -2.99258E+00 -2.61215E+00 -2.20411E+00 -1.76984E+00 -1.31140E+00 -8.31236E-01
  -3.32006E-01  1.83566E-01  7.12598E-01  1.25202E+00  1.79874E+00  2.34988E+00  2.90301E+00  3.45604E+00  4.00705E+00  4.55419E+00
   5.09562E+00  5.62965E+00  6.15452E+00  6.66817E+00  7.16788E+00  7.65019E+00  8.11098E+00  8.54551E+00  8.94845E+00  9.31383E+00
   9.63511E+00  9.90553E+00  1.01186E+01  1.02683E+01  1.03497E+01  1.03587E+01  1.02924E+01  1.01496E+01  9.93106E+00  9.63917E+00
   9.27820E+00  8.85384E+00  8.37312E+00  7.84426E+00  7.27644E+00  6.67940E+00  6.06297E+00  5.43675E+00  4.80991E+00  4.19109E+00
   3.58825E+00  3.00842E+00  2.45754E+00  1.94049E+00  1.46125E+00  1.02308E+00  6.28516E-01  2.79433E-01 -2.29159E-02 -2.77663E-01
  -4.84091E-01 -6.41506E-01 -7.49243E-01 -8.06721E-01 -8.13402E-01 -7.68706E-01 -6.71976E-01 -5.22601E-01 -3.20273E-01 -6.52002E-02
   2.41755E-01  5.98983E-01  1.00396E+00  1.45298E+00  1.94090E+00  2.46101E+00  3.00513E+00  3.56372E+00  4.12604E+00  4.68030E+00
   5.21393E+00  5.71405E+00  6.16806E+00  6.56422E+00  6.89206E+00  7.14282E+00  7.30974E+00  7.38854E+00  7.37759E+00  7.27803E+00
   7.09352E+00  6.82996E+00  6.49521E+00  6.09869E+00  5.65103E+00  5.16350E+00  4.64746E+00  4.11383E+00  3.57286E+00  3.03384E+00
   2.50497E+00  1.99311E+00  1.50370E+00  1.04076E+00  6.07045E-01  2.04275E-01 -1.66773E-01 -5.06185E-01 -8.14777E-01 -1.09391E+00
  -1.34523E+00 -1.57054E+00 -1.77174E+00 -1.95085E+00 -2.10993E+00 -2.25094E+00 -2.37569E+00 -2.48577E+00 -2.58266E+00 -2.66778E+00
  -2.74246E+00 -2.80785E+00 -2.86490E+00 -2.91442E+00 -2.95719E+00 -2.99394E+00 -3.02537E+00 -3.05200E+00 -3.07425E+00 -3.09249E+00
  -3.10712E+00 -3.11854E+00 -3.12707E+00 -3.13295E+00 -3.13633E+00 -3.13739E+00 -3.13637E+00 -3.13350E+00 -3.12893E+00 -3.12275E+00
  -3.11503E+00 -3.10587E+00 -3.09545E+00 -3.08389E+00 -3.07126E+00 -3.05755E+00 -3.04282E+00 -3.02717E+00 -3.01072E+00 -2.99355E+00
  -2.97564E+00 -2.95699E+00 -2.93764E+00 -2.91767E+00 -2.89718E+00 -2.87619E+00 -2.85467E+00 -2.83260E+00 -2.81006E+00 -2.78712E+00
  -2.76385E+00 -2.74021E+00 -2.71616E+00 -2.69173E+00 -2.66698E+00 -2.64198E+00 -2.61675E+00 -2.59124E+00 -2.56542E+00 -2.53934E+00
  -2.51307E+00 -2.48666E+00 -2.46008E+00 -2.43329E+00 -2.40629E+00 -2.37913E+00 -2.35190E+00 -2.32460E+00
 NY background values follow
     3.677E+01    3.654E+01    3.631E+01    3.608E+01    3.584E+01    3.561E+01    3.538E+01    3.514E+01    3.491E+01    3.468E+01
     3.445E+01    3.421E+01    3.398E+01    3.375E+01    3.352E+01    3.328E+01    3.305E+01    3.282E+01    3.259E+01    3.235E+01
     3.212E+01    3.189E+01    3.166E+01    3.143E+01    3.119E+01    3.096E+01    3.073E+01    3.050E+01    3.027E+01    3.004E+01
     2.981E+01    2.958E+01    2.934E+01    2.911E+01    2.888E+01    2.865E+01    2.842E+01    2.819E+01    2.796E+01    2.774E+01
     2.751E+01    2.728E+01    2.705E+01    2.682E+01    2.659E+01    2.637E+01    2.614E+01    2.591E+01    2.568E+01    2.546E+01
     2.523E+01    2.501E+01    2.478E+01    2.455E+01    2.433E+01    2.411E+01    2.388E+01    2.366E+01    2.343E+01    2.321E+01
     2.299E+01    2.277E+01    2.255E+01    2.232E+01    2.210E+01    2.188E+01    2.166E+01    2.144E+01    2.123E+01    2.101E+01
     2.079E+01    2.057E+01    2.036E+01    2.014E+01    1.993E+01    1.971E+01    1.950E+01    1.928E+01    1.907E+01    1.886E+01
     1.865E+01    1.844E+01    1.823E+01    1.802E+01    1.781E+01    1.760E+01    1.739E+01    1.719E+01    1.698E+01    1.678E+01
     1.657E+01    1.637E+01    1.617E+01    1.596E+01    1.576E+01    1.556E+01    1.536E+01    1.516E+01    1.497E+01    1.477E+01
     1.457E+01    1.438E+01    1.418E+01    1.399E+01    1.380E+01    1.360E+01    1.341E+01    1.322E+01    1.303E+01    1.284E+01
     1.265E+01    1.247E+01    1.228E+01    1.209E+01    1.191E+01    1.172E+01    1.154E+01    1.136E+01    1.117E+01    1.099E+01
     1.081E+01    1.063E+01    1.045E+01    1.028E+01    1.010E+01    9.922E+00    9.746E+00    9.571E+00    9.397E+00    9.224E+00
     9.051E+00    8.879E+00    8.708E+00    8.538E+00    8.369E+00    8.200E+00    8.033E+00    7.866E+00    7.700E+00    7.534E+00
     7.370E+00    7.206E+00    7.043E+00    6.881E+00    6.720E+00    6.560E+00    6.400E+00    6.242E+00    6.084E+00    5.927E+00
     5.771E+00    5.616E+00    5.461E+00    5.308E+00    5.155E+00    5.003E+00    4.852E+00    4.702E+00    4.553E+00    4.405E+00
     4.257E+00    4.111E+00    3.965E+00    3.820E+00    3.677E+00    3.534E+00    3.392E+00    3.251E+00    3.110E+00    2.971E+00
     2.833E+00    2.695E+00    2.559E+00    2.423E+00    2.289E+00    2.155E+00    2.022E+00    1.890E+00    1.760E+00    1.630E+00
     1.501E+00    1.373E+00    1.246E+00    1.120E+00    9.945E-01    8.703E-01    7.471E-01    6.249E-01    5.036E-01    3.832E-01
     2.638E-01    1.453E-01    2.777E-02   -8.885E-02   -2.045E-01   -3.193E-01   -4.331E-01   -5.461E-01   -6.581E-01   -7.691E-01
    -8.793E-01   -9.886E-01   -1.097E+00   -1.204E+00   -1.311E+00   -1.417E+00   -1.521E+00   -1.625E+00   -1.728E+00   -1.830E+00
    -1.932E+00   -2.032E+00   -2.131E+00   -2.230E+00   -2.328E+00   -2.424E+00   -2.520E+00   -2.615E+00   -2.710E+00   -2.803E+00
    -2.896E+00   -2.987E+00   -3.078E+00   -3.168E+00   -3.257E+00   -3.345E+00   -3.433E+00   -3.520E+00   -3.605E+00   -3.690E+00
    -3.774E+00   -3.858E+00   -3.940E+00   -4.022E+00   -4.102E+00   -4.182E+00   -4.261E+00   -4.340E+00   -4.417E+00   -4.494E+00
    -4.569E+00   -4.644E+00   -4.718E+00   -4.791E+00   -4.864E+00   -4.935E+00   -5.006E+00   -5.076E+00   -5.145E+00   -5.213E+00
    -5.280E+00   -5.347E+00   -5.412E+00   -5.477E+00   -5.541E+00   -5.604E+00   -5.666E+00   -5.728E+00   -5.788E+00   -5.848E+00
    -5.907E+00   -5.965E+00   -6.022E+00   -6.079E+00   -6.134E+00   -6.189E+00   -6.243E+00   -6.295E+00   -6.348E+00   -6.399E+00
    -6.449E+00   -6.499E+00   -6.548E+00   -6.596E+00   -6.643E+00   -6.689E+00   -6.734E+00   -6.779E+00   -6.822E+00   -6.865E+00
    -6.907E+00   -6.948E+00   -6.989E+00   -7.028E+00   -7.067E+00   -7.105E+00   -7.142E+00   -7.178E+00   -7.214E+00   -7.248E+00
    -7.282E+00   -7.315E+00   -7.347E+00   -7.378E+00   -7.409E+00   -7.439E+00   -7.468E+00   -7.496E+00   -7.523E+00   -7.549E+00
    -7.575E+00   -7.600E+00   -7.624E+00   -7.648E+00   -7.670E+00   -7.692E+00   -7.713E+00   -7.733E+00   -7.752E+00   -7.771E+00
    -7.789E+00   -7.806E+00   -7.822E+00   -7.837E+00   -7.852E+00   -7.866E+00   -7.879E+00   -7.892E+00   -7.903E+00   -7.914E+00
    -7.924E+00   -7.933E+00   -7.942E+00   -7.950E+00   -7.957E+00   -7.963E+00   -7.969E+00   -7.974E+00   -7.978E+00   -7.982E+00
    -7.985E+00   -7.987E+00   -7.988E+00   -7.989E+00   -7.989E+00   -7.989E+00   -7.988E+00   -7.986E+00   -7.983E+00   -7.980E+00
    -7.976E+00   -7.972E+00   -7.967E+00   -7.961E+00   -7.955E+00   -7.948E+00   -7.940E+00   -7.932E+00   -7.924E+00   -7.914E+00
    -7.904E+00   -7.894E+00   -7.883E+00   -7.871E+00   -7.859E+00   -7.847E+00   -7.833E+00   -7.819E+00   -7.805E+00   -7.790E+00
    -7.775E+00   -7.759E+00   -7.742E+00   -7.726E+00   -7.708E+00   -7.690E+00   -7.672E+00   -7.653E+00   -7.633E+00   -7.614E+00
    -7.593E+00   -7.572E+00   -7.551E+00   -7.529E+00   -7.507E+00   -7.485E+00   -7.462E+00   -7.438E+00   -7.414E+00   -7.390E+00
    -7.365E+00   -7.340E+00   -7.315E+00   -7.289E+00   -7.262E+00   -7.236E+00   -7.209E+00   -7.181E+00   -7.153E+00   -7.125E+00
    -7.097E+00   -7.068E+00   -7.038E+00   -7.009E+00   -6.979E+00   -6.949E+00   -6.918E+00   -6.887E+00   -6.856E+00   -6.825E+00
    -6.793E+00   -6.761E+00   -6.729E+00   -6.696E+00   -6.663E+00   -6.630E+00   -6.597E+00   -6.563E+00   -6.529E+00   -6.495E+00
    -6.460E+00   -6.426E+00   -6.391E+00   -6.356E+00   -6.320E+00   -6.285E+00   -6.249E+00   -6.213E+00   -6.177E+00   -6.141E+00
    -6.104E+00   -6.068E+00   -6.031E+00   -5.994E+00   -5.957E+00   -5.920E+00   -5.882E+00   -5.845E+00   -5.807E+00   -5.770E+00
    -5.732E+00   -5.694E+00   -5.656E+00   -5.618E+00   -5.580E+00   -5.541E+00   -5.503E+00   -5.465E+00   -5.426E+00   -5.388E+00
    -5.349E+00   -5.310E+00   -5.272E+00   -5.233E+00   -5.194E+00   -5.156E+00   -5.117E+00   -5.078E+00   -5.040E+00   -5.001E+00
    -4.962E+00   -4.924E+00   -4.885E+00   -4.847E+00   -4.808E+00   -4.770E+00   -4.731E+00   -4.693E+00   -4.655E+00   -4.616E+00
    -4.578E+00   -4.540E+00   -4.502E+00   -4.464E+00   -4.425E+00   -4.387E+00   -4.349E+00   -4.311E+00   -4.273E+00   -4.235E+00
    -4.197E+00   -4.159E+00   -4.121E+00   -4.084E+00   -4.046E+00   -4.008E+00   -3.970E+00   -3.933E+00   -3.895E+00   -3.857E+00
    -3.820E+00   -3.782E+00   -3.744E+00   -3.707E+00   -3.669E+00   -3.632E+00   -3.594E+00   -3.557E+00   -3.519E+00   -3.482E+00
    -3.444E+00   -3.407E+00   -3.370E+00   -3.332E+00   -3.295E+00   -3.258E+00   -3.220E+00   -3.183E+00
 Asp      Conc. = 1.03E+02
