 LCModel (Version 6.3-1L) Copyright: S.W. Provencher.          Ref.: Magn. Reson. Med. 30:672-679 (1993).                
 Slice#1 Row#11 Col#2  K_02_press_1_raw_act
 36 lines in following concentration table = NCONC+1
    Conc.  %SD /Cr+PCr  Metabolite                                         
    0.000 999%   0.000 Ala                                                 
   17.708 123% 9.8E-02 Asp                                                 
   95.425  41%   0.530 Cr                                                  
   84.733  48%   0.470 PCr                                                 
   13.209  99% 7.3E-02 GABA                                                
    9.392 140% 5.2E-02 Glc                                                 
   32.570 292%   0.181 Gln                                                 
   22.052 507%   0.122 Glu                                                 
   40.204  22%   0.223 GPC                                                 
    0.000 999%   0.000 PCh                                                 
    0.000 999%   0.000 GSH                                                 
    0.000 999%   0.000 Ins                                                 
   86.579  63%   0.481 Lac                                                 
  157.646  19%   0.875 NAA                                                 
   36.083  81%   0.200 NAAG                                                
    4.759  88% 2.6E-02 Scyllo                                              
   10.174 212% 5.6E-02 Tau                                                 
    0.000 999%   0.000 -CrCH2                                              
   40.204  22%   0.223 GPC+PCh                                             
  193.729  17%   1.075 NAA+NAAG                                            
  180.158  15%   1.000 Cr+PCr                                              
   54.622 284%   0.303 Glu+Gln                                             
  268.538  48%   1.491 Lip13a                                              
    0.000 999%   0.000 Lip13b                                              
    0.000 999%   0.000 Lip09                                               
    0.000 999%   0.000 MM09                                                
   57.032  82%   0.317 Lip20                                               
    0.000 999%   0.000 MM20                                                
 8.10E-04 999% 4.5E-06 MM12                                                
 1.17E-04 999% 6.5E-07 MM14                                                
    0.000 999%   0.000 MM17                                                
  268.538  48%   1.491 Lip13a+Lip13b                                       
  268.539  48%   1.491 MM14+Lip13a+Lip13b+MM12                             
    0.000 999%   0.000 MM09+Lip09                                          
   57.032  82%   0.317 MM20+Lip20                                          
   6 lines in following misc. output table
  FWHM = 0.069 ppm    S/N =   2                                            
  Data shift = 0.008 ppm                                                   
  Ph: 111 deg      33.6 deg/ppm                                            
  alphaB,S = 6.2E-01,   6.4E+00                                            
   14 spline knots.   Ns = 7(1)                                            
  (11) 3 infls.   ( 8) 3 extrs.                                            
  498 points on ppm-axis = NY
      4.000000     3.992357     3.984714     3.977070     3.969427     3.961784     3.954141     3.946497     3.938854     3.931211
      3.923568     3.915925     3.908281     3.900638     3.892995     3.885352     3.877708     3.870065     3.862422     3.854779
      3.847136     3.839492     3.831849     3.824206     3.816563     3.808919     3.801276     3.793633     3.785990     3.778347
      3.770703     3.763060     3.755417     3.747774     3.740130     3.732487     3.724844     3.717201     3.709558     3.701914
      3.694271     3.686628     3.678985     3.671341     3.663698     3.656055     3.648412     3.640769     3.633125     3.625482
      3.617839     3.610196     3.602552     3.594909     3.587266     3.579623     3.571980     3.564336     3.556693     3.549050
      3.541407     3.533763     3.526120     3.518477     3.510834     3.503191     3.495547     3.487904     3.480261     3.472618
      3.464974     3.457331     3.449688     3.442045     3.434402     3.426758     3.419115     3.411472     3.403829     3.396185
      3.388542     3.380899     3.373256     3.365613     3.357969     3.350326     3.342683     3.335040     3.327396     3.319753
      3.312110     3.304467     3.296824     3.289180     3.281537     3.273894     3.266251     3.258607     3.250964     3.243321
      3.235678     3.228034     3.220391     3.212748     3.205105     3.197462     3.189818     3.182175     3.174532     3.166889
      3.159245     3.151602     3.143959     3.136316     3.128673     3.121029     3.113386     3.105743     3.098100     3.090456
      3.082813     3.075170     3.067527     3.059884     3.052240     3.044597     3.036954     3.029311     3.021667     3.014024
      3.006381     2.998738     2.991095     2.983451     2.975808     2.968165     2.960522     2.952878     2.945235     2.937592
      2.929949     2.922306     2.914662     2.907019     2.899376     2.891733     2.884089     2.876446     2.868803     2.861160
      2.853517     2.845873     2.838230     2.830587     2.822944     2.815300     2.807657     2.800014     2.792371     2.784728
      2.777084     2.769441     2.761798     2.754155     2.746511     2.738868     2.731225     2.723582     2.715939     2.708295
      2.700652     2.693009     2.685366     2.677722     2.670079     2.662436     2.654793     2.647150     2.639506     2.631863
      2.624220     2.616577     2.608933     2.601290     2.593647     2.586004     2.578361     2.570717     2.563074     2.555431
      2.547788     2.540144     2.532501     2.524858     2.517215     2.509572     2.501928     2.494285     2.486642     2.478999
      2.471355     2.463712     2.456069     2.448426     2.440783     2.433139     2.425496     2.417853     2.410210     2.402566
      2.394923     2.387280     2.379637     2.371994     2.364350     2.356707     2.349064     2.341421     2.333777     2.326134
      2.318491     2.310848     2.303205     2.295561     2.287918     2.280275     2.272632     2.264988     2.257345     2.249702
      2.242059     2.234416     2.226772     2.219129     2.211486     2.203843     2.196199     2.188556     2.180913     2.173270
      2.165627     2.157983     2.150340     2.142697     2.135054     2.127410     2.119767     2.112124     2.104481     2.096838
      2.089194     2.081551     2.073908     2.066265     2.058621     2.050978     2.043335     2.035692     2.028049     2.020405
      2.012762     2.005119     1.997476     1.989833     1.982190     1.974546     1.966903     1.959260     1.951617     1.943974
      1.936331     1.928688     1.921045     1.913402     1.905759     1.898115     1.890472     1.882829     1.875186     1.867543
      1.859900     1.852257     1.844614     1.836971     1.829327     1.821684     1.814041     1.806398     1.798755     1.791112
      1.783469     1.775826     1.768183     1.760540     1.752896     1.745253     1.737610     1.729967     1.722324     1.714681
      1.707038     1.699395     1.691752     1.684108     1.676465     1.668822     1.661179     1.653536     1.645893     1.638250
      1.630607     1.622964     1.615321     1.607677     1.600034     1.592391     1.584748     1.577105     1.569462     1.561819
      1.554176     1.546533     1.538890     1.531246     1.523603     1.515960     1.508317     1.500674     1.493031     1.485388
      1.477745     1.470102     1.462458     1.454815     1.447172     1.439529     1.431886     1.424243     1.416600     1.408957
      1.401314     1.393671     1.386027     1.378384     1.370741     1.363098     1.355455     1.347812     1.340169     1.332526
      1.324883     1.317240     1.309596     1.301953     1.294310     1.286667     1.279024     1.271381     1.263738     1.256095
      1.248452     1.240808     1.233165     1.225522     1.217879     1.210236     1.202593     1.194950     1.187307     1.179664
      1.172021     1.164377     1.156734     1.149091     1.141448     1.133805     1.126162     1.118519     1.110876     1.103233
      1.095590     1.087946     1.080303     1.072660     1.065017     1.057374     1.049731     1.042088     1.034445     1.026802
      1.019158     1.011515     1.003872     0.996229     0.988586     0.980943     0.973300     0.965657     0.958014     0.950371
      0.942727     0.935084     0.927441     0.919798     0.912155     0.904512     0.896869     0.889226     0.881583     0.873940
      0.866296     0.858653     0.851010     0.843367     0.835724     0.828081     0.820438     0.812795     0.805152     0.797508
      0.789865     0.782222     0.774579     0.766936     0.759293     0.751650     0.744007     0.736364     0.728721     0.721077
      0.713434     0.705791     0.698148     0.690505     0.682862     0.675219     0.667576     0.659933     0.652290     0.644646
      0.637003     0.629360     0.621717     0.614074     0.606431     0.598788     0.591145     0.583502     0.575858     0.568215
      0.560572     0.552929     0.545286     0.537643     0.530000     0.522357     0.514714     0.507071     0.499427     0.491784
      0.484141     0.476498     0.468855     0.461212     0.453569     0.445925     0.438282     0.430639     0.422996     0.415353
      0.407710     0.400067     0.392424     0.384780     0.377137     0.369494     0.361851     0.354208     0.346565     0.338922
      0.331278     0.323635     0.315992     0.308349     0.300706     0.293063     0.285420     0.277777     0.270133     0.262490
      0.254847     0.247204     0.239561     0.231918     0.224275     0.216631     0.208988     0.201345
 NY phased data points follow
   8.15888E+01  8.17311E+01  8.04377E+01  7.60602E+01  7.80194E+01  7.76213E+01  7.78288E+01  7.53228E+01  7.12186E+01  7.50475E+01
   7.62132E+01  7.24684E+01  6.95204E+01  7.03036E+01  6.69582E+01  6.79302E+01  6.57619E+01  6.43748E+01  6.27430E+01  6.02530E+01
   5.96773E+01  5.94976E+01  6.27953E+01  5.93605E+01  5.87529E+01  5.95851E+01  5.86229E+01  5.71330E+01  5.38601E+01  5.49967E+01
   5.79895E+01  5.54369E+01  5.31387E+01  5.59336E+01  5.70544E+01  5.71148E+01  5.19937E+01  5.33220E+01  5.39934E+01  5.21271E+01
   5.40177E+01  5.08539E+01  4.83080E+01  4.90459E+01  4.95592E+01  4.80692E+01  5.17263E+01  4.60851E+01  5.01312E+01  4.60428E+01
   4.73053E+01  4.61018E+01  4.61855E+01  4.40938E+01  4.47119E+01  4.33211E+01  4.48429E+01  4.12817E+01  4.21212E+01  3.67939E+01
   4.10437E+01  3.72684E+01  3.67302E+01  3.89188E+01  3.76465E+01  3.78250E+01  3.75416E+01  3.89783E+01  3.58125E+01  3.33533E+01
   3.68921E+01  3.48559E+01  3.37700E+01  3.28252E+01  3.32519E+01  3.57740E+01  3.57628E+01  3.43552E+01  3.09187E+01  3.20367E+01
   3.61665E+01  3.06952E+01  3.21068E+01  3.27327E+01  3.24270E+01  3.08271E+01  3.04817E+01  3.17502E+01  3.03253E+01  2.76909E+01
   2.88834E+01  2.96781E+01  2.80553E+01  2.77646E+01  2.93138E+01  2.91061E+01  2.89026E+01  2.99200E+01  3.11717E+01  2.96064E+01
   2.75895E+01  2.80842E+01  3.26139E+01  2.93864E+01  2.62651E+01  2.70209E+01  2.73876E+01  2.39301E+01  2.20910E+01  2.54114E+01
   2.36760E+01  2.29729E+01  2.04208E+01  2.18480E+01  2.25125E+01  2.41269E+01  2.32776E+01  2.11184E+01  2.20608E+01  2.41745E+01
   2.27562E+01  2.48510E+01  2.50778E+01  2.40653E+01  2.42131E+01  2.20918E+01  2.46625E+01  2.55041E+01  2.24720E+01  2.40103E+01
   2.17598E+01  1.88264E+01  1.78801E+01  1.93145E+01  2.03938E+01  1.88336E+01  1.70458E+01  1.88539E+01  1.84243E+01  1.79015E+01
   1.85898E+01  2.06289E+01  1.78158E+01  1.40369E+01  1.64647E+01  1.74268E+01  1.80035E+01  1.85454E+01  1.88934E+01  1.56952E+01
   1.84499E+01  1.69200E+01  1.82355E+01  1.61897E+01  1.59652E+01  1.79476E+01  1.72514E+01  1.72462E+01  1.49293E+01  1.46361E+01
   1.44087E+01  1.47568E+01  1.41352E+01  1.45551E+01  1.67065E+01  1.54850E+01  1.34231E+01  1.07892E+01  1.24159E+01  9.82749E+00
   1.12766E+01  1.27731E+01  1.30867E+01  1.05468E+01  1.13288E+01  1.12142E+01  1.12661E+01  1.12508E+01  9.73591E+00  1.21199E+01
   1.25801E+01  8.88844E+00  1.11500E+01  1.16141E+01  8.22867E+00  9.77276E+00  1.01734E+01  1.14441E+01  7.51392E+00  7.10690E+00
   9.12408E+00  1.04156E+01  9.64977E+00  7.56383E+00  9.40831E+00  7.31879E+00  8.26056E+00  9.30303E+00  6.68125E+00  9.12986E+00
   5.37482E+00  6.67148E+00  7.05357E+00  1.16269E+01  8.65840E+00  9.46459E+00  5.59608E+00  5.53371E+00  8.09574E+00  3.33400E+00
   4.31697E+00  6.22524E+00  9.53522E+00  5.20204E+00  4.20342E+00  7.07486E+00  5.67217E+00  4.44927E+00  2.04452E+00  6.12343E+00
   2.10378E+00  4.42112E+00  1.83587E+00  5.54526E+00  5.96682E+00  6.57481E+00  5.03385E+00  4.14314E+00  3.13376E+00  2.25869E+00
   5.18148E+00  1.06659E+00  1.86600E-01  5.52558E+00  2.56212E+00  2.99970E+00  4.48829E+00  5.95933E+00  4.11889E+00  4.20849E+00
   3.17454E+00  4.47140E+00 -1.29898E+00  1.81823E+00  2.12392E+00  1.66883E+00 -2.51416E-01  4.87749E-01  5.19102E+00  2.82436E+00
   3.34419E+00  3.53588E+00  1.92058E+00  6.81727E+00  7.71665E+00  8.29978E+00  5.99953E+00  3.79388E+00  3.55627E+00  5.80857E+00
   7.19273E+00  6.05724E+00  3.64016E+00 -7.89098E-01 -6.53810E-01 -2.60613E+00  1.20179E+00  1.56992E+00 -1.79156E+00  2.53363E+00
  -2.67881E-01  1.66662E+00  1.30126E+00  9.92528E-01 -8.74201E-01 -4.66235E-01 -2.29223E+00 -3.03014E+00  1.91501E+00  3.46537E-02
  -1.36646E+00  2.33475E-02  1.76582E+00 -1.69924E+00 -1.61998E+00 -6.40830E-01 -1.10882E+00 -2.56241E-01 -2.73000E-01 -1.62437E+00
  -7.02784E-01 -2.63231E+00  8.55453E-01  4.29893E-01 -2.38972E+00 -2.61210E+00 -2.51027E+00 -1.81175E+00 -2.71503E+00 -1.18417E+00
  -7.94772E-01 -3.01537E+00 -3.40883E+00 -5.90967E-01 -1.81098E+00 -3.65989E+00 -5.26664E+00 -4.50100E+00 -3.57677E-01 -2.36550E+00
  -5.51490E+00 -2.20904E+00 -2.29638E+00 -5.11065E+00 -4.15121E+00 -3.72734E+00 -4.16866E+00 -4.03255E+00 -1.57730E+00 -4.24667E+00
  -3.55514E+00 -3.75655E+00 -5.49365E-01 -3.65183E+00 -4.26881E+00 -3.88575E+00 -1.30319E+00 -3.19753E+00 -1.86753E+00 -2.89142E+00
  -3.11351E+00 -3.17840E+00 -4.62709E+00 -5.10610E+00 -4.71020E+00 -3.34532E+00 -5.02850E+00 -2.57338E+00 -3.03521E+00 -3.96440E+00
  -5.07647E+00 -3.05135E+00 -3.76170E+00 -5.30252E+00 -3.92616E+00 -4.25176E+00 -1.37218E+00 -5.79718E+00 -6.87909E+00 -3.75004E+00
  -2.89409E+00 -6.99411E+00 -5.15628E+00 -4.68011E+00 -5.87557E+00 -1.21886E+00 -4.53127E+00 -1.23439E+00 -6.90122E+00 -3.91995E+00
  -4.59384E+00 -5.42289E+00 -5.61320E+00 -3.16174E+00 -4.98357E+00 -3.52662E+00 -3.42396E+00 -3.93494E+00 -6.43299E+00 -2.96683E+00
  -4.94760E+00 -3.49727E+00 -6.37382E+00 -4.50018E+00 -2.51779E+00 -4.02096E+00 -4.02696E+00 -7.00191E+00 -8.01409E+00 -8.05475E+00
  -5.70589E+00 -6.23468E+00 -2.92260E+00 -6.20942E+00 -4.51229E+00 -4.25882E+00 -3.31776E+00 -8.25252E+00 -6.58350E+00 -7.24015E+00
  -6.26189E+00 -5.92159E+00 -6.09686E+00 -6.41172E+00 -7.40446E+00 -7.50768E+00 -7.37870E+00 -9.92136E+00 -7.44301E+00 -7.78966E+00
  -9.31675E+00 -5.87904E+00 -8.88838E+00 -7.89220E+00 -9.70820E+00 -9.24054E+00 -1.03083E+01 -9.75351E+00 -8.21324E+00 -7.24189E+00
  -8.03153E+00 -8.16805E+00 -1.06536E+01 -1.06255E+01 -8.94150E+00 -4.90552E+00 -7.78687E+00 -9.88353E+00 -8.95626E+00 -1.16317E+01
  -8.40439E+00 -6.82485E+00 -9.35419E+00 -6.84672E+00 -8.98267E+00 -6.38998E+00 -1.07618E+01 -7.69222E+00 -8.59332E+00 -5.93735E+00
  -7.56620E+00 -7.71139E+00 -8.78762E+00 -1.09933E+01 -8.70018E+00 -7.81160E+00 -6.79879E+00 -7.55725E+00 -6.78314E+00 -1.02683E+01
  -7.66147E+00 -4.70466E+00 -8.21105E+00 -8.69035E+00 -9.32982E+00 -8.47607E+00 -9.97184E+00 -7.17506E+00 -1.08580E+01 -8.09536E+00
  -1.01606E+01 -7.46191E+00 -8.24583E+00 -8.10933E+00 -8.89593E+00 -9.25771E+00 -7.92307E+00 -9.12746E+00 -6.00679E+00 -7.58406E+00
  -9.03099E+00 -8.77513E+00 -9.71376E+00 -9.76504E+00 -9.30687E+00 -1.02956E+01 -1.04095E+01 -1.01469E+01 -1.28837E+01 -1.03192E+01
  -9.37037E+00 -6.67548E+00 -7.29905E+00 -8.09343E+00 -1.03501E+01 -1.02307E+01 -1.11057E+01 -5.40029E+00 -7.61163E+00 -8.60902E+00
  -9.34907E+00 -1.11510E+01 -9.76873E+00 -8.01182E+00 -8.39410E+00 -9.76197E+00 -7.15559E+00 -1.08385E+01 -4.77082E+00 -1.02943E+01
  -7.05781E+00 -5.89979E+00 -6.90279E+00 -5.81363E+00 -5.47412E+00 -6.42390E+00 -7.11770E+00 -6.33878E+00
 NY points of the fit to the data follow
   7.50921E+01  7.49696E+01  7.54026E+01  7.53814E+01  7.50336E+01  7.49856E+01  7.46260E+01  7.39734E+01  7.32272E+01  7.26172E+01
   7.22258E+01  7.14013E+01  6.97499E+01  6.80350E+01  6.68600E+01  6.58711E+01  6.49553E+01  6.46103E+01  6.42456E+01  6.35001E+01
   6.28253E+01  6.21958E+01  6.16107E+01  6.10547E+01  6.04911E+01  5.99519E+01  5.94085E+01  5.88085E+01  5.81661E+01  5.75466E+01
   5.70083E+01  5.65207E+01  5.60432E+01  5.55462E+01  5.49266E+01  5.42315E+01  5.36166E+01  5.31263E+01  5.26455E+01  5.21293E+01
   5.16069E+01  5.10673E+01  5.04844E+01  4.99239E+01  4.94445E+01  4.89999E+01  4.84404E+01  4.78024E+01  4.72871E+01  4.68530E+01
   4.63547E+01  4.58253E+01  4.53277E+01  4.48018E+01  4.42498E+01  4.37339E+01  4.32493E+01  4.27588E+01  4.22728E+01  4.18015E+01
   4.13445E+01  4.08871E+01  4.04301E+01  3.99700E+01  3.95140E+01  3.90737E+01  3.86439E+01  3.82139E+01  3.78017E+01  3.74059E+01
   3.69888E+01  3.65505E+01  3.61159E+01  3.57065E+01  3.53280E+01  3.49595E+01  3.45679E+01  3.41633E+01  3.37765E+01  3.34956E+01
   3.32398E+01  3.28733E+01  3.24239E+01  3.20131E+01  3.17247E+01  3.14795E+01  3.11362E+01  3.06924E+01  3.02327E+01  2.97838E+01
   2.93760E+01  2.90768E+01  2.88543E+01  2.85777E+01  2.83177E+01  2.84503E+01  2.99551E+01  3.13865E+01  3.08963E+01  2.92823E+01
   2.83196E+01  2.88854E+01  2.99418E+01  2.98782E+01  2.86730E+01  2.71309E+01  2.54232E+01  2.39561E+01  2.36136E+01  2.40713E+01
   2.39838E+01  2.35806E+01  2.33500E+01  2.31026E+01  2.28597E+01  2.26329E+01  2.24167E+01  2.22281E+01  2.21719E+01  2.28577E+01
   2.51907E+01  2.71609E+01  2.65783E+01  2.46224E+01  2.36795E+01  2.47307E+01  2.62863E+01  2.62989E+01  2.47348E+01  2.26283E+01
   2.03323E+01  1.85000E+01  1.82066E+01  1.88812E+01  1.89184E+01  1.85427E+01  1.83465E+01  1.81735E+01  1.80116E+01  1.78515E+01
   1.76659E+01  1.74568E+01  1.72511E+01  1.70586E+01  1.68890E+01  1.67301E+01  1.65557E+01  1.63533E+01  1.61408E+01  1.59522E+01
   1.57897E+01  1.56423E+01  1.54885E+01  1.52739E+01  1.49862E+01  1.47421E+01  1.46059E+01  1.45397E+01  1.44661E+01  1.42434E+01
   1.39278E+01  1.36720E+01  1.35178E+01  1.34213E+01  1.33420E+01  1.32118E+01  1.29968E+01  1.27356E+01  1.24644E+01  1.21862E+01
   1.20055E+01  1.19636E+01  1.19063E+01  1.17519E+01  1.14433E+01  1.11313E+01  1.09912E+01  1.10006E+01  1.09849E+01  1.08361E+01
   1.05626E+01  1.03346E+01  1.02578E+01  1.02711E+01  1.02357E+01  1.00878E+01  9.88758E+00  9.71248E+00  9.60523E+00  9.53800E+00
   9.49410E+00  9.34107E+00  9.05828E+00  8.79922E+00  8.66945E+00  8.59745E+00  8.52487E+00  8.45670E+00  8.33713E+00  8.15230E+00
   7.93489E+00  7.75442E+00  7.60789E+00  7.39503E+00  7.15545E+00  6.98805E+00  6.76920E+00  6.50381E+00  6.28591E+00  6.19314E+00
   6.14647E+00  6.03880E+00  5.92094E+00  5.87952E+00  5.86328E+00  5.74315E+00  5.56984E+00  5.47009E+00  5.37384E+00  5.19908E+00
   5.02139E+00  4.87385E+00  4.78007E+00  4.70141E+00  4.59662E+00  4.49072E+00  4.40001E+00  4.28653E+00  4.12617E+00  3.91946E+00
   3.74066E+00  3.64149E+00  3.60739E+00  3.58166E+00  3.51856E+00  3.38769E+00  3.17986E+00  3.01477E+00  2.93415E+00  2.88077E+00
   2.78821E+00  2.62869E+00  2.43724E+00  2.28618E+00  2.17063E+00  2.09184E+00  2.05880E+00  2.03864E+00  2.13235E+00  2.63813E+00
   2.96877E+00  2.77879E+00  2.67521E+00  4.52749E+00  7.42897E+00  7.93547E+00  6.18180E+00  4.56964E+00  4.89475E+00  6.28428E+00
   6.64386E+00  5.64018E+00  4.15406E+00  2.17678E+00  2.42215E-01 -3.44325E-01  4.39027E-01  7.57947E-01  4.10511E-01  3.19223E-01
   2.30699E-01  1.28789E-01  3.58412E-02 -4.28469E-02 -1.26988E-01 -2.27915E-01 -3.34363E-01 -4.36139E-01 -5.38085E-01 -6.33052E-01
  -7.19340E-01 -8.00525E-01 -8.79136E-01 -9.59585E-01 -1.03842E+00 -1.10769E+00 -1.17564E+00 -1.25153E+00 -1.33095E+00 -1.41079E+00
  -1.48786E+00 -1.55825E+00 -1.62941E+00 -1.70388E+00 -1.77554E+00 -1.84604E+00 -1.92014E+00 -1.99461E+00 -2.06498E+00 -2.13305E+00
  -2.19970E+00 -2.26434E+00 -2.32714E+00 -2.38951E+00 -2.45365E+00 -2.51850E+00 -2.58169E+00 -2.64460E+00 -2.70701E+00 -2.76830E+00
  -2.82867E+00 -2.88832E+00 -2.94752E+00 -3.00618E+00 -3.06396E+00 -3.12065E+00 -3.17639E+00 -3.23133E+00 -3.28546E+00 -3.33855E+00
  -3.39034E+00 -3.44073E+00 -3.48984E+00 -3.53777E+00 -3.58426E+00 -3.62886E+00 -3.67117E+00 -3.71106E+00 -3.74849E+00 -3.78322E+00
  -3.81453E+00 -3.84143E+00 -3.86293E+00 -3.87809E+00 -3.88543E+00 -3.88219E+00 -3.86313E+00 -3.81819E+00 -3.72411E+00 -3.50601E+00
  -3.02499E+00 -2.86380E+00 -3.45446E+00 -4.14121E+00 -4.34517E+00 -4.10354E+00 -4.04962E+00 -4.59077E+00 -4.86553E+00 -4.62735E+00
  -4.59715E+00 -4.89171E+00 -4.93184E+00 -4.44215E+00 -3.83415E+00 -3.40976E+00 -3.20368E+00 -3.24758E+00 -3.56313E+00 -4.10051E+00
  -4.44578E+00 -4.42871E+00 -4.46091E+00 -4.59030E+00 -4.69174E+00 -4.79443E+00 -4.89941E+00 -5.00526E+00 -5.11121E+00 -5.21672E+00
  -5.32132E+00 -5.42452E+00 -5.52585E+00 -5.62493E+00 -5.72150E+00 -5.81540E+00 -5.90654E+00 -5.99486E+00 -6.08033E+00 -6.16297E+00
  -6.24287E+00 -6.32015E+00 -6.39494E+00 -6.46738E+00 -6.53759E+00 -6.60570E+00 -6.67183E+00 -6.73613E+00 -6.79872E+00 -6.85972E+00
  -6.91921E+00 -6.97727E+00 -7.03396E+00 -7.08937E+00 -7.14356E+00 -7.19661E+00 -7.24853E+00 -7.29934E+00 -7.34906E+00 -7.39775E+00
  -7.44544E+00 -7.49214E+00 -7.53784E+00 -7.58254E+00 -7.62624E+00 -7.66898E+00 -7.71076E+00 -7.75159E+00 -7.79142E+00 -7.83028E+00
  -7.86817E+00 -7.90515E+00 -7.94122E+00 -7.97639E+00 -8.01062E+00 -8.04392E+00 -8.07633E+00 -8.10787E+00 -8.13856E+00 -8.16835E+00
  -8.19724E+00 -8.22523E+00 -8.25238E+00 -8.27869E+00 -8.30414E+00 -8.32872E+00 -8.35241E+00 -8.37523E+00 -8.39723E+00 -8.41841E+00
  -8.43873E+00 -8.45817E+00 -8.47674E+00 -8.49447E+00 -8.51139E+00 -8.52748E+00 -8.54270E+00 -8.55704E+00 -8.57053E+00 -8.58320E+00
  -8.59506E+00 -8.60607E+00 -8.61621E+00 -8.62548E+00 -8.63391E+00 -8.64153E+00 -8.64832E+00 -8.65426E+00 -8.65932E+00 -8.66352E+00
  -8.66689E+00 -8.66945E+00 -8.67117E+00 -8.67202E+00 -8.67201E+00 -8.67119E+00 -8.66959E+00 -8.66724E+00 -8.66412E+00 -8.66020E+00
  -8.65551E+00 -8.65012E+00 -8.64405E+00 -8.63729E+00 -8.62983E+00 -8.62167E+00 -8.61284E+00 -8.60341E+00 -8.59338E+00 -8.58274E+00
  -8.57146E+00 -8.55958E+00 -8.54714E+00 -8.53419E+00 -8.52072E+00 -8.50671E+00 -8.49214E+00 -8.47707E+00 -8.46155E+00 -8.44559E+00
  -8.42919E+00 -8.41232E+00 -8.39499E+00 -8.37726E+00 -8.35918E+00 -8.34074E+00 -8.32193E+00 -8.30273E+00 -8.28317E+00 -8.26331E+00
  -8.24320E+00 -8.22280E+00 -8.20210E+00 -8.18111E+00 -8.15987E+00 -8.13844E+00 -8.11684E+00 -8.09504E+00
 NY background values follow
     7.476E+01    7.415E+01    7.354E+01    7.293E+01    7.233E+01    7.172E+01    7.111E+01    7.050E+01    6.990E+01    6.929E+01
     6.869E+01    6.808E+01    6.748E+01    6.688E+01    6.627E+01    6.567E+01    6.507E+01    6.448E+01    6.388E+01    6.329E+01
     6.269E+01    6.210E+01    6.151E+01    6.092E+01    6.034E+01    5.975E+01    5.917E+01    5.859E+01    5.802E+01    5.744E+01
     5.687E+01    5.630E+01    5.573E+01    5.517E+01    5.461E+01    5.405E+01    5.349E+01    5.294E+01    5.239E+01    5.185E+01
     5.130E+01    5.077E+01    5.023E+01    4.970E+01    4.917E+01    4.865E+01    4.813E+01    4.761E+01    4.710E+01    4.659E+01
     4.609E+01    4.559E+01    4.510E+01    4.460E+01    4.412E+01    4.363E+01    4.315E+01    4.268E+01    4.221E+01    4.174E+01
     4.128E+01    4.082E+01    4.037E+01    3.992E+01    3.947E+01    3.903E+01    3.860E+01    3.816E+01    3.773E+01    3.731E+01
     3.689E+01    3.648E+01    3.607E+01    3.566E+01    3.526E+01    3.486E+01    3.447E+01    3.408E+01    3.370E+01    3.332E+01
     3.294E+01    3.257E+01    3.221E+01    3.185E+01    3.149E+01    3.114E+01    3.079E+01    3.045E+01    3.011E+01    2.978E+01
     2.945E+01    2.912E+01    2.881E+01    2.849E+01    2.818E+01    2.788E+01    2.757E+01    2.728E+01    2.699E+01    2.670E+01
     2.641E+01    2.613E+01    2.586E+01    2.558E+01    2.531E+01    2.505E+01    2.479E+01    2.453E+01    2.427E+01    2.402E+01
     2.377E+01    2.353E+01    2.329E+01    2.305E+01    2.281E+01    2.258E+01    2.235E+01    2.212E+01    2.190E+01    2.168E+01
     2.146E+01    2.124E+01    2.102E+01    2.081E+01    2.060E+01    2.039E+01    2.019E+01    1.998E+01    1.978E+01    1.958E+01
     1.938E+01    1.918E+01    1.899E+01    1.879E+01    1.860E+01    1.841E+01    1.822E+01    1.803E+01    1.784E+01    1.765E+01
     1.747E+01    1.728E+01    1.710E+01    1.692E+01    1.674E+01    1.656E+01    1.638E+01    1.620E+01    1.602E+01    1.585E+01
     1.567E+01    1.550E+01    1.532E+01    1.515E+01    1.498E+01    1.481E+01    1.464E+01    1.447E+01    1.430E+01    1.413E+01
     1.397E+01    1.380E+01    1.363E+01    1.347E+01    1.330E+01    1.314E+01    1.298E+01    1.282E+01    1.265E+01    1.249E+01
     1.233E+01    1.217E+01    1.201E+01    1.185E+01    1.170E+01    1.154E+01    1.138E+01    1.122E+01    1.106E+01    1.091E+01
     1.075E+01    1.060E+01    1.044E+01    1.029E+01    1.013E+01    9.976E+00    9.822E+00    9.668E+00    9.515E+00    9.362E+00
     9.210E+00    9.058E+00    8.906E+00    8.756E+00    8.605E+00    8.456E+00    8.307E+00    8.158E+00    8.010E+00    7.863E+00
     7.717E+00    7.571E+00    7.426E+00    7.282E+00    7.138E+00    6.995E+00    6.853E+00    6.712E+00    6.572E+00    6.433E+00
     6.294E+00    6.156E+00    6.020E+00    5.884E+00    5.749E+00    5.615E+00    5.482E+00    5.350E+00    5.220E+00    5.090E+00
     4.961E+00    4.834E+00    4.707E+00    4.582E+00    4.458E+00    4.335E+00    4.213E+00    4.093E+00    3.973E+00    3.855E+00
     3.738E+00    3.623E+00    3.508E+00    3.394E+00    3.282E+00    3.171E+00    3.060E+00    2.951E+00    2.843E+00    2.736E+00
     2.630E+00    2.525E+00    2.421E+00    2.318E+00    2.216E+00    2.115E+00    2.015E+00    1.916E+00    1.818E+00    1.721E+00
     1.624E+00    1.529E+00    1.434E+00    1.340E+00    1.247E+00    1.155E+00    1.063E+00    9.727E-01    8.829E-01    7.938E-01
     7.054E-01    6.178E-01    5.309E-01    4.447E-01    3.592E-01    2.744E-01    1.902E-01    1.067E-01    2.381E-02   -5.846E-02
    -1.401E-01   -2.212E-01   -3.017E-01   -3.817E-01   -4.610E-01   -5.399E-01   -6.181E-01   -6.958E-01   -7.730E-01   -8.496E-01
    -9.256E-01   -1.001E+00   -1.076E+00   -1.151E+00   -1.225E+00   -1.298E+00   -1.371E+00   -1.443E+00   -1.515E+00   -1.586E+00
    -1.657E+00   -1.728E+00   -1.797E+00   -1.867E+00   -1.936E+00   -2.004E+00   -2.072E+00   -2.139E+00   -2.206E+00   -2.273E+00
    -2.339E+00   -2.404E+00   -2.469E+00   -2.534E+00   -2.598E+00   -2.662E+00   -2.725E+00   -2.788E+00   -2.851E+00   -2.913E+00
    -2.974E+00   -3.035E+00   -3.096E+00   -3.156E+00   -3.216E+00   -3.276E+00   -3.335E+00   -3.393E+00   -3.452E+00   -3.510E+00
    -3.567E+00   -3.624E+00   -3.681E+00   -3.738E+00   -3.794E+00   -3.850E+00   -3.905E+00   -3.960E+00   -4.015E+00   -4.070E+00
    -4.124E+00   -4.179E+00   -4.233E+00   -4.286E+00   -4.340E+00   -4.393E+00   -4.446E+00   -4.499E+00   -4.552E+00   -4.605E+00
    -4.657E+00   -4.709E+00   -4.761E+00   -4.814E+00   -4.866E+00   -4.917E+00   -4.969E+00   -5.021E+00   -5.073E+00   -5.124E+00
    -5.176E+00   -5.227E+00   -5.279E+00   -5.330E+00   -5.382E+00   -5.434E+00   -5.485E+00   -5.537E+00   -5.588E+00   -5.640E+00
    -5.692E+00   -5.744E+00   -5.796E+00   -5.848E+00   -5.900E+00   -5.952E+00   -6.004E+00   -6.057E+00   -6.109E+00   -6.161E+00
    -6.213E+00   -6.265E+00   -6.317E+00   -6.369E+00   -6.421E+00   -6.473E+00   -6.524E+00   -6.575E+00   -6.626E+00   -6.677E+00
    -6.728E+00   -6.778E+00   -6.828E+00   -6.878E+00   -6.927E+00   -6.977E+00   -7.025E+00   -7.074E+00   -7.122E+00   -7.169E+00
    -7.216E+00   -7.263E+00   -7.309E+00   -7.355E+00   -7.400E+00   -7.445E+00   -7.489E+00   -7.533E+00   -7.576E+00   -7.618E+00
    -7.660E+00   -7.701E+00   -7.741E+00   -7.781E+00   -7.820E+00   -7.858E+00   -7.896E+00   -7.933E+00   -7.969E+00   -8.004E+00
    -8.038E+00   -8.072E+00   -8.105E+00   -8.137E+00   -8.169E+00   -8.199E+00   -8.229E+00   -8.258E+00   -8.286E+00   -8.314E+00
    -8.341E+00   -8.366E+00   -8.391E+00   -8.416E+00   -8.439E+00   -8.462E+00   -8.484E+00   -8.505E+00   -8.525E+00   -8.545E+00
    -8.564E+00   -8.582E+00   -8.599E+00   -8.615E+00   -8.630E+00   -8.645E+00   -8.659E+00   -8.672E+00   -8.684E+00   -8.696E+00
    -8.706E+00   -8.716E+00   -8.725E+00   -8.734E+00   -8.741E+00   -8.747E+00   -8.753E+00   -8.758E+00   -8.762E+00   -8.765E+00
    -8.768E+00   -8.770E+00   -8.770E+00   -8.770E+00   -8.769E+00   -8.768E+00   -8.765E+00   -8.762E+00   -8.758E+00   -8.753E+00
    -8.748E+00   -8.742E+00   -8.735E+00   -8.727E+00   -8.719E+00   -8.710E+00   -8.701E+00   -8.691E+00   -8.680E+00   -8.669E+00
    -8.657E+00   -8.644E+00   -8.631E+00   -8.617E+00   -8.603E+00   -8.589E+00   -8.573E+00   -8.558E+00   -8.542E+00   -8.525E+00
    -8.508E+00   -8.490E+00   -8.472E+00   -8.454E+00   -8.435E+00   -8.416E+00   -8.397E+00   -8.377E+00   -8.357E+00   -8.336E+00
    -8.316E+00   -8.295E+00   -8.273E+00   -8.251E+00   -8.230E+00   -8.207E+00   -8.185E+00   -8.163E+00
 Asp      Conc. = 1.77E+01
