 LCModel (Version 6.3-1L) Copyright: S.W. Provencher.          Ref.: Magn. Reson. Med. 30:672-679 (1993).                
 Slice#1 Row#8 Col#7  K_02_press_1_raw_act
 36 lines in following concentration table = NCONC+1
    Conc.  %SD /Cr+PCr  Metabolite                                         
    0.000 999%   0.000 Ala                                                 
   70.355 307% 7.0E-02 Asp                                                 
  895.176  26%   0.887 Cr                                                  
  113.485 207%   0.113 PCr                                                 
   46.466 280% 4.6E-02 GABA                                                
   87.803 153% 8.7E-02 Glc                                                 
  267.983 111%   0.266 Gln                                                 
 1.22E+03  28%   1.206 Glu                                                 
  295.240  11%   0.293 GPC                                                 
    0.000 999%   0.000 PCh                                                 
  362.676  30%   0.360 GSH                                                 
 1.25E+03  29%   1.240 Ins                                                 
  107.717 150%   0.107 Lac                                                 
 1.58E+03   8%   1.562 NAA                                                 
  530.131  24%   0.526 NAAG                                                
   24.882 133% 2.5E-02 Scyllo                                              
    0.000 999%   0.000 Tau                                                 
    0.000 999%   0.000 -CrCH2                                              
  295.240  11%   0.293 GPC+PCh                                             
 2.11E+03   7%   2.087 NAA+NAAG                                            
 1.01E+03   9%   1.000 Cr+PCr                                              
 1.48E+03  29%   1.471 Glu+Gln                                             
 2.77E+03  33%   2.750 Lip13a                                              
    0.000 999%   0.000 Lip13b                                              
  680.697  59%   0.675 Lip09                                               
 1.84E+03  25%   1.824 MM09                                                
  468.208  61%   0.464 Lip20                                               
 2.17E+03  31%   2.147 MM20                                                
  713.470  43%   0.707 MM12                                                
  674.867  84%   0.669 MM14                                                
  329.088 111%   0.326 MM17                                                
 2.77E+03  33%   2.750 Lip13a+Lip13b                                       
 4.16E+03  18%   4.126 MM14+Lip13a+Lip13b+MM12                             
 2.52E+03  14%   2.499 MM09+Lip09                                          
 2.63E+03  25%   2.611 MM20+Lip20                                          
   6 lines in following misc. output table
  FWHM = 0.031 ppm    S/N =   6                                            
  Data shift = 0.000 ppm                                                   
  Ph:  23 deg      21.6 deg/ppm                                            
  alphaB,S = 1.6E+00,   4.3E+01                                            
   14 spline knots.   Ns = 5(1)                                            
  ( 7) 2 infls.   ( 5) 1 extrs.                                            
  498 points on ppm-axis = NY
      4.000000     3.992357     3.984714     3.977070     3.969427     3.961784     3.954141     3.946497     3.938854     3.931211
      3.923568     3.915925     3.908281     3.900638     3.892995     3.885352     3.877708     3.870065     3.862422     3.854779
      3.847136     3.839492     3.831849     3.824206     3.816563     3.808919     3.801276     3.793633     3.785990     3.778347
      3.770703     3.763060     3.755417     3.747774     3.740130     3.732487     3.724844     3.717201     3.709558     3.701914
      3.694271     3.686628     3.678985     3.671341     3.663698     3.656055     3.648412     3.640769     3.633125     3.625482
      3.617839     3.610196     3.602552     3.594909     3.587266     3.579623     3.571980     3.564336     3.556693     3.549050
      3.541407     3.533763     3.526120     3.518477     3.510834     3.503191     3.495547     3.487904     3.480261     3.472618
      3.464974     3.457331     3.449688     3.442045     3.434402     3.426758     3.419115     3.411472     3.403829     3.396185
      3.388542     3.380899     3.373256     3.365613     3.357969     3.350326     3.342683     3.335040     3.327396     3.319753
      3.312110     3.304467     3.296824     3.289180     3.281537     3.273894     3.266251     3.258607     3.250964     3.243321
      3.235678     3.228034     3.220391     3.212748     3.205105     3.197462     3.189818     3.182175     3.174532     3.166889
      3.159245     3.151602     3.143959     3.136316     3.128673     3.121029     3.113386     3.105743     3.098100     3.090456
      3.082813     3.075170     3.067527     3.059884     3.052240     3.044597     3.036954     3.029311     3.021667     3.014024
      3.006381     2.998738     2.991095     2.983451     2.975808     2.968165     2.960522     2.952878     2.945235     2.937592
      2.929949     2.922306     2.914662     2.907019     2.899376     2.891733     2.884089     2.876446     2.868803     2.861160
      2.853517     2.845873     2.838230     2.830587     2.822944     2.815300     2.807657     2.800014     2.792371     2.784728
      2.777084     2.769441     2.761798     2.754155     2.746511     2.738868     2.731225     2.723582     2.715939     2.708295
      2.700652     2.693009     2.685366     2.677722     2.670079     2.662436     2.654793     2.647150     2.639506     2.631863
      2.624220     2.616577     2.608933     2.601290     2.593647     2.586004     2.578361     2.570717     2.563074     2.555431
      2.547788     2.540144     2.532501     2.524858     2.517215     2.509572     2.501928     2.494285     2.486642     2.478999
      2.471355     2.463712     2.456069     2.448426     2.440783     2.433139     2.425496     2.417853     2.410210     2.402566
      2.394923     2.387280     2.379637     2.371994     2.364350     2.356707     2.349064     2.341421     2.333777     2.326134
      2.318491     2.310848     2.303205     2.295561     2.287918     2.280275     2.272632     2.264988     2.257345     2.249702
      2.242059     2.234416     2.226772     2.219129     2.211486     2.203843     2.196199     2.188556     2.180913     2.173270
      2.165627     2.157983     2.150340     2.142697     2.135054     2.127410     2.119767     2.112124     2.104481     2.096838
      2.089194     2.081551     2.073908     2.066265     2.058621     2.050978     2.043335     2.035692     2.028049     2.020405
      2.012762     2.005119     1.997476     1.989833     1.982190     1.974546     1.966903     1.959260     1.951617     1.943974
      1.936331     1.928688     1.921045     1.913402     1.905759     1.898115     1.890472     1.882829     1.875186     1.867543
      1.859900     1.852257     1.844614     1.836971     1.829327     1.821684     1.814041     1.806398     1.798755     1.791112
      1.783469     1.775826     1.768183     1.760540     1.752896     1.745253     1.737610     1.729967     1.722324     1.714681
      1.707038     1.699395     1.691752     1.684108     1.676465     1.668822     1.661179     1.653536     1.645893     1.638250
      1.630607     1.622964     1.615321     1.607677     1.600034     1.592391     1.584748     1.577105     1.569462     1.561819
      1.554176     1.546533     1.538890     1.531246     1.523603     1.515960     1.508317     1.500674     1.493031     1.485388
      1.477745     1.470102     1.462458     1.454815     1.447172     1.439529     1.431886     1.424243     1.416600     1.408957
      1.401314     1.393671     1.386027     1.378384     1.370741     1.363098     1.355455     1.347812     1.340169     1.332526
      1.324883     1.317240     1.309596     1.301953     1.294310     1.286667     1.279024     1.271381     1.263738     1.256095
      1.248452     1.240808     1.233165     1.225522     1.217879     1.210236     1.202593     1.194950     1.187307     1.179664
      1.172021     1.164377     1.156734     1.149091     1.141448     1.133805     1.126162     1.118519     1.110876     1.103233
      1.095590     1.087946     1.080303     1.072660     1.065017     1.057374     1.049731     1.042088     1.034445     1.026802
      1.019158     1.011515     1.003872     0.996229     0.988586     0.980943     0.973300     0.965657     0.958014     0.950371
      0.942727     0.935084     0.927441     0.919798     0.912155     0.904512     0.896869     0.889226     0.881583     0.873940
      0.866296     0.858653     0.851010     0.843367     0.835724     0.828081     0.820438     0.812795     0.805152     0.797508
      0.789865     0.782222     0.774579     0.766936     0.759293     0.751650     0.744007     0.736364     0.728721     0.721077
      0.713434     0.705791     0.698148     0.690505     0.682862     0.675219     0.667576     0.659933     0.652290     0.644646
      0.637003     0.629360     0.621717     0.614074     0.606431     0.598788     0.591145     0.583502     0.575858     0.568215
      0.560572     0.552929     0.545286     0.537643     0.530000     0.522357     0.514714     0.507071     0.499427     0.491784
      0.484141     0.476498     0.468855     0.461212     0.453569     0.445925     0.438282     0.430639     0.422996     0.415353
      0.407710     0.400067     0.392424     0.384780     0.377137     0.369494     0.361851     0.354208     0.346565     0.338922
      0.331278     0.323635     0.315992     0.308349     0.300706     0.293063     0.285420     0.277777     0.270133     0.262490
      0.254847     0.247204     0.239561     0.231918     0.224275     0.216631     0.208988     0.201345
 NY phased data points follow
   5.73416E+01  5.53194E+01  5.50851E+01  4.95769E+01  4.74838E+01  6.23223E+01  4.68648E+01  5.74279E+01  5.66104E+01  6.66407E+01
   7.02582E+01  8.25404E+01  7.04879E+01  6.48236E+01  5.86298E+01  6.35569E+01  4.93992E+01  6.02746E+01  4.84939E+01  4.06841E+01
   3.80684E+01  5.50769E+01  4.01996E+01  4.15904E+01  4.66876E+01  5.99711E+01  5.66071E+01  4.35495E+01  4.90990E+01  5.05428E+01
   5.50770E+01  4.00304E+01  2.91361E+01  4.29470E+01  4.50974E+01  3.83817E+01  3.78949E+01  3.51507E+01  2.87935E+01  4.52928E+01
   3.37970E+01  3.41256E+01  3.88653E+01  3.82317E+01  4.19334E+01  4.35744E+01  4.16291E+01  4.42052E+01  5.48438E+01  4.74955E+01
   3.57172E+01  3.70556E+01  2.70186E+01  3.80568E+01  2.59810E+01  3.59953E+01  3.55031E+01  4.52110E+01  3.31113E+01  3.33885E+01
   3.22197E+01  2.37555E+01  2.76625E+01  2.55512E+01  2.76725E+01  3.18526E+01  2.06531E+01  2.32246E+01  1.61248E+01  2.47199E+01
   2.97804E+01  2.52328E+01  1.82581E+01  2.32488E+01  2.73533E+01  1.58036E+01  1.79615E+01  1.93065E+01  2.95752E+01  1.72277E+01
   2.16764E+01  8.24349E+00  3.28205E+01  1.44113E+01  1.49854E+01  2.45627E+01  1.74457E+01  3.15263E+01  1.88607E+01  1.64529E+01
   1.18068E+01  1.21748E+01  1.14823E+01  2.32910E+01  1.46179E+01  1.50242E+01  1.37899E+01  3.49108E+01  1.83657E+01  1.77121E+01
   2.41671E+01  4.43528E+01  5.17009E+01  5.96941E+01  5.04053E+01  3.75923E+01  3.13996E+01  1.68973E+01  1.91171E+01  1.33508E+01
   8.55035E+00  1.85866E+01  2.20538E+01  2.47741E+01  2.76507E+01  1.21563E+01  5.02839E+00  1.04091E+01  1.39281E+01  5.88413E+00
   2.95899E+01  1.78220E+01  4.26934E+00  1.00241E+01  2.25083E+01  3.78814E+01  4.87669E+01  5.43740E+01  5.77689E+01  4.60885E+01
   3.72192E+01  2.41170E+01  1.47064E+01  1.88783E+01  1.11687E+01  1.95476E+01  1.91778E+01  1.59573E+01  1.77708E+01  1.51296E+01
   1.06640E+01  2.41194E+01  1.33388E+01  6.49895E+00  8.33359E+00  5.16479E+00  1.09462E+01 -3.09826E-01  1.27496E+00  8.86960E+00
   5.01806E+00  1.21765E+01  1.68638E+01  1.24598E+01  4.37441E+00  3.99158E+00  6.29274E+00  1.31633E+01  7.73521E+00  1.04005E+01
   5.84785E+00  1.04378E+01  1.60235E+01  1.15062E+01  7.10561E+00  1.48067E+01  1.43619E+01  8.45624E+00  8.24265E+00  3.19747E+00
  -4.25341E-01 -3.34201E+00 -3.91009E+00  5.25538E+00 -1.11093E+01 -3.50325E+00 -4.64494E+00 -1.37694E+01  6.84012E+00  5.06810E+00
  -1.26907E+01 -1.83451E+01 -1.24833E+01 -3.45489E+00 -5.26440E+00 -7.17407E+00 -5.87964E-01 -3.79106E+00 -7.31411E+00  8.70478E+00
  -8.97738E+00 -4.35028E+00  3.99472E-01 -7.25834E+00 -1.74931E+01  3.11128E+00 -5.65427E+00 -9.82044E+00 -1.24635E+01 -1.71199E+01
  -3.70805E+00 -9.94430E+00  7.77133E+00  3.75411E+00  1.02400E+01 -4.34175E+00  1.96011E+00 -9.83974E-01 -1.40481E+01 -3.01280E+00
   3.65516E+00  9.59202E+00 -3.13107E+00 -3.56803E+00 -4.30231E+00  2.97239E+00  1.71313E+01  8.75325E+00  4.02634E+00 -3.29555E-01
  -1.55486E+01 -1.33314E+01 -1.00330E+01 -5.64343E+00 -2.76729E+00 -8.87615E+00 -2.47863E+00  4.84672E+00 -9.75916E-01  1.83679E+00
   1.00082E+00  8.45818E+00  1.11088E+01 -6.15007E+00 -3.92480E+00  6.89939E+00 -2.19950E+00  8.52998E-01  1.24771E+01 -2.37980E+00
   2.20265E+00  1.42391E+00  1.34733E+00  2.79413E-01 -3.09721E+00  5.95825E+00 -6.00880E-01  8.62415E+00  6.77395E+00  5.80274E+00
   1.31428E+01 -2.49465E+00  8.52862E+00  9.96323E+00  3.38041E+01  3.09294E+01  4.97982E+01  1.92630E+01  3.73035E+01  6.61799E+01
   8.39864E+01  8.62318E+01  5.59218E+01  3.27718E+01  1.39468E+01  1.33147E+01  3.51971E+00  5.47597E+00  6.65972E+00 -1.85395E+01
  -1.25852E-01 -6.48766E+00 -7.95884E+00 -8.92268E+00 -1.21334E+01 -1.19825E+01 -1.35336E+01 -5.31927E+00 -1.15310E+01 -1.87377E+01
  -1.41442E+01 -6.25030E+00 -2.15285E+01 -1.09068E+01 -3.23859E+00 -9.34703E+00 -1.84568E+01 -1.95574E+01 -7.59207E+00 -1.69369E+01
  -8.91390E+00 -1.61696E+01 -1.71084E+01 -1.15229E+01  5.06470E+00 -8.78237E+00 -1.71128E+01 -1.96911E+01 -2.57983E+01 -1.69670E+01
   6.96028E+00 -8.88658E+00 -8.64782E+00 -3.32092E+00  3.11870E+00 -1.70208E+01 -1.30771E+01 -1.43098E+01 -5.31240E-01 -1.64414E+01
  -8.54075E+00 -1.00423E+01 -5.85233E+00  6.94416E+00 -4.52215E+00 -4.60306E+00 -1.94311E+00 -1.55611E+01 -7.46226E-01 -1.59046E+01
  -1.06673E+01 -6.91221E-02 -8.14242E+00  2.76514E+00 -3.16428E+00 -1.54992E+01 -8.52753E+00 -1.61556E+01 -1.36271E+01 -1.05462E+01
  -5.89373E+00 -4.78849E+00  4.62071E-01 -1.04965E-01  1.53777E+00 -4.33262E+00 -3.65394E+00 -1.94479E+00 -4.83075E+00 -8.78500E+00
  -3.15902E+00 -8.25231E+00 -1.67674E+00 -1.47460E+01 -4.55584E+00  2.56844E+00 -8.76384E-01 -1.81213E+00 -3.45382E+00 -6.58332E+00
  -3.19058E+00 -1.36429E+01 -6.87471E-01 -9.36676E-01  1.17281E+00 -1.21677E+01  3.86922E+00  2.33678E+00 -6.79845E+00 -4.35394E+00
   1.42185E+00 -3.35130E+00  9.93822E+00  8.42066E+00  1.31301E+00  8.16435E+00 -5.82236E+00 -9.69159E-01 -5.16782E+00  5.41574E+00
  -1.50739E+01  5.19048E-01  8.10323E+00 -1.07532E+00 -3.02626E-01  5.69288E+00 -1.93372E+00 -5.47060E-01 -3.54601E+00 -5.95756E+00
   1.44275E+01 -9.71555E-01  2.12723E+00  6.11405E+00  2.86276E-03 -1.09740E+00  8.27328E-02 -4.39831E+00  2.48412E+00 -1.10358E+01
   8.63613E-01 -6.29593E+00  9.49652E+00  6.73290E-02 -5.11650E-01  7.07323E+00  3.38873E-01  8.17353E+00  2.20129E+00  6.27984E+00
  -9.86859E-01 -4.66445E-01 -5.19044E+00  9.05692E+00  7.64605E+00  2.82856E+00  9.93325E+00  1.09754E+01  4.54646E+00  2.62459E+00
  -4.97693E+00  5.52940E+00 -3.01034E+00 -2.56551E+00 -8.25161E+00 -8.35559E+00 -1.55698E+01 -1.85576E+01 -1.42350E+01 -1.61101E+01
  -3.29901E+00 -6.79497E+00 -9.59713E+00 -1.28314E+01 -1.52028E+01 -1.04401E+01 -5.44785E+00 -1.14856E+01 -1.53622E+01 -1.32602E+01
  -1.45342E+01 -3.75365E+00 -1.24762E+01 -1.01100E+01 -1.97086E+01 -1.53946E+01 -4.87792E+00 -1.53190E+01 -1.61264E+01 -9.43163E+00
  -1.61331E+01 -1.76642E+01 -8.45924E+00 -3.22311E+00 -2.22787E+01 -1.12706E+01 -1.76608E+01 -1.63049E+01 -1.32469E+01 -4.60837E+00
  -1.04922E+01 -1.28641E+01 -9.37835E+00 -3.73958E+00 -2.33917E+01 -2.00269E+01 -1.67759E+01 -1.10400E+01 -1.23275E+01 -1.62457E+01
  -1.98055E+01 -4.63216E+00 -9.91579E-02 -1.53761E+01 -1.63007E+01 -5.02613E+00 -2.91698E+01 -2.68060E+00 -1.49605E+01 -1.08298E+01
  -7.75493E+00 -1.14662E+01 -5.12123E+00 -1.11395E+01 -6.72340E+00 -1.25206E+01 -5.91524E+00 -9.08929E+00 -1.50189E+01 -1.47515E+01
  -1.46110E+01 -1.78273E+01 -1.27959E+01 -9.33262E+00 -9.12674E+00 -1.48678E+01 -1.24591E+01 -1.02514E+01 -1.39545E+01 -1.35354E+01
  -1.27251E+01 -3.94887E+00 -5.57817E+00 -1.57268E+01 -1.70287E+01 -1.73619E+01 -2.24016E+01 -6.76850E+00
 NY points of the fit to the data follow
   4.60837E+01  4.55225E+01  4.52172E+01  4.52311E+01  4.55941E+01  4.63169E+01  4.77285E+01  5.02793E+01  5.43445E+01  6.06142E+01
   6.76991E+01  7.20434E+01  7.08796E+01  6.47404E+01  5.70968E+01  5.10129E+01  4.71713E+01  4.45045E+01  4.24682E+01  4.15229E+01
   4.10951E+01  4.07309E+01  4.03434E+01  4.00377E+01  4.01192E+01  4.06428E+01  4.17918E+01  4.39107E+01  4.64151E+01  4.81073E+01
   4.82508E+01  4.72044E+01  4.58735E+01  4.44928E+01  4.27248E+01  4.03887E+01  3.80922E+01  3.63586E+01  3.51138E+01  3.43921E+01
   3.42707E+01  3.46391E+01  3.52701E+01  3.61144E+01  3.76492E+01  4.03666E+01  4.36525E+01  4.57839E+01  4.52079E+01  4.19568E+01
   3.76406E+01  3.39257E+01  3.14715E+01  3.01143E+01  2.95716E+01  2.96450E+01  3.01169E+01  3.09570E+01  3.20958E+01  3.32071E+01
   3.36799E+01  3.30633E+01  3.14955E+01  2.95719E+01  2.79524E+01  2.69864E+01  2.67313E+01  2.70289E+01  2.75362E+01  2.81000E+01
   2.86343E+01  2.90036E+01  2.90221E+01  2.85938E+01  2.78830E+01  2.71480E+01  2.65361E+01  2.60350E+01  2.55623E+01  2.51376E+01
   2.47476E+01  2.43992E+01  2.40997E+01  2.38757E+01  2.35907E+01  2.28908E+01  2.15558E+01  1.98564E+01  1.84638E+01  1.79144E+01
   1.82113E+01  1.89757E+01  1.98196E+01  2.05726E+01  2.11005E+01  2.12225E+01  2.08857E+01  2.04834E+01  2.11507E+01  2.41520E+01
   3.15088E+01  4.28756E+01  5.31848E+01  5.64922E+01  5.10337E+01  4.07145E+01  3.10515E+01  2.45992E+01  2.06004E+01  1.77139E+01
   1.63486E+01  1.60060E+01  1.58638E+01  1.57643E+01  1.56626E+01  1.55491E+01  1.54070E+01  1.52240E+01  1.50307E+01  1.49189E+01
   1.50023E+01  1.54701E+01  1.69222E+01  2.03001E+01  2.71285E+01  3.87163E+01  5.18171E+01  5.97244E+01  5.79865E+01  4.83243E+01
   3.68546E+01  2.80898E+01  2.21911E+01  1.72562E+01  1.30644E+01  1.05857E+01  9.45644E+00  9.45154E+00  1.02409E+01  1.13097E+01
   1.21527E+01  1.24198E+01  1.20919E+01  1.14754E+01  1.08350E+01  1.02679E+01  9.79134E+00  9.33464E+00  8.91044E+00  8.48025E+00
   8.02441E+00  7.52639E+00  6.99687E+00  6.55317E+00  6.33507E+00  6.38232E+00  6.55121E+00  6.55617E+00  6.10970E+00  5.13458E+00
   3.98482E+00  3.19591E+00  3.14593E+00  3.70234E+00  4.20664E+00  4.10151E+00  3.35567E+00  2.33710E+00  1.47176E+00  9.93593E-01
   8.66525E-01  8.02697E-01  5.06586E-01 -1.93374E-01 -1.22567E+00 -2.06877E+00 -2.23818E+00 -1.78721E+00 -1.26451E+00 -1.30294E+00
  -1.89659E+00 -2.43572E+00 -2.46517E+00 -2.10747E+00 -1.84344E+00 -1.79449E+00 -1.50242E+00 -4.08074E-01  1.43411E+00  3.31755E+00
   4.42770E+00  4.33864E+00  3.23914E+00  1.68656E+00  1.63717E-01 -9.72271E-01 -1.43891E+00 -1.22553E+00 -5.30286E-01  3.74656E-01
   1.23430E+00  2.06304E+00  2.94743E+00  3.67497E+00  3.81711E+00  2.96383E+00  1.15207E+00 -1.27128E+00 -3.79323E+00 -5.72989E+00
  -6.62274E+00 -6.24902E+00 -4.59798E+00 -1.68141E+00  2.18689E+00  5.63265E+00  6.98535E+00  5.42555E+00  1.72134E+00 -2.69212E+00
  -6.97351E+00 -1.04179E+01 -1.18700E+01 -1.04688E+01 -6.77858E+00 -2.66132E+00  3.77780E-01  1.90473E+00  2.16233E+00  1.51154E+00
   4.49825E-01 -2.53992E-01 -1.61474E-02  9.62570E-01  2.16411E+00  3.09143E+00  3.38084E+00  2.90996E+00  1.73325E+00  2.31123E-01
  -1.20635E+00 -2.20804E+00 -2.27972E+00 -1.15142E+00  8.71521E-01  2.89010E+00  4.16996E+00  4.58297E+00  4.37285E+00  3.90626E+00
   3.70501E+00  4.73638E+00  7.95302E+00  1.42518E+01  2.23726E+01  2.94168E+01  3.38526E+01  3.80671E+01  4.87109E+01  6.53161E+01
   7.76852E+01  7.57117E+01  5.94558E+01  3.89426E+01  2.25908E+01  1.21736E+01  5.00316E+00 -2.28982E-01 -2.46268E+00 -3.51543E+00
  -4.22095E+00 -4.64667E+00 -4.80264E+00 -4.83889E+00 -4.92503E+00 -5.20388E+00 -5.67664E+00 -6.21988E+00 -6.71355E+00 -7.13609E+00
  -7.48606E+00 -7.73092E+00 -7.86734E+00 -7.95769E+00 -8.07227E+00 -8.23114E+00 -8.41527E+00 -8.60481E+00 -8.78925E+00 -8.92763E+00
  -8.97336E+00 -8.93458E+00 -8.86485E+00 -8.81444E+00 -8.80228E+00 -8.81778E+00 -8.85131E+00 -8.89656E+00 -8.93230E+00 -8.92711E+00
  -8.87362E+00 -8.79035E+00 -8.70173E+00 -8.62288E+00 -8.55782E+00 -8.50789E+00 -8.47624E+00 -8.45705E+00 -8.44656E+00 -8.44383E+00
  -8.44791E+00 -8.45740E+00 -8.47038E+00 -8.48397E+00 -8.49491E+00 -8.50015E+00 -8.49698E+00 -8.48263E+00 -8.45421E+00 -8.40917E+00
  -8.34612E+00 -8.26476E+00 -8.16491E+00 -8.04612E+00 -7.90810E+00 -7.75138E+00 -7.57754E+00 -7.38853E+00 -7.18591E+00 -6.97065E+00
  -6.74358E+00 -6.50592E+00 -6.25914E+00 -6.00422E+00 -5.74110E+00 -5.46882E+00 -5.18603E+00 -4.89123E+00 -4.58221E+00 -4.25486E+00
  -3.90134E+00 -3.50576E+00 -3.03661E+00 -2.47722E+00 -1.81785E+00 -1.16586E+00 -8.26922E-01 -1.02242E+00 -1.64370E+00 -2.31417E+00
  -2.68488E+00 -2.68477E+00 -2.32167E+00 -1.54105E+00 -4.01002E-01  7.40873E-01  1.45755E+00  1.65593E+00  1.52765E+00  1.29992E+00
   1.05714E+00  7.67973E-01  4.67861E-01  1.80475E-01 -1.20332E-01 -4.44172E-01 -7.91812E-01 -1.16001E+00 -1.54324E+00 -1.93478E+00
  -2.32752E+00 -2.71409E+00 -3.08671E+00 -3.43717E+00 -3.75714E+00 -4.03871E+00 -4.27460E+00 -4.45805E+00 -4.58251E+00 -4.64171E+00
  -4.63013E+00 -4.54344E+00 -4.37869E+00 -4.13417E+00 -3.80934E+00 -3.40524E+00 -2.92505E+00 -2.37458E+00 -1.76217E+00 -1.09843E+00
  -3.96076E-01  3.29949E-01  1.06244E+00  1.78235E+00  2.46970E+00  3.10455E+00  3.66775E+00  4.14143E+00  4.50951E+00  4.75863E+00
   4.87904E+00  4.86524E+00  4.71597E+00  4.43391E+00  4.02535E+00  3.50010E+00  2.87117E+00  2.15416E+00  1.36610E+00  5.24517E-01
  -3.53333E-01 -1.25073E+00 -2.15190E+00 -3.04257E+00 -3.91062E+00 -4.74634E+00 -5.54229E+00 -6.29290E+00 -6.99424E+00 -7.64417E+00
  -8.24223E+00 -8.78945E+00 -9.28774E+00 -9.73946E+00 -1.01472E+01 -1.05142E+01 -1.08437E+01 -1.11396E+01 -1.14051E+01 -1.16431E+01
  -1.18563E+01 -1.20475E+01 -1.22191E+01 -1.23738E+01 -1.25133E+01 -1.26392E+01 -1.27528E+01 -1.28557E+01 -1.29493E+01 -1.30346E+01
  -1.31126E+01 -1.31836E+01 -1.32485E+01 -1.33079E+01 -1.33626E+01 -1.34132E+01 -1.34597E+01 -1.35024E+01 -1.35417E+01 -1.35781E+01
  -1.36119E+01 -1.36434E+01 -1.36724E+01 -1.36991E+01 -1.37237E+01 -1.37467E+01 -1.37682E+01 -1.37882E+01 -1.38065E+01 -1.38232E+01
  -1.38388E+01 -1.38535E+01 -1.38671E+01 -1.38796E+01 -1.38910E+01 -1.39013E+01 -1.39110E+01 -1.39200E+01 -1.39284E+01 -1.39358E+01
  -1.39424E+01 -1.39484E+01 -1.39540E+01 -1.39592E+01 -1.39637E+01 -1.39676E+01 -1.39708E+01 -1.39737E+01 -1.39764E+01 -1.39788E+01
  -1.39806E+01 -1.39819E+01 -1.39828E+01 -1.39835E+01 -1.39842E+01 -1.39844E+01 -1.39842E+01 -1.39836E+01 -1.39828E+01 -1.39820E+01
  -1.39811E+01 -1.39798E+01 -1.39780E+01 -1.39761E+01 -1.39740E+01 -1.39720E+01 -1.39699E+01 -1.39673E+01
 NY background values follow
     4.263E+01    4.237E+01    4.210E+01    4.184E+01    4.157E+01    4.131E+01    4.104E+01    4.078E+01    4.051E+01    4.025E+01
     3.998E+01    3.971E+01    3.945E+01    3.918E+01    3.892E+01    3.865E+01    3.839E+01    3.812E+01    3.786E+01    3.759E+01
     3.733E+01    3.706E+01    3.680E+01    3.653E+01    3.627E+01    3.601E+01    3.574E+01    3.548E+01    3.521E+01    3.495E+01
     3.469E+01    3.442E+01    3.416E+01    3.390E+01    3.363E+01    3.337E+01    3.311E+01    3.285E+01    3.258E+01    3.232E+01
     3.206E+01    3.180E+01    3.154E+01    3.128E+01    3.101E+01    3.075E+01    3.049E+01    3.023E+01    2.997E+01    2.972E+01
     2.946E+01    2.920E+01    2.894E+01    2.868E+01    2.842E+01    2.817E+01    2.791E+01    2.765E+01    2.740E+01    2.714E+01
     2.688E+01    2.663E+01    2.638E+01    2.612E+01    2.587E+01    2.561E+01    2.536E+01    2.511E+01    2.486E+01    2.461E+01
     2.435E+01    2.410E+01    2.385E+01    2.360E+01    2.336E+01    2.311E+01    2.286E+01    2.261E+01    2.237E+01    2.212E+01
     2.187E+01    2.163E+01    2.138E+01    2.114E+01    2.090E+01    2.066E+01    2.041E+01    2.017E+01    1.993E+01    1.969E+01
     1.945E+01    1.921E+01    1.898E+01    1.874E+01    1.850E+01    1.827E+01    1.803E+01    1.780E+01    1.756E+01    1.733E+01
     1.710E+01    1.687E+01    1.664E+01    1.641E+01    1.618E+01    1.595E+01    1.572E+01    1.549E+01    1.527E+01    1.504E+01
     1.482E+01    1.459E+01    1.437E+01    1.414E+01    1.392E+01    1.370E+01    1.348E+01    1.326E+01    1.304E+01    1.282E+01
     1.260E+01    1.239E+01    1.217E+01    1.196E+01    1.174E+01    1.153E+01    1.131E+01    1.110E+01    1.089E+01    1.068E+01
     1.047E+01    1.026E+01    1.005E+01    9.841E+00    9.634E+00    9.427E+00    9.222E+00    9.017E+00    8.813E+00    8.609E+00
     8.406E+00    8.205E+00    8.004E+00    7.803E+00    7.604E+00    7.405E+00    7.207E+00    7.010E+00    6.814E+00    6.618E+00
     6.424E+00    6.230E+00    6.037E+00    5.845E+00    5.654E+00    5.463E+00    5.274E+00    5.085E+00    4.897E+00    4.710E+00
     4.524E+00    4.339E+00    4.154E+00    3.971E+00    3.788E+00    3.606E+00    3.425E+00    3.245E+00    3.066E+00    2.888E+00
     2.711E+00    2.534E+00    2.359E+00    2.184E+00    2.010E+00    1.838E+00    1.666E+00    1.495E+00    1.325E+00    1.156E+00
     9.880E-01    8.209E-01    6.547E-01    4.895E-01    3.253E-01    1.620E-01   -3.990E-04   -1.618E-01   -3.223E-01   -4.818E-01
    -6.403E-01   -7.979E-01   -9.546E-01   -1.110E+00   -1.265E+00   -1.419E+00   -1.572E+00   -1.724E+00   -1.875E+00   -2.025E+00
    -2.174E+00   -2.322E+00   -2.469E+00   -2.615E+00   -2.761E+00   -2.905E+00   -3.048E+00   -3.191E+00   -3.332E+00   -3.473E+00
    -3.612E+00   -3.751E+00   -3.889E+00   -4.026E+00   -4.162E+00   -4.296E+00   -4.430E+00   -4.563E+00   -4.696E+00   -4.827E+00
    -4.957E+00   -5.086E+00   -5.214E+00   -5.342E+00   -5.468E+00   -5.594E+00   -5.718E+00   -5.842E+00   -5.965E+00   -6.086E+00
    -6.207E+00   -6.327E+00   -6.446E+00   -6.564E+00   -6.681E+00   -6.797E+00   -6.912E+00   -7.026E+00   -7.140E+00   -7.252E+00
    -7.363E+00   -7.474E+00   -7.583E+00   -7.692E+00   -7.800E+00   -7.906E+00   -8.012E+00   -8.117E+00   -8.221E+00   -8.324E+00
    -8.426E+00   -8.527E+00   -8.627E+00   -8.727E+00   -8.825E+00   -8.922E+00   -9.019E+00   -9.114E+00   -9.209E+00   -9.303E+00
    -9.395E+00   -9.487E+00   -9.578E+00   -9.668E+00   -9.757E+00   -9.845E+00   -9.932E+00   -1.002E+01   -1.010E+01   -1.019E+01
    -1.027E+01   -1.035E+01   -1.044E+01   -1.052E+01   -1.060E+01   -1.067E+01   -1.075E+01   -1.083E+01   -1.091E+01   -1.098E+01
    -1.105E+01   -1.113E+01   -1.120E+01   -1.127E+01   -1.134E+01   -1.141E+01   -1.148E+01   -1.155E+01   -1.162E+01   -1.168E+01
    -1.175E+01   -1.181E+01   -1.188E+01   -1.194E+01   -1.200E+01   -1.206E+01   -1.213E+01   -1.218E+01   -1.224E+01   -1.230E+01
    -1.236E+01   -1.242E+01   -1.247E+01   -1.253E+01   -1.258E+01   -1.263E+01   -1.269E+01   -1.274E+01   -1.279E+01   -1.284E+01
    -1.289E+01   -1.294E+01   -1.299E+01   -1.303E+01   -1.308E+01   -1.312E+01   -1.317E+01   -1.321E+01   -1.326E+01   -1.330E+01
    -1.334E+01   -1.338E+01   -1.342E+01   -1.346E+01   -1.350E+01   -1.354E+01   -1.358E+01   -1.362E+01   -1.365E+01   -1.369E+01
    -1.373E+01   -1.376E+01   -1.379E+01   -1.383E+01   -1.386E+01   -1.389E+01   -1.392E+01   -1.395E+01   -1.398E+01   -1.401E+01
    -1.404E+01   -1.407E+01   -1.410E+01   -1.413E+01   -1.415E+01   -1.418E+01   -1.421E+01   -1.423E+01   -1.426E+01   -1.428E+01
    -1.430E+01   -1.433E+01   -1.435E+01   -1.437E+01   -1.439E+01   -1.441E+01   -1.443E+01   -1.445E+01   -1.447E+01   -1.449E+01
    -1.451E+01   -1.453E+01   -1.455E+01   -1.456E+01   -1.458E+01   -1.460E+01   -1.461E+01   -1.463E+01   -1.464E+01   -1.466E+01
    -1.467E+01   -1.469E+01   -1.470E+01   -1.471E+01   -1.473E+01   -1.474E+01   -1.475E+01   -1.476E+01   -1.477E+01   -1.478E+01
    -1.479E+01   -1.480E+01   -1.481E+01   -1.482E+01   -1.483E+01   -1.484E+01   -1.485E+01   -1.485E+01   -1.486E+01   -1.487E+01
    -1.487E+01   -1.488E+01   -1.489E+01   -1.489E+01   -1.490E+01   -1.490E+01   -1.491E+01   -1.491E+01   -1.491E+01   -1.492E+01
    -1.492E+01   -1.493E+01   -1.493E+01   -1.493E+01   -1.493E+01   -1.493E+01   -1.494E+01   -1.494E+01   -1.494E+01   -1.494E+01
    -1.494E+01   -1.494E+01   -1.494E+01   -1.494E+01   -1.494E+01   -1.494E+01   -1.494E+01   -1.494E+01   -1.493E+01   -1.493E+01
    -1.493E+01   -1.493E+01   -1.493E+01   -1.492E+01   -1.492E+01   -1.492E+01   -1.492E+01   -1.491E+01   -1.491E+01   -1.490E+01
    -1.490E+01   -1.490E+01   -1.489E+01   -1.489E+01   -1.488E+01   -1.488E+01   -1.487E+01   -1.487E+01   -1.486E+01   -1.486E+01
    -1.485E+01   -1.485E+01   -1.484E+01   -1.483E+01   -1.483E+01   -1.482E+01   -1.482E+01   -1.481E+01   -1.480E+01   -1.480E+01
    -1.479E+01   -1.478E+01   -1.477E+01   -1.477E+01   -1.476E+01   -1.475E+01   -1.475E+01   -1.474E+01   -1.473E+01   -1.472E+01
    -1.472E+01   -1.471E+01   -1.470E+01   -1.469E+01   -1.468E+01   -1.468E+01   -1.467E+01   -1.466E+01   -1.465E+01   -1.464E+01
    -1.463E+01   -1.463E+01   -1.462E+01   -1.461E+01   -1.460E+01   -1.459E+01   -1.458E+01   -1.458E+01   -1.457E+01   -1.456E+01
    -1.455E+01   -1.454E+01   -1.453E+01   -1.452E+01   -1.452E+01   -1.451E+01   -1.450E+01   -1.449E+01   -1.448E+01   -1.447E+01
    -1.446E+01   -1.445E+01   -1.445E+01   -1.444E+01   -1.443E+01   -1.442E+01   -1.441E+01   -1.440E+01
 Asp      Conc. = 7.04E+01
