 LCModel (Version 6.3-1L) Copyright: S.W. Provencher.          Ref.: Magn. Reson. Med. 30:672-679 (1993).                
 Slice#3 Row#2 Col#11  K_02_press_1_raw_act
 36 lines in following concentration table = NCONC+1
    Conc.  %SD /Cr+PCr  Metabolite                                         
 1.39E+05   8%   0.000 Ala                                                 
   27.248 999%   0.000 Asp                                                 
    0.000 999%   0.000 Cr                                                  
    0.000 999%   0.000 PCr                                                 
    0.000 999%   0.000 GABA                                                
    0.000 999%   0.000 Glc                                                 
    0.000 999%   0.000 Gln                                                 
    0.000 999%   0.000 Glu                                                 
    0.000 999%   0.000 GPC                                                 
  135.497  68%   0.000 PCh                                                 
 1.96E+03  19%   0.000 GSH                                                 
 1.82E+03  61%   0.000 Ins                                                 
 1.63E+04  57%   0.000 Lac                                                 
    0.000 999%   0.000 NAA                                                 
    0.000 999%   0.000 NAAG                                                
   34.683 158%   0.000 Scyllo                                              
    3.584 999%   0.000 Tau                                                 
  813.275  48%   0.000 -CrCH2                                              
  135.497  68%   0.000 GPC+PCh                                             
    0.000 999%   0.000 NAA+NAAG                                            
    0.000 999%   0.000 Cr+PCr                                              
    0.000 999%   0.000 Glu+Gln                                             
 1.20E+05   7%   0.000 Lip13a                                              
 6.18E+03  15%   0.000 Lip13b                                              
 3.39E+04  10%   0.000 Lip09                                               
 3.79E+04   5%   0.000 MM09                                                
    0.000 999%   0.000-Lip20                                               
 5.55E+04   6%   0.000 MM20                                                
 1.14E+04   6%   0.000 MM12                                                
 3.18E+04   5%   0.000+MM14                                                
 1.45E+04   7%   0.000 MM17                                                
 1.27E+05   7%   0.000 Lip13a+Lip13b                                       
 1.70E+05   5%   0.000 MM14+Lip13a+Lip13b+MM12                             
 7.17E+04   5%   0.000 MM09+Lip09                                          
 5.55E+04   6%   0.000 MM20+Lip20                                          
   6 lines in following misc. output table
  FWHM = 0.168 ppm    S/N =  56                                            
  Data shift = 0.138 ppm                                                   
  Ph:  90 deg       5.2 deg/ppm                                            
  alphaB,S = 8.5E+01,   5.6E+02                                            
    6 spline knots.   Ns = 9(2)                                            
  (11) 2 infls.   ( 3) 1 extrs.                                            
  498 points on ppm-axis = NY
      4.000000     3.992357     3.984714     3.977070     3.969427     3.961784     3.954141     3.946497     3.938854     3.931211
      3.923568     3.915925     3.908281     3.900638     3.892995     3.885352     3.877708     3.870065     3.862422     3.854779
      3.847136     3.839492     3.831849     3.824206     3.816563     3.808919     3.801276     3.793633     3.785990     3.778347
      3.770703     3.763060     3.755417     3.747774     3.740130     3.732487     3.724844     3.717201     3.709558     3.701914
      3.694271     3.686628     3.678985     3.671341     3.663698     3.656055     3.648412     3.640769     3.633125     3.625482
      3.617839     3.610196     3.602552     3.594909     3.587266     3.579623     3.571980     3.564336     3.556693     3.549050
      3.541407     3.533763     3.526120     3.518477     3.510834     3.503191     3.495547     3.487904     3.480261     3.472618
      3.464974     3.457331     3.449688     3.442045     3.434402     3.426758     3.419115     3.411472     3.403829     3.396185
      3.388542     3.380899     3.373256     3.365613     3.357969     3.350326     3.342683     3.335040     3.327396     3.319753
      3.312110     3.304467     3.296824     3.289180     3.281537     3.273894     3.266251     3.258607     3.250964     3.243321
      3.235678     3.228034     3.220391     3.212748     3.205105     3.197462     3.189818     3.182175     3.174532     3.166889
      3.159245     3.151602     3.143959     3.136316     3.128673     3.121029     3.113386     3.105743     3.098100     3.090456
      3.082813     3.075170     3.067527     3.059884     3.052240     3.044597     3.036954     3.029311     3.021667     3.014024
      3.006381     2.998738     2.991095     2.983451     2.975808     2.968165     2.960522     2.952878     2.945235     2.937592
      2.929949     2.922306     2.914662     2.907019     2.899376     2.891733     2.884089     2.876446     2.868803     2.861160
      2.853517     2.845873     2.838230     2.830587     2.822944     2.815300     2.807657     2.800014     2.792371     2.784728
      2.777084     2.769441     2.761798     2.754155     2.746511     2.738868     2.731225     2.723582     2.715939     2.708295
      2.700652     2.693009     2.685366     2.677722     2.670079     2.662436     2.654793     2.647150     2.639506     2.631863
      2.624220     2.616577     2.608933     2.601290     2.593647     2.586004     2.578361     2.570717     2.563074     2.555431
      2.547788     2.540144     2.532501     2.524858     2.517215     2.509572     2.501928     2.494285     2.486642     2.478999
      2.471355     2.463712     2.456069     2.448426     2.440783     2.433139     2.425496     2.417853     2.410210     2.402566
      2.394923     2.387280     2.379637     2.371994     2.364350     2.356707     2.349064     2.341421     2.333777     2.326134
      2.318491     2.310848     2.303205     2.295561     2.287918     2.280275     2.272632     2.264988     2.257345     2.249702
      2.242059     2.234416     2.226772     2.219129     2.211486     2.203843     2.196199     2.188556     2.180913     2.173270
      2.165627     2.157983     2.150340     2.142697     2.135054     2.127410     2.119767     2.112124     2.104481     2.096838
      2.089194     2.081551     2.073908     2.066265     2.058621     2.050978     2.043335     2.035692     2.028049     2.020405
      2.012762     2.005119     1.997476     1.989833     1.982190     1.974546     1.966903     1.959260     1.951617     1.943974
      1.936331     1.928688     1.921045     1.913402     1.905759     1.898115     1.890472     1.882829     1.875186     1.867543
      1.859900     1.852257     1.844614     1.836971     1.829327     1.821684     1.814041     1.806398     1.798755     1.791112
      1.783469     1.775826     1.768183     1.760540     1.752896     1.745253     1.737610     1.729967     1.722324     1.714681
      1.707038     1.699395     1.691752     1.684108     1.676465     1.668822     1.661179     1.653536     1.645893     1.638250
      1.630607     1.622964     1.615321     1.607677     1.600034     1.592391     1.584748     1.577105     1.569462     1.561819
      1.554176     1.546533     1.538890     1.531246     1.523603     1.515960     1.508317     1.500674     1.493031     1.485388
      1.477745     1.470102     1.462458     1.454815     1.447172     1.439529     1.431886     1.424243     1.416600     1.408957
      1.401314     1.393671     1.386027     1.378384     1.370741     1.363098     1.355455     1.347812     1.340169     1.332526
      1.324883     1.317240     1.309596     1.301953     1.294310     1.286667     1.279024     1.271381     1.263738     1.256095
      1.248452     1.240808     1.233165     1.225522     1.217879     1.210236     1.202593     1.194950     1.187307     1.179664
      1.172021     1.164377     1.156734     1.149091     1.141448     1.133805     1.126162     1.118519     1.110876     1.103233
      1.095590     1.087946     1.080303     1.072660     1.065017     1.057374     1.049731     1.042088     1.034445     1.026802
      1.019158     1.011515     1.003872     0.996229     0.988586     0.980943     0.973300     0.965657     0.958014     0.950371
      0.942727     0.935084     0.927441     0.919798     0.912155     0.904512     0.896869     0.889226     0.881583     0.873940
      0.866296     0.858653     0.851010     0.843367     0.835724     0.828081     0.820438     0.812795     0.805152     0.797508
      0.789865     0.782222     0.774579     0.766936     0.759293     0.751650     0.744007     0.736364     0.728721     0.721077
      0.713434     0.705791     0.698148     0.690505     0.682862     0.675219     0.667576     0.659933     0.652290     0.644646
      0.637003     0.629360     0.621717     0.614074     0.606431     0.598788     0.591145     0.583502     0.575858     0.568215
      0.560572     0.552929     0.545286     0.537643     0.530000     0.522357     0.514714     0.507071     0.499427     0.491784
      0.484141     0.476498     0.468855     0.461212     0.453569     0.445925     0.438282     0.430639     0.422996     0.415353
      0.407710     0.400067     0.392424     0.384780     0.377137     0.369494     0.361851     0.354208     0.346565     0.338922
      0.331278     0.323635     0.315992     0.308349     0.300706     0.293063     0.285420     0.277777     0.270133     0.262490
      0.254847     0.247204     0.239561     0.231918     0.224275     0.216631     0.208988     0.201345
 NY phased data points follow
   3.81255E+01  4.03668E+01  4.03204E+01  3.55455E+01  3.81328E+01  4.09712E+01  4.13106E+01  4.37814E+01  3.96705E+01  4.38125E+01
   4.34664E+01  4.08187E+01  4.01190E+01  4.13020E+01  4.01927E+01  3.54731E+01  3.94017E+01  3.72908E+01  3.82382E+01  3.64852E+01
   3.91543E+01  3.44976E+01  3.82707E+01  3.91257E+01  3.89856E+01  3.98137E+01  4.12148E+01  4.06569E+01  3.61941E+01  3.67249E+01
   3.93697E+01  3.63089E+01  3.71257E+01  3.81816E+01  3.61185E+01  3.46437E+01  3.93025E+01  3.80927E+01  3.86839E+01  3.76740E+01
   3.84067E+01  3.62139E+01  3.71203E+01  3.72769E+01  3.79651E+01  3.91248E+01  3.71211E+01  3.54807E+01  3.73869E+01  3.32785E+01
   3.70224E+01  3.35596E+01  3.77397E+01  3.59383E+01  3.58181E+01  3.50056E+01  3.58441E+01  3.11139E+01  3.20515E+01  3.62446E+01
   3.22310E+01  3.86235E+01  3.51106E+01  3.78267E+01  3.37704E+01  3.54441E+01  3.52587E+01  3.17914E+01  3.48749E+01  3.86242E+01
   3.44062E+01  3.37099E+01  3.64107E+01  3.88593E+01  3.85081E+01  3.89892E+01  3.47738E+01  3.46420E+01  3.54761E+01  3.96603E+01
   3.73385E+01  3.27841E+01  3.89566E+01  3.76070E+01  3.42239E+01  3.55056E+01  3.50266E+01  3.58956E+01  3.53860E+01  3.28223E+01
   3.00213E+01  3.05298E+01  3.58789E+01  3.72892E+01  3.53341E+01  3.73776E+01  3.72983E+01  3.47733E+01  3.30901E+01  3.58241E+01
   3.79784E+01  3.53611E+01  3.30969E+01  3.34675E+01  3.49565E+01  3.85190E+01  3.59518E+01  4.07560E+01  4.28969E+01  3.86828E+01
   4.16987E+01  3.57865E+01  3.57097E+01  3.52481E+01  3.59147E+01  3.41300E+01  3.13862E+01  3.59308E+01  3.53412E+01  3.56904E+01
   3.30505E+01  3.62601E+01  3.37249E+01  3.59238E+01  3.12833E+01  3.45138E+01  3.63347E+01  3.41688E+01  3.70423E+01  3.82493E+01
   3.58289E+01  3.44977E+01  3.39195E+01  3.27114E+01  3.15656E+01  3.55434E+01  3.25189E+01  2.97816E+01  3.42274E+01  3.26356E+01
   3.49296E+01  3.49530E+01  3.76308E+01  3.70460E+01  3.31381E+01  3.24713E+01  3.24169E+01  2.90608E+01  3.24285E+01  2.94715E+01
   3.02310E+01  3.38616E+01  3.09871E+01  2.62497E+01  2.86052E+01  2.93833E+01  2.77937E+01  2.77098E+01  2.80250E+01  2.95485E+01
   3.36488E+01  2.85265E+01  2.76735E+01  3.46240E+01  3.13639E+01  3.23624E+01  3.37383E+01  3.33472E+01  2.87393E+01  3.69936E+01
   3.70325E+01  3.50922E+01  3.47603E+01  3.62229E+01  3.50148E+01  3.78087E+01  4.39572E+01  3.96762E+01  4.43206E+01  4.40810E+01
   4.54003E+01  4.64478E+01  4.60607E+01  4.69090E+01  4.80063E+01  4.75384E+01  4.46179E+01  4.99922E+01  4.87832E+01  5.30703E+01
   5.42313E+01  5.83321E+01  5.80567E+01  5.84831E+01  6.11947E+01  5.90358E+01  6.64958E+01  6.39771E+01  6.60070E+01  6.68456E+01
   6.79108E+01  7.18296E+01  7.56782E+01  7.32582E+01  7.45173E+01  7.48584E+01  7.54815E+01  8.24901E+01  8.11280E+01  8.58454E+01
   8.35084E+01  8.51471E+01  8.81763E+01  8.65966E+01  8.63183E+01  8.98916E+01  9.05945E+01  9.51009E+01  9.05159E+01  9.39875E+01
   9.16238E+01  9.97075E+01  9.89136E+01  9.43925E+01  9.79093E+01  9.67341E+01  1.00355E+02  1.02383E+02  9.91615E+01  1.04296E+02
   1.04044E+02  1.01534E+02  1.08323E+02  1.08969E+02  1.09963E+02  1.10347E+02  1.11348E+02  1.09071E+02  1.14870E+02  1.12814E+02
   1.19039E+02  1.17858E+02  1.20798E+02  1.16074E+02  1.18954E+02  1.14151E+02  1.12021E+02  1.13959E+02  1.07840E+02  1.11406E+02
   1.10222E+02  1.11466E+02  1.11619E+02  1.13076E+02  1.13867E+02  1.14698E+02  1.14524E+02  1.18562E+02  1.20671E+02  1.20773E+02
   1.22276E+02  1.27669E+02  1.28212E+02  1.30394E+02  1.33133E+02  1.34306E+02  1.38257E+02  1.40903E+02  1.45628E+02  1.46427E+02
   1.52918E+02  1.56502E+02  1.58377E+02  1.61631E+02  1.67402E+02  1.71617E+02  1.77896E+02  1.80679E+02  1.87011E+02  1.94717E+02
   2.00279E+02  2.06522E+02  2.14903E+02  2.19662E+02  2.27829E+02  2.34575E+02  2.41171E+02  2.55080E+02  2.63519E+02  2.75679E+02
   2.84592E+02  2.94187E+02  3.04830E+02  3.20570E+02  3.30871E+02  3.51024E+02  3.63200E+02  3.78251E+02  3.92997E+02  4.12402E+02
   4.25944E+02  4.48390E+02  4.62833E+02  4.78829E+02  5.04715E+02  5.22663E+02  5.46091E+02  5.62547E+02  5.93106E+02  6.10189E+02
   6.35399E+02  6.59159E+02  6.87109E+02  7.12292E+02  7.31386E+02  7.56587E+02  7.79934E+02  7.97879E+02  8.15381E+02  8.29127E+02
   8.35448E+02  8.44552E+02  8.44266E+02  8.39239E+02  8.32638E+02  8.29323E+02  8.20623E+02  8.15275E+02  8.00467E+02  7.86755E+02
   7.71831E+02  7.53174E+02  7.36328E+02  7.18344E+02  6.93424E+02  6.69674E+02  6.49029E+02  6.28086E+02  6.01388E+02  5.88712E+02
   5.65543E+02  5.46675E+02  5.28562E+02  5.13327E+02  5.03009E+02  4.91835E+02  4.79437E+02  4.70487E+02  4.49983E+02  4.45100E+02
   4.32265E+02  4.23998E+02  4.18604E+02  4.10836E+02  3.98961E+02  3.90029E+02  3.86979E+02  3.77173E+02  3.69526E+02  3.64856E+02
   3.56250E+02  3.50676E+02  3.41910E+02  3.34409E+02  3.31953E+02  3.24159E+02  3.19278E+02  3.17728E+02  3.12754E+02  3.07197E+02
   3.01630E+02  2.98509E+02  2.95029E+02  2.90647E+02  2.85962E+02  2.83482E+02  2.76635E+02  2.72819E+02  2.69320E+02  2.61233E+02
   2.61571E+02  2.57992E+02  2.53962E+02  2.49830E+02  2.46751E+02  2.43302E+02  2.35992E+02  2.33901E+02  2.31591E+02  2.28542E+02
   2.24329E+02  2.22041E+02  2.17131E+02  2.15149E+02  2.14635E+02  2.13328E+02  2.10557E+02  2.06929E+02  2.02584E+02  1.99077E+02
   1.96808E+02  1.93018E+02  1.91264E+02  1.90570E+02  1.86966E+02  1.86183E+02  1.80275E+02  1.82951E+02  1.77927E+02  1.76686E+02
   1.76090E+02  1.73049E+02  1.67895E+02  1.66732E+02  1.65962E+02  1.63085E+02  1.59632E+02  1.60061E+02  1.56217E+02  1.59976E+02
   1.55914E+02  1.53389E+02  1.48469E+02  1.47758E+02  1.51379E+02  1.45519E+02  1.46483E+02  1.40398E+02  1.40681E+02  1.41961E+02
   1.39013E+02  1.38559E+02  1.41279E+02  1.34341E+02  1.30506E+02  1.33642E+02  1.32854E+02  1.32488E+02  1.31161E+02  1.27282E+02
   1.25654E+02  1.28094E+02  1.27980E+02  1.21664E+02  1.21969E+02  1.21509E+02  1.21685E+02  1.17564E+02  1.20132E+02  1.20084E+02
   1.16811E+02  1.23277E+02  1.19791E+02  1.14643E+02  1.14758E+02  1.15211E+02  1.12706E+02  1.12079E+02  1.13292E+02  1.09876E+02
   1.11830E+02  1.09993E+02  1.15408E+02  1.09655E+02  1.09731E+02  1.05783E+02  1.03546E+02  1.05708E+02  1.06589E+02  1.02328E+02
   1.02778E+02  1.04883E+02  1.02004E+02  1.01099E+02  1.00761E+02  1.00802E+02  9.68718E+01  1.02283E+02  1.00143E+02  9.77431E+01
   9.63462E+01  9.74573E+01  9.95557E+01  9.79904E+01  9.76486E+01  9.38422E+01  9.75610E+01  9.39563E+01  9.35116E+01  9.29220E+01
   9.66883E+01  8.95293E+01  9.03044E+01  9.10794E+01  9.12827E+01  9.57732E+01  9.20829E+01  9.02083E+01
 NY points of the fit to the data follow
   4.41866E+01  3.96703E+01  4.12584E+01  3.90456E+01  4.08168E+01  3.95107E+01  4.17374E+01  4.18223E+01  4.44258E+01  4.36768E+01
   4.39282E+01  4.44335E+01  4.50518E+01  4.48945E+01  4.45032E+01  4.35032E+01  4.28877E+01  4.32789E+01  4.13165E+01  4.07001E+01
   3.82458E+01  3.78615E+01  3.61193E+01  3.69178E+01  3.51283E+01  3.69482E+01  3.54601E+01  3.74913E+01  3.58339E+01  3.75563E+01
   3.50573E+01  3.67996E+01  3.44881E+01  3.64218E+01  3.43691E+01  3.62519E+01  3.45920E+01  3.66899E+01  3.53829E+01  3.74664E+01
   3.62311E+01  3.76939E+01  3.66908E+01  3.79715E+01  3.67686E+01  3.75944E+01  3.64587E+01  3.73957E+01  3.70445E+01  3.66352E+01
   3.50100E+01  3.47518E+01  3.37675E+01  3.33505E+01  3.25459E+01  3.20185E+01  3.29065E+01  3.43873E+01  3.58713E+01  3.71595E+01
   3.81727E+01  3.89406E+01  3.93789E+01  3.91030E+01  3.84290E+01  3.78161E+01  3.72058E+01  3.67028E+01  3.62870E+01  3.59038E+01
   3.55785E+01  3.51676E+01  3.49006E+01  3.44957E+01  3.43208E+01  3.39180E+01  3.38412E+01  3.34514E+01  3.34939E+01  3.30892E+01
   3.32588E+01  3.29136E+01  3.32298E+01  3.29463E+01  3.34362E+01  3.33017E+01  3.37886E+01  3.36397E+01  3.41946E+01  3.41451E+01
   3.47618E+01  3.48436E+01  3.54047E+01  3.55350E+01  3.60009E+01  3.61036E+01  3.64609E+01  3.65376E+01  3.67792E+01  3.68111E+01
   3.69333E+01  3.68901E+01  3.68876E+01  3.67696E+01  3.66883E+01  3.65211E+01  3.64004E+01  3.62111E+01  3.60385E+01  3.58073E+01
   3.56267E+01  3.54313E+01  3.53075E+01  3.52020E+01  3.51596E+01  3.52196E+01  3.51386E+01  3.50853E+01  3.50177E+01  3.50294E+01
   3.49879E+01  3.51335E+01  3.50992E+01  3.51604E+01  3.51649E+01  3.51343E+01  3.51234E+01  3.49775E+01  3.50362E+01  3.47718E+01
   3.49338E+01  3.44672E+01  3.47036E+01  3.40238E+01  3.43581E+01  3.35232E+01  3.39387E+01  3.29588E+01  3.34553E+01  3.23771E+01
   3.29170E+01  3.17901E+01  3.23427E+01  3.12435E+01  3.17995E+01  3.07580E+01  3.13102E+01  3.03945E+01  3.09071E+01  3.01629E+01
   3.06197E+01  3.00075E+01  3.03930E+01  2.99282E+01  3.03153E+01  3.01740E+01  3.05284E+01  3.04520E+01  3.07733E+01  3.07963E+01
   3.11223E+01  3.13313E+01  3.17248E+01  3.21104E+01  3.25747E+01  3.29947E+01  3.34898E+01  3.38821E+01  3.44346E+01  3.48468E+01
   3.54878E+01  3.59614E+01  3.67684E+01  3.72774E+01  3.82103E+01  3.86763E+01  3.97004E+01  4.01820E+01  4.13410E+01  4.17800E+01
   4.30466E+01  4.36608E+01  4.49654E+01  4.56131E+01  4.68650E+01  4.75918E+01  4.87830E+01  4.97360E+01  5.08538E+01  5.20611E+01
   5.30765E+01  5.45147E+01  5.54073E+01  5.70748E+01  5.78614E+01  5.97351E+01  6.04213E+01  6.24501E+01  6.30865E+01  6.52112E+01
   6.58359E+01  6.80052E+01  6.86619E+01  7.08148E+01  7.15533E+01  7.36661E+01  7.45334E+01  7.65227E+01  7.75307E+01  7.93839E+01
   8.04991E+01  8.22037E+01  8.34373E+01  8.49345E+01  8.62357E+01  8.76872E+01  8.90530E+01  9.04593E+01  9.18556E+01  9.31719E+01
   9.45309E+01  9.57868E+01  9.71311E+01  9.84263E+01  9.97964E+01  1.01079E+02  1.02421E+02  1.03640E+02  1.04989E+02  1.06021E+02
   1.07329E+02  1.08221E+02  1.09527E+02  1.10288E+02  1.11600E+02  1.12216E+02  1.13512E+02  1.13974E+02  1.15237E+02  1.15571E+02
   1.16766E+02  1.16976E+02  1.18072E+02  1.18212E+02  1.19196E+02  1.19292E+02  1.20140E+02  1.20222E+02  1.20932E+02  1.21050E+02
   1.21647E+02  1.21873E+02  1.22389E+02  1.22662E+02  1.23093E+02  1.23504E+02  1.23944E+02  1.24501E+02  1.25044E+02  1.25901E+02
   1.26644E+02  1.27672E+02  1.28657E+02  1.29993E+02  1.31374E+02  1.33111E+02  1.34984E+02  1.37319E+02  1.39878E+02  1.42865E+02
   1.46148E+02  1.49858E+02  1.53923E+02  1.58395E+02  1.63236E+02  1.68464E+02  1.74051E+02  1.79996E+02  1.86252E+02  1.92814E+02
   1.99633E+02  2.06709E+02  2.14006E+02  2.21544E+02  2.29313E+02  2.37364E+02  2.45720E+02  2.54466E+02  2.63653E+02  2.73390E+02
   2.83739E+02  2.94808E+02  3.06641E+02  3.19313E+02  3.32820E+02  3.47176E+02  3.62310E+02  3.78169E+02  3.94618E+02  4.11558E+02
   4.28828E+02  4.46337E+02  4.63970E+02  4.81727E+02  4.99638E+02  5.17908E+02  5.36846E+02  5.57051E+02  5.79378E+02  6.05177E+02
   6.35527E+02  6.66599E+02  6.90630E+02  7.15617E+02  7.36732E+02  7.61156E+02  7.79072E+02  7.99126E+02  8.08333E+02  8.29262E+02
   8.34400E+02  8.46481E+02  8.40354E+02  8.43700E+02  8.29833E+02  8.31186E+02  8.15991E+02  8.15460E+02  7.99499E+02  7.91551E+02
   7.70247E+02  7.57038E+02  7.33719E+02  7.15886E+02  6.92185E+02  6.70236E+02  6.49456E+02  6.26334E+02  6.06232E+02  5.83452E+02
   5.66080E+02  5.44705E+02  5.31864E+02  5.14196E+02  5.04852E+02  4.90417E+02  4.79987E+02  4.66084E+02  4.53801E+02  4.41789E+02
   4.33536E+02  4.28197E+02  4.16736E+02  4.11460E+02  3.99749E+02  3.96711E+02  3.84673E+02  3.78393E+02  3.63454E+02  3.62079E+02
   3.52512E+02  3.51994E+02  3.42808E+02  3.40213E+02  3.30609E+02  3.26881E+02  3.17903E+02  3.15331E+02  3.10142E+02  3.07518E+02
   3.02705E+02  2.99944E+02  2.95328E+02  2.91868E+02  2.85739E+02  2.80653E+02  2.76148E+02  2.71857E+02  2.67624E+02  2.63508E+02
   2.59487E+02  2.55655E+02  2.51981E+02  2.48529E+02  2.45234E+02  2.42131E+02  2.39129E+02  2.36246E+02  2.33384E+02  2.30565E+02
   2.27697E+02  2.24816E+02  2.21848E+02  2.18846E+02  2.15754E+02  2.12642E+02  2.09465E+02  2.06302E+02  2.03117E+02  1.99990E+02
   1.96885E+02  1.93881E+02  1.90936E+02  1.88123E+02  1.85395E+02  1.82819E+02  1.80337E+02  1.78012E+02  1.75780E+02  1.73699E+02
   1.71699E+02  1.69834E+02  1.68034E+02  1.66349E+02  1.64708E+02  1.63162E+02  1.61638E+02  1.60189E+02  1.58743E+02  1.57355E+02
   1.55953E+02  1.54595E+02  1.53212E+02  1.51862E+02  1.50478E+02  1.49121E+02  1.47726E+02  1.46356E+02  1.44946E+02  1.43561E+02
   1.42139E+02  1.40743E+02  1.39313E+02  1.37915E+02  1.36488E+02  1.35097E+02  1.33681E+02  1.32308E+02  1.30916E+02  1.29572E+02
   1.28214E+02  1.26908E+02  1.25594E+02  1.24336E+02  1.23073E+02  1.21871E+02  1.20666E+02  1.19524E+02  1.18382E+02  1.17305E+02
   1.16229E+02  1.15219E+02  1.14211E+02  1.13269E+02  1.12328E+02  1.11454E+02  1.10581E+02  1.09773E+02  1.08966E+02  1.08222E+02
   1.07478E+02  1.06797E+02  1.06112E+02  1.05490E+02  1.04863E+02  1.04296E+02  1.03722E+02  1.03207E+02  1.02684E+02  1.02217E+02
   1.01740E+02  1.01318E+02  1.00884E+02  1.00503E+02  1.00108E+02  9.97643E+01  9.94051E+01  9.90955E+01  9.87686E+01  9.84896E+01
   9.81915E+01  9.79396E+01  9.76670E+01  9.74389E+01  9.71883E+01  9.69807E+01  9.67488E+01  9.65580E+01  9.63414E+01  9.61641E+01
   9.59590E+01  9.57911E+01  9.55935E+01  9.54309E+01  9.52361E+01  9.50739E+01  9.48767E+01  9.47087E+01
 NY background values follow
    -4.827E+01   -4.890E+01   -4.952E+01   -5.014E+01   -5.076E+01   -5.138E+01   -5.199E+01   -5.259E+01   -5.320E+01   -5.379E+01
    -5.439E+01   -5.498E+01   -5.557E+01   -5.615E+01   -5.674E+01   -5.731E+01   -5.789E+01   -5.845E+01   -5.902E+01   -5.958E+01
    -6.014E+01   -6.069E+01   -6.125E+01   -6.179E+01   -6.234E+01   -6.287E+01   -6.341E+01   -6.394E+01   -6.447E+01   -6.499E+01
    -6.551E+01   -6.603E+01   -6.654E+01   -6.705E+01   -6.756E+01   -6.806E+01   -6.856E+01   -6.905E+01   -6.954E+01   -7.003E+01
    -7.051E+01   -7.099E+01   -7.146E+01   -7.194E+01   -7.240E+01   -7.287E+01   -7.333E+01   -7.378E+01   -7.423E+01   -7.468E+01
    -7.513E+01   -7.557E+01   -7.600E+01   -7.644E+01   -7.687E+01   -7.729E+01   -7.771E+01   -7.813E+01   -7.854E+01   -7.895E+01
    -7.936E+01   -7.976E+01   -8.016E+01   -8.055E+01   -8.094E+01   -8.133E+01   -8.171E+01   -8.209E+01   -8.247E+01   -8.284E+01
    -8.321E+01   -8.357E+01   -8.393E+01   -8.429E+01   -8.464E+01   -8.499E+01   -8.533E+01   -8.567E+01   -8.601E+01   -8.634E+01
    -8.667E+01   -8.700E+01   -8.732E+01   -8.764E+01   -8.795E+01   -8.826E+01   -8.857E+01   -8.887E+01   -8.917E+01   -8.946E+01
    -8.976E+01   -9.004E+01   -9.033E+01   -9.061E+01   -9.088E+01   -9.115E+01   -9.142E+01   -9.169E+01   -9.195E+01   -9.220E+01
    -9.245E+01   -9.270E+01   -9.295E+01   -9.319E+01   -9.343E+01   -9.366E+01   -9.389E+01   -9.412E+01   -9.434E+01   -9.456E+01
    -9.477E+01   -9.498E+01   -9.519E+01   -9.539E+01   -9.559E+01   -9.579E+01   -9.598E+01   -9.617E+01   -9.635E+01   -9.653E+01
    -9.671E+01   -9.688E+01   -9.705E+01   -9.722E+01   -9.738E+01   -9.754E+01   -9.769E+01   -9.784E+01   -9.799E+01   -9.813E+01
    -9.827E+01   -9.841E+01   -9.854E+01   -9.867E+01   -9.879E+01   -9.891E+01   -9.903E+01   -9.914E+01   -9.925E+01   -9.936E+01
    -9.946E+01   -9.956E+01   -9.965E+01   -9.974E+01   -9.983E+01   -9.991E+01   -9.999E+01   -1.001E+02   -1.001E+02   -1.002E+02
    -1.003E+02   -1.003E+02   -1.004E+02   -1.005E+02   -1.005E+02   -1.005E+02   -1.006E+02   -1.006E+02   -1.007E+02   -1.007E+02
    -1.007E+02   -1.008E+02   -1.008E+02   -1.008E+02   -1.008E+02   -1.008E+02   -1.008E+02   -1.008E+02   -1.008E+02   -1.008E+02
    -1.008E+02   -1.008E+02   -1.008E+02   -1.008E+02   -1.008E+02   -1.007E+02   -1.007E+02   -1.007E+02   -1.006E+02   -1.006E+02
    -1.006E+02   -1.005E+02   -1.005E+02   -1.004E+02   -1.004E+02   -1.003E+02   -1.002E+02   -1.002E+02   -1.001E+02   -1.000E+02
    -9.995E+01   -9.987E+01   -9.979E+01   -9.971E+01   -9.962E+01   -9.952E+01   -9.943E+01   -9.933E+01   -9.922E+01   -9.912E+01
    -9.901E+01   -9.889E+01   -9.878E+01   -9.866E+01   -9.854E+01   -9.841E+01   -9.828E+01   -9.815E+01   -9.801E+01   -9.787E+01
    -9.773E+01   -9.759E+01   -9.744E+01   -9.728E+01   -9.713E+01   -9.697E+01   -9.681E+01   -9.664E+01   -9.648E+01   -9.631E+01
    -9.613E+01   -9.596E+01   -9.577E+01   -9.559E+01   -9.541E+01   -9.522E+01   -9.502E+01   -9.483E+01   -9.463E+01   -9.443E+01
    -9.422E+01   -9.401E+01   -9.380E+01   -9.359E+01   -9.337E+01   -9.315E+01   -9.293E+01   -9.271E+01   -9.248E+01   -9.225E+01
    -9.201E+01   -9.177E+01   -9.153E+01   -9.129E+01   -9.105E+01   -9.080E+01   -9.054E+01   -9.029E+01   -9.003E+01   -8.977E+01
    -8.951E+01   -8.924E+01   -8.898E+01   -8.871E+01   -8.843E+01   -8.815E+01   -8.788E+01   -8.759E+01   -8.731E+01   -8.702E+01
    -8.673E+01   -8.644E+01   -8.614E+01   -8.584E+01   -8.554E+01   -8.524E+01   -8.494E+01   -8.463E+01   -8.432E+01   -8.400E+01
    -8.369E+01   -8.337E+01   -8.305E+01   -8.272E+01   -8.240E+01   -8.207E+01   -8.174E+01   -8.140E+01   -8.107E+01   -8.073E+01
    -8.039E+01   -8.004E+01   -7.970E+01   -7.935E+01   -7.900E+01   -7.865E+01   -7.829E+01   -7.794E+01   -7.758E+01   -7.721E+01
    -7.685E+01   -7.648E+01   -7.612E+01   -7.574E+01   -7.537E+01   -7.500E+01   -7.462E+01   -7.424E+01   -7.386E+01   -7.347E+01
    -7.309E+01   -7.270E+01   -7.231E+01   -7.192E+01   -7.152E+01   -7.113E+01   -7.073E+01   -7.033E+01   -6.992E+01   -6.952E+01
    -6.911E+01   -6.871E+01   -6.830E+01   -6.788E+01   -6.747E+01   -6.705E+01   -6.663E+01   -6.622E+01   -6.579E+01   -6.537E+01
    -6.494E+01   -6.452E+01   -6.409E+01   -6.366E+01   -6.323E+01   -6.279E+01   -6.236E+01   -6.192E+01   -6.148E+01   -6.104E+01
    -6.060E+01   -6.015E+01   -5.971E+01   -5.926E+01   -5.881E+01   -5.836E+01   -5.791E+01   -5.745E+01   -5.700E+01   -5.654E+01
    -5.608E+01   -5.562E+01   -5.516E+01   -5.470E+01   -5.424E+01   -5.377E+01   -5.331E+01   -5.284E+01   -5.237E+01   -5.190E+01
    -5.143E+01   -5.095E+01   -5.048E+01   -5.001E+01   -4.953E+01   -4.905E+01   -4.857E+01   -4.809E+01   -4.761E+01   -4.713E+01
    -4.665E+01   -4.617E+01   -4.568E+01   -4.519E+01   -4.471E+01   -4.422E+01   -4.373E+01   -4.324E+01   -4.275E+01   -4.226E+01
    -4.177E+01   -4.128E+01   -4.078E+01   -4.029E+01   -3.979E+01   -3.930E+01   -3.880E+01   -3.831E+01   -3.781E+01   -3.731E+01
    -3.681E+01   -3.631E+01   -3.581E+01   -3.531E+01   -3.481E+01   -3.431E+01   -3.381E+01   -3.331E+01   -3.280E+01   -3.230E+01
    -3.180E+01   -3.129E+01   -3.079E+01   -3.028E+01   -2.978E+01   -2.927E+01   -2.877E+01   -2.826E+01   -2.776E+01   -2.725E+01
    -2.675E+01   -2.624E+01   -2.573E+01   -2.523E+01   -2.472E+01   -2.422E+01   -2.371E+01   -2.320E+01   -2.270E+01   -2.219E+01
    -2.168E+01   -2.118E+01   -2.067E+01   -2.017E+01   -1.966E+01   -1.916E+01   -1.865E+01   -1.815E+01   -1.764E+01   -1.714E+01
    -1.663E+01   -1.613E+01   -1.563E+01   -1.512E+01   -1.462E+01   -1.412E+01   -1.362E+01   -1.311E+01   -1.261E+01   -1.211E+01
    -1.161E+01   -1.111E+01   -1.062E+01   -1.012E+01   -9.620E+00   -9.123E+00   -8.627E+00   -8.132E+00   -7.637E+00   -7.143E+00
    -6.649E+00   -6.157E+00   -5.665E+00   -5.174E+00   -4.684E+00   -4.194E+00   -3.706E+00   -3.218E+00   -2.732E+00   -2.246E+00
    -1.761E+00   -1.277E+00   -7.947E-01   -3.130E-01    1.677E-01    6.473E-01    1.126E+00    1.603E+00    2.080E+00    2.555E+00
     3.029E+00    3.501E+00    3.973E+00    4.443E+00    4.912E+00    5.380E+00    5.847E+00    6.312E+00    6.776E+00    7.238E+00
     7.699E+00    8.159E+00    8.617E+00    9.074E+00    9.530E+00    9.984E+00    1.044E+01    1.089E+01    1.134E+01    1.178E+01
     1.223E+01    1.267E+01    1.312E+01    1.356E+01    1.400E+01    1.444E+01    1.487E+01    1.531E+01    1.574E+01    1.617E+01
     1.660E+01    1.703E+01    1.745E+01    1.788E+01    1.830E+01    1.872E+01    1.914E+01    1.955E+01
 Ala      Conc. = 1.39E+05
