 LCModel (Version 6.3-1L) Copyright: S.W. Provencher.          Ref.: Magn. Reson. Med. 30:672-679 (1993).                
 Slice#1 Row#4 Col#11  K_02_press_1_raw_act
 36 lines in following concentration table = NCONC+1
    Conc.  %SD /Cr+PCr  Metabolite                                         
 1.43E+03  26%   0.995 Ala                                                 
    0.000 999%   0.000 Asp                                                 
    0.000 999%   0.000 Cr                                                  
 1.44E+03   6%   1.000 PCr                                                 
  188.230 105%   0.131 GABA                                                
    0.000 999%   0.000 Glc                                                 
 2.46E+03  28%   1.712 Gln                                                 
 2.37E+03  34%   1.649 Glu                                                 
  474.223   7%   0.330 GPC                                                 
    0.000 999%   0.000 PCh                                                 
  629.508  24%   0.438 GSH                                                 
 1.96E+03  21%   1.362 Ins                                                 
  534.650  83%   0.372 Lac                                                 
 2.56E+03   4%   1.779 NAA                                                 
    0.000 999%   0.000 NAAG                                                
  254.723  15%   0.177 Scyllo                                              
  232.695 106%   0.162 Tau                                                 
  588.483  31%   0.409 -CrCH2                                              
  474.223   7%   0.330 GPC+PCh                                             
 2.56E+03   4%   1.779 NAA+NAAG                                            
 1.44E+03   6%   1.000 Cr+PCr                                              
 4.83E+03  28%   3.361 Glu+Gln                                             
    0.000 999%   0.000 Lip13a                                              
  520.241  40%   0.362 Lip13b                                              
    0.000 999%   0.000 Lip09                                               
 1.22E+03  16%   0.848 MM09                                                
   90.072  81% 6.3E-02 Lip20                                               
 2.16E+03  17%   1.502 MM20                                                
  395.016  28%   0.275 MM12                                                
 2.58E+03  13%   1.791+MM14                                                
 1.51E+03  16%   1.048+MM17                                                
  520.241  40%   0.362 Lip13a+Lip13b                                       
 3.49E+03  12%   2.428 MM14+Lip13a+Lip13b+MM12                             
 1.22E+03  16%   0.848 MM09+Lip09                                          
 2.25E+03  17%   1.564 MM20+Lip20                                          
   6 lines in following misc. output table
  FWHM = 0.092 ppm    S/N =   8                                            
  Data shift = 0.076 ppm                                                   
  Ph: -40 deg     -20.8 deg/ppm                                            
  alphaB,S = 6.7E-01,   1.4E+02                                            
   14 spline knots.   Ns = 6(2)                                            
  ( 5) 3 infls.   ( 1) 1 extrs.                                            
  498 points on ppm-axis = NY
      4.000000     3.992357     3.984714     3.977070     3.969427     3.961784     3.954141     3.946497     3.938854     3.931211
      3.923568     3.915925     3.908281     3.900638     3.892995     3.885352     3.877708     3.870065     3.862422     3.854779
      3.847136     3.839492     3.831849     3.824206     3.816563     3.808919     3.801276     3.793633     3.785990     3.778347
      3.770703     3.763060     3.755417     3.747774     3.740130     3.732487     3.724844     3.717201     3.709558     3.701914
      3.694271     3.686628     3.678985     3.671341     3.663698     3.656055     3.648412     3.640769     3.633125     3.625482
      3.617839     3.610196     3.602552     3.594909     3.587266     3.579623     3.571980     3.564336     3.556693     3.549050
      3.541407     3.533763     3.526120     3.518477     3.510834     3.503191     3.495547     3.487904     3.480261     3.472618
      3.464974     3.457331     3.449688     3.442045     3.434402     3.426758     3.419115     3.411472     3.403829     3.396185
      3.388542     3.380899     3.373256     3.365613     3.357969     3.350326     3.342683     3.335040     3.327396     3.319753
      3.312110     3.304467     3.296824     3.289180     3.281537     3.273894     3.266251     3.258607     3.250964     3.243321
      3.235678     3.228034     3.220391     3.212748     3.205105     3.197462     3.189818     3.182175     3.174532     3.166889
      3.159245     3.151602     3.143959     3.136316     3.128673     3.121029     3.113386     3.105743     3.098100     3.090456
      3.082813     3.075170     3.067527     3.059884     3.052240     3.044597     3.036954     3.029311     3.021667     3.014024
      3.006381     2.998738     2.991095     2.983451     2.975808     2.968165     2.960522     2.952878     2.945235     2.937592
      2.929949     2.922306     2.914662     2.907019     2.899376     2.891733     2.884089     2.876446     2.868803     2.861160
      2.853517     2.845873     2.838230     2.830587     2.822944     2.815300     2.807657     2.800014     2.792371     2.784728
      2.777084     2.769441     2.761798     2.754155     2.746511     2.738868     2.731225     2.723582     2.715939     2.708295
      2.700652     2.693009     2.685366     2.677722     2.670079     2.662436     2.654793     2.647150     2.639506     2.631863
      2.624220     2.616577     2.608933     2.601290     2.593647     2.586004     2.578361     2.570717     2.563074     2.555431
      2.547788     2.540144     2.532501     2.524858     2.517215     2.509572     2.501928     2.494285     2.486642     2.478999
      2.471355     2.463712     2.456069     2.448426     2.440783     2.433139     2.425496     2.417853     2.410210     2.402566
      2.394923     2.387280     2.379637     2.371994     2.364350     2.356707     2.349064     2.341421     2.333777     2.326134
      2.318491     2.310848     2.303205     2.295561     2.287918     2.280275     2.272632     2.264988     2.257345     2.249702
      2.242059     2.234416     2.226772     2.219129     2.211486     2.203843     2.196199     2.188556     2.180913     2.173270
      2.165627     2.157983     2.150340     2.142697     2.135054     2.127410     2.119767     2.112124     2.104481     2.096838
      2.089194     2.081551     2.073908     2.066265     2.058621     2.050978     2.043335     2.035692     2.028049     2.020405
      2.012762     2.005119     1.997476     1.989833     1.982190     1.974546     1.966903     1.959260     1.951617     1.943974
      1.936331     1.928688     1.921045     1.913402     1.905759     1.898115     1.890472     1.882829     1.875186     1.867543
      1.859900     1.852257     1.844614     1.836971     1.829327     1.821684     1.814041     1.806398     1.798755     1.791112
      1.783469     1.775826     1.768183     1.760540     1.752896     1.745253     1.737610     1.729967     1.722324     1.714681
      1.707038     1.699395     1.691752     1.684108     1.676465     1.668822     1.661179     1.653536     1.645893     1.638250
      1.630607     1.622964     1.615321     1.607677     1.600034     1.592391     1.584748     1.577105     1.569462     1.561819
      1.554176     1.546533     1.538890     1.531246     1.523603     1.515960     1.508317     1.500674     1.493031     1.485388
      1.477745     1.470102     1.462458     1.454815     1.447172     1.439529     1.431886     1.424243     1.416600     1.408957
      1.401314     1.393671     1.386027     1.378384     1.370741     1.363098     1.355455     1.347812     1.340169     1.332526
      1.324883     1.317240     1.309596     1.301953     1.294310     1.286667     1.279024     1.271381     1.263738     1.256095
      1.248452     1.240808     1.233165     1.225522     1.217879     1.210236     1.202593     1.194950     1.187307     1.179664
      1.172021     1.164377     1.156734     1.149091     1.141448     1.133805     1.126162     1.118519     1.110876     1.103233
      1.095590     1.087946     1.080303     1.072660     1.065017     1.057374     1.049731     1.042088     1.034445     1.026802
      1.019158     1.011515     1.003872     0.996229     0.988586     0.980943     0.973300     0.965657     0.958014     0.950371
      0.942727     0.935084     0.927441     0.919798     0.912155     0.904512     0.896869     0.889226     0.881583     0.873940
      0.866296     0.858653     0.851010     0.843367     0.835724     0.828081     0.820438     0.812795     0.805152     0.797508
      0.789865     0.782222     0.774579     0.766936     0.759293     0.751650     0.744007     0.736364     0.728721     0.721077
      0.713434     0.705791     0.698148     0.690505     0.682862     0.675219     0.667576     0.659933     0.652290     0.644646
      0.637003     0.629360     0.621717     0.614074     0.606431     0.598788     0.591145     0.583502     0.575858     0.568215
      0.560572     0.552929     0.545286     0.537643     0.530000     0.522357     0.514714     0.507071     0.499427     0.491784
      0.484141     0.476498     0.468855     0.461212     0.453569     0.445925     0.438282     0.430639     0.422996     0.415353
      0.407710     0.400067     0.392424     0.384780     0.377137     0.369494     0.361851     0.354208     0.346565     0.338922
      0.331278     0.323635     0.315992     0.308349     0.300706     0.293063     0.285420     0.277777     0.270133     0.262490
      0.254847     0.247204     0.239561     0.231918     0.224275     0.216631     0.208988     0.201345
 NY phased data points follow
   1.12710E+01  1.02903E+01  1.13147E+01  1.32522E+01  1.56590E+01  1.68280E+01  1.56436E+01  1.33516E+01  1.34006E+01  1.27322E+01
   1.43721E+01  1.04153E+01  1.31448E+01  1.19346E+01  1.58378E+01  1.17931E+01  1.33385E+01  6.42240E+00  1.10878E+01  1.09632E+01
   9.56480E+00  7.60825E+00  7.22024E+00  9.79114E+00  7.95219E+00  1.30520E+01  9.16353E+00  1.63259E+01  1.25979E+01  1.39486E+01
   1.23042E+01  1.26211E+01  1.19310E+01  1.34646E+01  1.49128E+01  1.13240E+01  1.24302E+01  8.62903E+00  1.19188E+01  1.32650E+01
   1.42839E+01  1.39053E+01  2.00014E+01  1.52846E+01  1.62864E+01  1.56418E+01  1.52417E+01  1.42957E+01  1.31331E+01  9.35256E+00
   9.11191E+00  8.40374E+00  1.01526E+01  6.49585E+00  1.07366E+01  1.04470E+01  1.15504E+01  9.93719E+00  5.27466E+00  9.92998E+00
   8.73768E+00  7.93165E+00  4.10248E+00  4.93133E+00  7.49943E+00  4.16222E+00  7.00078E+00  6.99374E+00  8.08444E+00  4.31339E+00
   9.12543E+00  2.54316E+00  5.02131E+00  7.41282E+00  5.38655E+00  8.53605E+00  1.06884E+01  6.94140E+00  6.12619E+00  7.03270E+00
   7.16577E+00  7.83399E+00  6.98226E+00  1.16913E+01  1.28829E+01  1.41940E+01  1.23006E+01  1.41440E+01  9.14184E+00  1.11450E+01
   1.42942E+01  1.63840E+01  1.25137E+01  1.60952E+01  1.69750E+01  2.12561E+01  1.86700E+01  2.33830E+01  2.56519E+01  3.10718E+01
   2.96217E+01  3.16607E+01  2.56968E+01  2.25870E+01  2.25125E+01  1.63841E+01  1.73478E+01  1.26286E+01  1.59387E+01  1.20499E+01
   6.92507E+00  1.32952E+01  7.47745E+00  8.19492E+00  1.29750E+01  1.70340E+01  1.72575E+01  1.43895E+01  1.26420E+01  1.80049E+01
   1.57791E+01  2.16096E+01  2.62065E+01  3.19667E+01  3.36674E+01  3.31285E+01  3.27471E+01  3.22994E+01  2.50994E+01  2.39046E+01
   2.03300E+01  2.02884E+01  1.47135E+01  1.47784E+01  1.26098E+01  1.07438E+01  1.30035E+01  1.00471E+01  8.08615E+00  2.18517E+00
   8.83274E+00  7.57699E+00  1.18397E+01  8.49585E+00  9.65191E+00  8.88659E+00  8.93266E+00  1.11543E+01  3.97867E+00  5.19965E+00
   7.28964E+00  5.31999E+00  4.00269E+00  4.73876E+00  5.83451E+00  6.00938E+00  9.65046E+00  4.31113E+00  5.66737E+00  7.67006E+00
   6.85587E+00  3.31609E+00  3.54173E+00  1.54297E+00 -3.22979E+00  1.13860E+00 -3.18641E+00 -4.04387E-01 -6.92593E+00 -4.64217E+00
  -5.21473E+00 -3.85674E+00 -8.75036E+00 -4.99633E+00 -5.30731E+00 -9.41772E+00 -4.54179E+00 -8.54544E+00 -6.65459E+00 -4.73292E+00
  -1.63725E+00  5.46809E-01 -2.39751E+00 -1.84107E+00 -1.23870E+00 -4.78211E+00 -1.65223E+00 -1.71937E+00  1.26197E+00 -2.77857E-01
   1.37665E+00  6.72607E-01  1.84702E+00  2.08271E+00 -5.85618E-01 -2.93780E+00 -2.02144E+00  3.16943E-01 -3.81324E+00  1.74452E+00
   7.77713E-01  1.98891E+00 -2.00577E-01  5.15942E+00  5.35012E+00  1.47671E+00  5.37555E+00  3.84299E+00  6.13663E+00  3.32033E+00
   5.96720E+00  1.18946E+01  1.30371E+01  9.16080E+00  1.02140E+01  1.11751E+01  1.01276E+01  7.90167E+00  9.67490E+00  6.90976E+00
   2.20518E+00  7.33538E+00  8.33507E+00  5.29760E+00  4.34078E+00  5.30348E+00  8.94181E+00  1.12128E+01  8.12689E+00  1.25818E+00
   6.42528E+00  1.01638E+01  6.31604E+00  8.83076E+00  1.02252E+01  7.65302E+00  7.22970E+00  7.91841E+00  6.01389E+00  8.14059E+00
   7.95334E+00  1.29384E+01  1.23855E+01  1.43613E+01  9.35419E+00  1.15714E+01  1.45712E+01  1.86331E+01  2.23364E+01  2.72383E+01
   2.88964E+01  2.81009E+01  2.22800E+01  3.14534E+01  3.89224E+01  4.62863E+01  5.56293E+01  6.04501E+01  6.20453E+01  6.31961E+01
   6.04075E+01  5.59128E+01  5.10607E+01  4.69876E+01  4.40798E+01  3.50269E+01  3.33635E+01  2.53431E+01  2.61983E+01  2.22880E+01
   1.95219E+01  1.21307E+01  1.28027E+01  1.07675E+01  1.29215E+01  1.12223E+01  1.16796E+01  1.29517E+01  8.60782E+00  7.30861E+00
   8.12934E+00  5.92774E+00  6.69706E+00  1.35813E+01  8.96296E+00  9.64895E+00  1.25017E+01  1.49763E+01  1.18916E+01  1.35325E+01
   9.79095E+00  1.21047E+01  1.20891E+01  1.32320E+01  1.24907E+01  8.76185E+00  1.95118E+01  1.11641E+01  1.21235E+01  1.48637E+01
   1.52890E+01  2.00798E+01  1.90186E+01  1.84939E+01  1.97345E+01  2.09959E+01  2.16911E+01  2.14610E+01  2.40502E+01  2.28167E+01
   2.32701E+01  2.18326E+01  1.63446E+01  2.58744E+01  2.30065E+01  2.60308E+01  2.98810E+01  2.78203E+01  2.81758E+01  2.44725E+01
   2.70040E+01  3.00156E+01  2.85259E+01  2.99688E+01  2.63108E+01  2.21149E+01  2.21287E+01  1.96195E+01  1.99369E+01  2.39395E+01
   2.04499E+01  1.77866E+01  1.91141E+01  1.19946E+01  1.77602E+01  1.80168E+01  1.77015E+01  1.55487E+01  1.62390E+01  1.42382E+01
   1.49472E+01  1.54431E+01  1.49281E+01  1.05687E+01  1.67718E+01  1.22553E+01  1.23704E+01  9.85953E+00  1.28771E+01  1.10863E+01
   9.80317E+00  1.08341E+01  1.09470E+01  1.05608E+01  1.46711E+01  1.16842E+01  1.42077E+01  1.21934E+01  8.63132E+00  1.06217E+01
   1.06410E+01  1.14248E+01  8.57064E+00  9.01037E+00  1.35034E+01  1.09900E+01  6.72200E+00  7.53710E+00  1.02590E+01  5.71847E+00
   7.81064E+00  9.84484E+00  1.10821E+01  6.21105E+00  3.51621E+00  6.89773E+00  5.12117E+00  5.23393E+00  3.64992E+00  3.63366E+00
   5.93886E-01  3.32664E+00  1.10265E-02  1.33469E+00  5.40975E+00  8.61379E+00  7.41727E-01  2.38973E+00  8.97864E-01  5.49832E+00
   3.57646E+00  6.17496E+00  4.61746E+00  3.96163E+00  4.45087E+00  5.42452E+00  5.18793E+00  8.33100E+00  5.39532E+00  8.50189E+00
   7.27587E+00  8.55801E+00  6.52420E+00  1.52218E+01  8.07780E+00  7.85445E+00  6.96806E+00  9.11187E+00  8.78689E+00  7.38365E+00
   9.37623E+00  1.27674E+01  1.46761E+01  7.49890E+00  5.36116E+00  9.60220E+00  1.01736E+01  7.73513E+00  8.62272E+00  6.08708E+00
   6.14280E+00  5.63156E+00  1.04739E+00  1.45238E+00  6.64337E+00  3.64766E+00  2.76401E+00  1.38732E+00  7.94005E-01  2.59526E+00
   6.08442E+00  6.82038E+00  5.62281E+00  1.64002E+00  4.73912E+00  2.69765E+00 -3.48934E-03 -1.77537E+00  3.54074E+00  3.66179E+00
   3.64265E+00  7.21720E-01  2.32173E+00  1.16543E+00  5.55286E+00  6.87875E+00  1.07099E+00  4.11767E+00  4.15565E+00  5.30352E+00
  -2.60466E-02  2.44039E-01  4.88369E+00  2.75772E+00  4.75225E+00  1.19458E+00  1.74748E+00 -6.92596E-01  9.95117E-01  1.55973E+00
   2.82632E+00  1.92564E+00  2.44664E+00  5.60360E-01 -1.76051E+00 -3.50806E+00  9.62278E-01  1.55913E+00  4.15488E+00  4.26203E+00
  -2.45628E+00 -4.69463E+00 -8.71745E-01 -2.83283E-01  5.73925E+00  5.26703E-01  9.09159E-01  2.42766E+00  4.71626E-01  2.13033E+00
   1.54143E+00  3.78308E+00  1.74000E+00  6.37471E-01  1.92497E+00 -8.23494E-01  1.83994E+00  2.25070E+00  2.54735E-01  3.54208E-01
   3.23819E-01  5.06522E+00  2.42715E+00  7.99763E-01 -3.10198E-01  3.38609E+00  2.79747E+00  1.79346E+00
 NY points of the fit to the data follow
   1.03421E+01  1.10505E+01  1.20684E+01  1.29874E+01  1.41170E+01  1.48521E+01  1.50963E+01  1.54272E+01  1.47903E+01  1.48579E+01
   1.37027E+01  1.36705E+01  1.26069E+01  1.24429E+01  1.12817E+01  1.09546E+01  9.69229E+00  9.45529E+00  9.01525E+00  9.79946E+00
   9.06769E+00  1.00746E+01  9.12933E+00  1.02916E+01  9.55838E+00  1.14260E+01  1.11639E+01  1.36810E+01  1.34451E+01  1.56032E+01
   1.50252E+01  1.59864E+01  1.49220E+01  1.46471E+01  1.36353E+01  1.31039E+01  1.29063E+01  1.24387E+01  1.26422E+01  1.24495E+01
   1.29140E+01  1.30026E+01  1.35514E+01  1.35456E+01  1.37971E+01  1.33346E+01  1.33131E+01  1.27830E+01  1.23870E+01  1.17021E+01
   1.12197E+01  1.04359E+01  9.85651E+00  9.23517E+00  8.96669E+00  8.64048E+00  8.62855E+00  8.30099E+00  8.26239E+00  7.68127E+00
   7.60542E+00  6.92530E+00  6.89229E+00  6.54731E+00  6.79859E+00  6.64827E+00  6.97462E+00  6.83304E+00  7.20152E+00  6.96836E+00
   7.31821E+00  6.93688E+00  7.16598E+00  6.73894E+00  7.25638E+00  7.62874E+00  7.72107E+00  8.31156E+00  8.13226E+00  9.05092E+00
   8.82227E+00  1.03545E+01  9.70169E+00  1.15829E+01  1.01679E+01  1.18033E+01  9.76024E+00  1.09117E+01  8.86214E+00  1.01312E+01
   1.08203E+01  1.24102E+01  1.33536E+01  1.48009E+01  1.61338E+01  1.77941E+01  2.03910E+01  2.21966E+01  2.51037E+01  2.63098E+01
   2.76146E+01  2.76342E+01  2.69052E+01  2.59963E+01  2.36544E+01  2.20862E+01  1.92958E+01  1.76547E+01  1.51691E+01  1.37959E+01
   1.19524E+01  1.08479E+01  9.29489E+00  8.96833E+00  9.91477E+00  1.04559E+01  1.16458E+01  1.26523E+01  1.51952E+01  1.69466E+01
   2.07735E+01  2.30659E+01  2.71737E+01  2.89230E+01  3.09342E+01  3.13200E+01  3.06211E+01  2.97518E+01  2.74121E+01  2.57677E+01
   2.30267E+01  2.10207E+01  1.85012E+01  1.65387E+01  1.47026E+01  1.29558E+01  1.15494E+01  9.96406E+00  8.85952E+00  7.42483E+00
   6.72052E+00  5.70270E+00  6.03451E+00  5.35991E+00  5.54755E+00  4.97242E+00  5.02479E+00  4.58137E+00  4.53993E+00  4.08422E+00
   4.08183E+00  3.66037E+00  3.66576E+00  3.35095E+00  3.17063E+00  2.80141E+00  2.59820E+00  2.23267E+00  2.13610E+00  1.89245E+00
   1.78271E+00  1.65616E+00  1.40462E+00  1.25123E+00  7.56189E-01  6.19530E-01  1.83316E-01  2.60489E-02 -3.98692E-01 -7.35399E-01
  -1.07739E+00 -1.39118E+00 -1.54172E+00 -1.83791E+00 -1.87368E+00 -2.30612E+00 -2.04769E+00 -2.49850E+00 -1.91631E+00 -2.21435E+00
  -1.43719E+00 -1.71270E+00 -9.33616E-01 -1.21207E+00 -3.93869E-01 -4.39895E-01  1.92156E-01  3.57587E-01  1.04725E+00  1.44721E+00
   1.89353E+00  2.36033E+00  2.68872E+00  3.37053E+00  3.68596E+00  4.51255E+00  4.72203E+00  4.92760E+00  5.34708E+00  5.57923E+00
   5.83625E+00  5.26572E+00  5.03529E+00  3.74031E+00  3.65782E+00  2.33481E+00  2.32409E+00  1.84864E+00  2.54045E+00  2.83689E+00
   4.05902E+00  4.38521E+00  6.02630E+00  6.16093E+00  6.99540E+00  6.55019E+00  6.32435E+00  5.61845E+00  4.96663E+00  4.68515E+00
   4.43052E+00  5.16277E+00  5.33302E+00  6.15345E+00  6.53163E+00  7.24476E+00  7.59561E+00  8.23749E+00  8.38213E+00  8.51594E+00
   8.37947E+00  8.47640E+00  8.91222E+00  9.37496E+00  1.01479E+01  1.06290E+01  1.09071E+01  1.09023E+01  1.03312E+01  9.83577E+00
   9.17230E+00  8.94619E+00  8.84433E+00  9.07873E+00  9.66404E+00  1.04494E+01  1.14025E+01  1.36678E+01  1.89427E+01  2.22002E+01
   2.67891E+01  2.97682E+01  3.42853E+01  3.77896E+01  4.42114E+01  4.81118E+01  5.46533E+01  5.71915E+01  5.99137E+01  5.98687E+01
   5.77811E+01  5.55737E+01  5.03455E+01  4.71418E+01  4.10089E+01  3.78454E+01  3.23558E+01  2.97595E+01  2.55792E+01  2.34753E+01
   1.98259E+01  1.79252E+01  1.45250E+01  1.29248E+01  1.02400E+01  9.44945E+00  8.99384E+00  8.75159E+00  8.50364E+00  8.32847E+00
   8.23517E+00  8.13282E+00  8.14880E+00  8.16520E+00  8.28578E+00  8.40270E+00  8.60757E+00  8.82966E+00  9.12455E+00  9.47761E+00
   9.90427E+00  1.03999E+01  1.09539E+01  1.15764E+01  1.22286E+01  1.29345E+01  1.36402E+01  1.43700E+01  1.50805E+01  1.57840E+01
   1.64467E+01  1.70797E+01  1.76585E+01  1.81928E+01  1.86714E+01  1.91092E+01  1.95078E+01  1.98839E+01  2.02526E+01  2.06336E+01
   2.10499E+01  2.15291E+01  2.21077E+01  2.28478E+01  2.39005E+01  2.54116E+01  2.59868E+01  2.68471E+01  2.71277E+01  2.76343E+01
   2.76394E+01  2.77690E+01  2.67938E+01  2.66905E+01  2.57032E+01  2.41771E+01  2.29589E+01  2.03288E+01  1.94280E+01  1.69551E+01
   1.74014E+01  1.56526E+01  1.76022E+01  1.61596E+01  1.87430E+01  1.73034E+01  1.93600E+01  1.70774E+01  1.83284E+01  1.57914E+01
   1.65687E+01  1.43404E+01  1.49147E+01  1.34336E+01  1.40218E+01  1.21471E+01  1.26152E+01  1.06011E+01  1.09985E+01  9.48136E+00
   1.01229E+01  9.62342E+00  1.09696E+01  1.08241E+01  1.21966E+01  1.18847E+01  1.27995E+01  1.20704E+01  1.23850E+01  1.13935E+01
   1.12651E+01  1.03103E+01  1.00043E+01  9.32897E+00  8.98618E+00  8.34252E+00  7.99118E+00  7.41492E+00  7.05279E+00  6.56330E+00
   6.20325E+00  5.94134E+00  5.73081E+00  5.55805E+00  5.41030E+00  5.28644E+00  5.17985E+00  5.09322E+00  5.02213E+00  4.97080E+00
   4.93562E+00  4.92156E+00  4.92531E+00  4.95216E+00  4.99876E+00  5.07051E+00  5.16395E+00  5.28451E+00  5.42845E+00  5.60094E+00
   5.79762E+00  6.02301E+00  6.27180E+00  6.54752E+00  6.84337E+00  7.16137E+00  7.49287E+00  7.83812E+00  8.18654E+00  8.53668E+00
   8.87625E+00  9.20257E+00  9.50237E+00  9.77278E+00  1.00007E+01  1.01845E+01  1.03124E+01  1.03851E+01  1.03938E+01  1.03424E+01
   1.02255E+01  1.00507E+01  9.81618E+00  9.53271E+00  9.20114E+00  8.83473E+00  8.43577E+00  8.01846E+00  7.58517E+00  7.14971E+00
   6.71334E+00  6.28852E+00  5.87457E+00  5.48198E+00  5.10786E+00  4.76071E+00  4.43565E+00  4.13949E+00  3.86575E+00  3.62003E+00
   3.39477E+00  3.19495E+00  3.01247E+00  2.85209E+00  2.70549E+00  2.57751E+00  2.45987E+00  2.35773E+00  2.26297E+00  2.18106E+00
   2.10404E+00  2.03776E+00  1.97442E+00  1.92019E+00  1.86743E+00  1.82254E+00  1.77796E+00  1.74031E+00  1.70212E+00  1.67020E+00
   1.63708E+00  1.60972E+00  1.58062E+00  1.55691E+00  1.53108E+00  1.51038E+00  1.48725E+00  1.46902E+00  1.44809E+00  1.43193E+00
   1.41288E+00  1.39850E+00  1.38105E+00  1.36816E+00  1.35206E+00  1.34047E+00  1.32557E+00  1.31513E+00  1.30126E+00  1.29182E+00
   1.27886E+00  1.27033E+00  1.25823E+00  1.25053E+00  1.23917E+00  1.23222E+00  1.22155E+00  1.21532E+00  1.20533E+00  1.19978E+00
   1.19041E+00  1.18550E+00  1.17676E+00  1.17253E+00  1.16442E+00  1.16085E+00  1.15337E+00  1.15049E+00  1.14372E+00  1.14162E+00
   1.13561E+00  1.13434E+00  1.12918E+00  1.12890E+00  1.12480E+00  1.12570E+00  1.12287E+00  1.12522E+00
 NY background values follow
     7.301E-01    7.422E-01    7.543E-01    7.665E-01    7.786E-01    7.908E-01    8.030E-01    8.151E-01    8.273E-01    8.395E-01
     8.517E-01    8.640E-01    8.762E-01    8.884E-01    9.006E-01    9.129E-01    9.251E-01    9.373E-01    9.496E-01    9.618E-01
     9.740E-01    9.863E-01    9.985E-01    1.011E+00    1.023E+00    1.035E+00    1.047E+00    1.060E+00    1.072E+00    1.084E+00
     1.096E+00    1.108E+00    1.120E+00    1.133E+00    1.145E+00    1.157E+00    1.169E+00    1.181E+00    1.193E+00    1.205E+00
     1.217E+00    1.229E+00    1.241E+00    1.253E+00    1.265E+00    1.277E+00    1.289E+00    1.301E+00    1.313E+00    1.324E+00
     1.336E+00    1.348E+00    1.360E+00    1.372E+00    1.383E+00    1.395E+00    1.406E+00    1.418E+00    1.430E+00    1.441E+00
     1.453E+00    1.464E+00    1.475E+00    1.487E+00    1.498E+00    1.509E+00    1.520E+00    1.532E+00    1.543E+00    1.554E+00
     1.565E+00    1.576E+00    1.587E+00    1.597E+00    1.608E+00    1.619E+00    1.630E+00    1.640E+00    1.651E+00    1.661E+00
     1.672E+00    1.682E+00    1.692E+00    1.703E+00    1.713E+00    1.723E+00    1.733E+00    1.743E+00    1.753E+00    1.762E+00
     1.772E+00    1.782E+00    1.791E+00    1.801E+00    1.810E+00    1.820E+00    1.829E+00    1.838E+00    1.847E+00    1.856E+00
     1.865E+00    1.874E+00    1.883E+00    1.891E+00    1.900E+00    1.908E+00    1.917E+00    1.925E+00    1.933E+00    1.942E+00
     1.950E+00    1.958E+00    1.966E+00    1.974E+00    1.981E+00    1.989E+00    1.996E+00    2.004E+00    2.011E+00    2.019E+00
     2.026E+00    2.033E+00    2.040E+00    2.047E+00    2.054E+00    2.061E+00    2.067E+00    2.074E+00    2.080E+00    2.087E+00
     2.093E+00    2.099E+00    2.105E+00    2.111E+00    2.117E+00    2.123E+00    2.129E+00    2.134E+00    2.140E+00    2.145E+00
     2.150E+00    2.156E+00    2.161E+00    2.166E+00    2.172E+00    2.177E+00    2.182E+00    2.187E+00    2.192E+00    2.197E+00
     2.203E+00    2.208E+00    2.213E+00    2.218E+00    2.224E+00    2.229E+00    2.235E+00    2.240E+00    2.246E+00    2.252E+00
     2.258E+00    2.264E+00    2.270E+00    2.276E+00    2.283E+00    2.289E+00    2.296E+00    2.303E+00    2.310E+00    2.317E+00
     2.325E+00    2.332E+00    2.340E+00    2.348E+00    2.357E+00    2.365E+00    2.374E+00    2.383E+00    2.393E+00    2.402E+00
     2.412E+00    2.422E+00    2.433E+00    2.444E+00    2.455E+00    2.466E+00    2.478E+00    2.490E+00    2.502E+00    2.514E+00
     2.527E+00    2.540E+00    2.553E+00    2.566E+00    2.580E+00    2.594E+00    2.608E+00    2.622E+00    2.636E+00    2.650E+00
     2.665E+00    2.680E+00    2.695E+00    2.710E+00    2.725E+00    2.740E+00    2.756E+00    2.771E+00    2.787E+00    2.803E+00
     2.819E+00    2.835E+00    2.851E+00    2.867E+00    2.883E+00    2.899E+00    2.915E+00    2.932E+00    2.948E+00    2.964E+00
     2.981E+00    2.997E+00    3.013E+00    3.030E+00    3.046E+00    3.062E+00    3.079E+00    3.095E+00    3.111E+00    3.127E+00
     3.143E+00    3.159E+00    3.175E+00    3.191E+00    3.207E+00    3.223E+00    3.238E+00    3.254E+00    3.269E+00    3.284E+00
     3.299E+00    3.314E+00    3.329E+00    3.344E+00    3.359E+00    3.373E+00    3.387E+00    3.401E+00    3.415E+00    3.429E+00
     3.443E+00    3.456E+00    3.469E+00    3.482E+00    3.495E+00    3.508E+00    3.520E+00    3.532E+00    3.544E+00    3.555E+00
     3.567E+00    3.578E+00    3.589E+00    3.599E+00    3.609E+00    3.619E+00    3.629E+00    3.638E+00    3.648E+00    3.656E+00
     3.665E+00    3.673E+00    3.681E+00    3.688E+00    3.695E+00    3.702E+00    3.709E+00    3.715E+00    3.721E+00    3.726E+00
     3.731E+00    3.736E+00    3.741E+00    3.745E+00    3.748E+00    3.752E+00    3.755E+00    3.758E+00    3.760E+00    3.762E+00
     3.764E+00    3.765E+00    3.766E+00    3.766E+00    3.766E+00    3.766E+00    3.766E+00    3.765E+00    3.763E+00    3.762E+00
     3.760E+00    3.757E+00    3.754E+00    3.751E+00    3.748E+00    3.744E+00    3.739E+00    3.735E+00    3.730E+00    3.724E+00
     3.718E+00    3.712E+00    3.705E+00    3.698E+00    3.691E+00    3.683E+00    3.675E+00    3.666E+00    3.657E+00    3.648E+00
     3.638E+00    3.628E+00    3.617E+00    3.606E+00    3.595E+00    3.583E+00    3.571E+00    3.559E+00    3.547E+00    3.534E+00
     3.521E+00    3.507E+00    3.493E+00    3.479E+00    3.465E+00    3.451E+00    3.436E+00    3.421E+00    3.406E+00    3.390E+00
     3.374E+00    3.358E+00    3.342E+00    3.326E+00    3.309E+00    3.293E+00    3.276E+00    3.259E+00    3.242E+00    3.224E+00
     3.207E+00    3.189E+00    3.172E+00    3.154E+00    3.136E+00    3.118E+00    3.100E+00    3.081E+00    3.063E+00    3.045E+00
     3.026E+00    3.008E+00    2.989E+00    2.971E+00    2.952E+00    2.933E+00    2.915E+00    2.896E+00    2.878E+00    2.859E+00
     2.840E+00    2.822E+00    2.803E+00    2.785E+00    2.766E+00    2.748E+00    2.729E+00    2.711E+00    2.692E+00    2.674E+00
     2.656E+00    2.638E+00    2.620E+00    2.602E+00    2.584E+00    2.566E+00    2.549E+00    2.531E+00    2.514E+00    2.497E+00
     2.480E+00    2.463E+00    2.446E+00    2.429E+00    2.413E+00    2.396E+00    2.380E+00    2.364E+00    2.349E+00    2.333E+00
     2.318E+00    2.302E+00    2.288E+00    2.273E+00    2.258E+00    2.244E+00    2.230E+00    2.216E+00    2.203E+00    2.189E+00
     2.176E+00    2.164E+00    2.151E+00    2.139E+00    2.127E+00    2.115E+00    2.103E+00    2.092E+00    2.080E+00    2.069E+00
     2.058E+00    2.048E+00    2.037E+00    2.027E+00    2.017E+00    2.007E+00    1.997E+00    1.987E+00    1.978E+00    1.969E+00
     1.959E+00    1.950E+00    1.942E+00    1.933E+00    1.924E+00    1.916E+00    1.907E+00    1.899E+00    1.891E+00    1.883E+00
     1.875E+00    1.868E+00    1.860E+00    1.852E+00    1.845E+00    1.837E+00    1.830E+00    1.823E+00    1.816E+00    1.809E+00
     1.802E+00    1.795E+00    1.788E+00    1.781E+00    1.774E+00    1.767E+00    1.761E+00    1.754E+00    1.748E+00    1.741E+00
     1.735E+00    1.728E+00    1.722E+00    1.715E+00    1.709E+00    1.703E+00    1.696E+00    1.690E+00    1.684E+00    1.678E+00
     1.672E+00    1.666E+00    1.660E+00    1.654E+00    1.648E+00    1.642E+00    1.636E+00    1.630E+00    1.624E+00    1.618E+00
     1.613E+00    1.607E+00    1.601E+00    1.595E+00    1.590E+00    1.584E+00    1.578E+00    1.573E+00    1.567E+00    1.561E+00
     1.556E+00    1.550E+00    1.545E+00    1.539E+00    1.534E+00    1.528E+00    1.523E+00    1.517E+00
 Ala      Conc. = 1.43E+03
