 LCModel (Version 6.3-1L) Copyright: S.W. Provencher.          Ref.: Magn. Reson. Med. 30:672-679 (1993).                
 Slice#1 Row#11 Col#4  K_02_press_1_raw_act
 36 lines in following concentration table = NCONC+1
    Conc.  %SD /Cr+PCr  Metabolite                                         
  227.660  50%   0.199 Ala                                                 
    0.000 999%   0.000 Asp                                                 
  480.794  45%   0.421 Cr                                                  
  661.230  34%   0.579 PCr                                                 
   32.631 471% 2.9E-02 GABA                                                
   72.642 208% 6.4E-02 Glc                                                 
  484.541  48%   0.424 Gln                                                 
 1.56E+03  18%   1.365 Glu                                                 
  481.219   5%   0.421 GPC                                                 
    0.000 999%   0.000 PCh                                                 
  305.791  24%   0.268 GSH                                                 
 1.27E+03  21%   1.111 Ins                                                 
    0.000 999%   0.000 Lac                                                 
 2.20E+03   7%   1.923 NAA                                                 
  351.266  43%   0.308 NAAG                                                
  147.744  20%   0.129 Scyllo                                              
   42.166 501% 3.7E-02 Tau                                                 
  255.726  43%   0.224 -CrCH2                                              
  481.219   5%   0.421 GPC+PCh                                             
 2.55E+03   3%   2.231 NAA+NAAG                                            
 1.14E+03   5%   1.000 Cr+PCr                                              
 2.04E+03  20%   1.789 Glu+Gln                                             
   37.303 508% 3.3E-02 Lip13a                                              
    0.000 999%   0.000 Lip13b                                              
    0.000 999%   0.000 Lip09                                               
 1.29E+03  16%   1.131 MM09                                                
    9.961 486% 8.7E-03 Lip20                                               
 1.80E+03  23%   1.579 MM20                                                
  313.446  54%   0.274 MM12                                                
 4.17E+03  12%   3.650+MM14                                                
 2.04E+03  18%   1.788 MM17                                                
   37.303 508% 3.3E-02 Lip13a+Lip13b                                       
 4.52E+03  11%   3.957 MM14+Lip13a+Lip13b+MM12                             
 1.29E+03  16%   1.131 MM09+Lip09                                          
 1.81E+03  22%   1.588 MM20+Lip20                                          
   6 lines in following misc. output table
  FWHM = 0.061 ppm    S/N =  13                                            
  Data shift = 0.000 ppm                                                   
  Ph: -33 deg     -11.9 deg/ppm                                            
  alphaB,S = 5.9E-01,   9.8E+01                                            
   14 spline knots.   Ns = 8(1)                                            
  (14) 5 infls.   (13) 1 extrs.                                            
  498 points on ppm-axis = NY
      4.000000     3.992357     3.984714     3.977070     3.969427     3.961784     3.954141     3.946497     3.938854     3.931211
      3.923568     3.915925     3.908281     3.900638     3.892995     3.885352     3.877708     3.870065     3.862422     3.854779
      3.847136     3.839492     3.831849     3.824206     3.816563     3.808919     3.801276     3.793633     3.785990     3.778347
      3.770703     3.763060     3.755417     3.747774     3.740130     3.732487     3.724844     3.717201     3.709558     3.701914
      3.694271     3.686628     3.678985     3.671341     3.663698     3.656055     3.648412     3.640769     3.633125     3.625482
      3.617839     3.610196     3.602552     3.594909     3.587266     3.579623     3.571980     3.564336     3.556693     3.549050
      3.541407     3.533763     3.526120     3.518477     3.510834     3.503191     3.495547     3.487904     3.480261     3.472618
      3.464974     3.457331     3.449688     3.442045     3.434402     3.426758     3.419115     3.411472     3.403829     3.396185
      3.388542     3.380899     3.373256     3.365613     3.357969     3.350326     3.342683     3.335040     3.327396     3.319753
      3.312110     3.304467     3.296824     3.289180     3.281537     3.273894     3.266251     3.258607     3.250964     3.243321
      3.235678     3.228034     3.220391     3.212748     3.205105     3.197462     3.189818     3.182175     3.174532     3.166889
      3.159245     3.151602     3.143959     3.136316     3.128673     3.121029     3.113386     3.105743     3.098100     3.090456
      3.082813     3.075170     3.067527     3.059884     3.052240     3.044597     3.036954     3.029311     3.021667     3.014024
      3.006381     2.998738     2.991095     2.983451     2.975808     2.968165     2.960522     2.952878     2.945235     2.937592
      2.929949     2.922306     2.914662     2.907019     2.899376     2.891733     2.884089     2.876446     2.868803     2.861160
      2.853517     2.845873     2.838230     2.830587     2.822944     2.815300     2.807657     2.800014     2.792371     2.784728
      2.777084     2.769441     2.761798     2.754155     2.746511     2.738868     2.731225     2.723582     2.715939     2.708295
      2.700652     2.693009     2.685366     2.677722     2.670079     2.662436     2.654793     2.647150     2.639506     2.631863
      2.624220     2.616577     2.608933     2.601290     2.593647     2.586004     2.578361     2.570717     2.563074     2.555431
      2.547788     2.540144     2.532501     2.524858     2.517215     2.509572     2.501928     2.494285     2.486642     2.478999
      2.471355     2.463712     2.456069     2.448426     2.440783     2.433139     2.425496     2.417853     2.410210     2.402566
      2.394923     2.387280     2.379637     2.371994     2.364350     2.356707     2.349064     2.341421     2.333777     2.326134
      2.318491     2.310848     2.303205     2.295561     2.287918     2.280275     2.272632     2.264988     2.257345     2.249702
      2.242059     2.234416     2.226772     2.219129     2.211486     2.203843     2.196199     2.188556     2.180913     2.173270
      2.165627     2.157983     2.150340     2.142697     2.135054     2.127410     2.119767     2.112124     2.104481     2.096838
      2.089194     2.081551     2.073908     2.066265     2.058621     2.050978     2.043335     2.035692     2.028049     2.020405
      2.012762     2.005119     1.997476     1.989833     1.982190     1.974546     1.966903     1.959260     1.951617     1.943974
      1.936331     1.928688     1.921045     1.913402     1.905759     1.898115     1.890472     1.882829     1.875186     1.867543
      1.859900     1.852257     1.844614     1.836971     1.829327     1.821684     1.814041     1.806398     1.798755     1.791112
      1.783469     1.775826     1.768183     1.760540     1.752896     1.745253     1.737610     1.729967     1.722324     1.714681
      1.707038     1.699395     1.691752     1.684108     1.676465     1.668822     1.661179     1.653536     1.645893     1.638250
      1.630607     1.622964     1.615321     1.607677     1.600034     1.592391     1.584748     1.577105     1.569462     1.561819
      1.554176     1.546533     1.538890     1.531246     1.523603     1.515960     1.508317     1.500674     1.493031     1.485388
      1.477745     1.470102     1.462458     1.454815     1.447172     1.439529     1.431886     1.424243     1.416600     1.408957
      1.401314     1.393671     1.386027     1.378384     1.370741     1.363098     1.355455     1.347812     1.340169     1.332526
      1.324883     1.317240     1.309596     1.301953     1.294310     1.286667     1.279024     1.271381     1.263738     1.256095
      1.248452     1.240808     1.233165     1.225522     1.217879     1.210236     1.202593     1.194950     1.187307     1.179664
      1.172021     1.164377     1.156734     1.149091     1.141448     1.133805     1.126162     1.118519     1.110876     1.103233
      1.095590     1.087946     1.080303     1.072660     1.065017     1.057374     1.049731     1.042088     1.034445     1.026802
      1.019158     1.011515     1.003872     0.996229     0.988586     0.980943     0.973300     0.965657     0.958014     0.950371
      0.942727     0.935084     0.927441     0.919798     0.912155     0.904512     0.896869     0.889226     0.881583     0.873940
      0.866296     0.858653     0.851010     0.843367     0.835724     0.828081     0.820438     0.812795     0.805152     0.797508
      0.789865     0.782222     0.774579     0.766936     0.759293     0.751650     0.744007     0.736364     0.728721     0.721077
      0.713434     0.705791     0.698148     0.690505     0.682862     0.675219     0.667576     0.659933     0.652290     0.644646
      0.637003     0.629360     0.621717     0.614074     0.606431     0.598788     0.591145     0.583502     0.575858     0.568215
      0.560572     0.552929     0.545286     0.537643     0.530000     0.522357     0.514714     0.507071     0.499427     0.491784
      0.484141     0.476498     0.468855     0.461212     0.453569     0.445925     0.438282     0.430639     0.422996     0.415353
      0.407710     0.400067     0.392424     0.384780     0.377137     0.369494     0.361851     0.354208     0.346565     0.338922
      0.331278     0.323635     0.315992     0.308349     0.300706     0.293063     0.285420     0.277777     0.270133     0.262490
      0.254847     0.247204     0.239561     0.231918     0.224275     0.216631     0.208988     0.201345
 NY phased data points follow
  -3.24928E+01 -3.09609E+01 -2.97737E+01 -2.72995E+01 -3.00150E+01 -2.35291E+01 -2.49754E+01 -2.51394E+01 -1.67614E+01 -1.39815E+01
  -9.59447E+00 -9.31829E+00 -1.14789E+01 -1.41665E+01 -1.87248E+01 -2.03153E+01 -2.56341E+01 -2.95190E+01 -3.12962E+01 -2.92525E+01
  -2.98415E+01 -2.99573E+01 -3.06458E+01 -2.47816E+01 -2.59497E+01 -2.64994E+01 -2.01374E+01 -2.32440E+01 -2.25849E+01 -2.26450E+01
  -1.92530E+01 -2.03205E+01 -1.78740E+01 -1.93581E+01 -1.70659E+01 -1.79864E+01 -2.18523E+01 -1.90706E+01 -1.98696E+01 -1.95026E+01
  -1.48505E+01 -1.63349E+01 -1.67768E+01 -1.60966E+01 -1.56779E+01 -1.48526E+01 -1.24749E+01 -1.27648E+01 -1.69086E+01 -1.38667E+01
  -1.04319E+01 -1.30225E+01 -1.49488E+01 -1.59192E+01 -1.55200E+01 -1.68636E+01 -1.55264E+01 -1.52775E+01 -1.22540E+01 -1.81145E+01
  -1.69212E+01 -1.89942E+01 -2.04493E+01 -1.72876E+01 -1.90374E+01 -2.14445E+01 -1.66388E+01 -2.19979E+01 -1.88639E+01 -2.04261E+01
  -1.66451E+01 -2.43934E+01 -1.59148E+01 -1.98416E+01 -1.51215E+01 -1.64519E+01 -1.80765E+01 -1.68024E+01 -1.74539E+01 -1.77789E+01
  -1.25139E+01 -1.24969E+01 -1.57926E+01 -1.41235E+01 -1.03608E+01 -1.40362E+01 -1.16548E+01 -1.49237E+01 -1.22511E+01 -1.34472E+01
  -9.94903E+00 -9.79776E+00 -6.91635E+00 -5.08692E+00 -8.91215E+00 -1.63402E+00 -4.20412E+00 -2.18992E-01  4.69508E+00  1.33059E+01
   1.64964E+01  1.60900E+01  2.13019E+01  2.48322E+01  2.36577E+01  1.98142E+01  5.61203E+00  1.87914E-01 -5.72613E+00 -7.40389E+00
  -8.55489E+00 -9.77035E+00 -1.37759E+01 -1.03717E+01 -1.42947E+01 -1.07838E+01 -5.60040E+00 -8.53880E+00 -1.08209E+01 -7.69026E+00
  -2.69640E+00 -1.63840E+00  3.59533E-01  6.61163E+00  1.09024E+01  1.62641E+01  2.25043E+01  2.62248E+01  2.45262E+01  1.99941E+01
   1.31915E+01  8.87738E-01  2.76253E+00 -1.51718E+00 -5.28328E+00 -8.71874E+00 -8.71082E+00 -1.19603E+01 -9.34465E+00 -1.02780E+01
  -1.25010E+01 -1.07250E+01 -9.43827E+00 -9.54748E+00 -7.42894E+00 -8.14944E+00 -5.20481E+00 -8.34935E+00 -6.17676E+00 -1.17822E+01
  -7.16264E+00 -6.88929E+00 -6.31936E+00 -7.58716E+00 -2.51194E+00 -5.87160E+00 -5.50573E+00 -6.32474E+00 -4.98100E+00 -6.30847E+00
  -3.60952E+00 -1.00179E+01 -6.36578E+00 -8.88209E+00 -9.00169E+00 -1.17442E+01 -9.56598E+00 -1.20649E+01 -1.34912E+01 -1.40776E+01
  -1.51370E+01 -2.12136E+01 -1.53800E+01 -1.49562E+01 -1.67213E+01 -2.07993E+01 -2.04584E+01 -2.14579E+01 -1.65103E+01 -1.64196E+01
  -1.29433E+01 -1.28012E+01 -1.22165E+01 -1.12424E+01 -1.14734E+01 -1.27086E+01 -1.09968E+01 -1.50929E+01 -8.78906E+00 -1.39475E+01
  -8.66136E+00 -1.04981E+01 -6.64900E+00 -9.69310E+00 -4.90928E+00 -5.00949E+00 -1.02519E+01 -6.50560E+00 -1.04784E+01 -6.87764E+00
  -9.06030E+00 -2.82707E+00 -5.50611E+00 -1.70763E+00 -3.56334E+00 -3.27040E+00 -4.89676E+00 -5.42357E+00 -5.56706E+00 -7.23494E+00
  -4.06583E+00 -1.21902E-01 -4.77709E+00 -4.29911E+00  1.47600E+00  2.08024E+00  6.77651E-01  1.78693E+00 -1.04460E+00 -2.14670E+00
  -7.57069E+00 -7.69776E+00 -8.97309E+00 -7.37324E+00 -7.63617E+00  1.86019E+00  6.26192E-01  1.52456E+00  1.82396E+00  2.90058E+00
   6.55936E+00  1.86941E+00  5.28644E+00 -4.44959E-01  3.50626E+00  1.29120E+00  1.88730E+00  2.76638E+00  1.07348E+00  3.31042E+00
  -6.86055E-01  3.01919E+00 -4.36047E+00 -1.73177E+00 -2.23940E-01 -2.54955E-01  8.74750E+00  5.68236E+00  9.56307E+00  1.07956E+01
   1.54923E+01  1.83859E+01  2.55041E+01  3.03773E+01  3.33393E+01  4.50193E+01  5.35133E+01  6.30005E+01  6.39215E+01  6.98625E+01
   7.72078E+01  8.30148E+01  7.15652E+01  4.94864E+01  3.50237E+01  2.37228E+01  1.78665E+01  1.50574E+01  4.17099E+00  7.77924E+00
   4.97681E+00  7.69862E+00  8.04862E+00  1.05506E+01  6.82482E+00  9.68385E+00  9.14252E+00  9.34573E+00  5.69791E+00  7.98474E+00
   9.99535E+00  9.08060E+00  9.02058E+00  8.94723E+00  9.32970E+00  8.13923E+00  8.60267E+00  9.42858E+00  8.98452E+00  1.12412E+01
   1.08182E+01  8.12283E+00  1.02347E+01  8.55127E+00  1.05268E+01  1.13732E+01  1.00556E+01  1.14226E+01  1.42511E+01  1.31299E+01
   1.45648E+01  1.55955E+01  1.74221E+01  1.75493E+01  1.79321E+01  1.11603E+01  1.32731E+01  1.52366E+01  1.50685E+01  1.66781E+01
   1.59007E+01  1.90951E+01  2.21681E+01  2.00549E+01  1.90133E+01  2.05976E+01  2.62913E+01  2.31743E+01  2.14785E+01  2.36124E+01
   1.93541E+01  2.10396E+01  2.35333E+01  2.18940E+01  2.72858E+01  2.65287E+01  2.52050E+01  2.68271E+01  2.47091E+01  2.42072E+01
   2.32830E+01  2.49217E+01  2.57857E+01  2.75882E+01  2.59132E+01  2.72336E+01  2.76992E+01  2.58393E+01  2.62175E+01  2.52364E+01
   2.36633E+01  2.21285E+01  2.33086E+01  2.31813E+01  2.01410E+01  2.03788E+01  1.76957E+01  1.77786E+01  1.68447E+01  1.66816E+01
   1.54998E+01  1.56209E+01  1.13340E+01  1.26627E+01  1.19641E+01  8.70791E+00  3.96027E+00  1.63158E+00  7.88309E+00  8.52128E+00
   4.04880E+00  3.59710E+00  5.14204E+00  5.06792E+00  4.10126E+00  8.47681E+00  1.60825E+00  6.15977E+00  3.45350E+00  5.42943E-02
   6.77037E+00  4.61942E+00  3.52527E+00  5.84689E+00  5.75343E+00  4.41214E+00  4.74333E+00  6.06682E+00  3.53150E+00  1.99102E+00
   1.00220E+00  3.02380E+00 -1.46336E-01  4.82529E+00  7.40097E+00  9.90717E-01  6.77878E+00  1.48733E+00  5.59071E+00  4.04084E+00
   4.63169E+00  6.41813E+00  3.50771E+00  8.29738E+00  6.00175E+00  6.18606E+00  5.19754E+00  8.65488E+00  6.45915E+00  7.86121E+00
   9.10586E+00  1.01693E+01  8.80812E+00  9.18988E+00  7.85162E+00  9.02436E+00  8.75192E+00  6.49953E+00  8.87372E+00  8.88955E+00
   9.78088E+00  1.00815E+01  1.23634E+01  8.37252E+00  5.18538E+00  5.12364E+00  6.13126E+00  2.23614E+00  2.33775E+00 -1.25494E+00
  -1.35518E+00  8.38077E-03  4.26051E-01  2.03169E+00  1.53118E+00  1.84919E+00  3.77616E-01  1.68862E+00  7.21604E-01 -4.48309E-01
   5.50914E-01 -5.22036E+00 -2.77612E-01  7.79413E-02  7.22492E-02 -2.70566E+00  4.28276E-01 -6.96133E+00 -5.48690E+00 -4.43434E+00
  -4.72767E-01 -2.64068E-01 -3.61373E+00 -6.87626E-01 -4.12485E+00 -4.95544E+00 -9.08364E-01 -5.30597E-01 -4.64584E-01 -2.56807E+00
  -3.36226E+00 -4.10772E+00 -1.72446E+00 -5.97544E+00 -1.56151E+00 -5.18192E+00 -1.55685E+00 -6.14250E+00 -1.03099E+00 -3.02006E+00
   2.25670E+00 -1.91532E+00 -6.52994E+00 -2.52158E+00 -2.51810E+00 -1.73207E+00 -1.05437E+00 -5.87154E+00 -3.56522E+00 -4.23380E+00
  -5.58734E+00 -3.08993E+00 -1.87924E+00  9.75007E-03 -2.54502E+00 -3.78301E+00 -6.32482E+00 -5.74260E+00 -1.23639E+00 -5.32579E+00
  -2.06616E+00 -4.53930E+00 -5.38420E+00  2.91990E-01 -4.80389E+00 -1.19140E+00 -1.47500E+00 -2.34791E+00  8.01724E-01 -1.22162E+00
  -2.67877E+00 -2.79732E+00 -3.13294E+00 -4.27828E-01 -1.53690E+00 -1.21149E+00 -2.94286E+00 -2.37127E+00
 NY points of the fit to the data follow
  -3.25436E+01 -3.20677E+01 -3.07818E+01 -2.88799E+01 -2.68439E+01 -2.47035E+01 -2.23058E+01 -1.97364E+01 -1.70832E+01 -1.44672E+01
  -1.23166E+01 -1.14475E+01 -1.24937E+01 -1.51850E+01 -1.83994E+01 -2.10914E+01 -2.29797E+01 -2.42698E+01 -2.51485E+01 -2.57237E+01
  -2.61375E+01 -2.63562E+01 -2.60677E+01 -2.54873E+01 -2.49713E+01 -2.43958E+01 -2.36251E+01 -2.29088E+01 -2.22917E+01 -2.12548E+01
  -1.94627E+01 -1.74900E+01 -1.62131E+01 -1.60400E+01 -1.67219E+01 -1.79618E+01 -1.95727E+01 -2.11260E+01 -2.20834E+01 -2.21038E+01
  -2.13424E+01 -2.02223E+01 -1.90003E+01 -1.77274E+01 -1.65260E+01 -1.54649E+01 -1.44066E+01 -1.33542E+01 -1.27064E+01 -1.30262E+01
  -1.44587E+01 -1.63849E+01 -1.80569E+01 -1.91144E+01 -1.95517E+01 -1.95807E+01 -1.93155E+01 -1.88590E+01 -1.83352E+01 -1.77827E+01
  -1.72856E+01 -1.70065E+01 -1.71246E+01 -1.75853E+01 -1.80883E+01 -1.84481E+01 -1.85592E+01 -1.83592E+01 -1.78863E+01 -1.73135E+01
  -1.67818E+01 -1.63184E+01 -1.59474E+01 -1.57292E+01 -1.57101E+01 -1.58442E+01 -1.60137E+01 -1.61419E+01 -1.62028E+01 -1.59396E+01
  -1.53202E+01 -1.48624E+01 -1.44617E+01 -1.38986E+01 -1.32480E+01 -1.26252E+01 -1.19415E+01 -1.11771E+01 -1.06594E+01 -1.09159E+01
  -1.20140E+01 -1.33344E+01 -1.41559E+01 -1.37296E+01 -1.06190E+01 -6.51049E+00 -3.15244E+00  4.15432E-01  4.73291E+00  9.27717E+00
   1.39075E+01  1.91929E+01  2.44594E+01  2.68478E+01  2.38043E+01  1.60834E+01  7.23647E+00  2.49485E-01 -4.51193E+00 -7.99692E+00
  -1.04159E+01 -1.14734E+01 -1.18010E+01 -1.19927E+01 -1.21091E+01 -1.21772E+01 -1.21874E+01 -1.19830E+01 -1.05667E+01 -6.91502E+00
  -3.45431E+00 -5.84021E-01  2.88385E+00  7.01514E+00  1.11898E+01  1.55503E+01  2.04784E+01  2.45276E+01  2.49072E+01  2.03740E+01
   1.28268E+01  5.60266E+00  5.04664E-01 -2.96093E+00 -5.60886E+00 -7.43925E+00 -8.38392E+00 -9.00501E+00 -9.32896E+00 -9.28455E+00
  -8.96889E+00 -8.53968E+00 -8.15801E+00 -7.95844E+00 -7.99696E+00 -8.20722E+00 -8.49153E+00 -8.77611E+00 -8.99913E+00 -9.15427E+00
  -9.26369E+00 -9.32904E+00 -9.45283E+00 -9.72320E+00 -9.96471E+00 -1.01064E+01 -1.01411E+01 -1.00637E+01 -1.00758E+01 -1.02271E+01
  -1.05054E+01 -1.08606E+01 -1.11212E+01 -1.10822E+01 -1.07911E+01 -1.05942E+01 -1.07895E+01 -1.13790E+01 -1.21502E+01 -1.27138E+01
  -1.29655E+01 -1.31020E+01 -1.32495E+01 -1.34390E+01 -1.35774E+01 -1.37354E+01 -1.38371E+01 -1.37118E+01 -1.33488E+01 -1.29907E+01
  -1.27338E+01 -1.26207E+01 -1.24461E+01 -1.19326E+01 -1.11282E+01 -1.03522E+01 -9.72208E+00 -9.00524E+00 -7.97386E+00 -6.72695E+00
  -5.74463E+00 -5.12252E+00 -4.81878E+00 -4.83183E+00 -5.10345E+00 -5.36585E+00 -5.38831E+00 -5.21918E+00 -4.94031E+00 -4.53496E+00
  -3.88078E+00 -3.17860E+00 -2.77041E+00 -2.58704E+00 -2.77750E+00 -3.53710E+00 -4.59870E+00 -5.70006E+00 -6.39760E+00 -6.88492E+00
  -6.97888E+00 -6.25866E+00 -4.81967E+00 -3.20206E+00 -1.89222E+00 -8.39169E-01 -8.71291E-02 -3.55731E-01 -2.13124E+00 -4.63515E+00
  -6.79519E+00 -8.21715E+00 -8.85921E+00 -8.48221E+00 -6.75679E+00 -3.91738E+00 -1.06705E+00  9.01083E-01  1.94896E+00  2.50932E+00
   2.71724E+00  2.51453E+00  2.15469E+00  2.08254E+00  2.28752E+00  2.55560E+00  2.92819E+00  3.36738E+00  3.71691E+00  3.76415E+00
   3.48781E+00  3.01272E+00  2.57831E+00  2.46784E+00  2.90506E+00  3.92150E+00  5.23734E+00  6.71558E+00  8.57921E+00  1.02585E+01
   1.16618E+01  1.44836E+01  2.21520E+01  3.08920E+01  3.78627E+01  4.53067E+01  5.37760E+01  6.11764E+01  6.67890E+01  7.23083E+01
   7.74186E+01  7.76603E+01  6.90256E+01  5.34294E+01  3.74390E+01  2.58205E+01  1.82350E+01  1.26543E+01  8.90276E+00  7.50655E+00
   7.12844E+00  6.87819E+00  6.76841E+00  6.79030E+00  6.88286E+00  6.96836E+00  6.97661E+00  6.88715E+00  6.76446E+00  6.66908E+00
   6.61469E+00  6.60386E+00  6.65489E+00  6.77887E+00  6.96417E+00  7.17694E+00  7.39804E+00  7.63753E+00  7.90901E+00  8.21567E+00
   8.56052E+00  8.95119E+00  9.39652E+00  9.88756E+00  1.04043E+01  1.09355E+01  1.14785E+01  1.20332E+01  1.25959E+01  1.31615E+01
   1.37294E+01  1.42992E+01  1.48608E+01  1.53991E+01  1.59019E+01  1.63628E+01  1.67798E+01  1.71524E+01  1.74827E+01  1.77771E+01
   1.80431E+01  1.82900E+01  1.85293E+01  1.87734E+01  1.90361E+01  1.93328E+01  1.96814E+01  2.01050E+01  2.06458E+01  2.13560E+01
   2.20457E+01  2.26057E+01  2.31858E+01  2.37963E+01  2.43334E+01  2.47482E+01  2.50377E+01  2.52621E+01  2.53438E+01  2.50859E+01
   2.47340E+01  2.46857E+01  2.50116E+01  2.54987E+01  2.60291E+01  2.66600E+01  2.72987E+01  2.75715E+01  2.72039E+01  2.62790E+01
   2.50740E+01  2.37947E+01  2.24749E+01  2.11143E+01  1.97858E+01  1.85291E+01  1.73149E+01  1.61429E+01  1.50209E+01  1.39569E+01
   1.29577E+01  1.20281E+01  1.11711E+01  1.03875E+01  9.67633E+00  9.03521E+00  8.46047E+00  7.94739E+00  7.49055E+00  7.08411E+00
   6.72221E+00  6.39913E+00  6.10947E+00  5.84813E+00  5.61059E+00  5.39288E+00  5.19179E+00  5.00478E+00  4.82991E+00  4.66573E+00
   4.51140E+00  4.36655E+00  4.23135E+00  4.10631E+00  3.99223E+00  3.89013E+00  3.80129E+00  3.72724E+00  3.66973E+00  3.63062E+00
   3.61189E+00  3.61559E+00  3.64394E+00  3.69922E+00  3.78377E+00  3.89976E+00  4.04917E+00  4.23360E+00  4.45430E+00  4.71179E+00
   5.00576E+00  5.33470E+00  5.69585E+00  6.08497E+00  6.49636E+00  6.92268E+00  7.35506E+00  7.78314E+00  8.19548E+00  8.57991E+00
   8.92404E+00  9.21572E+00  9.44363E+00  9.59783E+00  9.67040E+00  9.65585E+00  9.55148E+00  9.35748E+00  9.07692E+00  8.71563E+00
   8.28193E+00  7.78617E+00  7.24017E+00  6.65658E+00  6.04829E+00  5.42784E+00  4.80705E+00  4.19649E+00  3.60521E+00  3.04049E+00
   2.50787E+00  2.01116E+00  1.55263E+00  1.13313E+00  7.52290E-01  4.08750E-01  1.00462E-01 -1.75098E-01 -4.20689E-01 -6.39229E-01
  -8.33629E-01 -1.00673E+00 -1.16114E+00 -1.29925E+00 -1.42315E+00 -1.53474E+00 -1.63569E+00 -1.72748E+00 -1.81131E+00 -1.88819E+00
  -1.95897E+00 -2.02442E+00 -2.08518E+00 -2.14181E+00 -2.19473E+00 -2.24428E+00 -2.29078E+00 -2.33453E+00 -2.37577E+00 -2.41470E+00
  -2.45147E+00 -2.48619E+00 -2.51900E+00 -2.55004E+00 -2.57943E+00 -2.60728E+00 -2.63363E+00 -2.65858E+00 -2.68220E+00 -2.70461E+00
  -2.72587E+00 -2.74602E+00 -2.76509E+00 -2.78312E+00 -2.80020E+00 -2.81639E+00 -2.83171E+00 -2.84619E+00 -2.85984E+00 -2.87272E+00
  -2.88489E+00 -2.89638E+00 -2.90719E+00 -2.91735E+00 -2.92686E+00 -2.93579E+00 -2.94417E+00 -2.95203E+00 -2.95936E+00 -2.96618E+00
  -2.97250E+00 -2.97838E+00 -2.98385E+00 -2.98891E+00 -2.99353E+00 -2.99775E+00 -3.00158E+00 -3.00508E+00 -3.00823E+00 -3.01103E+00
  -3.01347E+00 -3.01555E+00 -3.01731E+00 -3.01876E+00 -3.01986E+00 -3.02059E+00 -3.02092E+00 -3.02086E+00
 NY background values follow
    -3.434E+01   -3.412E+01   -3.390E+01   -3.368E+01   -3.345E+01   -3.323E+01   -3.301E+01   -3.278E+01   -3.256E+01   -3.234E+01
    -3.211E+01   -3.189E+01   -3.166E+01   -3.144E+01   -3.122E+01   -3.099E+01   -3.077E+01   -3.054E+01   -3.032E+01   -3.009E+01
    -2.987E+01   -2.965E+01   -2.942E+01   -2.920E+01   -2.898E+01   -2.876E+01   -2.854E+01   -2.831E+01   -2.809E+01   -2.787E+01
    -2.765E+01   -2.743E+01   -2.722E+01   -2.700E+01   -2.678E+01   -2.657E+01   -2.635E+01   -2.614E+01   -2.592E+01   -2.571E+01
    -2.550E+01   -2.529E+01   -2.508E+01   -2.487E+01   -2.466E+01   -2.445E+01   -2.425E+01   -2.404E+01   -2.384E+01   -2.364E+01
    -2.344E+01   -2.324E+01   -2.304E+01   -2.284E+01   -2.264E+01   -2.245E+01   -2.226E+01   -2.206E+01   -2.187E+01   -2.168E+01
    -2.149E+01   -2.131E+01   -2.112E+01   -2.094E+01   -2.075E+01   -2.057E+01   -2.039E+01   -2.021E+01   -2.004E+01   -1.986E+01
    -1.969E+01   -1.951E+01   -1.934E+01   -1.917E+01   -1.900E+01   -1.884E+01   -1.867E+01   -1.851E+01   -1.834E+01   -1.818E+01
    -1.802E+01   -1.786E+01   -1.771E+01   -1.755E+01   -1.740E+01   -1.725E+01   -1.710E+01   -1.695E+01   -1.680E+01   -1.666E+01
    -1.651E+01   -1.637E+01   -1.623E+01   -1.609E+01   -1.596E+01   -1.582E+01   -1.569E+01   -1.556E+01   -1.543E+01   -1.530E+01
    -1.517E+01   -1.505E+01   -1.492E+01   -1.480E+01   -1.468E+01   -1.456E+01   -1.444E+01   -1.433E+01   -1.421E+01   -1.410E+01
    -1.399E+01   -1.388E+01   -1.377E+01   -1.366E+01   -1.356E+01   -1.345E+01   -1.335E+01   -1.325E+01   -1.315E+01   -1.305E+01
    -1.296E+01   -1.286E+01   -1.277E+01   -1.268E+01   -1.259E+01   -1.250E+01   -1.241E+01   -1.232E+01   -1.224E+01   -1.216E+01
    -1.207E+01   -1.199E+01   -1.191E+01   -1.184E+01   -1.176E+01   -1.168E+01   -1.161E+01   -1.154E+01   -1.147E+01   -1.140E+01
    -1.133E+01   -1.126E+01   -1.119E+01   -1.113E+01   -1.106E+01   -1.100E+01   -1.093E+01   -1.087E+01   -1.081E+01   -1.074E+01
    -1.068E+01   -1.062E+01   -1.056E+01   -1.050E+01   -1.044E+01   -1.038E+01   -1.032E+01   -1.026E+01   -1.020E+01   -1.014E+01
    -1.008E+01   -1.002E+01   -9.956E+00   -9.895E+00   -9.833E+00   -9.771E+00   -9.708E+00   -9.644E+00   -9.579E+00   -9.514E+00
    -9.448E+00   -9.381E+00   -9.313E+00   -9.245E+00   -9.175E+00   -9.103E+00   -9.031E+00   -8.957E+00   -8.882E+00   -8.805E+00
    -8.727E+00   -8.648E+00   -8.567E+00   -8.484E+00   -8.399E+00   -8.314E+00   -8.226E+00   -8.137E+00   -8.047E+00   -7.956E+00
    -7.863E+00   -7.768E+00   -7.673E+00   -7.576E+00   -7.478E+00   -7.378E+00   -7.278E+00   -7.176E+00   -7.073E+00   -6.969E+00
    -6.864E+00   -6.758E+00   -6.651E+00   -6.543E+00   -6.434E+00   -6.324E+00   -6.214E+00   -6.102E+00   -5.989E+00   -5.876E+00
    -5.762E+00   -5.647E+00   -5.532E+00   -5.416E+00   -5.299E+00   -5.181E+00   -5.063E+00   -4.945E+00   -4.826E+00   -4.706E+00
    -4.586E+00   -4.465E+00   -4.344E+00   -4.223E+00   -4.101E+00   -3.979E+00   -3.857E+00   -3.734E+00   -3.611E+00   -3.488E+00
    -3.365E+00   -3.242E+00   -3.119E+00   -2.996E+00   -2.872E+00   -2.749E+00   -2.626E+00   -2.503E+00   -2.381E+00   -2.258E+00
    -2.136E+00   -2.014E+00   -1.893E+00   -1.772E+00   -1.652E+00   -1.532E+00   -1.412E+00   -1.293E+00   -1.175E+00   -1.058E+00
    -9.409E-01   -8.248E-01   -7.096E-01   -5.952E-01   -4.817E-01   -3.692E-01   -2.576E-01   -1.470E-01   -3.755E-02    7.084E-02
     1.781E-01    2.841E-01    3.889E-01    4.925E-01    5.947E-01    6.955E-01    7.950E-01    8.929E-01    9.894E-01    1.084E+00
     1.178E+00    1.270E+00    1.360E+00    1.448E+00    1.535E+00    1.620E+00    1.703E+00    1.785E+00    1.865E+00    1.943E+00
     2.020E+00    2.094E+00    2.167E+00    2.238E+00    2.308E+00    2.375E+00    2.441E+00    2.505E+00    2.567E+00    2.627E+00
     2.686E+00    2.743E+00    2.797E+00    2.850E+00    2.901E+00    2.950E+00    2.998E+00    3.043E+00    3.086E+00    3.128E+00
     3.167E+00    3.205E+00    3.241E+00    3.274E+00    3.306E+00    3.336E+00    3.363E+00    3.389E+00    3.413E+00    3.435E+00
     3.454E+00    3.472E+00    3.487E+00    3.501E+00    3.512E+00    3.522E+00    3.529E+00    3.534E+00    3.537E+00    3.538E+00
     3.537E+00    3.534E+00    3.529E+00    3.522E+00    3.514E+00    3.503E+00    3.491E+00    3.477E+00    3.461E+00    3.444E+00
     3.425E+00    3.404E+00    3.382E+00    3.358E+00    3.332E+00    3.305E+00    3.277E+00    3.247E+00    3.216E+00    3.184E+00
     3.150E+00    3.115E+00    3.079E+00    3.041E+00    3.003E+00    2.963E+00    2.922E+00    2.880E+00    2.837E+00    2.793E+00
     2.748E+00    2.702E+00    2.656E+00    2.608E+00    2.560E+00    2.511E+00    2.461E+00    2.410E+00    2.359E+00    2.307E+00
     2.254E+00    2.201E+00    2.148E+00    2.093E+00    2.039E+00    1.984E+00    1.928E+00    1.872E+00    1.816E+00    1.759E+00
     1.702E+00    1.645E+00    1.587E+00    1.530E+00    1.472E+00    1.413E+00    1.355E+00    1.296E+00    1.237E+00    1.179E+00
     1.120E+00    1.061E+00    1.002E+00    9.427E-01    8.838E-01    8.248E-01    7.660E-01    7.072E-01    6.486E-01    5.901E-01
     5.317E-01    4.736E-01    4.157E-01    3.581E-01    3.007E-01    2.436E-01    1.868E-01    1.304E-01    7.438E-02    1.874E-02
    -3.648E-02   -9.125E-02   -1.455E-01   -1.993E-01   -2.526E-01   -3.054E-01   -3.575E-01   -4.091E-01   -4.600E-01   -5.103E-01
    -5.600E-01   -6.091E-01   -6.576E-01   -7.054E-01   -7.526E-01   -7.991E-01   -8.450E-01   -8.903E-01   -9.349E-01   -9.788E-01
    -1.022E+00   -1.065E+00   -1.107E+00   -1.148E+00   -1.189E+00   -1.229E+00   -1.268E+00   -1.306E+00   -1.344E+00   -1.381E+00
    -1.418E+00   -1.454E+00   -1.489E+00   -1.523E+00   -1.557E+00   -1.590E+00   -1.622E+00   -1.654E+00   -1.685E+00   -1.715E+00
    -1.744E+00   -1.773E+00   -1.801E+00   -1.828E+00   -1.854E+00   -1.880E+00   -1.905E+00   -1.929E+00   -1.952E+00   -1.975E+00
    -1.997E+00   -2.018E+00   -2.038E+00   -2.058E+00   -2.077E+00   -2.095E+00   -2.112E+00   -2.129E+00   -2.145E+00   -2.160E+00
    -2.175E+00   -2.189E+00   -2.202E+00   -2.215E+00   -2.227E+00   -2.239E+00   -2.250E+00   -2.261E+00   -2.271E+00   -2.281E+00
    -2.290E+00   -2.299E+00   -2.307E+00   -2.315E+00   -2.322E+00   -2.330E+00   -2.336E+00   -2.343E+00   -2.349E+00   -2.355E+00
    -2.360E+00   -2.366E+00   -2.371E+00   -2.375E+00   -2.380E+00   -2.384E+00   -2.389E+00   -2.393E+00   -2.397E+00   -2.400E+00
    -2.404E+00   -2.408E+00   -2.411E+00   -2.415E+00   -2.418E+00   -2.421E+00   -2.425E+00   -2.428E+00
 Ala      Conc. = 2.28E+02
