 LCModel (Version 6.3-1L) Copyright: S.W. Provencher.          Ref.: Magn. Reson. Med. 30:672-679 (1993).                
 Slice#3 Row#7 Col#12  K_02_press_1_raw_act
 36 lines in following concentration table = NCONC+1
    Conc.  %SD /Cr+PCr  Metabolite                                         
   23.492 294% 3.4E-02 Ala                                                 
    0.000 999%   0.000 Asp                                                 
    0.000 999%   0.000 Cr                                                  
  681.024   6%   1.000 PCr                                                 
   50.844 182% 7.5E-02 GABA                                                
  103.983  90%   0.153 Glc                                                 
  408.714  34%   0.600 Gln                                                 
 1.28E+03  14%   1.879 Glu                                                 
  156.000   9%   0.229 GPC                                                 
    0.000 999%   0.000 PCh                                                 
   97.468  51%   0.143 GSH                                                 
  436.389  39%   0.641 Ins                                                 
  101.076  75%   0.148 Lac                                                 
 2.00E+03   5%   2.931 NAA                                                 
  303.780  30%   0.446 NAAG                                                
   28.481  63% 4.2E-02 Scyllo                                              
   77.016 178%   0.113 Tau                                                 
  411.998  17%   0.605 -CrCH2                                              
  156.000   9%   0.229 GPC+PCh                                             
 2.30E+03   3%   3.377 NAA+NAAG                                            
  681.024   6%   1.000 Cr+PCr                                              
 1.69E+03  14%   2.479 Glu+Gln                                             
 1.67E+03  19%   2.455 Lip13a                                              
    0.000 999%   0.000 Lip13b                                              
    0.000 999%   0.000 Lip09                                               
  923.086  20%   1.355 MM09                                                
  521.747  25%   0.766 Lip20                                               
 1.74E+03  16%   2.549 MM20                                                
  271.467  26%   0.399 MM12                                                
  769.485  28%   1.130 MM14                                                
  500.459  26%   0.735 MM17                                                
 1.67E+03  19%   2.455 Lip13a+Lip13b                                       
 2.71E+03  14%   3.983 MM14+Lip13a+Lip13b+MM12                             
  923.086  20%   1.355 MM09+Lip09                                          
 2.26E+03  13%   3.315 MM20+Lip20                                          
   6 lines in following misc. output table
  FWHM = 0.046 ppm    S/N =  16                                            
  Data shift =-0.008 ppm                                                   
  Ph: -30 deg     -17.1 deg/ppm                                            
  alphaB,S = 3.1E-01,   9.1E+01                                            
   14 spline knots.   Ns = 6(1)                                            
  ( 8) 2 infls.   ( 3) 1 extrs.                                            
  498 points on ppm-axis = NY
      4.000000     3.992357     3.984714     3.977070     3.969427     3.961784     3.954141     3.946497     3.938854     3.931211
      3.923568     3.915925     3.908281     3.900638     3.892995     3.885352     3.877708     3.870065     3.862422     3.854779
      3.847136     3.839492     3.831849     3.824206     3.816563     3.808919     3.801276     3.793633     3.785990     3.778347
      3.770703     3.763060     3.755417     3.747774     3.740130     3.732487     3.724844     3.717201     3.709558     3.701914
      3.694271     3.686628     3.678985     3.671341     3.663698     3.656055     3.648412     3.640769     3.633125     3.625482
      3.617839     3.610196     3.602552     3.594909     3.587266     3.579623     3.571980     3.564336     3.556693     3.549050
      3.541407     3.533763     3.526120     3.518477     3.510834     3.503191     3.495547     3.487904     3.480261     3.472618
      3.464974     3.457331     3.449688     3.442045     3.434402     3.426758     3.419115     3.411472     3.403829     3.396185
      3.388542     3.380899     3.373256     3.365613     3.357969     3.350326     3.342683     3.335040     3.327396     3.319753
      3.312110     3.304467     3.296824     3.289180     3.281537     3.273894     3.266251     3.258607     3.250964     3.243321
      3.235678     3.228034     3.220391     3.212748     3.205105     3.197462     3.189818     3.182175     3.174532     3.166889
      3.159245     3.151602     3.143959     3.136316     3.128673     3.121029     3.113386     3.105743     3.098100     3.090456
      3.082813     3.075170     3.067527     3.059884     3.052240     3.044597     3.036954     3.029311     3.021667     3.014024
      3.006381     2.998738     2.991095     2.983451     2.975808     2.968165     2.960522     2.952878     2.945235     2.937592
      2.929949     2.922306     2.914662     2.907019     2.899376     2.891733     2.884089     2.876446     2.868803     2.861160
      2.853517     2.845873     2.838230     2.830587     2.822944     2.815300     2.807657     2.800014     2.792371     2.784728
      2.777084     2.769441     2.761798     2.754155     2.746511     2.738868     2.731225     2.723582     2.715939     2.708295
      2.700652     2.693009     2.685366     2.677722     2.670079     2.662436     2.654793     2.647150     2.639506     2.631863
      2.624220     2.616577     2.608933     2.601290     2.593647     2.586004     2.578361     2.570717     2.563074     2.555431
      2.547788     2.540144     2.532501     2.524858     2.517215     2.509572     2.501928     2.494285     2.486642     2.478999
      2.471355     2.463712     2.456069     2.448426     2.440783     2.433139     2.425496     2.417853     2.410210     2.402566
      2.394923     2.387280     2.379637     2.371994     2.364350     2.356707     2.349064     2.341421     2.333777     2.326134
      2.318491     2.310848     2.303205     2.295561     2.287918     2.280275     2.272632     2.264988     2.257345     2.249702
      2.242059     2.234416     2.226772     2.219129     2.211486     2.203843     2.196199     2.188556     2.180913     2.173270
      2.165627     2.157983     2.150340     2.142697     2.135054     2.127410     2.119767     2.112124     2.104481     2.096838
      2.089194     2.081551     2.073908     2.066265     2.058621     2.050978     2.043335     2.035692     2.028049     2.020405
      2.012762     2.005119     1.997476     1.989833     1.982190     1.974546     1.966903     1.959260     1.951617     1.943974
      1.936331     1.928688     1.921045     1.913402     1.905759     1.898115     1.890472     1.882829     1.875186     1.867543
      1.859900     1.852257     1.844614     1.836971     1.829327     1.821684     1.814041     1.806398     1.798755     1.791112
      1.783469     1.775826     1.768183     1.760540     1.752896     1.745253     1.737610     1.729967     1.722324     1.714681
      1.707038     1.699395     1.691752     1.684108     1.676465     1.668822     1.661179     1.653536     1.645893     1.638250
      1.630607     1.622964     1.615321     1.607677     1.600034     1.592391     1.584748     1.577105     1.569462     1.561819
      1.554176     1.546533     1.538890     1.531246     1.523603     1.515960     1.508317     1.500674     1.493031     1.485388
      1.477745     1.470102     1.462458     1.454815     1.447172     1.439529     1.431886     1.424243     1.416600     1.408957
      1.401314     1.393671     1.386027     1.378384     1.370741     1.363098     1.355455     1.347812     1.340169     1.332526
      1.324883     1.317240     1.309596     1.301953     1.294310     1.286667     1.279024     1.271381     1.263738     1.256095
      1.248452     1.240808     1.233165     1.225522     1.217879     1.210236     1.202593     1.194950     1.187307     1.179664
      1.172021     1.164377     1.156734     1.149091     1.141448     1.133805     1.126162     1.118519     1.110876     1.103233
      1.095590     1.087946     1.080303     1.072660     1.065017     1.057374     1.049731     1.042088     1.034445     1.026802
      1.019158     1.011515     1.003872     0.996229     0.988586     0.980943     0.973300     0.965657     0.958014     0.950371
      0.942727     0.935084     0.927441     0.919798     0.912155     0.904512     0.896869     0.889226     0.881583     0.873940
      0.866296     0.858653     0.851010     0.843367     0.835724     0.828081     0.820438     0.812795     0.805152     0.797508
      0.789865     0.782222     0.774579     0.766936     0.759293     0.751650     0.744007     0.736364     0.728721     0.721077
      0.713434     0.705791     0.698148     0.690505     0.682862     0.675219     0.667576     0.659933     0.652290     0.644646
      0.637003     0.629360     0.621717     0.614074     0.606431     0.598788     0.591145     0.583502     0.575858     0.568215
      0.560572     0.552929     0.545286     0.537643     0.530000     0.522357     0.514714     0.507071     0.499427     0.491784
      0.484141     0.476498     0.468855     0.461212     0.453569     0.445925     0.438282     0.430639     0.422996     0.415353
      0.407710     0.400067     0.392424     0.384780     0.377137     0.369494     0.361851     0.354208     0.346565     0.338922
      0.331278     0.323635     0.315992     0.308349     0.300706     0.293063     0.285420     0.277777     0.270133     0.262490
      0.254847     0.247204     0.239561     0.231918     0.224275     0.216631     0.208988     0.201345
 NY phased data points follow
   2.39220E+00  3.76809E+00  4.07644E+00  3.07767E+00  3.63021E+00  2.49283E+00  4.06250E+00  7.47273E+00  5.88058E+00  9.98032E+00
   9.01910E+00  6.73256E+00  8.22048E+00  5.26632E+00  3.69329E+00  4.79063E+00  4.73340E+00  4.13765E+00 -8.79673E-01  5.84122E+00
   1.83195E+00  1.66526E+00  4.50433E+00  5.29616E+00  5.37948E+00  5.96316E+00  6.67477E+00  4.26258E+00  5.72134E+00  5.81748E+00
   3.29864E+00  4.15572E+00  5.44428E+00  2.48131E+00  6.10050E+00  2.51700E-01  3.56500E+00  3.68157E+00  5.75660E+00  4.22774E+00
   8.50714E+00  4.02804E+00  4.48869E+00  6.73345E+00  3.25207E+00  5.61420E+00  1.04748E+01  7.22550E+00  1.10450E+01  7.95481E+00
   6.90600E+00  7.41241E+00  7.57899E+00  4.75625E+00  5.52752E+00  8.95186E+00  5.31616E+00  5.27666E+00  4.53726E+00  6.65177E+00
   2.70219E+00  1.65549E+00  6.91152E+00  1.91540E+00  6.05906E+00  2.15106E+00  2.76118E+00  3.20088E+00  4.92837E+00  7.67851E+00
   4.82161E+00  2.21393E+00  5.22613E+00  5.72332E+00  5.88560E+00  6.43246E+00  2.32837E+00  5.02901E+00  4.97839E+00  6.45400E+00
   8.06480E+00  1.23128E+00  7.01337E+00  6.84056E+00  6.76726E+00  5.03255E+00  4.90583E+00  4.12619E+00  3.14394E+00  5.09385E+00
   6.84274E+00  4.75207E+00  5.94526E+00  8.60855E+00  6.70154E+00  8.29139E+00  6.55208E+00  8.83259E+00  8.70884E+00  5.24455E+00
   1.16369E+01  1.54115E+01  1.92315E+01  2.33227E+01  2.12242E+01  1.65788E+01  1.69010E+01  1.29114E+01  1.20424E+01  6.44981E+00
   2.97292E+00  4.59926E+00  5.45624E+00  8.31654E+00  3.06968E+00  6.33860E+00  6.74035E+00  6.21825E+00  8.66299E+00  7.31808E+00
   9.79895E+00  4.77253E+00  9.84463E+00  1.09234E+01  1.52857E+01  2.36761E+01  2.61727E+01  3.47543E+01  3.28510E+01  2.82876E+01
   2.29204E+01  1.85575E+01  1.48628E+01  1.11525E+01  9.26149E+00  7.44824E+00  5.36462E+00  6.52419E+00  6.87786E+00  6.19600E+00
   7.75723E+00  6.40485E+00  9.06380E+00  1.06208E+01  8.58391E+00  8.57431E+00  9.82294E+00  7.49237E+00  6.61492E+00  7.81134E+00
   7.13056E+00  4.91757E+00  7.47579E+00  3.84494E+00  4.87877E+00  5.34288E+00  7.77185E+00  7.84081E+00  8.58432E+00  9.56764E+00
   1.22956E+01  6.80004E+00  6.63281E+00  3.47562E+00  5.69089E+00  8.66911E+00  3.37396E+00  7.45778E+00 -1.22309E+00  2.53103E+00
   2.48333E+00  8.92947E-01  3.81476E-01 -5.65244E-01 -2.56901E+00 -3.69378E+00 -3.11321E+00 -7.43649E-01 -3.32222E+00  1.17446E-01
   5.08954E-01  2.01050E+00  4.79613E+00  4.16072E+00  2.47252E+00  2.16748E+00  1.12007E+00  2.94056E+00  4.11392E+00  4.19483E+00
   7.15544E+00  6.04951E+00  1.10460E+01  9.75275E+00  9.78869E+00  8.81285E+00  4.84992E+00  2.96567E+00  3.68549E+00  2.46033E+00
   9.36622E+00  6.02607E+00  1.04379E+01  1.38816E+01  1.24463E+01  1.27284E+01  1.05247E+01  1.31139E+01  1.23624E+01  9.40422E+00
   9.88095E+00  1.43113E+01  1.71958E+01  2.05267E+01  2.62977E+01  2.75028E+01  2.80459E+01  2.82489E+01  2.41231E+01  2.09413E+01
   1.72488E+01  1.26004E+01  1.03878E+01  1.48212E+01  1.82736E+01  1.80569E+01  2.13430E+01  2.32738E+01  2.65323E+01  2.45481E+01
   2.62894E+01  2.36913E+01  2.27677E+01  2.63845E+01  2.68453E+01  2.58486E+01  2.57530E+01  2.63982E+01  2.65072E+01  2.62246E+01
   2.69331E+01  2.27168E+01  2.29028E+01  2.45427E+01  2.40407E+01  2.45885E+01  2.91338E+01  2.91303E+01  2.94544E+01  2.75432E+01
   2.82768E+01  3.18979E+01  3.10889E+01  3.71986E+01  4.74405E+01  5.05216E+01  5.44395E+01  6.60969E+01  8.16555E+01  1.02932E+02
   1.12639E+02  1.08123E+02  9.19663E+01  7.35306E+01  5.84079E+01  5.17033E+01  4.13582E+01  3.30264E+01  3.27688E+01  2.92756E+01
   2.80590E+01  2.67827E+01  2.95859E+01  2.80105E+01  2.57646E+01  2.58465E+01  2.71629E+01  2.35099E+01  2.62433E+01  2.64726E+01
   2.73883E+01  2.31185E+01  2.06244E+01  2.14696E+01  2.15251E+01  2.26207E+01  1.97764E+01  2.35543E+01  2.51051E+01  2.18435E+01
   2.53882E+01  2.24296E+01  2.40650E+01  2.32085E+01  2.05977E+01  2.48390E+01  2.40184E+01  2.23628E+01  2.27825E+01  2.18725E+01
   2.13649E+01  2.01004E+01  1.92421E+01  2.64532E+01  2.18394E+01  2.32622E+01  2.31814E+01  2.37974E+01  2.24941E+01  2.44609E+01
   2.13419E+01  2.73166E+01  2.49315E+01  2.57860E+01  2.39420E+01  2.13920E+01  2.65746E+01  2.10094E+01  2.17438E+01  2.24100E+01
   2.12293E+01  2.04855E+01  2.01288E+01  1.87054E+01  2.09408E+01  2.17299E+01  2.00718E+01  1.95546E+01  1.91758E+01  2.16231E+01
   1.99776E+01  2.11325E+01  1.92651E+01  1.82751E+01  2.13211E+01  2.02532E+01  1.72797E+01  2.07798E+01  2.28010E+01  2.18341E+01
   2.05076E+01  2.24157E+01  2.40461E+01  2.12087E+01  2.19573E+01  2.59728E+01  2.69669E+01  2.53687E+01  2.33090E+01  2.05604E+01
   2.08170E+01  2.07597E+01  2.46359E+01  2.41841E+01  2.66591E+01  2.43455E+01  2.26391E+01  2.13265E+01  1.93785E+01  2.00949E+01
   2.08782E+01  1.87672E+01  1.90089E+01  1.63906E+01  1.79655E+01  1.36665E+01  1.46089E+01  1.56245E+01  1.49472E+01  1.25318E+01
   1.18806E+01  1.34084E+01  9.98346E+00  9.68118E+00  1.24356E+01  9.90277E+00  1.09297E+01  7.71959E+00  7.68982E+00  1.10897E+01
   5.72297E+00  5.15199E+00  6.69063E+00  5.73099E+00  3.26234E+00  2.39478E+00  6.08961E+00  7.88591E+00  9.05399E+00  4.29056E+00
   5.09629E+00  5.61429E+00  4.63633E+00  6.58422E+00  7.24725E+00  5.80037E+00  5.91099E+00  5.24534E+00  7.63441E+00  8.69017E+00
   5.62536E+00  6.99855E+00  4.41480E+00  6.30031E+00  7.09879E+00  7.35928E+00  8.29711E+00  8.56927E+00  7.72562E+00  6.81239E+00
   8.98022E+00  6.65893E+00  6.75731E+00  7.39334E+00  7.86679E+00  6.98464E+00  4.28817E+00  5.70098E+00  2.31572E+00  2.71148E+00
   3.57563E+00  4.29782E+00  3.04616E+00  3.44009E+00  4.97426E+00  4.61743E+00  4.12038E+00  5.49436E+00  1.68940E+00 -3.02285E-01
   5.21481E+00  4.61384E+00  3.95769E+00  2.09359E+00  4.23628E+00  2.92856E+00  3.83640E+00  3.06906E+00  1.79153E-01  3.31225E+00
   2.37416E+00  3.99310E+00  3.57076E+00  1.78272E+00  2.36443E+00  5.27207E-01  3.62895E+00  2.78288E+00  3.95136E+00  3.67821E+00
   8.18134E-02  4.09455E+00  2.04558E+00  1.74654E+00  1.29554E+00  4.10920E+00  2.40584E+00  4.47595E-01  4.24401E+00  2.76814E+00
   3.22536E+00  3.33418E+00  2.42425E+00 -7.08535E-02  4.72039E+00  2.52942E+00 -3.08056E-01  1.35962E+00  1.41931E+00  2.75214E+00
   1.58170E+00  3.92335E+00  1.22154E+00  2.27074E+00  2.57670E+00  3.49698E+00  4.19415E+00  6.57393E-01  3.51512E+00  3.18792E-01
  -2.55884E+00  1.53787E+00  3.83745E+00  1.02914E+00  3.99712E+00  3.06313E+00  2.14572E+00  1.91802E+00  3.68671E+00  6.00666E+00
   4.21834E+00 -3.33871E-01  4.85803E+00 -1.36308E+00  2.37176E+00  2.52468E+00  4.24801E+00 -3.69639E-01
 NY points of the fit to the data follow
   1.89728E+00  1.75252E+00  1.74479E+00  1.90151E+00  2.36951E+00  3.11568E+00  4.31395E+00  6.03021E+00  7.86514E+00  9.14346E+00
   9.38116E+00  8.64987E+00  7.45747E+00  6.31638E+00  5.44034E+00  4.74209E+00  4.15584E+00  3.75716E+00  3.65670E+00  3.71950E+00
   3.86702E+00  4.08530E+00  4.24790E+00  4.33338E+00  4.31493E+00  4.07678E+00  3.69355E+00  3.45645E+00  3.70425E+00  4.61172E+00
   5.99106E+00  7.46710E+00  8.56278E+00  8.86663E+00  8.24873E+00  6.90896E+00  5.24906E+00  3.86967E+00  3.16150E+00  3.08445E+00
   3.43475E+00  3.98002E+00  4.56295E+00  5.15520E+00  5.82766E+00  6.67646E+00  7.57529E+00  8.18362E+00  8.23149E+00  7.70425E+00
   6.83711E+00  5.95758E+00  5.24204E+00  4.72166E+00  4.38631E+00  4.23434E+00  4.28245E+00  4.51178E+00  4.86863E+00  5.24781E+00
   5.49868E+00  5.51183E+00  5.28754E+00  4.95284E+00  4.65151E+00  4.46387E+00  4.40603E+00  4.44980E+00  4.56587E+00  4.75039E+00
   4.99818E+00  5.26913E+00  5.52475E+00  5.73713E+00  5.87168E+00  5.89827E+00  5.80218E+00  5.60663E+00  5.36771E+00  5.16931E+00
   5.10147E+00  5.15068E+00  5.29309E+00  5.56291E+00  5.89536E+00  6.08675E+00  5.95461E+00  5.50294E+00  4.93557E+00  4.49667E+00
   4.28804E+00  4.23659E+00  4.22232E+00  4.22820E+00  4.30232E+00  4.44432E+00  4.66898E+00  5.25027E+00  6.28936E+00  8.15468E+00
   1.14931E+01  1.59925E+01  2.01037E+01  2.20430E+01  2.11522E+01  1.82988E+01  1.49869E+01  1.22077E+01  1.00273E+01  8.17476E+00
   6.69513E+00  5.92228E+00  5.68308E+00  5.59093E+00  5.54345E+00  5.51597E+00  5.49759E+00  5.47557E+00  5.45949E+00  5.48770E+00
   5.68543E+00  6.51055E+00  8.16707E+00  1.10410E+01  1.60378E+01  2.28176E+01  2.91927E+01  3.24853E+01  3.15356E+01  2.74714E+01
   2.25362E+01  1.82791E+01  1.48504E+01  1.18041E+01  9.16206E+00  7.52052E+00  6.85037E+00  6.61510E+00  6.63340E+00  6.78847E+00
   6.96838E+00  7.09724E+00  7.13725E+00  7.09570E+00  7.01344E+00  6.92132E+00  6.83153E+00  6.75421E+00  6.68142E+00  6.61496E+00
   6.54897E+00  6.46744E+00  6.38034E+00  6.32846E+00  6.34447E+00  6.40770E+00  6.47898E+00  6.44125E+00  6.13399E+00  5.58678E+00
   5.02207E+00  4.78180E+00  5.05913E+00  5.64096E+00  6.06379E+00  6.00691E+00  5.51553E+00  4.88884E+00  4.38433E+00  4.04281E+00
   3.78123E+00  3.50930E+00  3.18487E+00  2.76160E+00  2.30861E+00  2.06438E+00  2.26867E+00  2.83958E+00  3.37493E+00  3.57784E+00
   3.53476E+00  3.55650E+00  3.86822E+00  4.34590E+00  4.68405E+00  4.92361E+00  5.46321E+00  6.54056E+00  8.01900E+00  9.46920E+00
   1.05114E+01  1.10731E+01  1.12527E+01  1.12678E+01  1.12814E+01  1.13091E+01  1.13583E+01  1.14945E+01  1.18258E+01  1.24219E+01
   1.33183E+01  1.44466E+01  1.55805E+01  1.63982E+01  1.65173E+01  1.58013E+01  1.42567E+01  1.22061E+01  1.03131E+01  9.14776E+00
   9.00111E+00  9.90993E+00  1.18736E+01  1.48772E+01  1.83947E+01  2.13274E+01  2.25300E+01  2.16073E+01  1.90943E+01  1.59131E+01
   1.27448E+01  1.03064E+01  9.43595E+00  1.05731E+01  1.33481E+01  1.66621E+01  1.94683E+01  2.14254E+01  2.25952E+01  2.31170E+01
   2.31206E+01  2.28710E+01  2.27024E+01  2.28221E+01  2.32208E+01  2.38445E+01  2.45916E+01  2.52644E+01  2.56469E+01  2.55526E+01
   2.50306E+01  2.44251E+01  2.41807E+01  2.45282E+01  2.53715E+01  2.64164E+01  2.73565E+01  2.80731E+01  2.85929E+01  2.90956E+01
   2.99256E+01  3.12862E+01  3.36529E+01  3.73642E+01  4.27482E+01  4.94063E+01  5.69328E+01  6.82922E+01  8.45463E+01  1.01031E+02
   1.09898E+02  1.06452E+02  9.28978E+01  7.60273E+01  6.15082E+01  5.04300E+01  4.12959E+01  3.36117E+01  2.87270E+01  2.68625E+01
   2.60108E+01  2.55358E+01  2.53368E+01  2.52913E+01  2.52375E+01  2.50960E+01  2.48514E+01  2.45385E+01  2.42000E+01  2.38682E+01
   2.35637E+01  2.33122E+01  2.31318E+01  2.30076E+01  2.29040E+01  2.27984E+01  2.26905E+01  2.25864E+01  2.24922E+01  2.24186E+01
   2.23807E+01  2.23806E+01  2.24015E+01  2.24268E+01  2.24529E+01  2.24800E+01  2.25093E+01  2.25443E+01  2.25901E+01  2.26530E+01
   2.27356E+01  2.28306E+01  2.29255E+01  2.30103E+01  2.30781E+01  2.31243E+01  2.31438E+01  2.31337E+01  2.30943E+01  2.30261E+01
   2.29290E+01  2.28047E+01  2.26557E+01  2.24863E+01  2.23007E+01  2.21043E+01  2.19020E+01  2.16995E+01  2.15025E+01  2.13172E+01
   2.11499E+01  2.10081E+01  2.08906E+01  2.07990E+01  2.07315E+01  2.06608E+01  2.05498E+01  2.03853E+01  2.01931E+01  2.00265E+01
   1.99238E+01  1.98917E+01  1.99368E+01  2.00698E+01  2.02844E+01  2.05436E+01  2.07913E+01  2.10017E+01  2.11950E+01  2.14079E+01
   2.16705E+01  2.20025E+01  2.23826E+01  2.28225E+01  2.33009E+01  2.36678E+01  2.37486E+01  2.34911E+01  2.30251E+01  2.25869E+01
   2.23042E+01  2.22198E+01  2.23557E+01  2.26893E+01  2.31037E+01  2.33928E+01  2.33471E+01  2.29339E+01  2.22763E+01  2.14957E+01
   2.06381E+01  1.97072E+01  1.87334E+01  1.77864E+01  1.68774E+01  1.59967E+01  1.51465E+01  1.43327E+01  1.35609E+01  1.28360E+01
   1.21606E+01  1.15364E+01  1.09632E+01  1.04404E+01  9.96596E+00  9.53800E+00  9.15344E+00  8.80945E+00  8.50291E+00  8.23147E+00
   7.99264E+00  7.78453E+00  7.60498E+00  7.45258E+00  7.32593E+00  7.22448E+00  7.14740E+00  7.09430E+00  7.06426E+00  7.05689E+00
   7.07141E+00  7.10740E+00  7.16361E+00  7.23871E+00  7.33046E+00  7.43673E+00  7.55458E+00  7.68096E+00  7.81177E+00  7.94274E+00
   8.06886E+00  8.18547E+00  8.28751E+00  8.37036E+00  8.42911E+00  8.45969E+00  8.45839E+00  8.42291E+00  8.35145E+00  8.24350E+00
   8.09907E+00  7.91967E+00  7.70756E+00  7.46636E+00  7.20001E+00  6.91324E+00  6.61062E+00  6.29738E+00  5.97839E+00  5.65875E+00
   5.34269E+00  5.03419E+00  4.73625E+00  4.45178E+00  4.18277E+00  3.93099E+00  3.69708E+00  3.48153E+00  3.28402E+00  3.10443E+00
   2.94201E+00  2.79614E+00  2.66553E+00  2.54917E+00  2.44571E+00  2.35431E+00  2.27381E+00  2.20334E+00  2.14162E+00  2.08786E+00
   2.04106E+00  2.00081E+00  1.96630E+00  1.93703E+00  1.91215E+00  1.89132E+00  1.87399E+00  1.86007E+00  1.84902E+00  1.84060E+00
   1.83425E+00  1.82990E+00  1.82724E+00  1.82634E+00  1.82681E+00  1.82861E+00  1.83140E+00  1.83533E+00  1.84024E+00  1.84626E+00
   1.85306E+00  1.86065E+00  1.86879E+00  1.87773E+00  1.88731E+00  1.89765E+00  1.90841E+00  1.91968E+00  1.93129E+00  1.94350E+00
   1.95614E+00  1.96930E+00  1.98267E+00  1.99640E+00  2.01037E+00  2.02484E+00  2.03960E+00  2.05469E+00  2.06986E+00  2.08531E+00
   2.10095E+00  2.11700E+00  2.13322E+00  2.14965E+00  2.16610E+00  2.18280E+00  2.19967E+00  2.21689E+00  2.23418E+00  2.25162E+00
   2.26906E+00  2.28678E+00  2.30467E+00  2.32286E+00  2.34107E+00  2.35944E+00  2.37787E+00  2.39666E+00
 NY background values follow
     1.443E+00    1.475E+00    1.506E+00    1.538E+00    1.570E+00    1.602E+00    1.634E+00    1.667E+00    1.699E+00    1.732E+00
     1.766E+00    1.799E+00    1.833E+00    1.866E+00    1.900E+00    1.934E+00    1.969E+00    2.003E+00    2.038E+00    2.073E+00
     2.108E+00    2.143E+00    2.178E+00    2.213E+00    2.249E+00    2.284E+00    2.320E+00    2.356E+00    2.392E+00    2.428E+00
     2.464E+00    2.501E+00    2.537E+00    2.574E+00    2.610E+00    2.647E+00    2.684E+00    2.721E+00    2.758E+00    2.795E+00
     2.832E+00    2.869E+00    2.906E+00    2.944E+00    2.981E+00    3.018E+00    3.056E+00    3.093E+00    3.131E+00    3.168E+00
     3.205E+00    3.243E+00    3.280E+00    3.317E+00    3.354E+00    3.391E+00    3.428E+00    3.464E+00    3.500E+00    3.537E+00
     3.572E+00    3.608E+00    3.643E+00    3.678E+00    3.713E+00    3.748E+00    3.782E+00    3.815E+00    3.849E+00    3.881E+00
     3.914E+00    3.946E+00    3.977E+00    4.008E+00    4.039E+00    4.069E+00    4.098E+00    4.127E+00    4.155E+00    4.182E+00
     4.209E+00    4.236E+00    4.261E+00    4.286E+00    4.310E+00    4.334E+00    4.356E+00    4.378E+00    4.399E+00    4.420E+00
     4.439E+00    4.458E+00    4.475E+00    4.492E+00    4.508E+00    4.524E+00    4.538E+00    4.552E+00    4.565E+00    4.578E+00
     4.590E+00    4.601E+00    4.611E+00    4.621E+00    4.631E+00    4.639E+00    4.648E+00    4.656E+00    4.663E+00    4.670E+00
     4.677E+00    4.683E+00    4.689E+00    4.694E+00    4.699E+00    4.704E+00    4.709E+00    4.713E+00    4.717E+00    4.721E+00
     4.725E+00    4.728E+00    4.732E+00    4.735E+00    4.738E+00    4.741E+00    4.745E+00    4.748E+00    4.751E+00    4.754E+00
     4.758E+00    4.761E+00    4.765E+00    4.768E+00    4.772E+00    4.776E+00    4.781E+00    4.785E+00    4.790E+00    4.796E+00
     4.802E+00    4.809E+00    4.816E+00    4.825E+00    4.835E+00    4.846E+00    4.858E+00    4.872E+00    4.888E+00    4.905E+00
     4.924E+00    4.945E+00    4.968E+00    4.993E+00    5.020E+00    5.050E+00    5.083E+00    5.118E+00    5.155E+00    5.196E+00
     5.240E+00    5.286E+00    5.336E+00    5.390E+00    5.447E+00    5.507E+00    5.571E+00    5.639E+00    5.711E+00    5.787E+00
     5.867E+00    5.952E+00    6.041E+00    6.134E+00    6.232E+00    6.335E+00    6.443E+00    6.555E+00    6.673E+00    6.796E+00
     6.925E+00    7.059E+00    7.198E+00    7.343E+00    7.493E+00    7.648E+00    7.808E+00    7.972E+00    8.140E+00    8.313E+00
     8.490E+00    8.670E+00    8.854E+00    9.042E+00    9.232E+00    9.426E+00    9.622E+00    9.821E+00    1.002E+01    1.023E+01
     1.043E+01    1.064E+01    1.085E+01    1.106E+01    1.127E+01    1.149E+01    1.170E+01    1.191E+01    1.213E+01    1.234E+01
     1.256E+01    1.278E+01    1.299E+01    1.321E+01    1.342E+01    1.363E+01    1.384E+01    1.406E+01    1.427E+01    1.447E+01
     1.468E+01    1.488E+01    1.508E+01    1.528E+01    1.548E+01    1.567E+01    1.587E+01    1.605E+01    1.624E+01    1.642E+01
     1.660E+01    1.677E+01    1.694E+01    1.711E+01    1.728E+01    1.744E+01    1.760E+01    1.775E+01    1.790E+01    1.805E+01
     1.819E+01    1.833E+01    1.847E+01    1.860E+01    1.873E+01    1.885E+01    1.897E+01    1.909E+01    1.921E+01    1.932E+01
     1.942E+01    1.952E+01    1.962E+01    1.971E+01    1.980E+01    1.989E+01    1.997E+01    2.005E+01    2.012E+01    2.019E+01
     2.026E+01    2.032E+01    2.037E+01    2.042E+01    2.047E+01    2.051E+01    2.055E+01    2.059E+01    2.062E+01    2.064E+01
     2.066E+01    2.068E+01    2.069E+01    2.070E+01    2.070E+01    2.069E+01    2.069E+01    2.068E+01    2.066E+01    2.064E+01
     2.062E+01    2.059E+01    2.055E+01    2.052E+01    2.047E+01    2.043E+01    2.038E+01    2.033E+01    2.027E+01    2.021E+01
     2.014E+01    2.007E+01    2.000E+01    1.992E+01    1.984E+01    1.976E+01    1.967E+01    1.958E+01    1.948E+01    1.939E+01
     1.928E+01    1.918E+01    1.907E+01    1.896E+01    1.884E+01    1.872E+01    1.860E+01    1.848E+01    1.835E+01    1.822E+01
     1.808E+01    1.795E+01    1.781E+01    1.766E+01    1.752E+01    1.737E+01    1.722E+01    1.706E+01    1.691E+01    1.675E+01
     1.659E+01    1.642E+01    1.625E+01    1.609E+01    1.592E+01    1.574E+01    1.557E+01    1.539E+01    1.521E+01    1.503E+01
     1.485E+01    1.467E+01    1.448E+01    1.430E+01    1.411E+01    1.392E+01    1.373E+01    1.354E+01    1.335E+01    1.316E+01
     1.297E+01    1.277E+01    1.258E+01    1.239E+01    1.219E+01    1.200E+01    1.180E+01    1.161E+01    1.141E+01    1.122E+01
     1.102E+01    1.083E+01    1.064E+01    1.044E+01    1.025E+01    1.006E+01    9.869E+00    9.679E+00    9.489E+00    9.301E+00
     9.114E+00    8.928E+00    8.744E+00    8.560E+00    8.379E+00    8.198E+00    8.020E+00    7.842E+00    7.667E+00    7.493E+00
     7.321E+00    7.150E+00    6.982E+00    6.815E+00    6.650E+00    6.488E+00    6.327E+00    6.168E+00    6.012E+00    5.857E+00
     5.705E+00    5.556E+00    5.408E+00    5.263E+00    5.121E+00    4.980E+00    4.843E+00    4.708E+00    4.576E+00    4.446E+00
     4.319E+00    4.195E+00    4.074E+00    3.955E+00    3.840E+00    3.728E+00    3.618E+00    3.512E+00    3.409E+00    3.309E+00
     3.213E+00    3.119E+00    3.029E+00    2.943E+00    2.860E+00    2.780E+00    2.704E+00    2.632E+00    2.563E+00    2.498E+00
     2.436E+00    2.378E+00    2.323E+00    2.271E+00    2.222E+00    2.176E+00    2.134E+00    2.094E+00    2.057E+00    2.023E+00
     1.991E+00    1.963E+00    1.936E+00    1.913E+00    1.891E+00    1.872E+00    1.855E+00    1.841E+00    1.828E+00    1.817E+00
     1.809E+00    1.802E+00    1.797E+00    1.793E+00    1.792E+00    1.792E+00    1.793E+00    1.796E+00    1.800E+00    1.805E+00
     1.811E+00    1.819E+00    1.827E+00    1.837E+00    1.847E+00    1.859E+00    1.870E+00    1.883E+00    1.896E+00    1.910E+00
     1.924E+00    1.938E+00    1.952E+00    1.967E+00    1.982E+00    1.997E+00    2.013E+00    2.028E+00    2.044E+00    2.060E+00
     2.076E+00    2.092E+00    2.108E+00    2.125E+00    2.141E+00    2.158E+00    2.175E+00    2.192E+00    2.209E+00    2.226E+00
     2.243E+00    2.260E+00    2.278E+00    2.295E+00    2.313E+00    2.330E+00    2.348E+00    2.366E+00    2.384E+00    2.401E+00
     2.419E+00    2.437E+00    2.455E+00    2.473E+00    2.491E+00    2.509E+00    2.527E+00    2.545E+00    2.563E+00    2.580E+00
     2.598E+00    2.616E+00    2.634E+00    2.652E+00    2.670E+00    2.687E+00    2.705E+00    2.722E+00
 Ala      Conc. = 2.35E+01
