 LCModel (Version 6.3-1L) Copyright: S.W. Provencher.          Ref.: Magn. Reson. Med. 30:672-679 (1993).                
 Slice#3 Row#6 Col#4  K_02_press_1_raw_act
 36 lines in following concentration table = NCONC+1
    Conc.  %SD /Cr+PCr  Metabolite                                         
    0.000 999%   0.000 Ala                                                 
    0.000 999%   0.000 Asp                                                 
 1.26E+03  19%   0.639 Cr                                                  
  709.538  34%   0.361 PCr                                                 
    0.000 999%   0.000 GABA                                                
    0.000 999%   0.000 Glc                                                 
   66.622 369% 3.4E-02 Gln                                                 
 1.64E+03  17%   0.832 Glu                                                 
  582.333   4%   0.296 GPC                                                 
    0.000 999%   0.000 PCh                                                 
  531.367  15%   0.270 GSH                                                 
  440.125  60%   0.224 Ins                                                 
    0.000 999%   0.000 Lac                                                 
 2.11E+03   7%   1.074 NAA                                                 
  637.835  23%   0.324 NAAG                                                
    0.000 999%   0.000 Scyllo                                              
    0.000 999%   0.000 Tau                                                 
    0.000 999%   0.000 -CrCH2                                              
  582.333   4%   0.296 GPC+PCh                                             
 2.75E+03   4%   1.398 NAA+NAAG                                            
 1.97E+03   3%   1.000 Cr+PCr                                              
 1.70E+03  24%   0.866 Glu+Gln                                             
    0.000 999%   0.000 Lip13a                                              
    0.000 999%   0.000 Lip13b                                              
    0.000 999%   0.000 Lip09                                               
 2.48E+03  14%   1.261 MM09                                                
    0.533 999% 2.7E-04 Lip20                                               
 7.11E+03   9%   3.613 MM20                                                
  883.787  29%   0.449 MM12                                                
    0.000 999%   0.000 MM14                                                
 2.78E+03  18%   1.413 MM17                                                
    0.000 999%   0.000 Lip13a+Lip13b                                       
  883.787  29%   0.449 MM14+Lip13a+Lip13b+MM12                             
 2.48E+03  14%   1.261 MM09+Lip09                                          
 7.11E+03   9%   3.614 MM20+Lip20                                          
   6 lines in following misc. output table
  FWHM = 0.046 ppm    S/N =  13                                            
  Data shift = 0.008 ppm                                                   
  Ph:  24 deg       6.7 deg/ppm                                            
  alphaB,S = 3.5E-01,   5.1E+01                                            
   14 spline knots.   Ns = 7(1)                                            
  (10) 3 infls.   ( 5) 1 extrs.                                            
  498 points on ppm-axis = NY
      4.000000     3.992357     3.984714     3.977070     3.969427     3.961784     3.954141     3.946497     3.938854     3.931211
      3.923568     3.915925     3.908281     3.900638     3.892995     3.885352     3.877708     3.870065     3.862422     3.854779
      3.847136     3.839492     3.831849     3.824206     3.816563     3.808919     3.801276     3.793633     3.785990     3.778347
      3.770703     3.763060     3.755417     3.747774     3.740130     3.732487     3.724844     3.717201     3.709558     3.701914
      3.694271     3.686628     3.678985     3.671341     3.663698     3.656055     3.648412     3.640769     3.633125     3.625482
      3.617839     3.610196     3.602552     3.594909     3.587266     3.579623     3.571980     3.564336     3.556693     3.549050
      3.541407     3.533763     3.526120     3.518477     3.510834     3.503191     3.495547     3.487904     3.480261     3.472618
      3.464974     3.457331     3.449688     3.442045     3.434402     3.426758     3.419115     3.411472     3.403829     3.396185
      3.388542     3.380899     3.373256     3.365613     3.357969     3.350326     3.342683     3.335040     3.327396     3.319753
      3.312110     3.304467     3.296824     3.289180     3.281537     3.273894     3.266251     3.258607     3.250964     3.243321
      3.235678     3.228034     3.220391     3.212748     3.205105     3.197462     3.189818     3.182175     3.174532     3.166889
      3.159245     3.151602     3.143959     3.136316     3.128673     3.121029     3.113386     3.105743     3.098100     3.090456
      3.082813     3.075170     3.067527     3.059884     3.052240     3.044597     3.036954     3.029311     3.021667     3.014024
      3.006381     2.998738     2.991095     2.983451     2.975808     2.968165     2.960522     2.952878     2.945235     2.937592
      2.929949     2.922306     2.914662     2.907019     2.899376     2.891733     2.884089     2.876446     2.868803     2.861160
      2.853517     2.845873     2.838230     2.830587     2.822944     2.815300     2.807657     2.800014     2.792371     2.784728
      2.777084     2.769441     2.761798     2.754155     2.746511     2.738868     2.731225     2.723582     2.715939     2.708295
      2.700652     2.693009     2.685366     2.677722     2.670079     2.662436     2.654793     2.647150     2.639506     2.631863
      2.624220     2.616577     2.608933     2.601290     2.593647     2.586004     2.578361     2.570717     2.563074     2.555431
      2.547788     2.540144     2.532501     2.524858     2.517215     2.509572     2.501928     2.494285     2.486642     2.478999
      2.471355     2.463712     2.456069     2.448426     2.440783     2.433139     2.425496     2.417853     2.410210     2.402566
      2.394923     2.387280     2.379637     2.371994     2.364350     2.356707     2.349064     2.341421     2.333777     2.326134
      2.318491     2.310848     2.303205     2.295561     2.287918     2.280275     2.272632     2.264988     2.257345     2.249702
      2.242059     2.234416     2.226772     2.219129     2.211486     2.203843     2.196199     2.188556     2.180913     2.173270
      2.165627     2.157983     2.150340     2.142697     2.135054     2.127410     2.119767     2.112124     2.104481     2.096838
      2.089194     2.081551     2.073908     2.066265     2.058621     2.050978     2.043335     2.035692     2.028049     2.020405
      2.012762     2.005119     1.997476     1.989833     1.982190     1.974546     1.966903     1.959260     1.951617     1.943974
      1.936331     1.928688     1.921045     1.913402     1.905759     1.898115     1.890472     1.882829     1.875186     1.867543
      1.859900     1.852257     1.844614     1.836971     1.829327     1.821684     1.814041     1.806398     1.798755     1.791112
      1.783469     1.775826     1.768183     1.760540     1.752896     1.745253     1.737610     1.729967     1.722324     1.714681
      1.707038     1.699395     1.691752     1.684108     1.676465     1.668822     1.661179     1.653536     1.645893     1.638250
      1.630607     1.622964     1.615321     1.607677     1.600034     1.592391     1.584748     1.577105     1.569462     1.561819
      1.554176     1.546533     1.538890     1.531246     1.523603     1.515960     1.508317     1.500674     1.493031     1.485388
      1.477745     1.470102     1.462458     1.454815     1.447172     1.439529     1.431886     1.424243     1.416600     1.408957
      1.401314     1.393671     1.386027     1.378384     1.370741     1.363098     1.355455     1.347812     1.340169     1.332526
      1.324883     1.317240     1.309596     1.301953     1.294310     1.286667     1.279024     1.271381     1.263738     1.256095
      1.248452     1.240808     1.233165     1.225522     1.217879     1.210236     1.202593     1.194950     1.187307     1.179664
      1.172021     1.164377     1.156734     1.149091     1.141448     1.133805     1.126162     1.118519     1.110876     1.103233
      1.095590     1.087946     1.080303     1.072660     1.065017     1.057374     1.049731     1.042088     1.034445     1.026802
      1.019158     1.011515     1.003872     0.996229     0.988586     0.980943     0.973300     0.965657     0.958014     0.950371
      0.942727     0.935084     0.927441     0.919798     0.912155     0.904512     0.896869     0.889226     0.881583     0.873940
      0.866296     0.858653     0.851010     0.843367     0.835724     0.828081     0.820438     0.812795     0.805152     0.797508
      0.789865     0.782222     0.774579     0.766936     0.759293     0.751650     0.744007     0.736364     0.728721     0.721077
      0.713434     0.705791     0.698148     0.690505     0.682862     0.675219     0.667576     0.659933     0.652290     0.644646
      0.637003     0.629360     0.621717     0.614074     0.606431     0.598788     0.591145     0.583502     0.575858     0.568215
      0.560572     0.552929     0.545286     0.537643     0.530000     0.522357     0.514714     0.507071     0.499427     0.491784
      0.484141     0.476498     0.468855     0.461212     0.453569     0.445925     0.438282     0.430639     0.422996     0.415353
      0.407710     0.400067     0.392424     0.384780     0.377137     0.369494     0.361851     0.354208     0.346565     0.338922
      0.331278     0.323635     0.315992     0.308349     0.300706     0.293063     0.285420     0.277777     0.270133     0.262490
      0.254847     0.247204     0.239561     0.231918     0.224275     0.216631     0.208988     0.201345
 NY phased data points follow
   6.63073E+01  6.45791E+01  6.88150E+01  7.09923E+01  7.23825E+01  7.95664E+01  8.40611E+01  8.68152E+01  9.77249E+01  9.87158E+01
   1.08112E+02  1.03751E+02  1.04791E+02  9.41437E+01  8.79344E+01  7.78745E+01  7.17221E+01  6.62641E+01  6.45724E+01  5.67598E+01
   5.48483E+01  6.34269E+01  5.74595E+01  5.75262E+01  6.07244E+01  6.08967E+01  5.93391E+01  6.06191E+01  6.15082E+01  5.85330E+01
   5.84679E+01  6.20146E+01  6.14435E+01  6.36020E+01  6.02978E+01  5.42726E+01  5.42909E+01  5.11958E+01  5.31703E+01  5.27324E+01
   4.86220E+01  5.11113E+01  4.91200E+01  4.72646E+01  4.86849E+01  5.01884E+01  5.50791E+01  5.81441E+01  5.75954E+01  5.35370E+01
   5.01666E+01  4.93427E+01  4.70518E+01  4.57961E+01  4.46768E+01  4.40154E+01  4.32448E+01  4.13721E+01  4.13274E+01  4.33757E+01
   3.80949E+01  3.61219E+01  3.31653E+01  3.47125E+01  3.13163E+01  2.83390E+01  2.82817E+01  2.65689E+01  2.85831E+01  2.55820E+01
   2.79037E+01  2.65789E+01  2.52712E+01  2.74392E+01  2.52146E+01  3.04230E+01  2.51592E+01  2.86444E+01  2.52481E+01  2.71984E+01
   2.47276E+01  2.18471E+01  2.64645E+01  2.33614E+01  2.72018E+01  2.83305E+01  2.75765E+01  2.52838E+01  2.73279E+01  2.58767E+01
   2.63453E+01  2.79951E+01  2.86278E+01  3.35121E+01  3.10513E+01  3.85746E+01  3.05466E+01  3.50808E+01  4.31990E+01  3.93347E+01
   5.17122E+01  6.38807E+01  7.21762E+01  8.18947E+01  7.97729E+01  6.81797E+01  6.15616E+01  5.03834E+01  4.19279E+01  3.66650E+01
   3.27601E+01  3.30063E+01  3.28368E+01  2.71228E+01  3.03526E+01  3.03797E+01  2.76684E+01  3.19789E+01  3.39493E+01  3.52541E+01
   3.93176E+01  3.96926E+01  3.94523E+01  4.78003E+01  5.67462E+01  6.76387E+01  7.59467E+01  8.54462E+01  8.55922E+01  8.09522E+01
   6.74472E+01  5.18834E+01  4.41597E+01  3.60151E+01  3.06749E+01  2.68013E+01  2.53184E+01  2.20430E+01  2.18890E+01  1.88203E+01
   2.06965E+01  2.36548E+01  2.05393E+01  2.47207E+01  2.34041E+01  1.97844E+01  1.79237E+01  2.48524E+01  1.90101E+01  1.50730E+01
   1.94500E+01  1.96690E+01  2.07612E+01  1.36691E+01  1.56168E+01  1.20276E+01  1.64783E+01  1.22828E+01  1.57958E+01  1.52179E+01
   1.65354E+01  1.05328E+01  1.10309E+01  8.55146E+00  8.43303E+00  7.41102E+00  1.14599E+01  1.23066E+01  1.49037E+01  8.37959E+00
   6.13148E+00  7.00761E+00  3.69451E+00 -1.81481E+00  1.21779E+00  2.48229E+00  2.35257E+00 -2.15861E+00 -1.60212E+00  3.05966E+00
   4.27008E-01  3.12800E+00  4.74963E+00  1.89773E+00  2.19259E+00  4.90927E+00  5.87062E+00  8.95007E+00  8.41872E+00  1.06473E+01
   1.84779E+01  1.84653E+01  1.96039E+01  2.19104E+01  1.86817E+01  2.01595E+01  1.78735E+01  1.34986E+01  1.11223E+01  1.26233E+01
   1.02462E+01  1.16970E+01  1.30057E+01  1.44337E+01  1.33843E+01  1.32700E+01  1.50461E+01  1.10066E+01  7.36561E+00  1.13049E+01
   1.04576E+01  1.27236E+01  1.80454E+01  1.45665E+01  1.64168E+01  2.25068E+01  2.54233E+01  2.06440E+01  1.60734E+01  1.47937E+01
   1.14667E+01  6.53191E+00  7.39473E+00  1.04402E+01  1.47749E+01  1.77367E+01  2.03805E+01  1.94695E+01  2.24075E+01  2.40988E+01
   2.42598E+01  1.94720E+01  2.06736E+01  1.91980E+01  1.78027E+01  2.01378E+01  1.59769E+01  2.22005E+01  1.81727E+01  1.60563E+01
   1.93231E+01  1.77586E+01  1.22859E+01  1.98595E+01  1.97248E+01  2.39190E+01  2.59253E+01  3.07700E+01  2.91243E+01  3.00462E+01
   3.40433E+01  3.75943E+01  4.09303E+01  4.71925E+01  5.04197E+01  6.42649E+01  6.93067E+01  7.76341E+01  8.79373E+01  9.36714E+01
   1.01509E+02  1.05013E+02  9.61785E+01  7.44015E+01  5.28400E+01  3.85183E+01  3.30406E+01  2.26157E+01  2.27839E+01  1.78003E+01
   1.66046E+01  1.70538E+01  1.91308E+01  1.36436E+01  1.54638E+01  1.44482E+01  1.86265E+01  1.29507E+01  1.51972E+01  1.18081E+01
   1.46160E+01  1.25081E+01  1.01750E+01  9.89033E+00  9.69210E+00  8.40565E+00  6.80919E+00  1.15234E+01  1.00747E+01  7.77896E+00
   7.60533E+00  9.10995E+00  1.03074E+01  9.15538E+00  7.68374E+00  7.54246E+00  7.54256E+00  7.94365E+00  6.65413E+00  9.11159E+00
   7.71026E+00  7.93411E+00  9.58315E+00  7.10031E+00  5.70550E+00  8.37964E+00  8.74067E+00  6.85457E+00  2.48553E+00  3.72153E+00
   5.60173E+00  7.69828E+00  3.27009E+00  1.69386E+00  2.51458E+00 -1.69397E-01 -4.15310E-01  3.60251E+00  7.47527E-01 -1.23282E+00
  -3.79626E+00 -5.39520E+00 -6.28518E+00 -9.91253E+00 -7.03419E+00 -8.11022E+00 -7.73142E+00 -7.85705E+00 -6.53495E+00 -1.16282E+01
  -8.94540E+00 -1.13712E+01 -9.85468E+00 -1.05726E+01 -9.77682E+00 -8.70420E+00 -8.56940E+00 -9.26176E+00 -1.04496E+01 -7.80485E+00
  -1.39521E+01 -1.29814E+01 -1.49411E+01 -1.16154E+01 -1.38959E+01 -1.35868E+01 -1.64297E+01 -1.28772E+01 -1.42818E+01 -8.02063E+00
  -1.30392E+01 -1.27727E+01 -1.37382E+01 -1.15572E+01 -8.92729E+00 -9.13186E+00 -7.20248E+00 -6.44676E+00 -9.06511E+00 -1.28000E+01
  -7.27654E+00 -8.37335E+00 -9.50490E+00 -2.65059E+00 -2.99524E+00 -5.16606E+00 -5.24570E+00 -1.94031E+00 -4.03613E+00 -2.11578E+00
  -1.66166E+00 -1.79944E+00  1.68023E+00 -1.66012E+00  3.27683E+00 -5.66514E-02  1.92800E+00 -1.94606E+00 -1.69038E+00 -2.82583E+00
  -2.76087E+00  6.16043E-02 -1.94223E-01 -1.32292E+00  1.12512E-01  2.60607E-01 -3.47578E+00  2.57561E+00  2.46410E+00  8.66426E-01
  -2.47276E+00  4.71002E+00  4.00000E+00  7.45935E+00  1.38368E+00  9.87926E+00  4.25831E+00  8.36722E+00  4.78515E+00  6.15375E+00
   6.84452E+00  9.08269E+00  4.39671E+00  5.66365E+00  6.38086E+00  3.75827E+00  4.86024E+00  7.79465E+00  1.00882E+01  8.32705E+00
   7.40814E+00  9.65096E+00  7.89271E+00  7.55068E+00  7.97177E+00  7.10070E+00  5.87715E+00  7.98537E+00  3.52588E+00  5.94145E+00
   4.53928E+00  3.30316E+00  8.33027E+00  5.95437E+00  6.23672E+00  5.55565E+00  5.39927E+00  5.98176E+00  6.18929E+00  6.39000E+00
   4.20155E+00  7.16891E+00  4.08546E+00  1.69581E+00  5.96246E+00  6.49728E+00  2.20883E+00  7.57601E+00  6.34580E+00  5.01596E+00
   2.49105E+00  6.74590E+00  5.81840E+00  3.54802E+00  5.43379E+00  4.20887E+00  4.81123E+00  4.65997E+00  2.30069E+00  2.81756E+00
   6.87566E+00  1.79297E+00  5.42384E+00  6.45914E+00  1.11612E+01  6.68333E+00  1.50092E+00  4.22058E+00  1.13203E+00  3.36033E+00
   4.54373E+00  2.95329E+00  8.09058E+00  5.51320E+00  3.39427E+00  4.29640E-01  4.38636E+00  7.42080E+00  1.84802E+00  5.44601E+00
   4.25485E+00  2.36760E+00  7.38353E+00  5.78200E+00  1.24452E+00  6.06026E-01  7.09772E+00  5.87583E+00  5.66658E+00  4.65619E+00
   2.97872E+00  2.82160E+00  5.46483E+00  9.53804E+00  2.43535E+00  6.48422E+00  2.36790E+00  1.28498E+00  4.48483E+00  3.90349E+00
   4.56632E+00  1.91416E+00  7.86640E+00  6.74686E+00  3.67186E+00  3.56577E+00  5.88701E+00  7.09009E+00
 NY points of the fit to the data follow
   6.72104E+01  6.73819E+01  6.87228E+01  7.10105E+01  7.44219E+01  7.78836E+01  8.14978E+01  8.62691E+01  9.24263E+01  9.88741E+01
   1.03693E+02  1.04876E+02  1.01309E+02  9.37412E+01  8.46593E+01  7.66479E+01  7.08713E+01  6.67535E+01  6.36288E+01  6.12062E+01
   5.95134E+01  5.82394E+01  5.73794E+01  5.73501E+01  5.76230E+01  5.74562E+01  5.73656E+01  5.79213E+01  5.91749E+01  6.10994E+01
   6.34579E+01  6.52562E+01  6.53183E+01  6.32956E+01  5.97455E+01  5.60244E+01  5.29766E+01  5.06372E+01  4.90455E+01  4.85920E+01
   4.90333E+01  4.94797E+01  4.95806E+01  4.95803E+01  4.95679E+01  4.95061E+01  4.93499E+01  4.90606E+01  4.85443E+01  4.76883E+01
   4.64567E+01  4.51080E+01  4.39481E+01  4.29734E+01  4.20663E+01  4.12815E+01  4.06617E+01  4.01642E+01  3.97133E+01  3.93057E+01
   3.89074E+01  3.84225E+01  3.77867E+01  3.70184E+01  3.62524E+01  3.56250E+01  3.51434E+01  3.47791E+01  3.45065E+01  3.42902E+01
   3.40784E+01  3.38402E+01  3.35539E+01  3.32013E+01  3.27772E+01  3.23049E+01  3.18364E+01  3.14079E+01  3.10195E+01  3.06349E+01
   3.02179E+01  2.97953E+01  2.93763E+01  2.89620E+01  2.85278E+01  2.80593E+01  2.75705E+01  2.71075E+01  2.67301E+01  2.65207E+01
   2.64934E+01  2.66010E+01  2.68013E+01  2.70993E+01  2.76451E+01  2.93650E+01  3.40518E+01  3.86168E+01  4.17815E+01  4.59484E+01
   5.28929E+01  6.21596E+01  7.18505E+01  7.91629E+01  8.05362E+01  7.41444E+01  6.22371E+01  4.97892E+01  4.06000E+01  3.47522E+01
   3.05146E+01  2.70431E+01  2.52467E+01  2.47110E+01  2.45314E+01  2.45115E+01  2.46147E+01  2.48761E+01  2.55342E+01  2.78741E+01
   3.37195E+01  3.89829E+01  4.29452E+01  4.84335E+01  5.72039E+01  6.84040E+01  7.97921E+01  8.80518E+01  8.89098E+01  8.06549E+01
   6.66247E+01  5.27221E+01  4.28180E+01  3.64447E+01  3.13089E+01  2.66156E+01  2.35035E+01  2.16596E+01  2.06488E+01  2.04979E+01
   2.09461E+01  2.15569E+01  2.19917E+01  2.20672E+01  2.17063E+01  2.10229E+01  2.02377E+01  1.94687E+01  1.87435E+01  1.81207E+01
   1.75544E+01  1.70333E+01  1.65287E+01  1.59467E+01  1.52795E+01  1.47984E+01  1.45627E+01  1.44746E+01  1.43551E+01  1.38829E+01
   1.31379E+01  1.24141E+01  1.19818E+01  1.18840E+01  1.19855E+01  1.19540E+01  1.14846E+01  1.06363E+01  9.68606E+00  8.85082E+00
   8.37726E+00  8.22893E+00  8.07117E+00  7.70887E+00  7.13109E+00  6.57485E+00  6.24229E+00  6.31060E+00  6.61497E+00  6.79276E+00
   6.63354E+00  6.42522E+00  6.41199E+00  6.73258E+00  7.32375E+00  7.96990E+00  8.57746E+00  9.32432E+00  1.05192E+01  1.21728E+01
   1.37744E+01  1.46743E+01  1.49324E+01  1.47583E+01  1.41047E+01  1.30853E+01  1.21049E+01  1.14780E+01  1.11609E+01  1.12517E+01
   1.18070E+01  1.28359E+01  1.38444E+01  1.44503E+01  1.46473E+01  1.43661E+01  1.35138E+01  1.23688E+01  1.13939E+01  1.09523E+01
   1.05621E+01  1.05882E+01  1.14634E+01  1.31962E+01  1.51533E+01  1.65669E+01  1.70309E+01  1.62761E+01  1.39835E+01  1.06728E+01
   7.58444E+00  5.53509E+00  4.84086E+00  5.77409E+00  8.24979E+00  1.17060E+01  1.50105E+01  1.73740E+01  1.87037E+01  1.93141E+01
   1.94837E+01  1.93783E+01  1.92073E+01  1.93360E+01  2.00977E+01  2.12214E+01  2.22487E+01  2.28928E+01  2.29712E+01  2.24737E+01
   2.15738E+01  2.07765E+01  2.05726E+01  2.12336E+01  2.27277E+01  2.47358E+01  2.67508E+01  2.83082E+01  2.96111E+01  3.14749E+01
   3.28333E+01  3.37910E+01  3.66916E+01  4.53727E+01  5.54194E+01  6.31654E+01  7.06820E+01  7.93722E+01  8.83168E+01  9.63745E+01
   1.02159E+02  1.02110E+02  9.28288E+01  7.58047E+01  5.73212E+01  4.34234E+01  3.44696E+01  2.77797E+01  2.19160E+01  1.82193E+01
   1.64159E+01  1.52001E+01  1.43136E+01  1.36445E+01  1.30313E+01  1.23793E+01  1.16536E+01  1.08659E+01  1.00915E+01  9.43075E+00
   8.91299E+00  8.52243E+00  8.24993E+00  8.08632E+00  8.00297E+00  7.97128E+00  7.95240E+00  7.94868E+00  7.98707E+00  8.08265E+00
   8.23773E+00  8.44889E+00  8.70132E+00  8.97712E+00  9.23166E+00  9.42450E+00  9.53730E+00  9.56946E+00  9.52415E+00  9.40148E+00
   9.20513E+00  8.94662E+00  8.62290E+00  8.22083E+00  7.73093E+00  7.15617E+00  6.50776E+00  5.79783E+00  5.03572E+00  4.23590E+00
   3.41314E+00  2.57983E+00  1.74782E+00  9.26979E-01  1.25805E-01 -6.48087E-01 -1.38819E+00 -2.08958E+00 -2.74929E+00 -3.36602E+00
  -3.93943E+00 -4.46972E+00 -4.95781E+00 -5.40557E+00 -5.81540E+00 -6.18983E+00 -6.53126E+00 -6.84191E+00 -7.12407E+00 -7.38010E+00
  -7.61226E+00 -7.82243E+00 -8.01204E+00 -8.18225E+00 -8.33419E+00 -8.46893E+00 -8.58729E+00 -8.68967E+00 -8.77612E+00 -8.84655E+00
  -8.90090E+00 -8.93902E+00 -8.96048E+00 -8.96448E+00 -8.95008E+00 -8.91638E+00 -8.86258E+00 -8.78792E+00 -8.69149E+00 -8.57238E+00
  -8.42992E+00 -8.26393E+00 -8.07469E+00 -7.86289E+00 -7.62954E+00 -7.37620E+00 -7.10513E+00 -6.81938E+00 -6.52260E+00 -6.21878E+00
  -5.91218E+00 -5.60727E+00 -5.30875E+00 -5.02131E+00 -4.74928E+00 -4.49624E+00 -4.26487E+00 -4.05701E+00 -3.87353E+00 -3.71418E+00
  -3.57741E+00 -3.46041E+00 -3.35927E+00 -3.26932E+00 -3.18528E+00 -3.10128E+00 -3.01101E+00 -2.90798E+00 -2.78587E+00 -2.63880E+00
  -2.46144E+00 -2.24899E+00 -1.99727E+00 -1.70293E+00 -1.36365E+00 -9.78244E-01 -5.46553E-01 -6.94181E-02  4.51271E-01  1.01242E+00
   1.60963E+00  2.23726E+00  2.88861E+00  3.55605E+00  4.23107E+00  4.90427E+00  5.56561E+00  6.20472E+00  6.81131E+00  7.37553E+00
   7.88811E+00  8.34064E+00  8.72592E+00  9.03831E+00  9.27403E+00  9.43120E+00  9.50983E+00  9.51167E+00  9.44030E+00  9.30102E+00
   9.10055E+00  8.84672E+00  8.54799E+00  8.21313E+00  7.85106E+00  7.47063E+00  7.08023E+00  6.68758E+00  6.29944E+00  5.92161E+00
   5.55896E+00  5.21548E+00  4.89420E+00  4.59720E+00  4.32564E+00  4.07999E+00  3.86026E+00  3.66600E+00  3.49637E+00  3.35015E+00
   3.22588E+00  3.12204E+00  3.03714E+00  2.96972E+00  2.91826E+00  2.88120E+00  2.85705E+00  2.84452E+00  2.84246E+00  2.84980E+00
   2.86547E+00  2.88842E+00  2.91776E+00  2.95273E+00  2.99271E+00  3.03706E+00  3.08512E+00  3.13628E+00  3.19005E+00  3.24606E+00
   3.30397E+00  3.36338E+00  3.42387E+00  3.48511E+00  3.54696E+00  3.60934E+00  3.67216E+00  3.73524E+00  3.79841E+00  3.86155E+00
   3.92468E+00  3.98778E+00  4.05081E+00  4.11365E+00  4.17620E+00  4.23847E+00  4.30052E+00  4.36237E+00  4.42398E+00  4.48526E+00
   4.54620E+00  4.60686E+00  4.66732E+00  4.72761E+00  4.78767E+00  4.84747E+00  4.90703E+00  4.96646E+00  5.02585E+00  5.08517E+00
   5.14439E+00  5.20350E+00  5.26260E+00  5.32180E+00  5.38114E+00  5.44061E+00  5.50018E+00  5.55989E+00  5.61986E+00  5.68019E+00
   5.74089E+00  5.80194E+00  5.86334E+00  5.92516E+00  5.98755E+00  6.05057E+00  6.11421E+00  6.17843E+00
 NY background values follow
     6.328E+01    6.280E+01    6.233E+01    6.185E+01    6.138E+01    6.090E+01    6.043E+01    5.995E+01    5.947E+01    5.899E+01
     5.851E+01    5.803E+01    5.756E+01    5.708E+01    5.660E+01    5.612E+01    5.564E+01    5.517E+01    5.469E+01    5.421E+01
     5.373E+01    5.326E+01    5.278E+01    5.231E+01    5.184E+01    5.136E+01    5.089E+01    5.042E+01    4.995E+01    4.948E+01
     4.901E+01    4.855E+01    4.808E+01    4.762E+01    4.716E+01    4.670E+01    4.624E+01    4.579E+01    4.533E+01    4.488E+01
     4.443E+01    4.398E+01    4.353E+01    4.309E+01    4.265E+01    4.221E+01    4.177E+01    4.134E+01    4.091E+01    4.048E+01
     4.005E+01    3.963E+01    3.920E+01    3.879E+01    3.837E+01    3.796E+01    3.755E+01    3.714E+01    3.674E+01    3.634E+01
     3.594E+01    3.554E+01    3.515E+01    3.476E+01    3.438E+01    3.400E+01    3.362E+01    3.324E+01    3.287E+01    3.250E+01
     3.214E+01    3.178E+01    3.142E+01    3.106E+01    3.071E+01    3.037E+01    3.002E+01    2.969E+01    2.935E+01    2.902E+01
     2.869E+01    2.837E+01    2.805E+01    2.773E+01    2.742E+01    2.712E+01    2.681E+01    2.652E+01    2.622E+01    2.593E+01
     2.565E+01    2.537E+01    2.509E+01    2.482E+01    2.455E+01    2.429E+01    2.403E+01    2.377E+01    2.352E+01    2.327E+01
     2.303E+01    2.279E+01    2.255E+01    2.232E+01    2.209E+01    2.186E+01    2.164E+01    2.142E+01    2.120E+01    2.098E+01
     2.077E+01    2.056E+01    2.036E+01    2.016E+01    1.996E+01    1.976E+01    1.956E+01    1.937E+01    1.918E+01    1.899E+01
     1.880E+01    1.862E+01    1.844E+01    1.826E+01    1.808E+01    1.790E+01    1.773E+01    1.755E+01    1.738E+01    1.721E+01
     1.704E+01    1.687E+01    1.670E+01    1.654E+01    1.637E+01    1.621E+01    1.605E+01    1.588E+01    1.572E+01    1.556E+01
     1.540E+01    1.524E+01    1.508E+01    1.492E+01    1.477E+01    1.461E+01    1.446E+01    1.430E+01    1.415E+01    1.400E+01
     1.385E+01    1.370E+01    1.355E+01    1.341E+01    1.326E+01    1.312E+01    1.297E+01    1.283E+01    1.269E+01    1.255E+01
     1.241E+01    1.228E+01    1.214E+01    1.201E+01    1.187E+01    1.174E+01    1.161E+01    1.149E+01    1.136E+01    1.124E+01
     1.111E+01    1.099E+01    1.087E+01    1.075E+01    1.064E+01    1.052E+01    1.041E+01    1.030E+01    1.019E+01    1.008E+01
     9.974E+00    9.870E+00    9.768E+00    9.668E+00    9.569E+00    9.472E+00    9.376E+00    9.282E+00    9.188E+00    9.096E+00
     9.005E+00    8.915E+00    8.826E+00    8.738E+00    8.650E+00    8.562E+00    8.476E+00    8.389E+00    8.303E+00    8.217E+00
     8.130E+00    8.044E+00    7.958E+00    7.871E+00    7.784E+00    7.696E+00    7.608E+00    7.520E+00    7.430E+00    7.340E+00
     7.248E+00    7.156E+00    7.062E+00    6.967E+00    6.870E+00    6.773E+00    6.673E+00    6.572E+00    6.469E+00    6.364E+00
     6.257E+00    6.148E+00    6.037E+00    5.924E+00    5.808E+00    5.690E+00    5.569E+00    5.445E+00    5.319E+00    5.190E+00
     5.058E+00    4.924E+00    4.788E+00    4.649E+00    4.508E+00    4.365E+00    4.219E+00    4.071E+00    3.920E+00    3.768E+00
     3.614E+00    3.457E+00    3.298E+00    3.138E+00    2.975E+00    2.811E+00    2.645E+00    2.477E+00    2.307E+00    2.136E+00
     1.963E+00    1.788E+00    1.612E+00    1.434E+00    1.255E+00    1.075E+00    8.926E-01    7.092E-01    5.246E-01    3.388E-01
     1.517E-01   -3.649E-02   -2.258E-01   -4.162E-01   -6.076E-01   -7.999E-01   -9.932E-01   -1.187E+00   -1.382E+00   -1.578E+00
    -1.775E+00   -1.972E+00   -2.170E+00   -2.368E+00   -2.567E+00   -2.767E+00   -2.966E+00   -3.166E+00   -3.366E+00   -3.566E+00
    -3.766E+00   -3.965E+00   -4.165E+00   -4.364E+00   -4.562E+00   -4.760E+00   -4.957E+00   -5.154E+00   -5.350E+00   -5.544E+00
    -5.738E+00   -5.931E+00   -6.122E+00   -6.312E+00   -6.501E+00   -6.688E+00   -6.874E+00   -7.058E+00   -7.240E+00   -7.421E+00
    -7.599E+00   -7.775E+00   -7.949E+00   -8.121E+00   -8.291E+00   -8.458E+00   -8.623E+00   -8.785E+00   -8.944E+00   -9.101E+00
    -9.254E+00   -9.405E+00   -9.552E+00   -9.697E+00   -9.838E+00   -9.976E+00   -1.011E+01   -1.024E+01   -1.037E+01   -1.049E+01
    -1.061E+01   -1.073E+01   -1.084E+01   -1.095E+01   -1.105E+01   -1.115E+01   -1.125E+01   -1.134E+01   -1.143E+01   -1.152E+01
    -1.160E+01   -1.168E+01   -1.175E+01   -1.182E+01   -1.189E+01   -1.195E+01   -1.201E+01   -1.206E+01   -1.211E+01   -1.215E+01
    -1.219E+01   -1.223E+01   -1.226E+01   -1.229E+01   -1.231E+01   -1.233E+01   -1.234E+01   -1.235E+01   -1.235E+01   -1.235E+01
    -1.235E+01   -1.234E+01   -1.233E+01   -1.231E+01   -1.229E+01   -1.226E+01   -1.223E+01   -1.219E+01   -1.215E+01   -1.210E+01
    -1.205E+01   -1.199E+01   -1.193E+01   -1.186E+01   -1.179E+01   -1.171E+01   -1.163E+01   -1.155E+01   -1.146E+01   -1.136E+01
    -1.126E+01   -1.116E+01   -1.106E+01   -1.095E+01   -1.083E+01   -1.072E+01   -1.060E+01   -1.047E+01   -1.034E+01   -1.021E+01
    -1.008E+01   -9.944E+00   -9.805E+00   -9.664E+00   -9.519E+00   -9.372E+00   -9.223E+00   -9.072E+00   -8.919E+00   -8.763E+00
    -8.606E+00   -8.447E+00   -8.286E+00   -8.123E+00   -7.960E+00   -7.794E+00   -7.628E+00   -7.460E+00   -7.292E+00   -7.122E+00
    -6.952E+00   -6.781E+00   -6.610E+00   -6.438E+00   -6.266E+00   -6.093E+00   -5.921E+00   -5.748E+00   -5.576E+00   -5.403E+00
    -5.231E+00   -5.059E+00   -4.887E+00   -4.716E+00   -4.545E+00   -4.375E+00   -4.205E+00   -4.035E+00   -3.866E+00   -3.698E+00
    -3.531E+00   -3.364E+00   -3.198E+00   -3.033E+00   -2.868E+00   -2.705E+00   -2.543E+00   -2.382E+00   -2.221E+00   -2.062E+00
    -1.904E+00   -1.748E+00   -1.592E+00   -1.438E+00   -1.286E+00   -1.135E+00   -9.851E-01   -8.370E-01   -6.906E-01   -5.457E-01
    -4.026E-01   -2.611E-01   -1.215E-01    1.622E-02    1.521E-01    2.860E-01    4.179E-01    5.478E-01    6.755E-01    8.012E-01
     9.246E-01    1.046E+00    1.165E+00    1.281E+00    1.395E+00    1.508E+00    1.618E+00    1.725E+00    1.831E+00    1.935E+00
     2.037E+00    2.137E+00    2.236E+00    2.333E+00    2.428E+00    2.521E+00    2.613E+00    2.704E+00    2.793E+00    2.881E+00
     2.968E+00    3.053E+00    3.137E+00    3.221E+00    3.303E+00    3.384E+00    3.465E+00    3.544E+00    3.623E+00    3.702E+00
     3.779E+00    3.856E+00    3.933E+00    4.009E+00    4.085E+00    4.160E+00    4.235E+00    4.310E+00    4.385E+00    4.460E+00
     4.535E+00    4.610E+00    4.685E+00    4.760E+00    4.836E+00    4.912E+00    4.988E+00    5.065E+00
 Cr       Conc. = 1.26E+03
