 LCModel (Version 6.3-1L) Copyright: S.W. Provencher.          Ref.: Magn. Reson. Med. 30:672-679 (1993).                
 Slice#1 Row#13 Col#1  K_02_press_1_raw_act
 36 lines in following concentration table = NCONC+1
    Conc.  %SD /Cr+PCr  Metabolite                                         
  479.027  56%   0.384 Ala                                                 
  274.143  43%   0.220 Asp                                                 
 1.25E+03   3%   1.000 Cr                                                  
    0.000 999%   0.000 PCr                                                 
   91.543  84% 7.3E-02 GABA                                                
  131.261  58%   0.105 Glc                                                 
 1.14E+03  35%   0.910 Gln                                                 
   30.043 999% 2.4E-02 Glu                                                 
  365.184   5%   0.293 GPC                                                 
    0.000 999%   0.000 PCh                                                 
  818.665  10%   0.656 GSH                                                 
 4.80E+03   3%   3.850 Ins                                                 
  174.527 123%   0.140 Lac                                                 
    0.000 999%   0.000 NAA                                                 
  278.179  17%   0.223 NAAG                                                
   39.726  44% 3.2E-02 Scyllo                                              
  285.865  38%   0.229 Tau                                                 
    0.000 999%   0.000 -CrCH2                                              
  365.184   5%   0.293 GPC+PCh                                             
  278.179  17%   0.223 NAA+NAAG                                            
 1.25E+03   3%   1.000 Cr+PCr                                              
 1.17E+03  62%   0.934 Glu+Gln                                             
    0.000 999%   0.000 Lip13a                                              
   29.391 142% 2.4E-02 Lip13b                                              
    7.343 232% 5.9E-03 Lip09                                               
  217.064  24%   0.174 MM09                                                
    3.794 291% 3.0E-03 Lip20                                               
  327.486  30%   0.262 MM20                                                
   67.260  35% 5.4E-02 MM12                                                
  156.574  52%   0.125 MM14                                                
   90.602  55% 7.3E-02 MM17                                                
   29.391 142% 2.4E-02 Lip13a+Lip13b                                       
  253.224  41%   0.203 MM14+Lip13a+Lip13b+MM12                             
  224.407  23%   0.180 MM09+Lip09                                          
  331.280  30%   0.266 MM20+Lip20                                          
   6 lines in following misc. output table
  FWHM = 0.183 ppm    S/N =   7                                            
  Data shift = 0.313 ppm                                                   
  Ph:-127 deg     -38.6 deg/ppm                                            
  alphaB,S = 8.5E+01,   4.1E+02                                            
   10 spline knots.   Ns = 9(2)                                            
   2 inflections.     1 extrema                                            
  498 points on ppm-axis = NY
      4.000000     3.992357     3.984714     3.977070     3.969427     3.961784     3.954141     3.946497     3.938854     3.931211
      3.923568     3.915925     3.908281     3.900638     3.892995     3.885352     3.877708     3.870065     3.862422     3.854779
      3.847136     3.839492     3.831849     3.824206     3.816563     3.808919     3.801276     3.793633     3.785990     3.778347
      3.770703     3.763060     3.755417     3.747774     3.740130     3.732487     3.724844     3.717201     3.709558     3.701914
      3.694271     3.686628     3.678985     3.671341     3.663698     3.656055     3.648412     3.640769     3.633125     3.625482
      3.617839     3.610196     3.602552     3.594909     3.587266     3.579623     3.571980     3.564336     3.556693     3.549050
      3.541407     3.533763     3.526120     3.518477     3.510834     3.503191     3.495547     3.487904     3.480261     3.472618
      3.464974     3.457331     3.449688     3.442045     3.434402     3.426758     3.419115     3.411472     3.403829     3.396185
      3.388542     3.380899     3.373256     3.365613     3.357969     3.350326     3.342683     3.335040     3.327396     3.319753
      3.312110     3.304467     3.296824     3.289180     3.281537     3.273894     3.266251     3.258607     3.250964     3.243321
      3.235678     3.228034     3.220391     3.212748     3.205105     3.197462     3.189818     3.182175     3.174532     3.166889
      3.159245     3.151602     3.143959     3.136316     3.128673     3.121029     3.113386     3.105743     3.098100     3.090456
      3.082813     3.075170     3.067527     3.059884     3.052240     3.044597     3.036954     3.029311     3.021667     3.014024
      3.006381     2.998738     2.991095     2.983451     2.975808     2.968165     2.960522     2.952878     2.945235     2.937592
      2.929949     2.922306     2.914662     2.907019     2.899376     2.891733     2.884089     2.876446     2.868803     2.861160
      2.853517     2.845873     2.838230     2.830587     2.822944     2.815300     2.807657     2.800014     2.792371     2.784728
      2.777084     2.769441     2.761798     2.754155     2.746511     2.738868     2.731225     2.723582     2.715939     2.708295
      2.700652     2.693009     2.685366     2.677722     2.670079     2.662436     2.654793     2.647150     2.639506     2.631863
      2.624220     2.616577     2.608933     2.601290     2.593647     2.586004     2.578361     2.570717     2.563074     2.555431
      2.547788     2.540144     2.532501     2.524858     2.517215     2.509572     2.501928     2.494285     2.486642     2.478999
      2.471355     2.463712     2.456069     2.448426     2.440783     2.433139     2.425496     2.417853     2.410210     2.402566
      2.394923     2.387280     2.379637     2.371994     2.364350     2.356707     2.349064     2.341421     2.333777     2.326134
      2.318491     2.310848     2.303205     2.295561     2.287918     2.280275     2.272632     2.264988     2.257345     2.249702
      2.242059     2.234416     2.226772     2.219129     2.211486     2.203843     2.196199     2.188556     2.180913     2.173270
      2.165627     2.157983     2.150340     2.142697     2.135054     2.127410     2.119767     2.112124     2.104481     2.096838
      2.089194     2.081551     2.073908     2.066265     2.058621     2.050978     2.043335     2.035692     2.028049     2.020405
      2.012762     2.005119     1.997476     1.989833     1.982190     1.974546     1.966903     1.959260     1.951617     1.943974
      1.936331     1.928688     1.921045     1.913402     1.905759     1.898115     1.890472     1.882829     1.875186     1.867543
      1.859900     1.852257     1.844614     1.836971     1.829327     1.821684     1.814041     1.806398     1.798755     1.791112
      1.783469     1.775826     1.768183     1.760540     1.752896     1.745253     1.737610     1.729967     1.722324     1.714681
      1.707038     1.699395     1.691752     1.684108     1.676465     1.668822     1.661179     1.653536     1.645893     1.638250
      1.630607     1.622964     1.615321     1.607677     1.600034     1.592391     1.584748     1.577105     1.569462     1.561819
      1.554176     1.546533     1.538890     1.531246     1.523603     1.515960     1.508317     1.500674     1.493031     1.485388
      1.477745     1.470102     1.462458     1.454815     1.447172     1.439529     1.431886     1.424243     1.416600     1.408957
      1.401314     1.393671     1.386027     1.378384     1.370741     1.363098     1.355455     1.347812     1.340169     1.332526
      1.324883     1.317240     1.309596     1.301953     1.294310     1.286667     1.279024     1.271381     1.263738     1.256095
      1.248452     1.240808     1.233165     1.225522     1.217879     1.210236     1.202593     1.194950     1.187307     1.179664
      1.172021     1.164377     1.156734     1.149091     1.141448     1.133805     1.126162     1.118519     1.110876     1.103233
      1.095590     1.087946     1.080303     1.072660     1.065017     1.057374     1.049731     1.042088     1.034445     1.026802
      1.019158     1.011515     1.003872     0.996229     0.988586     0.980943     0.973300     0.965657     0.958014     0.950371
      0.942727     0.935084     0.927441     0.919798     0.912155     0.904512     0.896869     0.889226     0.881583     0.873940
      0.866296     0.858653     0.851010     0.843367     0.835724     0.828081     0.820438     0.812795     0.805152     0.797508
      0.789865     0.782222     0.774579     0.766936     0.759293     0.751650     0.744007     0.736364     0.728721     0.721077
      0.713434     0.705791     0.698148     0.690505     0.682862     0.675219     0.667576     0.659933     0.652290     0.644646
      0.637003     0.629360     0.621717     0.614074     0.606431     0.598788     0.591145     0.583502     0.575858     0.568215
      0.560572     0.552929     0.545286     0.537643     0.530000     0.522357     0.514714     0.507071     0.499427     0.491784
      0.484141     0.476498     0.468855     0.461212     0.453569     0.445925     0.438282     0.430639     0.422996     0.415353
      0.407710     0.400067     0.392424     0.384780     0.377137     0.369494     0.361851     0.354208     0.346565     0.338922
      0.331278     0.323635     0.315992     0.308349     0.300706     0.293063     0.285420     0.277777     0.270133     0.262490
      0.254847     0.247204     0.239561     0.231918     0.224275     0.216631     0.208988     0.201345
 NY phased data points follow
   2.24961E+00  2.07596E-01  6.52995E-01  1.70919E+00  1.23417E+00 -8.47019E-01  1.19847E+00 -1.05846E+00 -7.26365E-01  1.38157E+00
  -6.41641E-01  6.33219E-02  1.26490E+00  1.19455E+00  2.72058E+00  1.04450E+00 -6.27964E-02  1.52647E+00  4.84808E-01  1.72408E+00
   1.11588E+00 -7.57098E-01 -1.23901E+00 -5.72132E-01  4.45758E-01  1.81172E+00  8.82691E-01  1.43159E+00 -1.42656E-01 -4.69303E-01
   6.77619E-02  1.08115E+00  4.12957E-01 -7.93271E-01 -2.13975E+00  3.92329E-01  1.13317E-01 -1.37975E+00  5.30190E-01 -1.24961E+00
  -1.77069E+00  7.55842E-01 -1.33675E+00  5.03089E-01  1.07421E+00 -1.16440E-01  2.17464E-01  9.54684E-01  8.05816E-01  1.01523E+00
   9.21115E-01  1.07003E+00 -1.21911E+00 -1.02404E+00  1.50801E+00  1.55635E-01  1.30113E-01 -6.20271E-01 -8.33423E-02 -7.11089E-01
  -2.46867E+00 -1.94393E+00 -3.56026E+00 -4.01015E+00 -4.32563E+00 -2.85158E+00 -2.73134E+00 -4.13150E+00 -3.47838E+00 -1.96021E+00
  -5.90655E+00 -4.39068E+00 -5.77827E+00 -5.86851E+00 -6.94295E+00 -5.85482E+00 -6.38535E+00 -8.27169E+00 -5.92660E+00 -6.40848E+00
  -8.94530E+00 -9.63110E+00 -8.62513E+00 -1.03832E+01 -9.43455E+00 -1.07385E+01 -1.05850E+01 -1.17288E+01 -8.99394E+00 -9.11316E+00
  -9.48783E+00 -7.54327E+00 -7.73590E+00 -7.72927E+00 -8.33203E+00 -5.75878E+00 -5.21659E+00 -5.65439E+00 -6.16464E+00 -4.18343E+00
  -5.32830E+00 -4.56425E+00 -4.95151E+00 -6.71441E+00 -5.79643E+00 -3.46209E+00 -4.92670E+00 -2.88350E+00 -5.14568E+00 -3.66173E+00
  -1.45388E+00 -3.19996E+00 -3.96219E+00 -2.98914E+00 -3.69061E+00 -1.67854E+00 -2.80985E+00 -4.18455E-01  8.35481E-01 -1.67862E+00
  -1.18894E+00 -3.66926E-01 -4.81086E-01 -2.73145E+00  6.48030E-01 -9.04092E-01  3.49182E-01 -1.00702E+00  5.27595E-01 -9.51333E-01
   5.29205E-01 -9.82506E-01 -4.44423E-01 -3.95571E-01 -1.56806E+00  1.88040E-02 -4.05624E+00 -3.49066E+00 -3.69830E+00 -5.10255E+00
  -5.63479E+00 -6.89230E+00 -6.63073E+00 -5.03751E+00 -8.83052E+00 -1.03052E+01 -8.66361E+00 -9.60586E+00 -1.15623E+01 -1.30053E+01
  -1.32191E+01 -1.31332E+01 -1.36914E+01 -1.27886E+01 -1.52597E+01 -1.37213E+01 -1.53181E+01 -1.55273E+01 -1.48096E+01 -1.48400E+01
  -1.47455E+01 -1.38876E+01 -1.49017E+01 -1.36781E+01 -1.45582E+01 -1.51933E+01 -1.52227E+01 -1.42531E+01 -1.59249E+01 -1.37718E+01
  -9.81970E+00 -1.18376E+01 -1.47140E+01 -1.27252E+01 -8.85016E+00 -1.31282E+01 -1.31380E+01 -1.34507E+01 -1.14758E+01 -1.26681E+01
  -1.33891E+01 -1.24708E+01 -1.18131E+01 -1.06558E+01 -1.16163E+01 -1.30569E+01 -9.26124E+00 -1.13912E+01 -1.29751E+01 -1.42074E+01
  -1.26565E+01 -1.28973E+01 -1.15539E+01 -1.15217E+01 -1.39082E+01 -1.13670E+01 -1.09290E+01 -1.27058E+01 -1.12174E+01 -9.69783E+00
  -1.41752E+01 -1.23084E+01 -1.24493E+01 -1.21070E+01 -1.00830E+01 -1.15503E+01 -1.09475E+01 -1.22538E+01 -1.13009E+01 -9.01777E+00
  -9.70642E+00 -1.16240E+01 -9.86452E+00 -9.85474E+00 -9.94391E+00 -8.96002E+00 -5.85282E+00 -8.94621E+00 -9.78395E+00 -8.23327E+00
  -9.50591E+00 -6.66586E+00 -1.09606E+01 -8.62142E+00 -8.87138E+00 -9.19261E+00 -8.98854E+00 -9.10754E+00 -6.02411E+00 -1.03883E+01
  -8.40840E+00 -8.66582E+00 -1.06248E+01 -7.25903E+00 -8.31079E+00 -7.96100E+00 -9.67462E+00 -6.80529E+00 -7.31436E+00 -6.55031E+00
  -6.99448E+00 -8.04404E+00 -7.49123E+00 -6.64220E+00 -6.65858E+00 -6.76856E+00 -7.83428E+00 -3.86212E+00 -4.52221E+00 -6.81616E+00
  -5.18592E+00 -5.50202E+00 -7.67930E+00 -5.61029E+00 -4.94503E+00 -6.43183E+00 -4.04844E+00 -5.65781E+00 -7.24284E+00 -5.93529E+00
  -6.36586E+00 -4.30584E+00 -6.23557E+00 -3.62511E+00 -7.27402E+00 -5.02037E+00 -3.52013E+00 -6.51339E+00 -6.65255E+00 -5.56639E+00
  -5.79777E+00 -6.44937E+00 -5.21448E+00 -4.73889E+00 -6.43375E+00 -8.54095E+00 -7.35367E+00 -9.35335E+00 -7.89624E+00 -8.79755E+00
  -9.07260E+00 -6.94283E+00 -9.00832E+00 -6.12955E+00 -6.53388E+00 -9.01466E+00 -9.35926E+00 -7.16273E+00 -6.53111E+00 -6.11858E+00
  -8.53382E+00 -7.42831E+00 -1.00764E+01 -6.67636E+00 -8.03923E+00 -6.53408E+00 -6.93237E+00 -6.99157E+00 -7.34969E+00 -7.20226E+00
  -7.03560E+00 -7.21187E+00 -5.90703E+00 -6.47281E+00 -7.40349E+00 -2.89196E+00 -5.14388E+00 -4.76419E+00 -5.61835E+00 -5.21114E+00
  -5.86585E+00 -5.34201E+00 -5.01155E+00 -3.77383E+00 -5.39119E+00 -3.70389E+00 -6.28937E+00 -4.56948E+00 -3.12912E+00 -5.43575E+00
  -5.59251E+00 -5.43701E+00 -2.92180E+00 -5.80231E+00 -4.51147E+00 -3.94435E+00 -4.30689E+00 -5.39666E+00 -5.92484E+00 -4.11396E+00
  -5.20384E+00 -6.43697E+00 -6.24651E+00 -4.22591E+00 -3.80064E+00 -2.15473E+00 -3.45062E+00 -4.09378E+00 -1.78184E+00 -5.84242E+00
  -4.23700E+00 -4.14121E+00 -4.63625E+00 -4.45244E+00 -2.10554E+00 -2.87151E+00 -3.75203E+00 -4.43549E+00 -5.91115E+00 -2.56886E+00
  -4.61370E+00 -4.16976E+00 -3.26061E+00 -5.46409E+00 -1.73273E+00 -2.08902E+00 -5.90601E-01 -4.59665E+00 -3.78570E+00 -3.41429E+00
  -2.88731E+00 -3.69113E+00 -3.11989E+00 -4.98064E+00 -4.97718E+00 -4.39889E+00 -6.42680E+00 -3.50006E+00 -1.25689E+00 -2.66489E+00
  -4.85940E+00 -2.31927E+00 -4.55827E+00 -2.44977E+00 -3.97109E+00 -4.45156E+00 -2.91739E+00 -1.63239E+00 -3.16458E+00 -2.56033E+00
  -1.72352E+00 -2.42598E+00 -3.29155E+00 -3.25608E+00 -2.61354E+00 -3.87474E+00 -2.93088E+00 -3.98966E+00 -2.60166E+00 -3.24361E+00
  -2.92538E+00 -1.90240E+00 -1.47627E+00 -2.61563E+00 -3.15831E+00 -3.39935E+00 -2.39824E+00 -3.34132E+00 -4.56336E-01 -1.31456E+00
  -6.34174E-01 -3.36512E+00 -6.11493E-01 -1.57005E+00 -3.16248E+00 -1.90169E+00 -3.10653E+00 -2.29657E+00 -3.98174E-01 -1.35711E+00
  -1.08015E+00 -1.16611E+00 -9.93502E-01 -1.51408E+00 -2.15789E+00 -3.57042E+00 -8.04390E-01 -3.00675E+00 -3.54169E+00 -2.71252E+00
  -1.74258E+00 -3.60460E+00 -2.68006E+00 -2.18552E+00 -1.53079E+00 -1.30715E+00 -4.32943E-01 -8.12404E-01 -1.93258E+00 -1.32252E+00
  -2.76537E+00 -2.46446E+00 -2.55014E+00 -8.10804E-01 -1.74949E+00 -1.51294E+00 -8.11474E-01 -1.38923E+00 -1.30853E+00 -3.10013E+00
  -4.55853E-01 -3.53957E-01  3.42571E-01 -1.83172E+00 -2.84142E+00 -1.04426E+00  2.53886E-01 -4.17192E-01 -4.51004E+00 -1.52846E+00
  -5.98885E-01 -6.33043E-01  1.09250E+00 -1.41574E+00 -4.97619E-01 -1.35753E+00 -5.59681E-01 -2.54739E+00  3.96076E-02 -1.52618E+00
  -2.03142E+00 -1.72988E+00 -2.26386E+00 -1.96723E+00 -4.90839E-01 -1.18464E+00  1.32114E-01 -7.26572E-01 -5.24314E-01 -1.50182E+00
   4.38618E-01 -7.63794E-01 -1.21032E+00 -5.54157E-01 -3.93217E+00 -4.56614E-01 -1.15093E+00 -2.27860E-01 -1.56880E+00 -1.21227E+00
  -5.83479E-01 -2.58907E+00 -1.11598E+00 -6.44593E-01 -1.14143E+00 -7.85286E-01  1.99975E-01 -1.44158E+00 -1.54528E+00 -1.05918E+00
   7.01995E-01 -5.84819E-01 -5.09770E-01 -1.71005E+00 -2.10099E+00  1.79668E+00  1.90784E+00  2.61018E+00
 NY points of the fit to the data follow
   1.81606E+00  1.75982E+00  1.80645E+00  1.63494E+00  1.59128E+00  1.30575E+00  1.19471E+00  8.34778E-01  5.55899E-01  1.19728E-01
  -1.39530E-01 -1.68496E-01 -4.49267E-01 -2.66558E-01 -3.75296E-01  7.18488E-02 -2.53172E-01  3.86827E-01 -1.03854E-02  6.69112E-01
   9.32784E-02  7.02208E-01 -4.43855E-02  4.70402E-01 -3.63791E-01  8.08364E-02 -8.29206E-01 -4.84759E-01 -1.26522E+00 -5.84281E-01
  -1.07351E+00 -3.51490E-01 -7.30587E-01 -3.54770E-02  7.70718E-02  6.17613E-01  6.14410E-01  8.86908E-01  8.52214E-01  9.38859E-01
   9.13306E-01  1.04850E+00  1.11421E+00  1.29074E+00  1.30632E+00  1.19517E+00  1.05806E+00  6.80761E-01  3.92426E-01 -6.03247E-02
  -2.77454E-01 -3.39379E-01 -6.96273E-01 -6.41827E-01 -1.01952E+00 -9.34374E-01 -1.39049E+00 -1.26472E+00 -1.69576E+00 -1.51315E+00
  -1.96075E+00 -1.91614E+00 -2.52471E+00 -2.70277E+00 -3.40836E+00 -3.66703E+00 -4.31459E+00 -4.48152E+00 -4.78180E+00 -4.59071E+00
  -4.70051E+00 -4.76982E+00 -5.06593E+00 -5.39949E+00 -5.78421E+00 -6.34017E+00 -6.74600E+00 -7.45769E+00 -7.73603E+00 -8.59319E+00
  -8.73567E+00 -9.51844E+00 -9.48801E+00 -1.02317E+01 -9.90998E+00 -1.01255E+01 -9.73735E+00 -9.71532E+00 -9.38745E+00 -9.15801E+00
  -8.91449E+00 -8.44903E+00 -8.33585E+00 -7.62633E+00 -7.56493E+00 -6.67987E+00 -6.73119E+00 -5.66910E+00 -5.86641E+00 -4.74069E+00
  -5.15914E+00 -4.09506E+00 -4.71894E+00 -3.72259E+00 -4.47117E+00 -3.54442E+00 -4.38832E+00 -3.61516E+00 -4.50968E+00 -3.80345E+00
  -4.06139E+00 -3.53274E+00 -3.40884E+00 -3.06287E+00 -2.60435E+00 -2.40333E+00 -1.74960E+00 -1.84763E+00 -1.08964E+00 -1.68322E+00
  -8.20365E-01 -1.74764E+00 -6.65711E-01 -1.61942E+00 -2.20521E-01 -6.18971E-01  6.19014E-01  1.23487E-01  1.02157E+00  4.04890E-01
   9.47330E-01  2.05288E-01  3.46768E-01 -4.61567E-01 -6.61741E-01 -1.49717E+00 -2.06487E+00 -2.86941E+00 -3.67753E+00 -4.40407E+00
  -5.37125E+00 -6.03707E+00 -7.17260E+00 -7.80267E+00 -9.18444E+00 -9.74699E+00 -1.12499E+01 -1.16485E+01 -1.29809E+01 -1.29579E+01
  -1.33778E+01 -1.31897E+01 -1.34784E+01 -1.32644E+01 -1.34253E+01 -1.32121E+01 -1.34052E+01 -1.33080E+01 -1.35081E+01 -1.35017E+01
  -1.36414E+01 -1.36215E+01 -1.36891E+01 -1.36147E+01 -1.36837E+01 -1.35921E+01 -1.36681E+01 -1.35529E+01 -1.36227E+01 -1.34890E+01
  -1.35399E+01 -1.33594E+01 -1.33660E+01 -1.31336E+01 -1.31263E+01 -1.29090E+01 -1.29389E+01 -1.27613E+01 -1.28810E+01 -1.27832E+01
  -1.28930E+01 -1.28168E+01 -1.28765E+01 -1.27669E+01 -1.27265E+01 -1.25937E+01 -1.24875E+01 -1.23325E+01 -1.22040E+01 -1.20612E+01
  -1.19567E+01 -1.19157E+01 -1.19352E+01 -1.18891E+01 -1.18969E+01 -1.18094E+01 -1.17986E+01 -1.16607E+01 -1.16449E+01 -1.14592E+01
  -1.14406E+01 -1.12133E+01 -1.12131E+01 -1.09632E+01 -1.09973E+01 -1.07242E+01 -1.08001E+01 -1.04958E+01 -1.05823E+01 -1.02384E+01
  -1.02943E+01 -9.87469E+00 -9.89956E+00 -9.46407E+00 -9.47827E+00 -9.09061E+00 -9.13822E+00 -8.83107E+00 -8.97458E+00 -8.72816E+00
  -8.88324E+00 -8.63553E+00 -8.76961E+00 -8.44949E+00 -8.57066E+00 -8.27791E+00 -8.37336E+00 -8.08869E+00 -8.20857E+00 -7.99315E+00
  -8.19527E+00 -8.10703E+00 -8.45276E+00 -8.32642E+00 -8.62006E+00 -8.46015E+00 -8.69946E+00 -8.46541E+00 -8.48465E+00 -8.21890E+00
  -8.11831E+00 -7.89157E+00 -7.70728E+00 -7.53249E+00 -7.26328E+00 -7.13996E+00 -6.77222E+00 -6.68767E+00 -6.25414E+00 -6.22410E+00
  -5.75914E+00 -5.81198E+00 -5.38548E+00 -5.57825E+00 -5.14689E+00 -5.41719E+00 -4.97957E+00 -5.31078E+00 -4.91296E+00 -5.21545E+00
  -4.92703E+00 -5.23611E+00 -5.03107E+00 -5.31109E+00 -5.24305E+00 -5.58697E+00 -5.57132E+00 -5.89173E+00 -5.93589E+00 -6.23757E+00
  -6.33367E+00 -6.61998E+00 -6.77251E+00 -7.01178E+00 -7.18797E+00 -7.36085E+00 -7.50216E+00 -7.56235E+00 -7.52328E+00 -7.52886E+00
  -7.48646E+00 -7.49627E+00 -7.44954E+00 -7.45283E+00 -7.39789E+00 -7.39101E+00 -7.32595E+00 -7.30885E+00 -7.23603E+00 -7.20975E+00
  -7.13309E+00 -7.10094E+00 -7.02409E+00 -6.98134E+00 -6.89953E+00 -6.84419E+00 -6.75666E+00 -6.68890E+00 -6.59620E+00 -6.52163E+00
  -6.42974E+00 -6.35020E+00 -6.25902E+00 -6.17555E+00 -6.08386E+00 -5.99157E+00 -5.88979E+00 -5.77391E+00 -5.62339E+00 -5.41750E+00
  -5.31595E+00 -5.15002E+00 -5.11741E+00 -5.02108E+00 -5.05414E+00 -5.03974E+00 -5.15597E+00 -5.11809E+00 -5.16465E+00 -5.11708E+00
  -5.08725E+00 -5.05867E+00 -4.97084E+00 -4.98207E+00 -4.84700E+00 -4.91588E+00 -4.73258E+00 -4.84672E+00 -4.59745E+00 -4.71473E+00
  -4.40754E+00 -4.58669E+00 -4.22505E+00 -4.47625E+00 -4.08403E+00 -4.41480E+00 -4.00696E+00 -4.34609E+00 -3.89409E+00 -4.24411E+00
  -3.78041E+00 -4.14973E+00 -3.69454E+00 -4.09552E+00 -3.65097E+00 -4.03859E+00 -3.58078E+00 -3.88638E+00 -3.38497E+00 -3.54887E+00
  -3.12693E+00 -3.34331E+00 -3.02343E+00 -3.27953E+00 -3.08897E+00 -3.38140E+00 -3.32154E+00 -3.52848E+00 -3.42941E+00 -3.61451E+00
  -3.52912E+00 -3.70183E+00 -3.62953E+00 -3.78537E+00 -3.71922E+00 -3.83378E+00 -3.76335E+00 -3.81716E+00 -3.73351E+00 -3.71662E+00
  -3.64524E+00 -3.65299E+00 -3.61045E+00 -3.63676E+00 -3.62403E+00 -3.65955E+00 -3.66908E+00 -3.65892E+00 -3.63779E+00 -3.60858E+00
  -3.57234E+00 -3.52951E+00 -3.48015E+00 -3.42422E+00 -3.36159E+00 -3.29218E+00 -3.21594E+00 -3.13291E+00 -3.04327E+00 -2.94738E+00
  -2.84577E+00 -2.73922E+00 -2.62873E+00 -2.51556E+00 -2.40115E+00 -2.28715E+00 -2.17536E+00 -2.06769E+00 -1.96604E+00 -1.87227E+00
  -1.78806E+00 -1.71490E+00 -1.65397E+00 -1.60610E+00 -1.57171E+00 -1.55080E+00 -1.54294E+00 -1.54735E+00 -1.56286E+00 -1.58805E+00
  -1.62127E+00 -1.66076E+00 -1.70470E+00 -1.75133E+00 -1.79898E+00 -1.84612E+00 -1.89145E+00 -1.93385E+00 -1.97248E+00 -2.00670E+00
  -2.03609E+00 -2.06044E+00 -2.07969E+00 -2.09391E+00 -2.10331E+00 -2.10815E+00 -2.10875E+00 -2.10546E+00 -2.09863E+00 -2.08863E+00
  -2.07578E+00 -2.06043E+00 -2.04286E+00 -2.02333E+00 -2.00209E+00 -1.97934E+00 -1.95528E+00 -1.93006E+00 -1.90384E+00 -1.87672E+00
  -1.84881E+00 -1.82021E+00 -1.79099E+00 -1.76123E+00 -1.73098E+00 -1.70029E+00 -1.66922E+00 -1.63779E+00 -1.60605E+00 -1.57402E+00
  -1.54173E+00 -1.50921E+00 -1.47647E+00 -1.44354E+00 -1.41043E+00 -1.37716E+00 -1.34374E+00 -1.31018E+00 -1.27650E+00 -1.24271E+00
  -1.20881E+00 -1.17482E+00 -1.14074E+00 -1.10658E+00 -1.07234E+00 -1.03804E+00 -1.00367E+00 -9.69254E-01 -9.34779E-01 -9.00263E-01
  -8.65703E-01 -8.31111E-01 -7.96482E-01 -7.61826E-01 -7.27143E-01 -6.92443E-01 -6.57726E-01 -6.22996E-01 -5.88254E-01 -5.53506E-01
  -5.18755E-01 -4.84008E-01 -4.49265E-01 -4.14531E-01 -3.79807E-01 -3.45099E-01 -3.10413E-01 -2.75752E-01 -2.41119E-01 -2.06516E-01
  -1.71950E-01 -1.37427E-01 -1.02952E-01 -6.85251E-02 -3.41491E-02  1.76397E-04  3.44512E-02  6.86844E-02
 NY background values follow
    -1.807E+01   -1.803E+01   -1.800E+01   -1.796E+01   -1.793E+01   -1.789E+01   -1.786E+01   -1.782E+01   -1.779E+01   -1.776E+01
    -1.772E+01   -1.769E+01   -1.765E+01   -1.762E+01   -1.758E+01   -1.755E+01   -1.751E+01   -1.748E+01   -1.744E+01   -1.741E+01
    -1.737E+01   -1.734E+01   -1.730E+01   -1.727E+01   -1.723E+01   -1.720E+01   -1.716E+01   -1.713E+01   -1.710E+01   -1.706E+01
    -1.703E+01   -1.699E+01   -1.696E+01   -1.692E+01   -1.689E+01   -1.685E+01   -1.682E+01   -1.678E+01   -1.675E+01   -1.671E+01
    -1.668E+01   -1.664E+01   -1.661E+01   -1.657E+01   -1.654E+01   -1.650E+01   -1.647E+01   -1.643E+01   -1.640E+01   -1.636E+01
    -1.633E+01   -1.629E+01   -1.626E+01   -1.622E+01   -1.619E+01   -1.615E+01   -1.612E+01   -1.608E+01   -1.605E+01   -1.601E+01
    -1.598E+01   -1.594E+01   -1.591E+01   -1.587E+01   -1.583E+01   -1.580E+01   -1.576E+01   -1.573E+01   -1.569E+01   -1.566E+01
    -1.562E+01   -1.559E+01   -1.555E+01   -1.552E+01   -1.548E+01   -1.545E+01   -1.541E+01   -1.538E+01   -1.534E+01   -1.531E+01
    -1.527E+01   -1.524E+01   -1.520E+01   -1.516E+01   -1.513E+01   -1.509E+01   -1.506E+01   -1.502E+01   -1.499E+01   -1.495E+01
    -1.492E+01   -1.488E+01   -1.485E+01   -1.481E+01   -1.478E+01   -1.474E+01   -1.470E+01   -1.467E+01   -1.463E+01   -1.460E+01
    -1.456E+01   -1.453E+01   -1.449E+01   -1.446E+01   -1.442E+01   -1.439E+01   -1.435E+01   -1.431E+01   -1.428E+01   -1.424E+01
    -1.421E+01   -1.417E+01   -1.414E+01   -1.410E+01   -1.407E+01   -1.403E+01   -1.399E+01   -1.396E+01   -1.392E+01   -1.389E+01
    -1.385E+01   -1.382E+01   -1.378E+01   -1.374E+01   -1.371E+01   -1.367E+01   -1.364E+01   -1.360E+01   -1.357E+01   -1.353E+01
    -1.350E+01   -1.346E+01   -1.342E+01   -1.339E+01   -1.335E+01   -1.332E+01   -1.328E+01   -1.325E+01   -1.321E+01   -1.317E+01
    -1.314E+01   -1.310E+01   -1.307E+01   -1.303E+01   -1.299E+01   -1.296E+01   -1.292E+01   -1.289E+01   -1.285E+01   -1.282E+01
    -1.278E+01   -1.274E+01   -1.271E+01   -1.267E+01   -1.264E+01   -1.260E+01   -1.256E+01   -1.253E+01   -1.249E+01   -1.246E+01
    -1.242E+01   -1.239E+01   -1.235E+01   -1.231E+01   -1.228E+01   -1.224E+01   -1.221E+01   -1.217E+01   -1.213E+01   -1.210E+01
    -1.206E+01   -1.203E+01   -1.199E+01   -1.195E+01   -1.192E+01   -1.188E+01   -1.185E+01   -1.181E+01   -1.177E+01   -1.174E+01
    -1.170E+01   -1.167E+01   -1.163E+01   -1.159E+01   -1.156E+01   -1.152E+01   -1.149E+01   -1.145E+01   -1.141E+01   -1.138E+01
    -1.134E+01   -1.131E+01   -1.127E+01   -1.123E+01   -1.120E+01   -1.116E+01   -1.112E+01   -1.109E+01   -1.105E+01   -1.102E+01
    -1.098E+01   -1.094E+01   -1.091E+01   -1.087E+01   -1.084E+01   -1.080E+01   -1.076E+01   -1.073E+01   -1.069E+01   -1.065E+01
    -1.062E+01   -1.058E+01   -1.055E+01   -1.051E+01   -1.047E+01   -1.044E+01   -1.040E+01   -1.037E+01   -1.033E+01   -1.029E+01
    -1.026E+01   -1.022E+01   -1.018E+01   -1.015E+01   -1.011E+01   -1.008E+01   -1.004E+01   -1.000E+01   -9.967E+00   -9.930E+00
    -9.894E+00   -9.858E+00   -9.821E+00   -9.785E+00   -9.749E+00   -9.713E+00   -9.676E+00   -9.640E+00   -9.604E+00   -9.567E+00
    -9.531E+00   -9.495E+00   -9.458E+00   -9.422E+00   -9.386E+00   -9.349E+00   -9.313E+00   -9.277E+00   -9.240E+00   -9.204E+00
    -9.168E+00   -9.131E+00   -9.095E+00   -9.059E+00   -9.022E+00   -8.986E+00   -8.949E+00   -8.913E+00   -8.877E+00   -8.840E+00
    -8.804E+00   -8.768E+00   -8.731E+00   -8.695E+00   -8.658E+00   -8.622E+00   -8.586E+00   -8.549E+00   -8.513E+00   -8.476E+00
    -8.440E+00   -8.403E+00   -8.367E+00   -8.331E+00   -8.294E+00   -8.258E+00   -8.221E+00   -8.185E+00   -8.148E+00   -8.112E+00
    -8.076E+00   -8.039E+00   -8.003E+00   -7.966E+00   -7.930E+00   -7.893E+00   -7.857E+00   -7.820E+00   -7.784E+00   -7.747E+00
    -7.711E+00   -7.674E+00   -7.638E+00   -7.601E+00   -7.565E+00   -7.528E+00   -7.492E+00   -7.455E+00   -7.419E+00   -7.382E+00
    -7.346E+00   -7.309E+00   -7.273E+00   -7.236E+00   -7.200E+00   -7.163E+00   -7.127E+00   -7.090E+00   -7.054E+00   -7.017E+00
    -6.981E+00   -6.944E+00   -6.908E+00   -6.871E+00   -6.835E+00   -6.798E+00   -6.762E+00   -6.725E+00   -6.688E+00   -6.652E+00
    -6.615E+00   -6.579E+00   -6.542E+00   -6.506E+00   -6.469E+00   -6.433E+00   -6.396E+00   -6.360E+00   -6.323E+00   -6.286E+00
    -6.250E+00   -6.213E+00   -6.177E+00   -6.140E+00   -6.104E+00   -6.067E+00   -6.030E+00   -5.994E+00   -5.957E+00   -5.921E+00
    -5.884E+00   -5.848E+00   -5.811E+00   -5.774E+00   -5.738E+00   -5.701E+00   -5.665E+00   -5.628E+00   -5.592E+00   -5.555E+00
    -5.518E+00   -5.482E+00   -5.445E+00   -5.409E+00   -5.372E+00   -5.335E+00   -5.299E+00   -5.262E+00   -5.226E+00   -5.189E+00
    -5.153E+00   -5.116E+00   -5.079E+00   -5.043E+00   -5.006E+00   -4.970E+00   -4.933E+00   -4.896E+00   -4.860E+00   -4.823E+00
    -4.787E+00   -4.750E+00   -4.713E+00   -4.677E+00   -4.640E+00   -4.604E+00   -4.567E+00   -4.530E+00   -4.494E+00   -4.457E+00
    -4.421E+00   -4.384E+00   -4.347E+00   -4.311E+00   -4.274E+00   -4.238E+00   -4.201E+00   -4.164E+00   -4.128E+00   -4.091E+00
    -4.055E+00   -4.018E+00   -3.981E+00   -3.945E+00   -3.908E+00   -3.872E+00   -3.835E+00   -3.798E+00   -3.762E+00   -3.725E+00
    -3.689E+00   -3.652E+00   -3.615E+00   -3.579E+00   -3.542E+00   -3.506E+00   -3.469E+00   -3.433E+00   -3.396E+00   -3.359E+00
    -3.323E+00   -3.286E+00   -3.250E+00   -3.213E+00   -3.176E+00   -3.140E+00   -3.103E+00   -3.067E+00   -3.030E+00   -2.994E+00
    -2.957E+00   -2.920E+00   -2.884E+00   -2.847E+00   -2.811E+00   -2.774E+00   -2.738E+00   -2.701E+00   -2.664E+00   -2.628E+00
    -2.591E+00   -2.555E+00   -2.518E+00   -2.482E+00   -2.445E+00   -2.408E+00   -2.372E+00   -2.335E+00   -2.299E+00   -2.262E+00
    -2.226E+00   -2.189E+00   -2.153E+00   -2.116E+00   -2.080E+00   -2.043E+00   -2.006E+00   -1.970E+00   -1.933E+00   -1.897E+00
    -1.860E+00   -1.824E+00   -1.787E+00   -1.751E+00   -1.714E+00   -1.678E+00   -1.641E+00   -1.605E+00   -1.568E+00   -1.532E+00
    -1.495E+00   -1.459E+00   -1.422E+00   -1.386E+00   -1.349E+00   -1.313E+00   -1.276E+00   -1.240E+00   -1.203E+00   -1.167E+00
    -1.130E+00   -1.094E+00   -1.057E+00   -1.021E+00   -9.843E-01   -9.478E-01   -9.113E-01   -8.748E-01   -8.384E-01   -8.019E-01
    -7.655E-01   -7.290E-01   -6.925E-01   -6.561E-01   -6.196E-01   -5.832E-01   -5.468E-01   -5.103E-01   -4.739E-01   -4.374E-01
    -4.010E-01   -3.646E-01   -3.282E-01   -2.917E-01   -2.553E-01   -2.189E-01   -1.825E-01   -1.461E-01
 Ala      Conc. = 4.79E+02
