 LCModel (Version 6.3-1L) Copyright: S.W. Provencher.          Ref.: Magn. Reson. Med. 30:672-679 (1993).                
 Slice#2 Row#10 Col#4  K_02_press_1_raw_act
 36 lines in following concentration table = NCONC+1
    Conc.  %SD /Cr+PCr  Metabolite                                         
    0.000 999%   0.000 Ala                                                 
    0.000 999%   0.000 Asp                                                 
 1.01E+03  27%   0.468 Cr                                                  
 1.15E+03  24%   0.532 PCr                                                 
    0.000 999%   0.000 GABA                                                
    0.000 999%   0.000 Glc                                                 
  656.039  45%   0.304 Gln                                                 
 2.21E+03  15%   1.021 Glu                                                 
  912.078   3%   0.422 GPC                                                 
    0.000 999%   0.000 PCh                                                 
  769.071  11%   0.356 GSH                                                 
 2.19E+03  16%   1.014 Ins                                                 
    0.000 999%   0.000 Lac                                                 
 3.65E+03   5%   1.691 NAA                                                 
  224.050  87%   0.104 NAAG                                                
  264.296  15%   0.122 Scyllo                                              
    0.000 999%   0.000 Tau                                                 
   30.556 456% 1.4E-02 -CrCH2                                              
  912.078   3%   0.422 GPC+PCh                                             
 3.88E+03   3%   1.794 NAA+NAAG                                            
 2.16E+03   3%   1.000 Cr+PCr                                              
 2.86E+03  18%   1.325 Glu+Gln                                             
 4.97E+03  23%   2.299 Lip13a                                              
    0.000 999%   0.000 Lip13b                                              
  312.673 163%   0.145 Lip09                                               
 1.48E+03  31%   0.684 MM09                                                
  992.983  35%   0.460 Lip20                                               
 2.77E+03  21%   1.283 MM20                                                
  442.688  51%   0.205 MM12                                                
 2.55E+03  25%   1.182 MM14                                                
  804.427  36%   0.372 MM17                                                
 4.97E+03  23%   2.299 Lip13a+Lip13b                                       
 7.96E+03  11%   3.686 MM14+Lip13a+Lip13b+MM12                             
 1.79E+03  17%   0.829 MM09+Lip09                                          
 3.76E+03  14%   1.742 MM20+Lip20                                          
   6 lines in following misc. output table
  FWHM = 0.054 ppm    S/N =  18                                            
  Data shift = 0.015 ppm                                                   
  Ph: -29 deg     -15.1 deg/ppm                                            
  alphaB,S = 7.0E-01,   1.0E+02                                            
   14 spline knots.   Ns = 8(1)                                            
  (16) 4 infls.   (15) 1 extrs.                                            
  498 points on ppm-axis = NY
      4.000000     3.992357     3.984714     3.977070     3.969427     3.961784     3.954141     3.946497     3.938854     3.931211
      3.923568     3.915925     3.908281     3.900638     3.892995     3.885352     3.877708     3.870065     3.862422     3.854779
      3.847136     3.839492     3.831849     3.824206     3.816563     3.808919     3.801276     3.793633     3.785990     3.778347
      3.770703     3.763060     3.755417     3.747774     3.740130     3.732487     3.724844     3.717201     3.709558     3.701914
      3.694271     3.686628     3.678985     3.671341     3.663698     3.656055     3.648412     3.640769     3.633125     3.625482
      3.617839     3.610196     3.602552     3.594909     3.587266     3.579623     3.571980     3.564336     3.556693     3.549050
      3.541407     3.533763     3.526120     3.518477     3.510834     3.503191     3.495547     3.487904     3.480261     3.472618
      3.464974     3.457331     3.449688     3.442045     3.434402     3.426758     3.419115     3.411472     3.403829     3.396185
      3.388542     3.380899     3.373256     3.365613     3.357969     3.350326     3.342683     3.335040     3.327396     3.319753
      3.312110     3.304467     3.296824     3.289180     3.281537     3.273894     3.266251     3.258607     3.250964     3.243321
      3.235678     3.228034     3.220391     3.212748     3.205105     3.197462     3.189818     3.182175     3.174532     3.166889
      3.159245     3.151602     3.143959     3.136316     3.128673     3.121029     3.113386     3.105743     3.098100     3.090456
      3.082813     3.075170     3.067527     3.059884     3.052240     3.044597     3.036954     3.029311     3.021667     3.014024
      3.006381     2.998738     2.991095     2.983451     2.975808     2.968165     2.960522     2.952878     2.945235     2.937592
      2.929949     2.922306     2.914662     2.907019     2.899376     2.891733     2.884089     2.876446     2.868803     2.861160
      2.853517     2.845873     2.838230     2.830587     2.822944     2.815300     2.807657     2.800014     2.792371     2.784728
      2.777084     2.769441     2.761798     2.754155     2.746511     2.738868     2.731225     2.723582     2.715939     2.708295
      2.700652     2.693009     2.685366     2.677722     2.670079     2.662436     2.654793     2.647150     2.639506     2.631863
      2.624220     2.616577     2.608933     2.601290     2.593647     2.586004     2.578361     2.570717     2.563074     2.555431
      2.547788     2.540144     2.532501     2.524858     2.517215     2.509572     2.501928     2.494285     2.486642     2.478999
      2.471355     2.463712     2.456069     2.448426     2.440783     2.433139     2.425496     2.417853     2.410210     2.402566
      2.394923     2.387280     2.379637     2.371994     2.364350     2.356707     2.349064     2.341421     2.333777     2.326134
      2.318491     2.310848     2.303205     2.295561     2.287918     2.280275     2.272632     2.264988     2.257345     2.249702
      2.242059     2.234416     2.226772     2.219129     2.211486     2.203843     2.196199     2.188556     2.180913     2.173270
      2.165627     2.157983     2.150340     2.142697     2.135054     2.127410     2.119767     2.112124     2.104481     2.096838
      2.089194     2.081551     2.073908     2.066265     2.058621     2.050978     2.043335     2.035692     2.028049     2.020405
      2.012762     2.005119     1.997476     1.989833     1.982190     1.974546     1.966903     1.959260     1.951617     1.943974
      1.936331     1.928688     1.921045     1.913402     1.905759     1.898115     1.890472     1.882829     1.875186     1.867543
      1.859900     1.852257     1.844614     1.836971     1.829327     1.821684     1.814041     1.806398     1.798755     1.791112
      1.783469     1.775826     1.768183     1.760540     1.752896     1.745253     1.737610     1.729967     1.722324     1.714681
      1.707038     1.699395     1.691752     1.684108     1.676465     1.668822     1.661179     1.653536     1.645893     1.638250
      1.630607     1.622964     1.615321     1.607677     1.600034     1.592391     1.584748     1.577105     1.569462     1.561819
      1.554176     1.546533     1.538890     1.531246     1.523603     1.515960     1.508317     1.500674     1.493031     1.485388
      1.477745     1.470102     1.462458     1.454815     1.447172     1.439529     1.431886     1.424243     1.416600     1.408957
      1.401314     1.393671     1.386027     1.378384     1.370741     1.363098     1.355455     1.347812     1.340169     1.332526
      1.324883     1.317240     1.309596     1.301953     1.294310     1.286667     1.279024     1.271381     1.263738     1.256095
      1.248452     1.240808     1.233165     1.225522     1.217879     1.210236     1.202593     1.194950     1.187307     1.179664
      1.172021     1.164377     1.156734     1.149091     1.141448     1.133805     1.126162     1.118519     1.110876     1.103233
      1.095590     1.087946     1.080303     1.072660     1.065017     1.057374     1.049731     1.042088     1.034445     1.026802
      1.019158     1.011515     1.003872     0.996229     0.988586     0.980943     0.973300     0.965657     0.958014     0.950371
      0.942727     0.935084     0.927441     0.919798     0.912155     0.904512     0.896869     0.889226     0.881583     0.873940
      0.866296     0.858653     0.851010     0.843367     0.835724     0.828081     0.820438     0.812795     0.805152     0.797508
      0.789865     0.782222     0.774579     0.766936     0.759293     0.751650     0.744007     0.736364     0.728721     0.721077
      0.713434     0.705791     0.698148     0.690505     0.682862     0.675219     0.667576     0.659933     0.652290     0.644646
      0.637003     0.629360     0.621717     0.614074     0.606431     0.598788     0.591145     0.583502     0.575858     0.568215
      0.560572     0.552929     0.545286     0.537643     0.530000     0.522357     0.514714     0.507071     0.499427     0.491784
      0.484141     0.476498     0.468855     0.461212     0.453569     0.445925     0.438282     0.430639     0.422996     0.415353
      0.407710     0.400067     0.392424     0.384780     0.377137     0.369494     0.361851     0.354208     0.346565     0.338922
      0.331278     0.323635     0.315992     0.308349     0.300706     0.293063     0.285420     0.277777     0.270133     0.262490
      0.254847     0.247204     0.239561     0.231918     0.224275     0.216631     0.208988     0.201345
 NY phased data points follow
  -1.05470E+02 -1.01609E+02 -9.98530E+01 -9.38441E+01 -8.48194E+01 -8.37432E+01 -7.50511E+01 -6.84514E+01 -5.93493E+01 -5.15247E+01
  -5.35712E+01 -5.01380E+01 -5.71811E+01 -6.15960E+01 -6.56523E+01 -7.78707E+01 -7.90092E+01 -8.42670E+01 -8.40009E+01 -8.77416E+01
  -8.47543E+01 -8.18083E+01 -8.29360E+01 -8.07325E+01 -7.53564E+01 -7.82760E+01 -7.09681E+01 -7.26933E+01 -6.95742E+01 -6.72024E+01
  -6.59669E+01 -6.27308E+01 -6.40826E+01 -6.27650E+01 -6.59465E+01 -6.70255E+01 -6.47331E+01 -6.73876E+01 -6.19018E+01 -6.28848E+01
  -6.32167E+01 -6.30326E+01 -5.80619E+01 -5.48873E+01 -5.19847E+01 -5.71304E+01 -5.48354E+01 -5.11815E+01 -4.81673E+01 -5.29709E+01
  -5.60507E+01 -5.75849E+01 -5.37401E+01 -5.84452E+01 -5.43977E+01 -5.46146E+01 -5.45649E+01 -5.66755E+01 -5.72498E+01 -5.41759E+01
  -5.82789E+01 -5.67970E+01 -5.78907E+01 -5.75740E+01 -6.15204E+01 -6.00585E+01 -5.66985E+01 -6.03750E+01 -5.65953E+01 -5.60088E+01
  -5.38956E+01 -5.44533E+01 -5.38914E+01 -5.26250E+01 -5.03747E+01 -4.89423E+01 -4.76847E+01 -5.10919E+01 -4.79946E+01 -5.01678E+01
  -4.66125E+01 -4.44292E+01 -4.32063E+01 -4.37744E+01 -4.22405E+01 -4.35056E+01 -4.12563E+01 -3.96030E+01 -3.72845E+01 -3.59926E+01
  -3.46973E+01 -3.35763E+01 -3.31716E+01 -2.71852E+01 -2.67862E+01 -2.14916E+01 -1.44445E+01 -1.40235E+01 -7.84102E+00  1.86345E+00
   1.39177E+01  2.14748E+01  3.24778E+01  2.60919E+01  2.04564E+01  1.37906E+01  3.14497E+00 -7.31584E+00 -1.68866E+01 -2.36100E+01
  -2.56431E+01 -2.90524E+01 -2.83018E+01 -3.00266E+01 -3.50947E+01 -2.97794E+01 -2.81524E+01 -3.10994E+01 -2.49984E+01 -2.03169E+01
  -2.07226E+01 -1.30442E+01 -8.07526E+00  1.51816E+00  8.90242E+00  2.27123E+01  2.99628E+01  3.10959E+01  2.97055E+01  1.92601E+01
   1.30788E+01  2.21825E+00 -6.99129E+00 -9.75334E+00 -1.98894E+01 -2.30893E+01 -2.50343E+01 -2.82007E+01 -2.84817E+01 -2.67222E+01
  -2.65709E+01 -2.76342E+01 -2.47562E+01 -2.38604E+01 -2.41636E+01 -2.61835E+01 -2.54189E+01 -2.89351E+01 -2.16877E+01 -2.28664E+01
  -2.11846E+01 -2.62353E+01 -2.51127E+01 -2.40597E+01 -2.21586E+01 -2.66012E+01 -2.14924E+01 -2.23130E+01 -1.68609E+01 -2.17035E+01
  -2.47641E+01 -2.59406E+01 -2.53874E+01 -2.15736E+01 -2.35076E+01 -2.56843E+01 -2.46319E+01 -2.55946E+01 -2.81874E+01 -3.57000E+01
  -3.26117E+01 -3.55285E+01 -3.58650E+01 -3.38662E+01 -3.84932E+01 -4.03078E+01 -3.78088E+01 -3.97368E+01 -3.60006E+01 -3.16007E+01
  -3.28254E+01 -3.17858E+01 -3.26719E+01 -3.43213E+01 -3.11247E+01 -2.71675E+01 -2.53828E+01 -2.66380E+01 -2.10867E+01 -1.64110E+01
  -1.37036E+01 -1.12262E+01 -1.37791E+01 -1.08402E+01 -1.42444E+01 -8.69016E+00 -1.21598E+01 -1.56438E+01 -1.79348E+01 -1.43968E+01
  -1.77486E+01 -9.63590E+00 -1.01004E+01 -9.50196E+00 -1.05180E+01 -9.17926E+00 -1.14424E+01 -1.27151E+01 -1.27703E+01 -1.42995E+01
  -1.26230E+01 -1.61696E+01 -8.36555E+00 -5.26154E+00 -1.05226E+00 -5.55988E-01  2.58360E+00  2.97810E-01 -3.05914E+00 -7.86675E+00
  -8.22893E+00 -1.24733E+01 -1.22593E+01 -8.18375E+00 -1.04370E+01 -4.23938E+00 -1.94888E+00  5.43664E-01  4.74724E+00  4.56386E+00
   1.16040E+00  3.87130E-01  5.21700E+00  9.79859E-01  2.93718E+00  2.06647E+00  6.21212E+00  3.36402E+00  2.34185E+00 -1.10605E-01
   4.10363E-01 -5.28806E+00 -1.97136E+00 -2.59585E-01  2.06852E+00  6.40024E+00  6.24973E+00  1.17052E+01  1.03771E+01  1.56826E+01
   1.81087E+01  2.26094E+01  2.73116E+01  3.89769E+01  4.49606E+01  6.05050E+01  6.97877E+01  7.80534E+01  9.88120E+01  1.16637E+02
   1.21787E+02  1.15588E+02  9.60669E+01  7.22656E+01  6.28207E+01  4.76571E+01  3.45050E+01  2.73256E+01  1.80201E+01  1.65758E+01
   1.35736E+01  1.15692E+01  1.06021E+01  8.90940E+00  1.08636E+01  6.96028E+00  6.39029E+00  3.25800E+00  9.21845E+00  5.36948E+00
   5.84880E+00  4.10300E+00  5.62151E+00  3.53538E+00  2.82251E+00  1.35607E+00  5.13178E+00  4.08183E+00  4.64021E-01  2.51652E+00
   6.38717E+00  3.64143E+00  4.89085E+00  5.81140E+00  4.71426E+00  2.98700E+00  2.71120E+00  6.32522E-01  2.04222E+00  3.31812E+00
   3.98050E+00  6.63384E+00  5.85769E+00  8.40187E+00  5.95214E+00  7.62931E+00  1.16128E+01  1.04227E+01  1.35373E+01  1.38100E+01
   1.34867E+01  1.24509E+01  1.52890E+01  1.47973E+01  1.70231E+01  1.43963E+01  1.45374E+01  1.58459E+01  1.61398E+01  1.41878E+01
   1.61275E+01  1.63108E+01  1.58441E+01  1.39171E+01  1.47852E+01  2.14773E+01  1.84168E+01  1.98798E+01  2.34501E+01  2.03722E+01
   2.12835E+01  2.75222E+01  2.66421E+01  2.80337E+01  2.94896E+01  3.22974E+01  3.19850E+01  3.04676E+01  2.97373E+01  2.84441E+01
   2.66724E+01  3.27518E+01  3.47171E+01  3.63173E+01  3.61247E+01  3.78998E+01  3.99971E+01  3.83653E+01  4.27266E+01  4.39814E+01
   4.12255E+01  3.78409E+01  3.79254E+01  3.59580E+01  3.65399E+01  3.05438E+01  3.70017E+01  3.52426E+01  2.87802E+01  3.18706E+01
   2.95196E+01  2.52954E+01  2.62779E+01  2.48661E+01  2.20248E+01  2.49669E+01  2.36232E+01  2.15437E+01  1.94899E+01  2.05813E+01
   2.16688E+01  2.08817E+01  2.20081E+01  1.87969E+01  2.06113E+01  1.84805E+01  1.70154E+01  1.94018E+01  1.79455E+01  1.82506E+01
   1.32737E+01  1.41585E+01  1.75872E+01  1.02780E+01  1.37988E+01  1.74949E+01  1.79352E+01  1.57121E+01  1.38352E+01  1.52027E+01
   1.65126E+01  1.62459E+01  1.46958E+01  1.39942E+01  1.82343E+01  1.94454E+01  1.91907E+01  1.89930E+01  1.99818E+01  1.94700E+01
   2.10811E+01  1.99884E+01  2.15683E+01  2.30842E+01  2.01893E+01  2.16441E+01  2.00655E+01  2.23466E+01  2.40844E+01  1.93275E+01
   2.34154E+01  2.31161E+01  1.85292E+01  1.58991E+01  1.70983E+01  2.14144E+01  1.99843E+01  1.91494E+01  1.65286E+01  1.42601E+01
   1.40597E+01  1.61733E+01  1.59782E+01  1.47010E+01  1.49399E+01  1.11590E+01  1.47510E+01  1.03618E+01  1.03801E+01  1.39682E+01
   9.25582E+00  9.57466E+00  1.33852E+01  8.32994E+00  9.99836E+00  8.88062E+00  9.33549E+00  8.87371E+00  1.20066E+01  1.23492E+01
   9.99582E+00  1.48346E+01  8.68478E+00  8.63433E+00  1.13972E+01  1.09424E+01  1.30142E+01  1.03889E+01  1.00680E+01  1.27343E+01
   1.43989E+01  1.03321E+01  8.43361E+00  1.03000E+01  1.27998E+01  1.33266E+01  1.10231E+01  1.12539E+01  1.47477E+01  1.10850E+01
   1.23675E+01  1.12702E+01  1.28735E+01  9.78862E+00  1.41989E+01  1.65474E+01  9.94281E+00  1.25684E+01  1.64045E+01  8.90890E+00
   9.62204E+00  1.61300E+01  7.76259E+00  1.07731E+01  1.09124E+01  1.22325E+01  1.16663E+01  9.25160E+00  7.81664E+00  9.64666E+00
   9.95394E+00  1.19798E+01  1.44543E+01  1.11563E+01  1.35222E+01  1.02944E+01  1.16609E+01  1.19854E+01  1.06415E+01  9.48555E+00
   8.35201E+00  1.25754E+01  1.25079E+01  1.40162E+01  1.12512E+01  5.78113E+00  9.26322E+00  9.40691E+00
 NY points of the fit to the data follow
  -1.01301E+02 -9.92426E+01 -9.51544E+01 -9.02898E+01 -8.58180E+01 -8.11817E+01 -7.55700E+01 -6.85543E+01 -6.07446E+01 -5.42764E+01
  -5.14795E+01 -5.30280E+01 -5.75783E+01 -6.30267E+01 -6.80641E+01 -7.23940E+01 -7.59735E+01 -7.87090E+01 -8.09578E+01 -8.26873E+01
  -8.37006E+01 -8.36633E+01 -8.23151E+01 -8.07318E+01 -7.92394E+01 -7.75294E+01 -7.53984E+01 -7.25508E+01 -6.89411E+01 -6.50227E+01
  -6.19470E+01 -6.05826E+01 -6.07158E+01 -6.16699E+01 -6.31330E+01 -6.50370E+01 -6.70625E+01 -6.85020E+01 -6.89873E+01 -6.84084E+01
  -6.67552E+01 -6.47127E+01 -6.26651E+01 -6.04472E+01 -5.77671E+01 -5.48184E+01 -5.25231E+01 -5.16836E+01 -5.25006E+01 -5.45125E+01
  -5.67506E+01 -5.85019E+01 -5.96128E+01 -6.00320E+01 -6.00141E+01 -5.97731E+01 -5.92310E+01 -5.82315E+01 -5.69587E+01 -5.58369E+01
  -5.52585E+01 -5.52832E+01 -5.56945E+01 -5.60467E+01 -5.61200E+01 -5.58372E+01 -5.51903E+01 -5.43341E+01 -5.33778E+01 -5.23362E+01
  -5.13285E+01 -5.04781E+01 -4.99129E+01 -4.96191E+01 -4.94637E+01 -4.93325E+01 -4.91796E+01 -4.89945E+01 -4.88489E+01 -4.84710E+01
  -4.73043E+01 -4.59848E+01 -4.49640E+01 -4.40168E+01 -4.29016E+01 -4.12898E+01 -3.90624E+01 -3.67768E+01 -3.52897E+01 -3.51194E+01
  -3.58977E+01 -3.67720E+01 -3.71179E+01 -3.60599E+01 -3.12686E+01 -2.45190E+01 -1.90782E+01 -1.41282E+01 -7.59447E+00  1.79157E+00
   1.38965E+01  2.55949E+01  3.20230E+01  3.05215E+01  2.23750E+01  1.14174E+01  7.84572E-01 -8.69022E+00 -1.66684E+01 -2.26802E+01
  -2.72545E+01 -3.13263E+01 -3.38503E+01 -3.45533E+01 -3.46281E+01 -3.44472E+01 -3.40408E+01 -3.30848E+01 -2.99957E+01 -2.38670E+01
  -1.76265E+01 -1.23782E+01 -6.77401E+00  4.86261E-01  1.02319E+01  2.14684E+01  3.03827E+01  3.29725E+01  2.85651E+01  1.98362E+01
   1.02621E+01  1.69541E+00 -5.73296E+00 -1.19685E+01 -1.70566E+01 -2.17356E+01 -2.56635E+01 -2.73983E+01 -2.74381E+01 -2.67360E+01
  -2.57277E+01 -2.48040E+01 -2.42646E+01 -2.40791E+01 -2.40635E+01 -2.41628E+01 -2.43315E+01 -2.45238E+01 -2.47116E+01 -2.48715E+01
  -2.50127E+01 -2.51240E+01 -2.52537E+01 -2.55267E+01 -2.57122E+01 -2.57093E+01 -2.55328E+01 -2.53112E+01 -2.54435E+01 -2.58930E+01
  -2.63333E+01 -2.64722E+01 -2.62091E+01 -2.57386E+01 -2.54718E+01 -2.56492E+01 -2.61859E+01 -2.69307E+01 -2.77710E+01 -2.83573E+01
  -2.85942E+01 -2.87772E+01 -2.90889E+01 -2.96898E+01 -3.02598E+01 -3.03935E+01 -3.00482E+01 -2.94884E+01 -2.90921E+01 -2.90694E+01
  -2.89899E+01 -2.85495E+01 -2.77730E+01 -2.68435E+01 -2.58918E+01 -2.48813E+01 -2.36328E+01 -2.18881E+01 -1.97131E+01 -1.75626E+01
  -1.60041E+01 -1.50839E+01 -1.47281E+01 -1.48348E+01 -1.51652E+01 -1.54207E+01 -1.54691E+01 -1.52988E+01 -1.46400E+01 -1.35037E+01
  -1.21283E+01 -1.07674E+01 -9.80636E+00 -9.17444E+00 -9.17387E+00 -1.00863E+01 -1.14166E+01 -1.27417E+01 -1.36258E+01 -1.39971E+01
  -1.39491E+01 -1.31678E+01 -1.15250E+01 -9.16187E+00 -6.65563E+00 -4.81718E+00 -4.11194E+00 -4.68669E+00 -6.46388E+00 -8.83398E+00
  -1.13666E+01 -1.33842E+01 -1.40420E+01 -1.30697E+01 -1.07673E+01 -7.84669E+00 -4.88372E+00 -2.35280E+00 -5.49885E-01  6.38990E-01
   1.31115E+00  1.72744E+00  2.15697E+00  2.61264E+00  3.10334E+00  3.60408E+00  4.12363E+00  4.53071E+00  4.53148E+00  3.99455E+00
   3.30009E+00  2.75785E+00  2.56770E+00  3.03922E+00  4.26883E+00  5.99861E+00  7.72476E+00  9.33785E+00  1.10693E+01  1.26631E+01
   1.42097E+01  1.78343E+01  2.81066E+01  4.02723E+01  5.00874E+01  5.92587E+01  6.96999E+01  8.30775E+01  9.94826E+01  1.14118E+02
   1.19826E+02  1.13433E+02  9.79914E+01  7.98387E+01  6.30010E+01  4.80397E+01  3.56915E+01  2.66199E+01  1.94385E+01  1.26477E+01
   8.72471E+00  7.38781E+00  6.77723E+00  6.42647E+00  6.21511E+00  6.04238E+00  5.80433E+00  5.53709E+00  5.26399E+00  4.99036E+00
   4.73657E+00  4.53481E+00  4.38311E+00  4.26668E+00  4.18588E+00  4.13762E+00  4.11421E+00  4.10748E+00  4.11898E+00  4.16076E+00
   4.24094E+00  4.35147E+00  4.49391E+00  4.66970E+00  4.87774E+00  5.11676E+00  5.38850E+00  5.69462E+00  6.03897E+00  6.42608E+00
   6.85802E+00  7.33116E+00  7.84064E+00  8.37938E+00  8.93943E+00  9.51177E+00  1.00871E+01  1.06570E+01  1.12133E+01  1.17467E+01
   1.22509E+01  1.27215E+01  1.31553E+01  1.35520E+01  1.39148E+01  1.42498E+01  1.45655E+01  1.48727E+01  1.51834E+01  1.55113E+01
   1.58703E+01  1.62739E+01  1.67343E+01  1.72613E+01  1.78622E+01  1.85416E+01  1.93011E+01  2.01393E+01  2.10513E+01  2.20294E+01
   2.30635E+01  2.41422E+01  2.52524E+01  2.63806E+01  2.75125E+01  2.86343E+01  2.97326E+01  3.07955E+01  3.18119E+01  3.27718E+01
   3.36661E+01  3.44868E+01  3.52271E+01  3.58807E+01  3.64420E+01  3.69056E+01  3.72662E+01  3.75192E+01  3.76604E+01  3.76865E+01
   3.75947E+01  3.73835E+01  3.70525E+01  3.66034E+01  3.60398E+01  3.53674E+01  3.45937E+01  3.37282E+01  3.27821E+01  3.17684E+01
   3.07011E+01  2.95950E+01  2.84647E+01  2.73247E+01  2.61892E+01  2.50712E+01  2.39827E+01  2.29338E+01  2.19331E+01  2.09875E+01
   2.01026E+01  1.92824E+01  1.85296E+01  1.78456E+01  1.72308E+01  1.66849E+01  1.62074E+01  1.57973E+01  1.54534E+01  1.51742E+01
   1.49586E+01  1.48055E+01  1.47141E+01  1.46837E+01  1.47138E+01  1.48036E+01  1.49525E+01  1.51596E+01  1.54236E+01  1.57425E+01
   1.61133E+01  1.65320E+01  1.69934E+01  1.74908E+01  1.80163E+01  1.85600E+01  1.91110E+01  1.96568E+01  2.01845E+01  2.06807E+01
   2.11317E+01  2.15244E+01  2.18469E+01  2.20889E+01  2.22425E+01  2.23021E+01  2.22650E+01  2.21314E+01  2.19044E+01  2.15900E+01
   2.11965E+01  2.07345E+01  2.02156E+01  1.96525E+01  1.90583E+01  1.84459E+01  1.78276E+01  1.72145E+01  1.66162E+01  1.60406E+01
   1.54944E+01  1.49822E+01  1.45075E+01  1.40718E+01  1.36755E+01  1.33182E+01  1.29985E+01  1.27145E+01  1.24639E+01  1.22438E+01
   1.20516E+01  1.18844E+01  1.17398E+01  1.16152E+01  1.15082E+01  1.14166E+01  1.13385E+01  1.12723E+01  1.12164E+01  1.11696E+01
   1.11306E+01  1.10983E+01  1.10719E+01  1.10507E+01  1.10339E+01  1.10211E+01  1.10115E+01  1.10048E+01  1.10006E+01  1.09985E+01
   1.09983E+01  1.09997E+01  1.10023E+01  1.10059E+01  1.10105E+01  1.10159E+01  1.10220E+01  1.10286E+01  1.10356E+01  1.10430E+01
   1.10506E+01  1.10585E+01  1.10666E+01  1.10747E+01  1.10829E+01  1.10910E+01  1.10991E+01  1.11073E+01  1.11153E+01  1.11231E+01
   1.11307E+01  1.11382E+01  1.11456E+01  1.11528E+01  1.11597E+01  1.11664E+01  1.11728E+01  1.11791E+01  1.11851E+01  1.11909E+01
   1.11964E+01  1.12015E+01  1.12065E+01  1.12113E+01  1.12158E+01  1.12201E+01  1.12240E+01  1.12278E+01  1.12313E+01  1.12347E+01
   1.12379E+01  1.12409E+01  1.12437E+01  1.12464E+01  1.12490E+01  1.12516E+01  1.12541E+01  1.12566E+01
 NY background values follow
    -1.078E+02   -1.070E+02   -1.062E+02   -1.054E+02   -1.046E+02   -1.038E+02   -1.030E+02   -1.022E+02   -1.014E+02   -1.006E+02
    -9.984E+01   -9.905E+01   -9.826E+01   -9.748E+01   -9.669E+01   -9.591E+01   -9.512E+01   -9.434E+01   -9.356E+01   -9.278E+01
    -9.200E+01   -9.123E+01   -9.045E+01   -8.968E+01   -8.891E+01   -8.815E+01   -8.738E+01   -8.662E+01   -8.586E+01   -8.510E+01
    -8.435E+01   -8.360E+01   -8.285E+01   -8.211E+01   -8.136E+01   -8.063E+01   -7.989E+01   -7.916E+01   -7.843E+01   -7.771E+01
    -7.699E+01   -7.627E+01   -7.556E+01   -7.485E+01   -7.415E+01   -7.345E+01   -7.276E+01   -7.207E+01   -7.138E+01   -7.070E+01
    -7.003E+01   -6.936E+01   -6.869E+01   -6.803E+01   -6.737E+01   -6.672E+01   -6.608E+01   -6.543E+01   -6.480E+01   -6.417E+01
    -6.354E+01   -6.292E+01   -6.230E+01   -6.169E+01   -6.108E+01   -6.048E+01   -5.989E+01   -5.930E+01   -5.871E+01   -5.813E+01
    -5.756E+01   -5.699E+01   -5.642E+01   -5.587E+01   -5.531E+01   -5.477E+01   -5.422E+01   -5.369E+01   -5.316E+01   -5.263E+01
    -5.211E+01   -5.160E+01   -5.109E+01   -5.059E+01   -5.010E+01   -4.961E+01   -4.912E+01   -4.864E+01   -4.817E+01   -4.771E+01
    -4.725E+01   -4.679E+01   -4.634E+01   -4.590E+01   -4.547E+01   -4.504E+01   -4.461E+01   -4.419E+01   -4.378E+01   -4.337E+01
    -4.297E+01   -4.258E+01   -4.219E+01   -4.180E+01   -4.142E+01   -4.105E+01   -4.068E+01   -4.032E+01   -3.996E+01   -3.961E+01
    -3.926E+01   -3.892E+01   -3.858E+01   -3.825E+01   -3.792E+01   -3.760E+01   -3.729E+01   -3.697E+01   -3.667E+01   -3.636E+01
    -3.607E+01   -3.577E+01   -3.548E+01   -3.520E+01   -3.492E+01   -3.464E+01   -3.437E+01   -3.411E+01   -3.385E+01   -3.359E+01
    -3.333E+01   -3.308E+01   -3.284E+01   -3.260E+01   -3.236E+01   -3.213E+01   -3.190E+01   -3.167E+01   -3.145E+01   -3.123E+01
    -3.102E+01   -3.081E+01   -3.060E+01   -3.039E+01   -3.019E+01   -2.999E+01   -2.979E+01   -2.959E+01   -2.939E+01   -2.920E+01
    -2.901E+01   -2.882E+01   -2.863E+01   -2.844E+01   -2.825E+01   -2.806E+01   -2.787E+01   -2.769E+01   -2.750E+01   -2.731E+01
    -2.712E+01   -2.693E+01   -2.674E+01   -2.655E+01   -2.636E+01   -2.617E+01   -2.597E+01   -2.577E+01   -2.558E+01   -2.538E+01
    -2.517E+01   -2.497E+01   -2.476E+01   -2.455E+01   -2.433E+01   -2.412E+01   -2.390E+01   -2.367E+01   -2.345E+01   -2.321E+01
    -2.298E+01   -2.274E+01   -2.249E+01   -2.224E+01   -2.199E+01   -2.174E+01   -2.147E+01   -2.121E+01   -2.094E+01   -2.067E+01
    -2.040E+01   -2.013E+01   -1.985E+01   -1.957E+01   -1.928E+01   -1.900E+01   -1.871E+01   -1.842E+01   -1.813E+01   -1.784E+01
    -1.755E+01   -1.726E+01   -1.697E+01   -1.667E+01   -1.638E+01   -1.608E+01   -1.579E+01   -1.550E+01   -1.520E+01   -1.491E+01
    -1.462E+01   -1.433E+01   -1.404E+01   -1.375E+01   -1.346E+01   -1.318E+01   -1.289E+01   -1.261E+01   -1.234E+01   -1.206E+01
    -1.179E+01   -1.152E+01   -1.125E+01   -1.098E+01   -1.072E+01   -1.047E+01   -1.021E+01   -9.965E+00   -9.719E+00   -9.478E+00
    -9.241E+00   -9.007E+00   -8.776E+00   -8.550E+00   -8.327E+00   -8.107E+00   -7.891E+00   -7.678E+00   -7.469E+00   -7.263E+00
    -7.060E+00   -6.860E+00   -6.663E+00   -6.469E+00   -6.278E+00   -6.089E+00   -5.904E+00   -5.721E+00   -5.541E+00   -5.364E+00
    -5.189E+00   -5.016E+00   -4.846E+00   -4.679E+00   -4.513E+00   -4.350E+00   -4.189E+00   -4.030E+00   -3.873E+00   -3.718E+00
    -3.565E+00   -3.413E+00   -3.264E+00   -3.116E+00   -2.970E+00   -2.825E+00   -2.682E+00   -2.541E+00   -2.400E+00   -2.261E+00
    -2.124E+00   -1.987E+00   -1.852E+00   -1.718E+00   -1.585E+00   -1.453E+00   -1.322E+00   -1.192E+00   -1.063E+00   -9.355E-01
    -8.089E-01   -6.832E-01   -5.586E-01   -4.349E-01   -3.123E-01   -1.906E-01   -6.991E-02    4.983E-02    1.686E-01    2.865E-01
     4.034E-01    5.195E-01    6.346E-01    7.488E-01    8.622E-01    9.747E-01    1.086E+00    1.197E+00    1.307E+00    1.416E+00
     1.525E+00    1.632E+00    1.739E+00    1.845E+00    1.950E+00    2.055E+00    2.159E+00    2.262E+00    2.364E+00    2.466E+00
     2.567E+00    2.667E+00    2.766E+00    2.865E+00    2.964E+00    3.061E+00    3.158E+00    3.255E+00    3.351E+00    3.446E+00
     3.540E+00    3.634E+00    3.727E+00    3.820E+00    3.912E+00    4.003E+00    4.094E+00    4.183E+00    4.272E+00    4.360E+00
     4.448E+00    4.534E+00    4.620E+00    4.705E+00    4.790E+00    4.873E+00    4.956E+00    5.037E+00    5.118E+00    5.198E+00
     5.277E+00    5.355E+00    5.432E+00    5.509E+00    5.584E+00    5.658E+00    5.732E+00    5.804E+00    5.875E+00    5.946E+00
     6.015E+00    6.083E+00    6.151E+00    6.217E+00    6.282E+00    6.346E+00    6.409E+00    6.470E+00    6.531E+00    6.591E+00
     6.649E+00    6.706E+00    6.762E+00    6.817E+00    6.871E+00    6.923E+00    6.975E+00    7.025E+00    7.075E+00    7.123E+00
     7.171E+00    7.218E+00    7.264E+00    7.309E+00    7.354E+00    7.398E+00    7.441E+00    7.483E+00    7.525E+00    7.567E+00
     7.607E+00    7.648E+00    7.688E+00    7.727E+00    7.766E+00    7.805E+00    7.844E+00    7.882E+00    7.920E+00    7.958E+00
     7.995E+00    8.033E+00    8.071E+00    8.108E+00    8.146E+00    8.184E+00    8.221E+00    8.259E+00    8.297E+00    8.335E+00
     8.374E+00    8.413E+00    8.452E+00    8.491E+00    8.531E+00    8.571E+00    8.612E+00    8.653E+00    8.695E+00    8.737E+00
     8.780E+00    8.823E+00    8.867E+00    8.911E+00    8.955E+00    9.000E+00    9.045E+00    9.090E+00    9.135E+00    9.181E+00
     9.226E+00    9.272E+00    9.318E+00    9.364E+00    9.410E+00    9.456E+00    9.502E+00    9.547E+00    9.593E+00    9.639E+00
     9.684E+00    9.729E+00    9.774E+00    9.819E+00    9.863E+00    9.907E+00    9.951E+00    9.994E+00    1.004E+01    1.008E+01
     1.012E+01    1.016E+01    1.020E+01    1.024E+01    1.028E+01    1.032E+01    1.036E+01    1.040E+01    1.044E+01    1.047E+01
     1.051E+01    1.054E+01    1.057E+01    1.061E+01    1.064E+01    1.067E+01    1.070E+01    1.073E+01    1.076E+01    1.079E+01
     1.081E+01    1.084E+01    1.086E+01    1.089E+01    1.091E+01    1.094E+01    1.096E+01    1.098E+01    1.100E+01    1.102E+01
     1.104E+01    1.106E+01    1.107E+01    1.109E+01    1.111E+01    1.112E+01    1.114E+01    1.115E+01    1.117E+01    1.118E+01
     1.119E+01    1.121E+01    1.122E+01    1.123E+01    1.124E+01    1.125E+01    1.126E+01    1.127E+01    1.128E+01    1.128E+01
     1.129E+01    1.130E+01    1.130E+01    1.131E+01    1.131E+01    1.132E+01    1.132E+01    1.133E+01
 Cr       Conc. = 1.01E+03
