 LCModel (Version 6.3-1L) Copyright: S.W. Provencher.          Ref.: Magn. Reson. Med. 30:672-679 (1993).                
 Slice#3 Row#10 Col#10  K_02_press_1_raw_act
 36 lines in following concentration table = NCONC+1
    Conc.  %SD /Cr+PCr  Metabolite                                         
  624.450  23%   0.313 Ala                                                 
    0.000 999%   0.000 Asp                                                 
   24.360 999% 1.2E-02 Cr                                                  
 1.97E+03  15%   0.988 PCr                                                 
    0.000 999%   0.000 GABA                                                
    0.000 999%   0.000 Glc                                                 
  844.678  35%   0.423 Gln                                                 
 1.83E+03  18%   0.920 Glu                                                 
  711.964   4%   0.357 GPC                                                 
    0.000 999%   0.000 PCh                                                 
  517.527  16%   0.259 GSH                                                 
 1.10E+03  25%   0.549 Ins                                                 
   68.175 223% 3.4E-02 Lac                                                 
 2.27E+03   6%   1.139 NAA                                                 
  302.489  54%   0.152 NAAG                                                
  148.814  22% 7.5E-02 Scyllo                                              
    0.000 999%   0.000 Tau                                                 
  282.734  40%   0.142 -CrCH2                                              
  711.964   4%   0.357 GPC+PCh                                             
 2.57E+03   4%   1.290 NAA+NAAG                                            
 2.00E+03   3%   1.000 Cr+PCr                                              
 2.68E+03  18%   1.343 Glu+Gln                                             
 1.07E+03  35%   0.537 Lip13a                                              
    0.000 999%   0.000 Lip13b                                              
  218.802  99%   0.110 Lip09                                               
 1.88E+03  15%   0.941 MM09                                                
  158.037  94% 7.9E-02 Lip20                                               
 4.14E+03  10%   2.077 MM20                                                
  762.415  33%   0.382 MM12                                                
    0.000 999%   0.000 MM14                                                
  812.692  16%   0.407 MM17                                                
 1.07E+03  35%   0.537 Lip13a+Lip13b                                       
 1.83E+03  16%   0.919 MM14+Lip13a+Lip13b+MM12                             
 2.10E+03  10%   1.051 MM09+Lip09                                          
 4.30E+03   9%   2.156 MM20+Lip20                                          
   6 lines in following misc. output table
  FWHM = 0.061 ppm    S/N =  11                                            
  Data shift = 0.038 ppm                                                   
  Ph: -28 deg     -16.6 deg/ppm                                            
  alphaB,S = 8.5E+01,   1.4E+02                                            
   14 spline knots.   Ns = 8(1)                                            
   2 inflections.     1 extrema                                            
  498 points on ppm-axis = NY
      4.000000     3.992357     3.984714     3.977070     3.969427     3.961784     3.954141     3.946497     3.938854     3.931211
      3.923568     3.915925     3.908281     3.900638     3.892995     3.885352     3.877708     3.870065     3.862422     3.854779
      3.847136     3.839492     3.831849     3.824206     3.816563     3.808919     3.801276     3.793633     3.785990     3.778347
      3.770703     3.763060     3.755417     3.747774     3.740130     3.732487     3.724844     3.717201     3.709558     3.701914
      3.694271     3.686628     3.678985     3.671341     3.663698     3.656055     3.648412     3.640769     3.633125     3.625482
      3.617839     3.610196     3.602552     3.594909     3.587266     3.579623     3.571980     3.564336     3.556693     3.549050
      3.541407     3.533763     3.526120     3.518477     3.510834     3.503191     3.495547     3.487904     3.480261     3.472618
      3.464974     3.457331     3.449688     3.442045     3.434402     3.426758     3.419115     3.411472     3.403829     3.396185
      3.388542     3.380899     3.373256     3.365613     3.357969     3.350326     3.342683     3.335040     3.327396     3.319753
      3.312110     3.304467     3.296824     3.289180     3.281537     3.273894     3.266251     3.258607     3.250964     3.243321
      3.235678     3.228034     3.220391     3.212748     3.205105     3.197462     3.189818     3.182175     3.174532     3.166889
      3.159245     3.151602     3.143959     3.136316     3.128673     3.121029     3.113386     3.105743     3.098100     3.090456
      3.082813     3.075170     3.067527     3.059884     3.052240     3.044597     3.036954     3.029311     3.021667     3.014024
      3.006381     2.998738     2.991095     2.983451     2.975808     2.968165     2.960522     2.952878     2.945235     2.937592
      2.929949     2.922306     2.914662     2.907019     2.899376     2.891733     2.884089     2.876446     2.868803     2.861160
      2.853517     2.845873     2.838230     2.830587     2.822944     2.815300     2.807657     2.800014     2.792371     2.784728
      2.777084     2.769441     2.761798     2.754155     2.746511     2.738868     2.731225     2.723582     2.715939     2.708295
      2.700652     2.693009     2.685366     2.677722     2.670079     2.662436     2.654793     2.647150     2.639506     2.631863
      2.624220     2.616577     2.608933     2.601290     2.593647     2.586004     2.578361     2.570717     2.563074     2.555431
      2.547788     2.540144     2.532501     2.524858     2.517215     2.509572     2.501928     2.494285     2.486642     2.478999
      2.471355     2.463712     2.456069     2.448426     2.440783     2.433139     2.425496     2.417853     2.410210     2.402566
      2.394923     2.387280     2.379637     2.371994     2.364350     2.356707     2.349064     2.341421     2.333777     2.326134
      2.318491     2.310848     2.303205     2.295561     2.287918     2.280275     2.272632     2.264988     2.257345     2.249702
      2.242059     2.234416     2.226772     2.219129     2.211486     2.203843     2.196199     2.188556     2.180913     2.173270
      2.165627     2.157983     2.150340     2.142697     2.135054     2.127410     2.119767     2.112124     2.104481     2.096838
      2.089194     2.081551     2.073908     2.066265     2.058621     2.050978     2.043335     2.035692     2.028049     2.020405
      2.012762     2.005119     1.997476     1.989833     1.982190     1.974546     1.966903     1.959260     1.951617     1.943974
      1.936331     1.928688     1.921045     1.913402     1.905759     1.898115     1.890472     1.882829     1.875186     1.867543
      1.859900     1.852257     1.844614     1.836971     1.829327     1.821684     1.814041     1.806398     1.798755     1.791112
      1.783469     1.775826     1.768183     1.760540     1.752896     1.745253     1.737610     1.729967     1.722324     1.714681
      1.707038     1.699395     1.691752     1.684108     1.676465     1.668822     1.661179     1.653536     1.645893     1.638250
      1.630607     1.622964     1.615321     1.607677     1.600034     1.592391     1.584748     1.577105     1.569462     1.561819
      1.554176     1.546533     1.538890     1.531246     1.523603     1.515960     1.508317     1.500674     1.493031     1.485388
      1.477745     1.470102     1.462458     1.454815     1.447172     1.439529     1.431886     1.424243     1.416600     1.408957
      1.401314     1.393671     1.386027     1.378384     1.370741     1.363098     1.355455     1.347812     1.340169     1.332526
      1.324883     1.317240     1.309596     1.301953     1.294310     1.286667     1.279024     1.271381     1.263738     1.256095
      1.248452     1.240808     1.233165     1.225522     1.217879     1.210236     1.202593     1.194950     1.187307     1.179664
      1.172021     1.164377     1.156734     1.149091     1.141448     1.133805     1.126162     1.118519     1.110876     1.103233
      1.095590     1.087946     1.080303     1.072660     1.065017     1.057374     1.049731     1.042088     1.034445     1.026802
      1.019158     1.011515     1.003872     0.996229     0.988586     0.980943     0.973300     0.965657     0.958014     0.950371
      0.942727     0.935084     0.927441     0.919798     0.912155     0.904512     0.896869     0.889226     0.881583     0.873940
      0.866296     0.858653     0.851010     0.843367     0.835724     0.828081     0.820438     0.812795     0.805152     0.797508
      0.789865     0.782222     0.774579     0.766936     0.759293     0.751650     0.744007     0.736364     0.728721     0.721077
      0.713434     0.705791     0.698148     0.690505     0.682862     0.675219     0.667576     0.659933     0.652290     0.644646
      0.637003     0.629360     0.621717     0.614074     0.606431     0.598788     0.591145     0.583502     0.575858     0.568215
      0.560572     0.552929     0.545286     0.537643     0.530000     0.522357     0.514714     0.507071     0.499427     0.491784
      0.484141     0.476498     0.468855     0.461212     0.453569     0.445925     0.438282     0.430639     0.422996     0.415353
      0.407710     0.400067     0.392424     0.384780     0.377137     0.369494     0.361851     0.354208     0.346565     0.338922
      0.331278     0.323635     0.315992     0.308349     0.300706     0.293063     0.285420     0.277777     0.270133     0.262490
      0.254847     0.247204     0.239561     0.231918     0.224275     0.216631     0.208988     0.201345
 NY phased data points follow
  -9.08602E+00 -1.03066E+01 -1.05820E+01 -2.62474E+00 -1.60213E+00  4.69843E+00  1.11668E+01  1.74632E+01  2.06496E+01  2.07382E+01
   1.91232E+01  1.50853E+01  9.50916E+00  4.32067E+00  2.49409E+00 -4.82266E+00 -7.36604E+00 -8.76318E+00 -1.67469E+01 -1.33492E+01
  -1.21464E+01 -1.45031E+01 -1.50676E+01 -1.08932E+01 -1.21565E+01 -1.28651E+01 -9.45914E+00 -7.51114E+00 -4.21660E+00 -2.05408E+00
  -3.48839E+00 -8.19799E+00 -5.30560E+00 -3.71214E+00 -1.93193E+00 -4.16128E+00 -6.62218E+00 -7.72681E+00 -7.46884E+00 -1.06133E+01
  -6.74415E+00 -5.41170E+00 -6.34417E+00 -3.53451E+00  9.62345E-01 -7.25620E-01  5.65582E-01 -3.38062E+00 -7.58222E-02 -4.24334E+00
  -2.67959E+00 -5.82044E+00 -6.51255E+00 -7.50477E+00 -5.69670E+00 -1.22225E+01 -7.34012E+00 -9.43891E+00 -8.25050E+00 -1.33298E+01
  -1.87522E+01 -1.39453E+01 -1.88063E+01 -2.07848E+01 -2.09607E+01 -1.90522E+01 -2.11002E+01 -1.85283E+01 -1.49515E+01 -1.50877E+01
  -1.47221E+01 -1.66003E+01 -1.14303E+01 -1.01894E+01 -1.38402E+01 -1.26610E+01 -1.42042E+01 -9.99141E+00 -9.97331E+00 -1.09649E+01
  -1.26590E+01 -1.00214E+01 -8.41404E+00 -1.03573E+01 -7.73004E+00 -8.75272E+00 -5.24776E+00 -5.95185E+00 -6.09477E+00 -4.18094E+00
  -3.10474E+00  1.50867E+00 -2.03999E+00 -4.45980E-01  9.15587E-01  1.65736E+00  7.59917E+00  7.31555E+00  2.21719E+01  3.04854E+01
   4.29895E+01  4.91583E+01  4.48219E+01  4.13631E+01  3.44311E+01  2.52376E+01  1.91149E+01  1.34004E+01  5.76435E+00  2.37977E+00
  -2.64127E+00 -7.20947E+00 -5.62870E+00 -6.83773E+00 -3.61877E+00 -5.76672E+00 -4.18502E+00 -1.16986E+00  7.77932E-01 -7.70652E-01
   1.55460E-01  4.34384E+00  1.78558E+01  2.63852E+01  3.74388E+01  4.14687E+01  4.60284E+01  4.80522E+01  5.17921E+01  3.97807E+01
   2.93397E+01  1.90542E+01  1.45644E+01  9.04836E+00  7.25060E-01 -1.06226E+00 -7.39921E+00 -3.45807E+00 -6.14477E+00 -5.86672E+00
  -7.77776E+00 -3.44955E+00 -6.39034E+00 -5.64652E+00 -6.53192E+00 -5.52256E+00 -8.83620E+00 -6.31514E+00 -6.12521E+00 -3.33728E+00
  -6.82241E+00 -6.00468E+00 -1.04675E+01 -7.09978E+00 -8.74075E+00 -1.12392E+01 -6.35867E+00 -7.22912E+00 -7.68551E+00 -7.54805E+00
  -8.60972E+00 -9.48569E+00 -6.82864E+00 -7.86561E+00 -9.39025E+00 -7.81914E+00 -8.45684E+00 -1.03236E+01 -1.10214E+01 -1.37739E+01
  -1.37032E+01 -1.54948E+01 -1.94549E+01 -1.97325E+01 -1.82113E+01 -2.02026E+01 -1.85704E+01 -1.58247E+01 -1.63601E+01 -1.71525E+01
  -1.24887E+01 -1.86599E+01 -1.41617E+01 -1.43011E+01 -1.25738E+01 -1.43686E+01 -1.30166E+01 -1.00512E+01 -8.62542E+00 -5.04226E+00
  -4.72200E+00 -3.75749E+00  2.67143E-02 -2.41352E+00 -2.24553E+00  6.16174E-01 -1.54655E+00 -4.59415E+00 -3.91057E+00 -4.77288E+00
  -2.58565E+00 -2.14152E+00 -5.58949E-01  5.89079E-01  1.30495E+00 -2.11232E+00  1.15899E+00 -4.83259E+00 -6.66923E+00 -7.74203E+00
  -5.37368E+00  1.38783E+00  4.13141E+00  4.75465E+00  5.24060E+00  1.12466E+01  1.09299E+01  6.87643E+00  3.73238E+00  1.73194E+00
  -2.80018E+00 -3.55583E+00 -2.07874E+00  6.52317E-01 -1.52447E+00  1.14219E+00  5.79422E+00  6.94195E+00  6.37084E+00  4.22877E+00
   9.10727E+00  5.84285E+00  8.42397E+00  8.04449E+00  6.03398E+00  7.55702E+00  6.26489E+00  6.64130E+00  4.91475E+00  1.31137E+00
   2.75162E+00  2.11082E+00  2.93848E+00  4.00120E+00  1.70944E+00  1.45250E+01  1.18319E+01  1.23844E+01  1.24947E+01  1.49647E+01
   1.67086E+01  2.26845E+01  2.84415E+01  3.19200E+01  3.77040E+01  4.44306E+01  5.04146E+01  6.36578E+01  7.72749E+01  8.21777E+01
   8.51784E+01  8.19108E+01  6.99350E+01  5.59286E+01  4.39160E+01  3.44074E+01  2.30257E+01  1.85833E+01  1.82330E+01  1.42476E+01
   9.36465E+00  7.91343E+00  1.26175E+01  1.34371E+01  1.03389E+01  8.94020E+00  9.88386E+00  9.70172E+00  8.16853E+00  7.10099E+00
   7.44349E+00  4.46246E+00  4.72343E+00  6.46308E+00  5.25207E+00  5.82286E+00  2.92024E+00  7.75289E+00  5.90113E+00  4.71127E+00
   1.01364E+01  7.12389E+00  4.44962E+00  8.55740E+00  3.00063E+00  9.26063E+00  8.58171E+00  9.35308E+00  5.90119E+00  5.76661E+00
   3.85781E+00  5.31896E+00  1.74288E+00  2.12821E+00 -1.83795E+00 -1.20505E+00  1.95523E+00  2.35814E+00  1.95239E-02  4.49997E+00
   7.43159E+00  1.39074E+01  1.57234E+01  1.62127E+01  1.80439E+01  1.85748E+01  2.16780E+01  2.22323E+01  1.77298E+01  1.76536E+01
   1.27864E+01  1.13018E+01  1.01764E+01  4.53278E+00  5.01715E+00  1.96437E+00  8.59739E-01 -1.36002E-01 -1.17313E+00 -5.21149E+00
   2.10861E-02 -3.98721E-01  4.24732E+00  5.41033E+00  5.71187E+00  7.36099E+00  6.07214E+00  4.65299E+00  6.79246E+00  6.82076E+00
   1.45697E+01  9.56796E+00  1.46990E+01  1.03943E+01  1.45950E+01  1.36437E+01  1.24749E+01  1.23636E+01  1.05840E+01  1.26177E+01
   1.13868E+01  1.24805E+01  1.13028E+01  1.22096E+01  1.32962E+01  1.44814E+01  1.34705E+01  1.37152E+01  1.48065E+01  1.31697E+01
   1.53854E+01  1.22850E+01  1.35490E+01  1.47307E+01  1.41004E+01  1.30489E+01  1.49075E+01  1.75389E+01  1.49729E+01  1.19445E+01
   1.34904E+01  1.68771E+01  1.60162E+01  1.36100E+01  1.57795E+01  1.22930E+01  1.65871E+01  1.17094E+01  1.36782E+01  1.32810E+01
   1.15841E+01  1.21037E+01  1.65061E+01  1.20872E+01  1.70219E+01  1.45043E+01  1.57412E+01  1.43650E+01  1.58831E+01  1.87069E+01
   1.57975E+01  1.80095E+01  2.05815E+01  2.05339E+01  1.82782E+01  1.76819E+01  1.49911E+01  1.73727E+01  1.70186E+01  1.73791E+01
   2.09499E+01  2.02830E+01  1.81284E+01  1.95175E+01  1.90430E+01  2.19580E+01  2.07889E+01  2.40300E+01  1.94786E+01  2.43965E+01
   1.90871E+01  2.12200E+01  2.17176E+01  2.14286E+01  2.07508E+01  2.18447E+01  1.74965E+01  1.80194E+01  1.65310E+01  1.64656E+01
   1.47528E+01  1.88316E+01  1.79977E+01  1.68501E+01  1.69470E+01  1.76757E+01  1.64267E+01  1.59507E+01  1.70126E+01  1.80360E+01
   1.78825E+01  1.53343E+01  1.50963E+01  1.61280E+01  1.65062E+01  1.34638E+01  1.35441E+01  1.47991E+01  1.36158E+01  1.31014E+01
   1.31863E+01  1.24706E+01  1.53271E+01  1.30889E+01  1.60007E+01  1.13719E+01  1.28650E+01  1.47669E+01  1.31840E+01  1.35017E+01
   1.38299E+01  1.63108E+01  1.22744E+01  1.35107E+01  1.41252E+01  1.78708E+01  1.37562E+01  1.23787E+01  1.64935E+01  1.48999E+01
   1.38186E+01  1.33314E+01  1.21273E+01  1.37286E+01  1.46981E+01  1.26459E+01  1.55979E+01  1.19105E+01  1.19782E+01  1.61067E+01
   1.06619E+01  1.54753E+01  9.02762E+00  1.54486E+01  1.55752E+01  1.37908E+01  1.51095E+01  1.32573E+01  8.92862E+00  1.59405E+01
   1.44955E+01  1.38463E+01  1.64982E+01  1.50032E+01  1.20843E+01  1.16372E+01  1.26276E+01  1.54906E+01  1.10710E+01  1.09031E+01
   1.24398E+01  1.05754E+01  1.03005E+01  1.15710E+01  1.54677E+01  1.16172E+01  1.02190E+01  1.16054E+01
 NY points of the fit to the data follow
  -1.22830E+01 -1.05234E+01 -7.33644E+00 -3.69872E+00  5.83300E-01  5.85831E+00  1.16887E+01  1.68671E+01  2.01305E+01  2.07542E+01
   1.87043E+01  1.45188E+01  9.30145E+00  4.26378E+00  3.04066E-02 -3.35032E+00 -6.01877E+00 -8.18930E+00 -9.90227E+00 -1.08469E+01
  -1.12635E+01 -1.16229E+01 -1.17231E+01 -1.17440E+01 -1.16357E+01 -1.10475E+01 -9.69782E+00 -7.61034E+00 -5.21980E+00 -2.96812E+00
  -1.28358E+00 -6.51056E-01 -1.22223E+00 -2.66829E+00 -4.53955E+00 -6.53547E+00 -8.42599E+00 -9.85567E+00 -1.06178E+01 -1.06603E+01
  -1.00676E+01 -9.08737E+00 -7.86166E+00 -6.51527E+00 -5.23964E+00 -4.28498E+00 -3.89021E+00 -4.15946E+00 -5.05975E+00 -6.43106E+00
  -7.94974E+00 -9.25625E+00 -1.02020E+01 -1.08026E+01 -1.11453E+01 -1.12685E+01 -1.11801E+01 -1.09586E+01 -1.07483E+01 -1.06755E+01
  -1.08250E+01 -1.11755E+01 -1.16318E+01 -1.20268E+01 -1.22358E+01 -1.22505E+01 -1.20999E+01 -1.18397E+01 -1.15239E+01 -1.12035E+01
  -1.09394E+01 -1.07649E+01 -1.06931E+01 -1.07182E+01 -1.08047E+01 -1.09040E+01 -1.09755E+01 -1.09928E+01 -1.09187E+01 -1.05500E+01
  -9.98124E+00 -9.38133E+00 -8.62335E+00 -7.64481E+00 -6.58460E+00 -5.70127E+00 -5.20721E+00 -5.17967E+00 -5.54985E+00 -6.18686E+00
  -6.84326E+00 -7.27054E+00 -7.33371E+00 -6.70482E+00 -4.02224E+00  7.23886E-01  6.12884E+00  1.29211E+01  2.17997E+01  3.18460E+01
   4.08490E+01  4.65198E+01  4.75705E+01  4.38713E+01  3.63706E+01  2.70861E+01  1.81691E+01  1.06428E+01  4.52716E+00 -3.86216E-01
  -4.32622E+00 -7.27733E+00 -8.77050E+00 -9.01976E+00 -8.87767E+00 -8.59743E+00 -8.19578E+00 -7.57908E+00 -6.28854E+00 -2.78963E+00
   2.55650E+00  8.48658E+00  1.57676E+01  2.49772E+01  3.50992E+01  4.39301E+01  4.93355E+01  5.01283E+01  4.62946E+01  3.89147E+01
   2.99760E+01  2.14008E+01  1.39697E+01  7.62398E+00  2.27537E+00 -2.17852E+00 -5.47532E+00 -6.97455E+00 -7.06027E+00 -6.68638E+00
  -6.24329E+00 -5.91324E+00 -5.77584E+00 -5.80350E+00 -5.93343E+00 -6.13890E+00 -6.39889E+00 -6.69640E+00 -7.00844E+00 -7.30847E+00
  -7.57765E+00 -7.79276E+00 -7.95029E+00 -8.11976E+00 -8.26427E+00 -8.36376E+00 -8.46234E+00 -8.58186E+00 -8.79092E+00 -9.03347E+00
  -9.17731E+00 -9.17778E+00 -9.08988E+00 -9.00832E+00 -9.03939E+00 -9.24181E+00 -9.58791E+00 -1.00113E+01 -1.04496E+01 -1.08096E+01
  -1.10498E+01 -1.12993E+01 -1.16084E+01 -1.19557E+01 -1.21847E+01 -1.21779E+01 -1.20040E+01 -1.18011E+01 -1.16440E+01 -1.15793E+01
  -1.15185E+01 -1.13566E+01 -1.10657E+01 -1.06123E+01 -9.95398E+00 -9.09619E+00 -8.06076E+00 -6.84331E+00 -5.55198E+00 -4.40622E+00
  -3.72555E+00 -3.55383E+00 -3.75500E+00 -4.15989E+00 -4.59878E+00 -4.86045E+00 -4.71049E+00 -4.12564E+00 -3.16676E+00 -1.95768E+00
  -7.30860E-01  2.31417E-01  6.07280E-01  3.98097E-01 -4.59292E-01 -2.00810E+00 -3.89262E+00 -5.58746E+00 -6.56306E+00 -6.59088E+00
  -5.77231E+00 -4.06289E+00 -1.65569E+00  9.04030E-01  2.90260E+00  3.80069E+00  3.52929E+00  2.21915E+00  6.92156E-03 -2.60096E+00
  -4.84420E+00 -6.05764E+00 -6.02066E+00 -4.92154E+00 -3.08028E+00 -8.40466E-01  1.36380E+00  3.07123E+00  4.13071E+00  4.81677E+00
   5.33293E+00  5.75486E+00  6.17752E+00  6.70285E+00  7.34796E+00  7.98638E+00  8.47615E+00  8.71972E+00  8.62962E+00  8.16534E+00
   7.55971E+00  7.13609E+00  7.11252E+00  7.56813E+00  8.43400E+00  9.55422E+00  1.07284E+01  1.19227E+01  1.33262E+01  1.48170E+01
   1.64127E+01  1.86829E+01  2.35103E+01  3.07761E+01  3.82195E+01  4.63506E+01  5.61434E+01  6.68803E+01  7.62695E+01  8.20164E+01
   8.27890E+01  7.82640E+01  6.92431E+01  5.79274E+01  4.68214E+01  3.72406E+01  2.93471E+01  2.28553E+01  1.74037E+01  1.29942E+01
   1.03224E+01  9.21640E+00  8.61364E+00  8.16984E+00  7.79851E+00  7.44553E+00  7.06267E+00  6.65893E+00  6.25945E+00  5.88517E+00
   5.54573E+00  5.24098E+00  4.96448E+00  4.71488E+00  4.49614E+00  4.30275E+00  4.12772E+00  3.97220E+00  3.84366E+00  3.74885E+00
   3.68768E+00  3.65447E+00  3.65051E+00  3.67713E+00  3.73268E+00  3.81840E+00  3.94096E+00  4.10789E+00  4.32574E+00  4.59922E+00
   4.93057E+00  5.31945E+00  5.76297E+00  6.25443E+00  6.78518E+00  7.34495E+00  7.92165E+00  8.50212E+00  9.07154E+00  9.61432E+00
   1.01167E+01  1.05667E+01  1.09554E+01  1.12792E+01  1.15417E+01  1.17577E+01  1.19646E+01  1.22571E+01  1.27180E+01  1.30432E+01
   1.31860E+01  1.32718E+01  1.31807E+01  1.25976E+01  1.12428E+01  9.09720E+00  6.66714E+00  4.32562E+00  2.28370E+00  9.72714E-01
   7.34941E-01  1.56695E+00  3.18225E+00  5.17388E+00  7.15195E+00  8.83696E+00  1.00459E+01  1.06849E+01  1.09306E+01  1.10144E+01
   1.10246E+01  1.09807E+01  1.08937E+01  1.07847E+01  1.07644E+01  1.08296E+01  1.08932E+01  1.09614E+01  1.10532E+01  1.11757E+01
   1.13702E+01  1.16773E+01  1.20969E+01  1.25903E+01  1.31048E+01  1.35913E+01  1.40126E+01  1.43493E+01  1.45927E+01  1.47505E+01
   1.48439E+01  1.48848E+01  1.48796E+01  1.48299E+01  1.47403E+01  1.46294E+01  1.45060E+01  1.43672E+01  1.42140E+01  1.40499E+01
   1.38792E+01  1.37068E+01  1.35376E+01  1.33766E+01  1.32286E+01  1.30983E+01  1.29900E+01  1.29078E+01  1.28554E+01  1.28363E+01
   1.28534E+01  1.29096E+01  1.30071E+01  1.31479E+01  1.33333E+01  1.35646E+01  1.38421E+01  1.41657E+01  1.45344E+01  1.49466E+01
   1.53995E+01  1.58893E+01  1.64112E+01  1.69592E+01  1.75260E+01  1.81035E+01  1.86822E+01  1.92524E+01  1.98034E+01  2.03245E+01
   2.08050E+01  2.12349E+01  2.16050E+01  2.19074E+01  2.21358E+01  2.22857E+01  2.23547E+01  2.23424E+01  2.22508E+01  2.20836E+01
   2.18465E+01  2.15467E+01  2.11924E+01  2.07929E+01  2.03578E+01  1.98969E+01  1.94195E+01  1.89347E+01  1.84503E+01  1.79738E+01
   1.75110E+01  1.70670E+01  1.66455E+01  1.62494E+01  1.58805E+01  1.55397E+01  1.52272E+01  1.49428E+01  1.46853E+01  1.44539E+01
   1.42468E+01  1.40626E+01  1.38996E+01  1.37561E+01  1.36303E+01  1.35208E+01  1.34259E+01  1.33444E+01  1.32749E+01  1.32163E+01
   1.31674E+01  1.31273E+01  1.30952E+01  1.30703E+01  1.30519E+01  1.30393E+01  1.30321E+01  1.30297E+01  1.30317E+01  1.30377E+01
   1.30474E+01  1.30604E+01  1.30765E+01  1.30954E+01  1.31169E+01  1.31409E+01  1.31670E+01  1.31952E+01  1.32252E+01  1.32570E+01
   1.32905E+01  1.33255E+01  1.33618E+01  1.33995E+01  1.34384E+01  1.34784E+01  1.35195E+01  1.35617E+01  1.36047E+01  1.36486E+01
   1.36934E+01  1.37389E+01  1.37852E+01  1.38321E+01  1.38797E+01  1.39279E+01  1.39766E+01  1.40260E+01  1.40757E+01  1.41260E+01
   1.41767E+01  1.42278E+01  1.42794E+01  1.43313E+01  1.43835E+01  1.44360E+01  1.44888E+01  1.45420E+01  1.45953E+01  1.46489E+01
   1.47027E+01  1.47567E+01  1.48108E+01  1.48652E+01  1.49196E+01  1.49741E+01  1.50287E+01  1.50834E+01
 NY background values follow
    -1.982E+01   -1.976E+01   -1.969E+01   -1.962E+01   -1.955E+01   -1.949E+01   -1.942E+01   -1.935E+01   -1.928E+01   -1.922E+01
    -1.915E+01   -1.908E+01   -1.902E+01   -1.895E+01   -1.888E+01   -1.881E+01   -1.875E+01   -1.868E+01   -1.861E+01   -1.854E+01
    -1.848E+01   -1.841E+01   -1.834E+01   -1.828E+01   -1.821E+01   -1.814E+01   -1.807E+01   -1.801E+01   -1.794E+01   -1.787E+01
    -1.780E+01   -1.774E+01   -1.767E+01   -1.760E+01   -1.753E+01   -1.747E+01   -1.740E+01   -1.733E+01   -1.726E+01   -1.720E+01
    -1.713E+01   -1.706E+01   -1.699E+01   -1.693E+01   -1.686E+01   -1.679E+01   -1.672E+01   -1.666E+01   -1.659E+01   -1.652E+01
    -1.645E+01   -1.639E+01   -1.632E+01   -1.625E+01   -1.618E+01   -1.611E+01   -1.605E+01   -1.598E+01   -1.591E+01   -1.584E+01
    -1.578E+01   -1.571E+01   -1.564E+01   -1.557E+01   -1.551E+01   -1.544E+01   -1.537E+01   -1.530E+01   -1.523E+01   -1.517E+01
    -1.510E+01   -1.503E+01   -1.496E+01   -1.489E+01   -1.483E+01   -1.476E+01   -1.469E+01   -1.462E+01   -1.456E+01   -1.449E+01
    -1.442E+01   -1.435E+01   -1.428E+01   -1.422E+01   -1.415E+01   -1.408E+01   -1.401E+01   -1.394E+01   -1.388E+01   -1.381E+01
    -1.374E+01   -1.367E+01   -1.360E+01   -1.354E+01   -1.347E+01   -1.340E+01   -1.333E+01   -1.326E+01   -1.320E+01   -1.313E+01
    -1.306E+01   -1.299E+01   -1.292E+01   -1.286E+01   -1.279E+01   -1.272E+01   -1.265E+01   -1.258E+01   -1.252E+01   -1.245E+01
    -1.238E+01   -1.231E+01   -1.224E+01   -1.218E+01   -1.211E+01   -1.204E+01   -1.197E+01   -1.190E+01   -1.184E+01   -1.177E+01
    -1.170E+01   -1.163E+01   -1.156E+01   -1.149E+01   -1.143E+01   -1.136E+01   -1.129E+01   -1.122E+01   -1.115E+01   -1.109E+01
    -1.102E+01   -1.095E+01   -1.088E+01   -1.081E+01   -1.074E+01   -1.068E+01   -1.061E+01   -1.054E+01   -1.047E+01   -1.040E+01
    -1.033E+01   -1.027E+01   -1.020E+01   -1.013E+01   -1.006E+01   -9.994E+00   -9.925E+00   -9.857E+00   -9.789E+00   -9.720E+00
    -9.652E+00   -9.584E+00   -9.515E+00   -9.447E+00   -9.379E+00   -9.311E+00   -9.242E+00   -9.174E+00   -9.106E+00   -9.037E+00
    -8.969E+00   -8.901E+00   -8.832E+00   -8.764E+00   -8.695E+00   -8.627E+00   -8.559E+00   -8.490E+00   -8.422E+00   -8.354E+00
    -8.285E+00   -8.217E+00   -8.148E+00   -8.080E+00   -8.012E+00   -7.943E+00   -7.875E+00   -7.807E+00   -7.738E+00   -7.670E+00
    -7.601E+00   -7.533E+00   -7.464E+00   -7.396E+00   -7.328E+00   -7.259E+00   -7.191E+00   -7.122E+00   -7.054E+00   -6.985E+00
    -6.917E+00   -6.849E+00   -6.780E+00   -6.712E+00   -6.643E+00   -6.575E+00   -6.506E+00   -6.438E+00   -6.369E+00   -6.301E+00
    -6.233E+00   -6.164E+00   -6.096E+00   -6.027E+00   -5.959E+00   -5.890E+00   -5.822E+00   -5.753E+00   -5.685E+00   -5.616E+00
    -5.548E+00   -5.479E+00   -5.411E+00   -5.342E+00   -5.274E+00   -5.205E+00   -5.137E+00   -5.069E+00   -5.000E+00   -4.932E+00
    -4.863E+00   -4.795E+00   -4.726E+00   -4.658E+00   -4.589E+00   -4.521E+00   -4.452E+00   -4.384E+00   -4.315E+00   -4.247E+00
    -4.178E+00   -4.110E+00   -4.041E+00   -3.973E+00   -3.904E+00   -3.836E+00   -3.767E+00   -3.699E+00   -3.630E+00   -3.562E+00
    -3.493E+00   -3.425E+00   -3.356E+00   -3.288E+00   -3.219E+00   -3.151E+00   -3.082E+00   -3.014E+00   -2.945E+00   -2.877E+00
    -2.808E+00   -2.740E+00   -2.671E+00   -2.603E+00   -2.534E+00   -2.466E+00   -2.397E+00   -2.329E+00   -2.260E+00   -2.192E+00
    -2.123E+00   -2.055E+00   -1.986E+00   -1.918E+00   -1.849E+00   -1.781E+00   -1.712E+00   -1.644E+00   -1.575E+00   -1.507E+00
    -1.439E+00   -1.370E+00   -1.302E+00   -1.233E+00   -1.165E+00   -1.096E+00   -1.028E+00   -9.592E-01   -8.908E-01   -8.223E-01
    -7.539E-01   -6.854E-01   -6.170E-01   -5.485E-01   -4.801E-01   -4.116E-01   -3.432E-01   -2.747E-01   -2.063E-01   -1.378E-01
    -6.940E-02   -9.693E-04    6.746E-02    1.359E-01    2.043E-01    2.727E-01    3.412E-01    4.096E-01    4.780E-01    5.464E-01
     6.148E-01    6.832E-01    7.516E-01    8.200E-01    8.884E-01    9.568E-01    1.025E+00    1.094E+00    1.162E+00    1.230E+00
     1.299E+00    1.367E+00    1.436E+00    1.504E+00    1.572E+00    1.641E+00    1.709E+00    1.777E+00    1.846E+00    1.914E+00
     1.982E+00    2.051E+00    2.119E+00    2.187E+00    2.256E+00    2.324E+00    2.392E+00    2.461E+00    2.529E+00    2.597E+00
     2.666E+00    2.734E+00    2.802E+00    2.870E+00    2.939E+00    3.007E+00    3.075E+00    3.144E+00    3.212E+00    3.280E+00
     3.348E+00    3.417E+00    3.485E+00    3.553E+00    3.621E+00    3.690E+00    3.758E+00    3.826E+00    3.894E+00    3.963E+00
     4.031E+00    4.099E+00    4.167E+00    4.235E+00    4.304E+00    4.372E+00    4.440E+00    4.508E+00    4.576E+00    4.644E+00
     4.713E+00    4.781E+00    4.849E+00    4.917E+00    4.985E+00    5.053E+00    5.121E+00    5.189E+00    5.258E+00    5.326E+00
     5.394E+00    5.462E+00    5.530E+00    5.598E+00    5.666E+00    5.734E+00    5.802E+00    5.870E+00    5.938E+00    6.006E+00
     6.074E+00    6.142E+00    6.210E+00    6.278E+00    6.346E+00    6.414E+00    6.482E+00    6.550E+00    6.618E+00    6.686E+00
     6.754E+00    6.822E+00    6.890E+00    6.958E+00    7.026E+00    7.094E+00    7.162E+00    7.230E+00    7.298E+00    7.366E+00
     7.434E+00    7.501E+00    7.569E+00    7.637E+00    7.705E+00    7.773E+00    7.841E+00    7.909E+00    7.976E+00    8.044E+00
     8.112E+00    8.180E+00    8.248E+00    8.315E+00    8.383E+00    8.451E+00    8.519E+00    8.587E+00    8.654E+00    8.722E+00
     8.790E+00    8.857E+00    8.925E+00    8.993E+00    9.061E+00    9.128E+00    9.196E+00    9.264E+00    9.331E+00    9.399E+00
     9.467E+00    9.534E+00    9.602E+00    9.669E+00    9.737E+00    9.805E+00    9.872E+00    9.940E+00    1.001E+01    1.007E+01
     1.014E+01    1.021E+01    1.028E+01    1.035E+01    1.041E+01    1.048E+01    1.055E+01    1.062E+01    1.068E+01    1.075E+01
     1.082E+01    1.088E+01    1.095E+01    1.102E+01    1.109E+01    1.115E+01    1.122E+01    1.129E+01    1.136E+01    1.142E+01
     1.149E+01    1.156E+01    1.163E+01    1.169E+01    1.176E+01    1.183E+01    1.190E+01    1.196E+01    1.203E+01    1.210E+01
     1.216E+01    1.223E+01    1.230E+01    1.237E+01    1.243E+01    1.250E+01    1.257E+01    1.263E+01    1.270E+01    1.277E+01
     1.284E+01    1.290E+01    1.297E+01    1.304E+01    1.310E+01    1.317E+01    1.324E+01    1.331E+01    1.337E+01    1.344E+01
     1.351E+01    1.357E+01    1.364E+01    1.371E+01    1.378E+01    1.384E+01    1.391E+01    1.398E+01
 Ala      Conc. = 6.24E+02
