 LCModel (Version 6.3-1L) Copyright: S.W. Provencher.          Ref.: Magn. Reson. Med. 30:672-679 (1993).                
 Slice#1 Row#2 Col#6  K_02_press_1_raw_act
 36 lines in following concentration table = NCONC+1
    Conc.  %SD /Cr+PCr  Metabolite                                         
  480.224  28%   1.677 Ala                                                 
   44.389 165%   0.155 Asp                                                 
    0.000 999%   0.000 Cr                                                  
  286.362  18%   1.000 PCr                                                 
   29.001 153%   0.101 GABA                                                
   30.572 144%   0.107 Glc                                                 
    0.000 999%   0.000 Gln                                                 
  330.100  86%   1.153 Glu                                                 
    0.000 999%   0.000 GPC                                                 
   97.249  19%   0.340 PCh                                                 
    7.639 922% 2.7E-02 GSH                                                 
  302.150  75%   1.055 Ins                                                 
    0.000 999%   0.000 Lac                                                 
  628.747  15%   2.196 NAA                                                 
   45.972 240%   0.161 NAAG                                                
   23.500  56% 8.2E-02 Scyllo                                              
   98.035  73%   0.342 Tau                                                 
  194.053  33%   0.678 -CrCH2                                              
   97.249  19%   0.340 GPC+PCh                                             
  674.719  11%   2.356 NAA+NAAG                                            
  286.362  18%   1.000 Cr+PCr                                              
  330.100  86%   1.153 Glu+Gln                                             
 4.96E+03   9%  17.324 Lip13a                                              
    0.000 999%   0.000 Lip13b                                              
  190.714 160%   0.666 Lip09                                               
 1.00E+03  24%   3.506 MM09                                                
  564.561  54%   1.971 Lip20                                               
  927.531  37%   3.239 MM20                                                
  366.968  46%   1.281 MM12                                                
    0.000 999%   0.000 MM14                                                
    0.000 999%   0.000 MM17                                                
 4.96E+03   9%  17.324 Lip13a+Lip13b                                       
 5.33E+03   7%  18.605 MM14+Lip13a+Lip13b+MM12                             
 1.19E+03  17%   4.172 MM09+Lip09                                          
 1.49E+03  19%   5.211 MM20+Lip20                                          
   6 lines in following misc. output table
  FWHM = 0.061 ppm    S/N =   4                                            
  Data shift = 0.000 ppm                                                   
  Ph:  34 deg      24.0 deg/ppm                                            
  alphaB,S = 6.7E+01,   1.2E+02                                            
   14 spline knots.   Ns = 8(1)                                            
  ( 6) 2 infls.   ( 1) 1 extrs.                                            
  498 points on ppm-axis = NY
      4.000000     3.992357     3.984714     3.977070     3.969427     3.961784     3.954141     3.946497     3.938854     3.931211
      3.923568     3.915925     3.908281     3.900638     3.892995     3.885352     3.877708     3.870065     3.862422     3.854779
      3.847136     3.839492     3.831849     3.824206     3.816563     3.808919     3.801276     3.793633     3.785990     3.778347
      3.770703     3.763060     3.755417     3.747774     3.740130     3.732487     3.724844     3.717201     3.709558     3.701914
      3.694271     3.686628     3.678985     3.671341     3.663698     3.656055     3.648412     3.640769     3.633125     3.625482
      3.617839     3.610196     3.602552     3.594909     3.587266     3.579623     3.571980     3.564336     3.556693     3.549050
      3.541407     3.533763     3.526120     3.518477     3.510834     3.503191     3.495547     3.487904     3.480261     3.472618
      3.464974     3.457331     3.449688     3.442045     3.434402     3.426758     3.419115     3.411472     3.403829     3.396185
      3.388542     3.380899     3.373256     3.365613     3.357969     3.350326     3.342683     3.335040     3.327396     3.319753
      3.312110     3.304467     3.296824     3.289180     3.281537     3.273894     3.266251     3.258607     3.250964     3.243321
      3.235678     3.228034     3.220391     3.212748     3.205105     3.197462     3.189818     3.182175     3.174532     3.166889
      3.159245     3.151602     3.143959     3.136316     3.128673     3.121029     3.113386     3.105743     3.098100     3.090456
      3.082813     3.075170     3.067527     3.059884     3.052240     3.044597     3.036954     3.029311     3.021667     3.014024
      3.006381     2.998738     2.991095     2.983451     2.975808     2.968165     2.960522     2.952878     2.945235     2.937592
      2.929949     2.922306     2.914662     2.907019     2.899376     2.891733     2.884089     2.876446     2.868803     2.861160
      2.853517     2.845873     2.838230     2.830587     2.822944     2.815300     2.807657     2.800014     2.792371     2.784728
      2.777084     2.769441     2.761798     2.754155     2.746511     2.738868     2.731225     2.723582     2.715939     2.708295
      2.700652     2.693009     2.685366     2.677722     2.670079     2.662436     2.654793     2.647150     2.639506     2.631863
      2.624220     2.616577     2.608933     2.601290     2.593647     2.586004     2.578361     2.570717     2.563074     2.555431
      2.547788     2.540144     2.532501     2.524858     2.517215     2.509572     2.501928     2.494285     2.486642     2.478999
      2.471355     2.463712     2.456069     2.448426     2.440783     2.433139     2.425496     2.417853     2.410210     2.402566
      2.394923     2.387280     2.379637     2.371994     2.364350     2.356707     2.349064     2.341421     2.333777     2.326134
      2.318491     2.310848     2.303205     2.295561     2.287918     2.280275     2.272632     2.264988     2.257345     2.249702
      2.242059     2.234416     2.226772     2.219129     2.211486     2.203843     2.196199     2.188556     2.180913     2.173270
      2.165627     2.157983     2.150340     2.142697     2.135054     2.127410     2.119767     2.112124     2.104481     2.096838
      2.089194     2.081551     2.073908     2.066265     2.058621     2.050978     2.043335     2.035692     2.028049     2.020405
      2.012762     2.005119     1.997476     1.989833     1.982190     1.974546     1.966903     1.959260     1.951617     1.943974
      1.936331     1.928688     1.921045     1.913402     1.905759     1.898115     1.890472     1.882829     1.875186     1.867543
      1.859900     1.852257     1.844614     1.836971     1.829327     1.821684     1.814041     1.806398     1.798755     1.791112
      1.783469     1.775826     1.768183     1.760540     1.752896     1.745253     1.737610     1.729967     1.722324     1.714681
      1.707038     1.699395     1.691752     1.684108     1.676465     1.668822     1.661179     1.653536     1.645893     1.638250
      1.630607     1.622964     1.615321     1.607677     1.600034     1.592391     1.584748     1.577105     1.569462     1.561819
      1.554176     1.546533     1.538890     1.531246     1.523603     1.515960     1.508317     1.500674     1.493031     1.485388
      1.477745     1.470102     1.462458     1.454815     1.447172     1.439529     1.431886     1.424243     1.416600     1.408957
      1.401314     1.393671     1.386027     1.378384     1.370741     1.363098     1.355455     1.347812     1.340169     1.332526
      1.324883     1.317240     1.309596     1.301953     1.294310     1.286667     1.279024     1.271381     1.263738     1.256095
      1.248452     1.240808     1.233165     1.225522     1.217879     1.210236     1.202593     1.194950     1.187307     1.179664
      1.172021     1.164377     1.156734     1.149091     1.141448     1.133805     1.126162     1.118519     1.110876     1.103233
      1.095590     1.087946     1.080303     1.072660     1.065017     1.057374     1.049731     1.042088     1.034445     1.026802
      1.019158     1.011515     1.003872     0.996229     0.988586     0.980943     0.973300     0.965657     0.958014     0.950371
      0.942727     0.935084     0.927441     0.919798     0.912155     0.904512     0.896869     0.889226     0.881583     0.873940
      0.866296     0.858653     0.851010     0.843367     0.835724     0.828081     0.820438     0.812795     0.805152     0.797508
      0.789865     0.782222     0.774579     0.766936     0.759293     0.751650     0.744007     0.736364     0.728721     0.721077
      0.713434     0.705791     0.698148     0.690505     0.682862     0.675219     0.667576     0.659933     0.652290     0.644646
      0.637003     0.629360     0.621717     0.614074     0.606431     0.598788     0.591145     0.583502     0.575858     0.568215
      0.560572     0.552929     0.545286     0.537643     0.530000     0.522357     0.514714     0.507071     0.499427     0.491784
      0.484141     0.476498     0.468855     0.461212     0.453569     0.445925     0.438282     0.430639     0.422996     0.415353
      0.407710     0.400067     0.392424     0.384780     0.377137     0.369494     0.361851     0.354208     0.346565     0.338922
      0.331278     0.323635     0.315992     0.308349     0.300706     0.293063     0.285420     0.277777     0.270133     0.262490
      0.254847     0.247204     0.239561     0.231918     0.224275     0.216631     0.208988     0.201345
 NY phased data points follow
  -5.89528E+00 -5.70873E+00 -5.72216E+00 -5.16107E+00 -5.41116E+00 -8.15601E+00 -8.07081E+00 -1.86304E+00 -4.70498E+00 -6.79616E+00
  -1.14670E+00 -8.50669E+00 -6.70524E+00 -5.29987E+00 -7.84104E+00 -6.24774E+00 -6.14734E+00 -3.54845E+00 -8.04187E+00 -4.17633E+00
  -1.04160E+01 -4.56823E+00 -7.64446E+00 -6.58412E+00 -1.81415E+00 -4.59041E+00 -3.48476E+00 -2.99516E+00 -9.84899E+00 -8.20036E+00
  -1.08211E+01 -9.29752E+00 -2.67751E+00 -3.77629E+00 -2.18803E+00 -1.79284E+00 -2.40725E+00 -5.04055E+00 -2.86455E+00 -4.18986E+00
  -3.42526E+00 -4.75064E+00  7.49595E-01 -5.87156E+00 -2.71547E+00 -5.52128E+00 -2.96897E+00 -4.05233E+00 -2.66521E+00  1.23579E+00
  -9.15994E-01 -5.84297E+00 -3.13612E+00 -5.51206E+00 -1.03566E+00 -3.01933E+00 -7.52206E+00 -1.84873E+00 -7.80613E+00 -2.61936E+00
  -7.62248E+00 -4.95054E+00 -3.15218E+00 -4.02692E+00 -2.43696E+00 -4.83014E+00 -6.68857E+00 -1.76973E+00 -3.21165E+00 -5.53204E+00
  -4.15782E+00 -3.77197E+00 -4.67221E+00 -8.97556E+00 -6.45731E+00 -5.83708E+00 -1.87522E+00 -4.46164E+00 -5.73912E+00 -6.81034E+00
  -3.20958E+00  1.82655E-01 -4.50454E+00 -2.15420E+00 -3.98155E+00 -3.21677E+00 -1.58479E+00 -5.77166E+00 -2.94905E+00 -1.12057E-01
  -3.72404E+00 -2.94217E+00 -1.93906E-01 -3.49441E+00 -2.71009E+00 -1.67409E+00 -6.25214E+00 -2.63566E+00  2.07018E-01 -3.08466E+00
   6.70946E-01  3.86919E-01  1.85561E+00  5.02519E-02  4.64482E-01  1.79473E+00  3.34784E+00  2.38018E+00 -1.26212E+00  2.03653E+00
   2.40474E+00  6.43237E+00  2.81740E+00  7.37841E-01 -3.88148E+00 -1.79173E+00 -3.39684E+00 -9.03207E+00  2.56449E-01 -1.54053E+00
  -4.47408E+00 -1.92451E+00 -3.85035E+00 -1.72121E+00 -3.21210E-02  6.59148E-01 -8.07867E-01  6.32646E+00  6.12831E+00  7.28662E+00
   4.33969E+00  3.70661E+00  1.18723E+00  2.63761E+00  3.44601E-01  6.02159E-01  5.29944E+00 -6.51049E-01 -4.35591E-02  2.18766E+00
  -1.80879E+00 -6.69058E+00 -3.49239E+00 -3.62427E+00 -2.35843E+00 -2.24518E+00 -5.75796E+00 -3.30558E+00 -2.41884E+00 -1.44487E+00
  -2.55407E+00 -2.02963E+00 -3.63244E+00 -2.03058E+00  1.04476E+00  1.96092E+00 -3.14961E+00 -4.60132E+00 -1.16171E-01 -6.68490E+00
  -4.09815E+00 -4.99051E+00 -5.69916E+00 -1.90308E+00 -1.43798E+00 -5.37521E+00 -2.04039E+00 -7.70165E+00 -4.10340E+00 -4.64872E+00
  -7.41726E+00 -8.40609E+00 -9.98900E+00 -6.12299E+00 -5.90733E+00 -7.62899E+00 -1.02344E+01 -8.50967E+00 -8.04265E+00 -7.50165E+00
  -5.60455E+00 -7.15787E+00 -4.28411E+00 -7.87311E+00 -7.98437E+00 -8.08346E+00 -3.00455E+00  1.39633E+00 -7.36238E+00 -4.62146E+00
  -9.35609E-01 -5.18629E+00 -6.27896E+00 -1.00063E+01 -4.50550E+00 -5.24011E+00 -5.56279E+00 -7.84736E+00 -6.41666E+00 -3.61439E+00
  -1.02558E+01 -6.45531E+00 -4.06183E+00 -5.71402E+00 -7.24192E+00 -5.66522E-01 -1.77431E+00 -3.76763E+00 -1.33759E+00  6.06669E-01
  -1.92240E+00 -2.28313E+00 -3.07951E+00  1.53563E+00  1.99141E+00 -1.97324E+00  1.11610E+00 -3.89587E+00 -9.37470E-01 -8.03019E+00
  -3.65300E+00 -2.56136E+00 -6.13928E+00 -2.43961E+00 -1.68781E+00 -7.60415E-01  1.27706E+00  1.75571E+00  9.40330E-01  2.39535E+00
   4.78374E+00 -1.93806E+00 -8.21767E-01  2.94357E+00  1.15374E+00 -2.39774E+00 -4.95384E-01 -3.71146E+00  3.04867E+00 -5.10325E-01
   3.14737E+00 -5.44181E+00  4.38591E-01 -7.00500E+00  3.90688E+00  2.69380E+00  2.76516E+00  3.48603E+00  5.63009E-02  3.66326E+00
  -3.17489E+00  7.17674E+00  6.63276E+00  3.57203E+00  5.39837E+00  1.64629E+01  9.92604E+00  1.33333E+01  1.58589E+01  1.66589E+01
   1.82448E+01  2.07804E+01  2.62480E+01  1.88534E+01  5.33186E+00  7.21547E-01  4.44761E+00  6.59967E+00  2.85803E+00 -3.07398E+00
   1.42333E+00 -7.58721E+00 -7.65209E+00 -4.87956E+00 -3.40041E+00 -5.24639E+00 -4.24922E+00 -3.75092E+00 -5.73594E+00 -5.18858E+00
  -6.59904E-01 -2.97552E+00 -6.06257E+00 -3.64523E+00 -1.73897E+00 -3.62680E+00 -5.58313E+00 -1.31058E+00 -7.51254E+00 -1.43302E+00
  -8.80979E+00 -5.98058E+00 -1.06150E+00 -1.65294E+00 -1.02888E+01 -2.99729E+00 -7.17470E+00 -4.77128E+00 -4.45319E+00 -2.51292E+00
  -3.59078E+00  1.84128E-01 -9.27850E+00 -6.14743E+00 -3.11756E+00 -4.95446E+00 -1.16039E+00 -4.89717E-01 -1.18757E+00 -3.23353E+00
   9.23748E-01  2.05685E-01 -1.92463E+00 -2.71797E+00 -7.07039E-01 -5.37657E+00  9.77665E-01 -8.94136E-01 -3.63253E+00 -3.27980E+00
   7.36325E-01 -5.21491E-01 -3.77662E+00 -1.04310E+00 -2.18141E+00  1.69933E+00 -3.80215E+00 -5.16789E+00  1.73065E-02 -6.35910E+00
  -7.76181E+00 -1.83410E+00 -2.24069E-01 -2.07248E-01  8.76004E+00  1.11877E+01  1.01961E+01  1.21683E+01  1.29501E+01  1.52533E+01
   1.05458E+01  1.36002E+01  9.88720E+00  1.37950E+01  1.23638E+01  1.40828E+01  1.89632E+01  1.23416E+01  1.83248E+01  2.02688E+01
   2.31514E+01  2.29884E+01  1.76783E+01  2.34009E+01  2.52841E+01  2.61173E+01  2.38885E+01  1.95232E+01  1.95219E+01  1.56498E+01
   1.57765E+01  1.22100E+01  1.53360E+01  1.80806E+01  1.59453E+01  1.61504E+01  1.62467E+01  1.66067E+01  1.14280E+01  1.26889E+01
   1.15190E+01  7.25928E+00  8.75929E+00  4.90545E+00  1.22166E+01  8.75587E+00  5.80349E+00  1.08525E+01  1.07945E+01  7.76279E+00
   7.94204E+00  4.52976E+00  4.99461E+00  5.58549E+00  8.20992E+00  4.94702E+00  5.91046E+00  8.31159E+00  9.71767E+00  2.63922E+00
   5.81407E+00  9.64153E+00  4.43694E+00  6.75823E+00  3.94159E+00  9.00573E+00  9.74998E+00  8.31118E+00  6.58609E+00  8.01118E+00
   1.20971E+01  7.81800E+00  1.04149E+01  4.97531E+00  4.64388E+00  4.70940E+00  1.99888E+00  3.17287E+00  4.08673E+00  7.99598E+00
   6.13219E+00 -1.95449E+00  1.23674E+00 -1.67063E+00 -1.51403E+00 -2.07954E+00 -1.03507E+00 -1.79169E+00 -2.72614E+00 -8.90244E-01
  -3.08160E+00 -4.31170E+00  4.13159E+00 -3.25025E+00 -3.47093E+00 -7.82836E-01 -1.63749E-01 -3.42537E+00  5.65579E-01 -8.46619E-01
   2.50412E+00  1.76092E+00 -1.82240E+00  2.53048E+00 -2.59613E+00 -2.95343E-01  1.99566E+00  1.27502E-01 -2.39271E+00 -2.07033E-01
   3.14763E-02 -4.34192E+00 -6.16851E-01 -2.59115E+00 -5.92625E+00 -9.96134E-01  2.59062E+00 -5.20969E-01 -1.07189E+00 -7.39763E-01
  -6.57300E-01 -2.63867E+00 -6.93245E+00 -2.92643E+00 -2.32200E+00 -3.72852E+00 -5.19621E+00 -2.61590E+00  5.72213E-01 -2.89110E+00
  -1.01925E+00 -5.40618E+00 -9.21743E+00 -4.26043E+00 -3.07351E+00  7.25734E-01 -9.09605E-01  1.88012E+00 -1.16703E+00 -2.26323E+00
  -8.69714E-01 -8.85892E+00 -1.04080E+00 -5.02473E-02 -4.31722E+00 -1.29982E+00  6.84693E-01 -1.13938E+00 -4.11024E+00 -6.32745E+00
  -3.77077E+00  1.78787E-01  5.22383E+00  4.49178E+00 -5.21830E-01 -2.69547E+00  9.76193E-01 -4.46081E+00 -2.15450E+00 -4.08038E+00
   1.94113E-02 -5.28239E+00  2.30143E+00  3.63584E+00 -4.53592E-01  2.36909E+00 -4.30307E-01 -4.34777E-01
 NY points of the fit to the data follow
  -4.96780E+00 -5.17069E+00 -5.27053E+00 -5.23438E+00 -5.11383E+00 -4.95743E+00 -4.77506E+00 -4.56030E+00 -4.31509E+00 -4.06268E+00
  -3.84803E+00 -3.73973E+00 -3.81520E+00 -4.09420E+00 -4.47290E+00 -4.78637E+00 -4.93399E+00 -4.95200E+00 -4.92275E+00 -4.87244E+00
  -4.75291E+00 -4.64300E+00 -4.62391E+00 -4.73642E+00 -4.96649E+00 -5.25696E+00 -5.55510E+00 -5.80049E+00 -5.90832E+00 -5.81261E+00
  -5.51372E+00 -5.07687E+00 -4.59752E+00 -4.16791E+00 -3.87973E+00 -3.82451E+00 -4.00542E+00 -4.32318E+00 -4.65899E+00 -4.90718E+00
  -5.01527E+00 -4.98761E+00 -4.83489E+00 -4.58769E+00 -4.30539E+00 -4.02527E+00 -3.76865E+00 -3.56874E+00 -3.48565E+00 -3.58118E+00
  -3.85590E+00 -4.21820E+00 -4.53632E+00 -4.72210E+00 -4.77197E+00 -4.74108E+00 -4.67622E+00 -4.57840E+00 -4.44378E+00 -4.30168E+00
  -4.19272E+00 -4.13861E+00 -4.15242E+00 -4.22409E+00 -4.31349E+00 -4.37850E+00 -4.39693E+00 -4.36602E+00 -4.29522E+00 -4.20063E+00
  -4.09984E+00 -4.00713E+00 -3.93085E+00 -3.87976E+00 -3.85820E+00 -3.87149E+00 -3.92128E+00 -3.99688E+00 -4.06524E+00 -4.09750E+00
  -4.09327E+00 -4.05443E+00 -3.98185E+00 -3.89184E+00 -3.80763E+00 -3.75016E+00 -3.74651E+00 -3.82477E+00 -3.98467E+00 -4.19216E+00
  -4.38476E+00 -4.50057E+00 -4.53576E+00 -4.53074E+00 -4.50916E+00 -4.40934E+00 -4.01998E+00 -3.29608E+00 -2.38043E+00 -1.39686E+00
  -3.82906E-01  6.71230E-01  1.73312E+00  2.68132E+00  3.30505E+00  3.36968E+00  2.74564E+00  1.54068E+00  1.16656E-01 -1.14016E+00
  -2.09077E+00 -2.81890E+00 -3.42901E+00 -3.89797E+00 -4.11737E+00 -4.16733E+00 -4.16897E+00 -4.14347E+00 -4.06691E+00 -3.81563E+00
  -3.23104E+00 -2.37976E+00 -1.38340E+00 -3.17418E-01  8.07309E-01  1.97032E+00  3.07392E+00  3.93277E+00  4.30625E+00  4.00059E+00
   3.00487E+00  1.58409E+00  1.61056E-01 -9.81408E-01 -1.83693E+00 -2.52784E+00 -3.09915E+00 -3.45679E+00 -3.56541E+00 -3.58100E+00
  -3.57098E+00 -3.55191E+00 -3.53135E+00 -3.51144E+00 -3.49175E+00 -3.47237E+00 -3.45564E+00 -3.44653E+00 -3.44630E+00 -3.44989E+00
  -3.45111E+00 -3.44702E+00 -3.44481E+00 -3.46225E+00 -3.50293E+00 -3.55722E+00 -3.61222E+00 -3.65808E+00 -3.70642E+00 -3.76913E+00
  -3.84411E+00 -3.91423E+00 -3.95850E+00 -3.96711E+00 -3.95423E+00 -3.95754E+00 -4.01337E+00 -4.13135E+00 -4.29446E+00 -4.46546E+00
  -4.61144E+00 -4.73392E+00 -4.84216E+00 -4.95113E+00 -5.05592E+00 -5.13366E+00 -5.17317E+00 -5.16690E+00 -5.12487E+00 -5.08029E+00
  -5.05434E+00 -5.04007E+00 -5.00993E+00 -4.93497E+00 -4.81153E+00 -4.66631E+00 -4.52669E+00 -4.38165E+00 -4.19724E+00 -3.96685E+00
  -3.73147E+00 -3.54845E+00 -3.43717E+00 -3.37787E+00 -3.34208E+00 -3.31072E+00 -3.27937E+00 -3.26196E+00 -3.25652E+00 -3.25874E+00
  -3.25390E+00 -3.22275E+00 -3.16839E+00 -3.11468E+00 -3.09650E+00 -3.14629E+00 -3.25864E+00 -3.39045E+00 -3.47928E+00 -3.49864E+00
  -3.44936E+00 -3.34092E+00 -3.17623E+00 -2.96335E+00 -2.74817E+00 -2.59711E+00 -2.55434E+00 -2.65130E+00 -2.88552E+00 -3.19198E+00
  -3.45899E+00 -3.58394E+00 -3.52868E+00 -3.30357E+00 -2.92244E+00 -2.42821E+00 -1.91037E+00 -1.48528E+00 -1.19086E+00 -9.93248E-01
  -8.48927E-01 -7.38560E-01 -6.60377E-01 -5.90617E-01 -5.02040E-01 -4.01882E-01 -3.04601E-01 -2.08476E-01 -1.09309E-01 -1.54862E-03
   1.25396E-01  2.81141E-01  4.73704E-01  7.03855E-01  9.62691E-01  1.23583E+00  1.50025E+00  1.74239E+00  1.98383E+00  2.24170E+00
   2.52353E+00  2.91370E+00  3.79118E+00  5.41138E+00  7.53070E+00  9.83996E+00  1.21619E+01  1.44625E+01  1.66756E+01  1.85840E+01
   1.98039E+01  1.98548E+01  1.83828E+01  1.54819E+01  1.18623E+01  8.47517E+00  5.82932E+00  3.79973E+00  2.08831E+00  6.68645E-01
  -2.05611E-01 -5.92750E-01 -8.28078E-01 -1.00247E+00 -1.14206E+00 -1.27005E+00 -1.39970E+00 -1.53357E+00 -1.66921E+00 -1.80095E+00
  -1.92401E+00 -2.03481E+00 -2.13092E+00 -2.20984E+00 -2.27127E+00 -2.31832E+00 -2.35469E+00 -2.38303E+00 -2.40517E+00 -2.42199E+00
  -2.43417E+00 -2.44198E+00 -2.44517E+00 -2.44391E+00 -2.43892E+00 -2.43044E+00 -2.41809E+00 -2.40150E+00 -2.38043E+00 -2.35440E+00
  -2.32319E+00 -2.28662E+00 -2.24436E+00 -2.19637E+00 -2.14305E+00 -2.08423E+00 -2.01938E+00 -1.94759E+00 -1.86791E+00 -1.77903E+00
  -1.67916E+00 -1.56592E+00 -1.43631E+00 -1.28592E+00 -1.10829E+00 -8.92810E-01 -6.19986E-01 -2.45350E-01  3.09673E-01  9.69366E-01
   1.56000E+00  1.99491E+00  2.25907E+00  2.34133E+00  2.16488E+00  1.60603E+00  6.79919E-01 -4.37579E-01 -1.55992E+00 -2.42052E+00
  -2.70262E+00 -2.20427E+00 -9.73120E-01  7.90689E-01  2.88899E+00  5.13625E+00  7.27622E+00  8.93911E+00  1.00036E+01  1.07174E+01
   1.13633E+01  1.20557E+01  1.27582E+01  1.34361E+01  1.41900E+01  1.50898E+01  1.60547E+01  1.70272E+01  1.79701E+01  1.88539E+01
   1.96530E+01  2.03449E+01  2.09106E+01  2.13346E+01  2.16053E+01  2.17156E+01  2.16627E+01  2.14485E+01  2.10790E+01  2.05646E+01
   1.99190E+01  1.91586E+01  1.83021E+01  1.73696E+01  1.63816E+01  1.53586E+01  1.43202E+01  1.32850E+01  1.22694E+01  1.12884E+01
   1.03545E+01  9.47826E+00  8.66822E+00  7.93100E+00  7.27145E+00  6.69301E+00  6.19777E+00  5.78674E+00  5.45985E+00  5.21614E+00
   5.05371E+00  4.96979E+00  4.96052E+00  5.02102E+00  5.14510E+00  5.32535E+00  5.55298E+00  5.81797E+00  6.10903E+00  6.41397E+00
   6.71979E+00  7.01330E+00  7.28141E+00  7.51179E+00  7.69324E+00  7.81628E+00  7.87349E+00  7.85993E+00  7.77327E+00  7.61389E+00
   7.38465E+00  7.09080E+00  6.73950E+00  6.33949E+00  5.90045E+00  5.43265E+00  4.94624E+00  4.45104E+00  3.95597E+00  3.46898E+00
   2.99670E+00  2.54452E+00  2.11637E+00  1.71504E+00  1.34212E+00  9.98296E-01  6.83372E-01  3.96579E-01  1.36591E-01 -9.81582E-02
  -3.09493E-01 -4.99254E-01 -6.69382E-01 -8.21713E-01 -9.58072E-01 -1.08008E+00 -1.18930E+00 -1.28709E+00 -1.37474E+00 -1.45339E+00
  -1.52408E+00 -1.58767E+00 -1.64499E+00 -1.69669E+00 -1.74346E+00 -1.78580E+00 -1.82424E+00 -1.85915E+00 -1.89093E+00 -1.91986E+00
  -1.94628E+00 -1.97041E+00 -1.99250E+00 -2.01270E+00 -2.03121E+00 -2.04815E+00 -2.06371E+00 -2.07797E+00 -2.09107E+00 -2.10305E+00
  -2.11404E+00 -2.12409E+00 -2.13331E+00 -2.14173E+00 -2.14942E+00 -2.15639E+00 -2.16274E+00 -2.16847E+00 -2.17368E+00 -2.17835E+00
  -2.18254E+00 -2.18623E+00 -2.18951E+00 -2.19238E+00 -2.19489E+00 -2.19701E+00 -2.19879E+00 -2.20023E+00 -2.20138E+00 -2.20223E+00
  -2.20283E+00 -2.20313E+00 -2.20320E+00 -2.20300E+00 -2.20261E+00 -2.20199E+00 -2.20117E+00 -2.20014E+00 -2.19892E+00 -2.19751E+00
  -2.19596E+00 -2.19422E+00 -2.19234E+00 -2.19028E+00 -2.18809E+00 -2.18574E+00 -2.18329E+00 -2.18069E+00 -2.17797E+00 -2.17509E+00
  -2.17212E+00 -2.16903E+00 -2.16585E+00 -2.16254E+00 -2.15912E+00 -2.15558E+00 -2.15196E+00 -2.14822E+00
 NY background values follow
    -5.877E+00   -5.870E+00   -5.863E+00   -5.856E+00   -5.849E+00   -5.842E+00   -5.835E+00   -5.828E+00   -5.821E+00   -5.814E+00
    -5.807E+00   -5.800E+00   -5.793E+00   -5.786E+00   -5.779E+00   -5.772E+00   -5.765E+00   -5.758E+00   -5.751E+00   -5.744E+00
    -5.736E+00   -5.729E+00   -5.722E+00   -5.715E+00   -5.708E+00   -5.701E+00   -5.694E+00   -5.687E+00   -5.680E+00   -5.673E+00
    -5.666E+00   -5.659E+00   -5.652E+00   -5.645E+00   -5.638E+00   -5.631E+00   -5.624E+00   -5.617E+00   -5.610E+00   -5.602E+00
    -5.595E+00   -5.588E+00   -5.581E+00   -5.574E+00   -5.567E+00   -5.560E+00   -5.553E+00   -5.546E+00   -5.539E+00   -5.532E+00
    -5.525E+00   -5.518E+00   -5.511E+00   -5.504E+00   -5.497E+00   -5.490E+00   -5.483E+00   -5.476E+00   -5.469E+00   -5.461E+00
    -5.454E+00   -5.447E+00   -5.440E+00   -5.433E+00   -5.426E+00   -5.419E+00   -5.412E+00   -5.405E+00   -5.398E+00   -5.391E+00
    -5.384E+00   -5.377E+00   -5.370E+00   -5.363E+00   -5.356E+00   -5.349E+00   -5.342E+00   -5.335E+00   -5.328E+00   -5.320E+00
    -5.313E+00   -5.306E+00   -5.299E+00   -5.292E+00   -5.285E+00   -5.278E+00   -5.271E+00   -5.264E+00   -5.257E+00   -5.250E+00
    -5.243E+00   -5.236E+00   -5.229E+00   -5.222E+00   -5.215E+00   -5.208E+00   -5.201E+00   -5.194E+00   -5.186E+00   -5.179E+00
    -5.172E+00   -5.165E+00   -5.158E+00   -5.151E+00   -5.144E+00   -5.137E+00   -5.130E+00   -5.123E+00   -5.116E+00   -5.109E+00
    -5.102E+00   -5.095E+00   -5.088E+00   -5.081E+00   -5.074E+00   -5.067E+00   -5.060E+00   -5.053E+00   -5.045E+00   -5.038E+00
    -5.031E+00   -5.024E+00   -5.017E+00   -5.010E+00   -5.003E+00   -4.996E+00   -4.989E+00   -4.982E+00   -4.975E+00   -4.968E+00
    -4.961E+00   -4.954E+00   -4.947E+00   -4.940E+00   -4.933E+00   -4.926E+00   -4.919E+00   -4.912E+00   -4.904E+00   -4.897E+00
    -4.890E+00   -4.883E+00   -4.876E+00   -4.869E+00   -4.862E+00   -4.855E+00   -4.848E+00   -4.841E+00   -4.834E+00   -4.827E+00
    -4.820E+00   -4.813E+00   -4.806E+00   -4.799E+00   -4.792E+00   -4.785E+00   -4.778E+00   -4.771E+00   -4.763E+00   -4.756E+00
    -4.749E+00   -4.742E+00   -4.735E+00   -4.728E+00   -4.721E+00   -4.714E+00   -4.707E+00   -4.700E+00   -4.693E+00   -4.686E+00
    -4.679E+00   -4.672E+00   -4.665E+00   -4.658E+00   -4.651E+00   -4.644E+00   -4.637E+00   -4.630E+00   -4.622E+00   -4.615E+00
    -4.608E+00   -4.601E+00   -4.594E+00   -4.587E+00   -4.580E+00   -4.573E+00   -4.566E+00   -4.559E+00   -4.552E+00   -4.545E+00
    -4.538E+00   -4.531E+00   -4.524E+00   -4.517E+00   -4.510E+00   -4.503E+00   -4.496E+00   -4.488E+00   -4.481E+00   -4.474E+00
    -4.467E+00   -4.460E+00   -4.453E+00   -4.446E+00   -4.439E+00   -4.432E+00   -4.425E+00   -4.418E+00   -4.411E+00   -4.404E+00
    -4.397E+00   -4.390E+00   -4.383E+00   -4.376E+00   -4.369E+00   -4.362E+00   -4.354E+00   -4.347E+00   -4.340E+00   -4.333E+00
    -4.326E+00   -4.319E+00   -4.312E+00   -4.305E+00   -4.298E+00   -4.291E+00   -4.284E+00   -4.277E+00   -4.270E+00   -4.263E+00
    -4.256E+00   -4.249E+00   -4.242E+00   -4.235E+00   -4.228E+00   -4.221E+00   -4.213E+00   -4.206E+00   -4.199E+00   -4.192E+00
    -4.185E+00   -4.178E+00   -4.171E+00   -4.164E+00   -4.157E+00   -4.150E+00   -4.143E+00   -4.136E+00   -4.129E+00   -4.122E+00
    -4.115E+00   -4.108E+00   -4.101E+00   -4.094E+00   -4.086E+00   -4.079E+00   -4.072E+00   -4.065E+00   -4.058E+00   -4.051E+00
    -4.044E+00   -4.037E+00   -4.030E+00   -4.023E+00   -4.016E+00   -4.009E+00   -4.002E+00   -3.995E+00   -3.988E+00   -3.981E+00
    -3.974E+00   -3.967E+00   -3.960E+00   -3.952E+00   -3.945E+00   -3.938E+00   -3.931E+00   -3.924E+00   -3.917E+00   -3.910E+00
    -3.903E+00   -3.896E+00   -3.889E+00   -3.882E+00   -3.875E+00   -3.868E+00   -3.861E+00   -3.854E+00   -3.847E+00   -3.840E+00
    -3.833E+00   -3.825E+00   -3.818E+00   -3.811E+00   -3.804E+00   -3.797E+00   -3.790E+00   -3.783E+00   -3.776E+00   -3.769E+00
    -3.762E+00   -3.755E+00   -3.748E+00   -3.741E+00   -3.734E+00   -3.727E+00   -3.720E+00   -3.713E+00   -3.706E+00   -3.698E+00
    -3.691E+00   -3.684E+00   -3.677E+00   -3.670E+00   -3.663E+00   -3.656E+00   -3.649E+00   -3.642E+00   -3.635E+00   -3.628E+00
    -3.621E+00   -3.614E+00   -3.607E+00   -3.600E+00   -3.593E+00   -3.586E+00   -3.579E+00   -3.571E+00   -3.564E+00   -3.557E+00
    -3.550E+00   -3.543E+00   -3.536E+00   -3.529E+00   -3.522E+00   -3.515E+00   -3.508E+00   -3.501E+00   -3.494E+00   -3.487E+00
    -3.480E+00   -3.473E+00   -3.466E+00   -3.459E+00   -3.451E+00   -3.444E+00   -3.437E+00   -3.430E+00   -3.423E+00   -3.416E+00
    -3.409E+00   -3.402E+00   -3.395E+00   -3.388E+00   -3.381E+00   -3.374E+00   -3.367E+00   -3.360E+00   -3.353E+00   -3.346E+00
    -3.339E+00   -3.332E+00   -3.324E+00   -3.317E+00   -3.310E+00   -3.303E+00   -3.296E+00   -3.289E+00   -3.282E+00   -3.275E+00
    -3.268E+00   -3.261E+00   -3.254E+00   -3.247E+00   -3.240E+00   -3.233E+00   -3.226E+00   -3.219E+00   -3.212E+00   -3.204E+00
    -3.197E+00   -3.190E+00   -3.183E+00   -3.176E+00   -3.169E+00   -3.162E+00   -3.155E+00   -3.148E+00   -3.141E+00   -3.134E+00
    -3.127E+00   -3.120E+00   -3.113E+00   -3.106E+00   -3.099E+00   -3.092E+00   -3.084E+00   -3.077E+00   -3.070E+00   -3.063E+00
    -3.056E+00   -3.049E+00   -3.042E+00   -3.035E+00   -3.028E+00   -3.021E+00   -3.014E+00   -3.007E+00   -3.000E+00   -2.993E+00
    -2.986E+00   -2.979E+00   -2.972E+00   -2.964E+00   -2.957E+00   -2.950E+00   -2.943E+00   -2.936E+00   -2.929E+00   -2.922E+00
    -2.915E+00   -2.908E+00   -2.901E+00   -2.894E+00   -2.887E+00   -2.880E+00   -2.873E+00   -2.866E+00   -2.859E+00   -2.852E+00
    -2.844E+00   -2.837E+00   -2.830E+00   -2.823E+00   -2.816E+00   -2.809E+00   -2.802E+00   -2.795E+00   -2.788E+00   -2.781E+00
    -2.774E+00   -2.767E+00   -2.760E+00   -2.753E+00   -2.746E+00   -2.739E+00   -2.731E+00   -2.724E+00   -2.717E+00   -2.710E+00
    -2.703E+00   -2.696E+00   -2.689E+00   -2.682E+00   -2.675E+00   -2.668E+00   -2.661E+00   -2.654E+00   -2.647E+00   -2.640E+00
    -2.633E+00   -2.626E+00   -2.619E+00   -2.611E+00   -2.604E+00   -2.597E+00   -2.590E+00   -2.583E+00   -2.576E+00   -2.569E+00
    -2.562E+00   -2.555E+00   -2.548E+00   -2.541E+00   -2.534E+00   -2.527E+00   -2.520E+00   -2.513E+00   -2.506E+00   -2.499E+00
    -2.491E+00   -2.484E+00   -2.477E+00   -2.470E+00   -2.463E+00   -2.456E+00   -2.449E+00   -2.442E+00   -2.435E+00   -2.428E+00
    -2.421E+00   -2.414E+00   -2.407E+00   -2.400E+00   -2.393E+00   -2.386E+00   -2.378E+00   -2.371E+00
 Ala      Conc. = 4.80E+02
