 LCModel (Version 6.3-1L) Copyright: S.W. Provencher.          Ref.: Magn. Reson. Med. 30:672-679 (1993).                
 Slice#2 Row#3 Col#4  K_02_press_1_raw_act
 36 lines in following concentration table = NCONC+1
    Conc.  %SD /Cr+PCr  Metabolite                                         
    0.000 999%   0.000 Ala                                                 
    0.000 999%   0.000 Asp                                                 
    0.000 999%   0.000 Cr                                                  
 1.13E+03   6%   1.000 PCr                                                 
  106.594 127% 9.5E-02 GABA                                                
  177.728  73%   0.158 Glc                                                 
  978.975  47%   0.869 Gln                                                 
 1.85E+03  29%   1.640 Glu                                                 
  395.671   7%   0.351 GPC                                                 
    0.000 999%   0.000 PCh                                                 
  282.758  38%   0.251 GSH                                                 
 1.34E+03  26%   1.187 Ins                                                 
  748.591  32%   0.664 Lac                                                 
 1.57E+03   5%   1.397 NAA                                                 
    0.000 999%   0.000 NAAG                                                
  157.366  19%   0.140 Scyllo                                              
  504.324  38%   0.448 Tau                                                 
  460.609  31%   0.409 -CrCH2                                              
  395.671   7%   0.351 GPC+PCh                                             
 1.57E+03   5%   1.397 NAA+NAAG                                            
 1.13E+03   6%   1.000 Cr+PCr                                              
 2.83E+03  31%   2.509 Glu+Gln                                             
 5.62E+03  15%   4.990 Lip13a                                              
    0.000 999%   0.000 Lip13b                                              
    0.000 999%   0.000 Lip09                                               
  566.734  27%   0.503 MM09                                                
  670.284  56%   0.595 Lip20                                               
  751.858  55%   0.667 MM20                                                
  209.792  78%   0.186 MM12                                                
 2.76E+03  18%   2.451 MM14                                                
 1.54E+03  23%   1.363 MM17                                                
 5.62E+03  15%   4.990 Lip13a+Lip13b                                       
 8.59E+03  10%   7.627 MM14+Lip13a+Lip13b+MM12                             
  566.734  27%   0.503 MM09+Lip09                                          
 1.42E+03  28%   1.262 MM20+Lip20                                          
   6 lines in following misc. output table
  FWHM = 0.084 ppm    S/N =   7                                            
  Data shift = 0.046 ppm                                                   
  Ph: -71 deg     -36.8 deg/ppm                                            
  alphaB,S = 6.0E-01,   5.1E+01                                            
   14 spline knots.   Ns =11(1)                                            
  (16) 7 infls.   (17) 3 extrs.                                            
  498 points on ppm-axis = NY
      4.000000     3.992357     3.984714     3.977070     3.969427     3.961784     3.954141     3.946497     3.938854     3.931211
      3.923568     3.915925     3.908281     3.900638     3.892995     3.885352     3.877708     3.870065     3.862422     3.854779
      3.847136     3.839492     3.831849     3.824206     3.816563     3.808919     3.801276     3.793633     3.785990     3.778347
      3.770703     3.763060     3.755417     3.747774     3.740130     3.732487     3.724844     3.717201     3.709558     3.701914
      3.694271     3.686628     3.678985     3.671341     3.663698     3.656055     3.648412     3.640769     3.633125     3.625482
      3.617839     3.610196     3.602552     3.594909     3.587266     3.579623     3.571980     3.564336     3.556693     3.549050
      3.541407     3.533763     3.526120     3.518477     3.510834     3.503191     3.495547     3.487904     3.480261     3.472618
      3.464974     3.457331     3.449688     3.442045     3.434402     3.426758     3.419115     3.411472     3.403829     3.396185
      3.388542     3.380899     3.373256     3.365613     3.357969     3.350326     3.342683     3.335040     3.327396     3.319753
      3.312110     3.304467     3.296824     3.289180     3.281537     3.273894     3.266251     3.258607     3.250964     3.243321
      3.235678     3.228034     3.220391     3.212748     3.205105     3.197462     3.189818     3.182175     3.174532     3.166889
      3.159245     3.151602     3.143959     3.136316     3.128673     3.121029     3.113386     3.105743     3.098100     3.090456
      3.082813     3.075170     3.067527     3.059884     3.052240     3.044597     3.036954     3.029311     3.021667     3.014024
      3.006381     2.998738     2.991095     2.983451     2.975808     2.968165     2.960522     2.952878     2.945235     2.937592
      2.929949     2.922306     2.914662     2.907019     2.899376     2.891733     2.884089     2.876446     2.868803     2.861160
      2.853517     2.845873     2.838230     2.830587     2.822944     2.815300     2.807657     2.800014     2.792371     2.784728
      2.777084     2.769441     2.761798     2.754155     2.746511     2.738868     2.731225     2.723582     2.715939     2.708295
      2.700652     2.693009     2.685366     2.677722     2.670079     2.662436     2.654793     2.647150     2.639506     2.631863
      2.624220     2.616577     2.608933     2.601290     2.593647     2.586004     2.578361     2.570717     2.563074     2.555431
      2.547788     2.540144     2.532501     2.524858     2.517215     2.509572     2.501928     2.494285     2.486642     2.478999
      2.471355     2.463712     2.456069     2.448426     2.440783     2.433139     2.425496     2.417853     2.410210     2.402566
      2.394923     2.387280     2.379637     2.371994     2.364350     2.356707     2.349064     2.341421     2.333777     2.326134
      2.318491     2.310848     2.303205     2.295561     2.287918     2.280275     2.272632     2.264988     2.257345     2.249702
      2.242059     2.234416     2.226772     2.219129     2.211486     2.203843     2.196199     2.188556     2.180913     2.173270
      2.165627     2.157983     2.150340     2.142697     2.135054     2.127410     2.119767     2.112124     2.104481     2.096838
      2.089194     2.081551     2.073908     2.066265     2.058621     2.050978     2.043335     2.035692     2.028049     2.020405
      2.012762     2.005119     1.997476     1.989833     1.982190     1.974546     1.966903     1.959260     1.951617     1.943974
      1.936331     1.928688     1.921045     1.913402     1.905759     1.898115     1.890472     1.882829     1.875186     1.867543
      1.859900     1.852257     1.844614     1.836971     1.829327     1.821684     1.814041     1.806398     1.798755     1.791112
      1.783469     1.775826     1.768183     1.760540     1.752896     1.745253     1.737610     1.729967     1.722324     1.714681
      1.707038     1.699395     1.691752     1.684108     1.676465     1.668822     1.661179     1.653536     1.645893     1.638250
      1.630607     1.622964     1.615321     1.607677     1.600034     1.592391     1.584748     1.577105     1.569462     1.561819
      1.554176     1.546533     1.538890     1.531246     1.523603     1.515960     1.508317     1.500674     1.493031     1.485388
      1.477745     1.470102     1.462458     1.454815     1.447172     1.439529     1.431886     1.424243     1.416600     1.408957
      1.401314     1.393671     1.386027     1.378384     1.370741     1.363098     1.355455     1.347812     1.340169     1.332526
      1.324883     1.317240     1.309596     1.301953     1.294310     1.286667     1.279024     1.271381     1.263738     1.256095
      1.248452     1.240808     1.233165     1.225522     1.217879     1.210236     1.202593     1.194950     1.187307     1.179664
      1.172021     1.164377     1.156734     1.149091     1.141448     1.133805     1.126162     1.118519     1.110876     1.103233
      1.095590     1.087946     1.080303     1.072660     1.065017     1.057374     1.049731     1.042088     1.034445     1.026802
      1.019158     1.011515     1.003872     0.996229     0.988586     0.980943     0.973300     0.965657     0.958014     0.950371
      0.942727     0.935084     0.927441     0.919798     0.912155     0.904512     0.896869     0.889226     0.881583     0.873940
      0.866296     0.858653     0.851010     0.843367     0.835724     0.828081     0.820438     0.812795     0.805152     0.797508
      0.789865     0.782222     0.774579     0.766936     0.759293     0.751650     0.744007     0.736364     0.728721     0.721077
      0.713434     0.705791     0.698148     0.690505     0.682862     0.675219     0.667576     0.659933     0.652290     0.644646
      0.637003     0.629360     0.621717     0.614074     0.606431     0.598788     0.591145     0.583502     0.575858     0.568215
      0.560572     0.552929     0.545286     0.537643     0.530000     0.522357     0.514714     0.507071     0.499427     0.491784
      0.484141     0.476498     0.468855     0.461212     0.453569     0.445925     0.438282     0.430639     0.422996     0.415353
      0.407710     0.400067     0.392424     0.384780     0.377137     0.369494     0.361851     0.354208     0.346565     0.338922
      0.331278     0.323635     0.315992     0.308349     0.300706     0.293063     0.285420     0.277777     0.270133     0.262490
      0.254847     0.247204     0.239561     0.231918     0.224275     0.216631     0.208988     0.201345
 NY phased data points follow
  -4.47086E+01 -4.30880E+01 -4.40341E+01 -3.89637E+01 -3.74596E+01 -3.36839E+01 -3.39497E+01 -3.54162E+01 -3.33223E+01 -3.50199E+01
  -3.85166E+01 -3.68272E+01 -3.89329E+01 -4.18352E+01 -4.53705E+01 -3.92082E+01 -4.48402E+01 -4.31547E+01 -4.23113E+01 -4.27165E+01
  -4.30513E+01 -4.25319E+01 -3.90806E+01 -3.95851E+01 -3.67022E+01 -3.24367E+01 -2.99154E+01 -3.58809E+01 -3.24985E+01 -3.31686E+01
  -3.23027E+01 -3.51393E+01 -3.50975E+01 -3.08431E+01 -3.17232E+01 -3.06033E+01 -3.24629E+01 -3.34560E+01 -3.02728E+01 -2.77601E+01
  -2.83584E+01 -2.33010E+01 -2.66455E+01 -2.37135E+01 -2.69724E+01 -2.84799E+01 -2.89407E+01 -2.77433E+01 -2.64844E+01 -2.71698E+01
  -2.85417E+01 -2.64130E+01 -2.90928E+01 -2.59743E+01 -2.76906E+01 -2.58488E+01 -2.50857E+01 -2.61909E+01 -2.91547E+01 -2.59842E+01
  -2.83314E+01 -2.47817E+01 -2.55717E+01 -2.56248E+01 -3.05752E+01 -2.51372E+01 -1.96506E+01 -2.67242E+01 -2.30883E+01 -2.54586E+01
  -1.83571E+01 -2.46030E+01 -1.62146E+01 -2.09964E+01 -1.87915E+01 -2.23746E+01 -2.15990E+01 -2.16252E+01 -1.79686E+01 -1.89214E+01
  -1.42351E+01 -1.59779E+01 -1.87691E+01 -1.71777E+01 -1.62420E+01 -1.39335E+01 -1.31325E+01 -2.07556E+01 -1.58687E+01 -1.35733E+01
  -1.07003E+01 -8.11458E+00 -7.90253E+00 -1.22885E+01 -8.43556E+00 -5.13480E+00 -5.69101E-01  1.44133E+00 -5.48457E-01  8.99225E-01
   3.90393E+00  6.62466E+00  8.76771E+00  2.60782E+00  4.72252E+00  3.16311E+00 -4.69854E+00 -5.82224E+00 -3.68708E+00 -9.26188E+00
  -6.92180E+00 -8.84699E+00 -1.31765E+01 -9.86905E+00 -9.20533E+00 -9.95658E+00 -7.96101E+00 -4.93313E+00 -2.37017E+00 -6.85677E+00
  -1.75982E+00  6.79141E+00  7.00852E+00  1.46816E+01  1.01556E+01  9.51645E+00  1.11077E+01  1.07866E+01  9.35597E+00  7.51123E+00
   6.50793E+00  2.70752E-02 -1.94962E+00 -1.94651E+00 -2.76887E+00 -3.52410E+00 -3.48650E+00 -8.64555E+00 -2.80423E+00 -5.85018E+00
  -9.58506E+00 -7.80914E+00 -5.00744E+00 -8.32326E-01 -5.50145E+00 -3.34665E+00 -6.41212E+00 -3.86666E+00 -2.25607E+00 -2.19815E+00
  -2.29882E+00 -4.30130E+00 -7.44732E+00 -5.82641E+00 -2.30239E+00  1.23481E+00 -6.35642E+00 -6.36587E+00 -6.45089E+00 -6.53880E+00
  -7.72197E+00  7.58568E-02 -1.29565E+00 -2.26487E+00 -2.62361E+00 -6.35306E-01 -6.14808E-01 -5.75611E+00 -9.35456E-01 -3.28560E+00
  -7.93356E+00 -5.89054E+00 -2.66689E+00 -3.70203E+00 -4.93579E+00 -3.29774E+00 -6.17882E+00 -6.95096E+00 -5.02342E+00 -3.70662E+00
  -2.90589E+00 -4.81617E+00 -5.04491E+00 -1.43548E+00 -6.66466E+00 -4.46665E+00 -3.82680E+00  2.92825E+00  1.51017E+00  3.14912E+00
   2.51952E+00  6.31217E-01  8.42265E+00  3.08983E+00  6.91667E+00  2.97594E-02  4.62539E+00  5.96961E+00  9.58724E+00  1.94567E+00
   2.44065E+00  3.89740E+00  3.77287E+00  3.55920E+00  6.67581E+00  3.00579E+00  4.04000E+00  4.76083E+00  2.77058E+00  2.91473E+00
   1.01097E+01  8.35771E+00  9.15877E+00  8.88522E+00  1.07873E+01  1.13454E+01  1.09429E+01  9.31570E+00  1.17298E+01  9.82591E+00
   8.16341E+00  7.72433E+00  3.11060E+00  1.10031E+01  9.33808E+00  9.56938E+00  8.22869E+00  1.06403E+01  1.23729E+01  1.41898E+01
   9.55983E+00  1.51150E+01  1.19132E+01  1.35549E+01  1.48080E+01  1.57463E+01  1.51529E+01  1.65752E+01  1.14380E+01  1.49059E+01
   1.65824E+01  1.11720E+01  1.61190E+01  1.78649E+01  1.64477E+01  1.47872E+01  1.45920E+01  1.88530E+01  1.85392E+01  2.04332E+01
   2.21808E+01  2.53779E+01  2.37348E+01  2.82628E+01  3.04762E+01  3.78701E+01  4.43985E+01  4.86965E+01  5.07466E+01  4.98373E+01
   5.46709E+01  5.15600E+01  4.92990E+01  5.01025E+01  4.63439E+01  4.02867E+01  3.83500E+01  3.36019E+01  3.23568E+01  3.06388E+01
   3.17243E+01  2.60452E+01  2.38527E+01  2.48726E+01  2.49886E+01  2.49954E+01  2.49204E+01  2.29118E+01  2.36176E+01  2.33547E+01
   2.45271E+01  2.42579E+01  2.44757E+01  2.25452E+01  2.56888E+01  2.36292E+01  2.90380E+01  2.91003E+01  2.83518E+01  2.20928E+01
   2.31473E+01  2.60507E+01  2.49684E+01  2.91770E+01  2.75130E+01  3.03029E+01  2.61266E+01  2.59180E+01  2.72068E+01  2.70971E+01
   2.79364E+01  2.84248E+01  3.60474E+01  2.63631E+01  3.15603E+01  3.19826E+01  3.43751E+01  3.36458E+01  3.77624E+01  3.80121E+01
   3.58692E+01  3.59618E+01  3.60920E+01  3.23939E+01  3.35893E+01  3.46427E+01  4.03456E+01  3.81055E+01  4.02869E+01  4.08167E+01
   4.19683E+01  3.85875E+01  4.02876E+01  3.92538E+01  4.06344E+01  4.37220E+01  4.60309E+01  4.47242E+01  4.80835E+01  4.58014E+01
   4.36374E+01  4.44427E+01  4.33101E+01  4.12805E+01  4.33976E+01  4.45065E+01  3.78782E+01  3.83995E+01  4.49688E+01  4.33230E+01
   4.63457E+01  4.38105E+01  4.73776E+01  4.74945E+01  4.39147E+01  4.75095E+01  4.71941E+01  4.78166E+01  4.28710E+01  4.15450E+01
   4.18896E+01  3.77203E+01  3.99281E+01  3.85940E+01  4.46189E+01  4.50195E+01  4.38196E+01  4.46145E+01  4.09670E+01  4.30230E+01
   4.57080E+01  3.84178E+01  4.13063E+01  3.91341E+01  4.54520E+01  4.06244E+01  4.14776E+01  4.34598E+01  3.69452E+01  3.90222E+01
   3.97144E+01  3.59891E+01  3.72380E+01  3.48763E+01  3.15686E+01  3.43807E+01  3.44413E+01  3.21620E+01  3.12155E+01  3.21668E+01
   3.17518E+01  3.09953E+01  2.95269E+01  3.06353E+01  3.30048E+01  3.10938E+01  3.11264E+01  2.50914E+01  2.60114E+01  2.57199E+01
   2.56096E+01  2.69388E+01  2.41334E+01  2.69610E+01  2.70058E+01  2.32870E+01  2.70409E+01  2.98011E+01  2.69574E+01  2.88073E+01
   2.85493E+01  3.06754E+01  2.37082E+01  2.73591E+01  2.34671E+01  2.10400E+01  2.59727E+01  2.73587E+01  2.60239E+01  2.74873E+01
   2.60456E+01  2.48163E+01  2.49415E+01  2.38743E+01  2.77289E+01  2.88303E+01  1.95500E+01  2.61939E+01  2.13845E+01  2.21973E+01
   2.08039E+01  2.11858E+01  1.68710E+01  2.63263E+01  2.31308E+01  2.08585E+01  2.26977E+01  2.17938E+01  2.26877E+01  1.80632E+01
   2.04028E+01  1.63647E+01  1.90780E+01  2.14769E+01  1.63309E+01  1.66034E+01  1.90166E+01  1.53557E+01  1.71377E+01  1.51359E+01
   1.86593E+01  1.46015E+01  1.82311E+01  1.69335E+01  1.90545E+01  2.14735E+01  1.46049E+01  1.91510E+01  1.70474E+01  1.94421E+01
   1.71877E+01  1.81772E+01  1.64784E+01  1.63879E+01  1.93008E+01  1.81182E+01  1.64792E+01  1.86380E+01  1.95393E+01  1.57703E+01
   1.78457E+01  1.36259E+01  1.72342E+01  1.77276E+01  1.91122E+01  1.89353E+01  1.69257E+01  1.65983E+01  1.66566E+01  1.41110E+01
   1.76931E+01  1.86919E+01  1.68968E+01  1.90738E+01  1.53853E+01  1.41220E+01  1.72177E+01  1.60147E+01  1.97748E+01  1.48277E+01
   1.71039E+01  1.95223E+01  1.69261E+01  1.47116E+01  1.74959E+01  1.67955E+01  1.50338E+01  1.79880E+01  1.48644E+01  1.52030E+01
   1.54365E+01  1.84363E+01  1.74967E+01  1.57315E+01  1.67017E+01  1.94466E+01  1.49441E+01  1.67521E+01
 NY points of the fit to the data follow
  -4.40692E+01 -4.27199E+01 -4.04635E+01 -3.83257E+01 -3.72394E+01 -3.68288E+01 -3.65145E+01 -3.61877E+01 -3.62925E+01 -3.67373E+01
  -3.68289E+01 -3.72086E+01 -3.87644E+01 -4.02735E+01 -4.03558E+01 -3.97376E+01 -3.93353E+01 -3.95576E+01 -4.04383E+01 -4.07250E+01
  -4.02123E+01 -3.94650E+01 -3.88055E+01 -3.82653E+01 -3.74471E+01 -3.64508E+01 -3.53824E+01 -3.42854E+01 -3.33212E+01 -3.23984E+01
  -3.15989E+01 -3.11483E+01 -3.09482E+01 -3.09641E+01 -3.12739E+01 -3.16605E+01 -3.16951E+01 -3.15056E+01 -3.13193E+01 -3.10378E+01
  -3.03835E+01 -2.93877E+01 -2.83685E+01 -2.74666E+01 -2.68652E+01 -2.66863E+01 -2.67246E+01 -2.67813E+01 -2.67142E+01 -2.65968E+01
  -2.66750E+01 -2.71845E+01 -2.78670E+01 -2.81081E+01 -2.77671E+01 -2.71748E+01 -2.67047E+01 -2.65927E+01 -2.66234E+01 -2.66352E+01
  -2.64770E+01 -2.60797E+01 -2.56326E+01 -2.53265E+01 -2.50367E+01 -2.45931E+01 -2.40931E+01 -2.36205E+01 -2.31435E+01 -2.26639E+01
  -2.21803E+01 -2.17523E+01 -2.14196E+01 -2.11897E+01 -2.09401E+01 -2.04718E+01 -1.98629E+01 -1.95849E+01 -1.94666E+01 -1.92085E+01
  -1.86574E+01 -1.78018E+01 -1.70133E+01 -1.65655E+01 -1.62548E+01 -1.59533E+01 -1.58404E+01 -1.59717E+01 -1.59754E+01 -1.56948E+01
  -1.46982E+01 -1.27360E+01 -1.15014E+01 -1.09373E+01 -9.56639E+00 -6.63001E+00 -2.67240E+00  7.28923E-01  2.97216E+00  4.43828E+00
   5.55340E+00  6.14856E+00  5.56983E+00  4.43158E+00  3.38517E+00  1.23180E+00 -2.43182E+00 -5.48012E+00 -6.74420E+00 -7.16555E+00
  -7.63901E+00 -8.87004E+00 -1.07803E+01 -1.21263E+01 -1.21088E+01 -9.88491E+00 -7.71413E+00 -6.92228E+00 -6.10656E+00 -3.83067E+00
   1.90757E-01  4.48591E+00  7.55985E+00  9.52724E+00  1.08745E+01  1.17708E+01  1.16312E+01  1.07429E+01  1.00200E+01  8.56227E+00
   5.21717E+00  1.57091E+00 -4.52810E-01 -1.14948E+00 -1.52028E+00 -2.38860E+00 -4.13942E+00 -5.75923E+00 -6.74304E+00 -6.96794E+00
  -6.77540E+00 -6.47352E+00 -6.17124E+00 -5.94705E+00 -5.81527E+00 -5.70795E+00 -5.58604E+00 -5.41886E+00 -5.19758E+00 -4.98214E+00
  -4.85563E+00 -4.79521E+00 -4.70507E+00 -4.55076E+00 -4.35888E+00 -4.22294E+00 -4.21625E+00 -4.21089E+00 -4.09903E+00 -3.89992E+00
  -3.70643E+00 -3.58512E+00 -3.50166E+00 -3.44840E+00 -3.42555E+00 -3.40956E+00 -3.39800E+00 -3.32319E+00 -3.26834E+00 -3.38112E+00
  -3.62733E+00 -3.79289E+00 -3.71327E+00 -3.49871E+00 -3.35701E+00 -3.37488E+00 -3.45575E+00 -3.40368E+00 -3.14656E+00 -2.81448E+00
  -2.47351E+00 -2.12576E+00 -1.83167E+00 -1.58368E+00 -1.23128E+00 -7.12610E-01 -3.83053E-02  5.81897E-01  1.01949E+00  1.38375E+00
   1.78973E+00  2.28601E+00  2.73220E+00  3.07403E+00  3.45764E+00  3.90916E+00  4.41242E+00  4.94269E+00  5.50580E+00  5.92087E+00
   6.38198E+00  6.82737E+00  6.87744E+00  6.55929E+00  6.08806E+00  5.80469E+00  5.80833E+00  5.62021E+00  5.42744E+00  5.64066E+00
   6.46931E+00  7.48152E+00  8.08615E+00  8.69614E+00  9.69006E+00  1.02718E+01  9.81919E+00  8.76041E+00  7.94458E+00  7.64562E+00
   7.44629E+00  7.09580E+00  7.26089E+00  8.17004E+00  9.22419E+00  9.92228E+00  1.05718E+01  1.15503E+01  1.24987E+01  1.28881E+01
   1.29468E+01  1.31012E+01  1.35479E+01  1.42751E+01  1.50272E+01  1.56067E+01  1.59395E+01  1.58766E+01  1.55353E+01  1.53009E+01
   1.52927E+01  1.52684E+01  1.52043E+01  1.52968E+01  1.55250E+01  1.57989E+01  1.62262E+01  1.68540E+01  1.76940E+01  1.96760E+01
   2.34901E+01  2.61923E+01  2.71956E+01  2.88104E+01  3.26571E+01  3.85584E+01  4.42177E+01  4.80045E+01  5.02983E+01  5.18671E+01
   5.27110E+01  5.19876E+01  5.05830E+01  4.93793E+01  4.65482E+01  4.11735E+01  3.61220E+01  3.35264E+01  3.24932E+01  3.16944E+01
   2.99701E+01  2.71380E+01  2.47500E+01  2.32898E+01  2.27387E+01  2.25475E+01  2.25016E+01  2.25073E+01  2.25080E+01  2.24977E+01
   2.25194E+01  2.25971E+01  2.27387E+01  2.29172E+01  2.31124E+01  2.33324E+01  2.35802E+01  2.38539E+01  2.41617E+01  2.45045E+01
   2.48801E+01  2.52928E+01  2.57415E+01  2.62201E+01  2.67198E+01  2.72344E+01  2.77609E+01  2.82956E+01  2.88368E+01  2.93796E+01
   2.99171E+01  3.04445E+01  3.09591E+01  3.14581E+01  3.19412E+01  3.24074E+01  3.28587E+01  3.32967E+01  3.37251E+01  3.41488E+01
   3.45738E+01  3.50055E+01  3.54491E+01  3.59081E+01  3.63858E+01  3.68837E+01  3.74020E+01  3.79385E+01  3.84895E+01  3.90489E+01
   3.96096E+01  4.01629E+01  4.06996E+01  4.12100E+01  4.16853E+01  4.21173E+01  4.24994E+01  4.28267E+01  4.30970E+01  4.33108E+01
   4.34721E+01  4.35880E+01  4.36702E+01  4.37352E+01  4.38098E+01  4.39437E+01  4.42636E+01  4.48407E+01  4.50118E+01  4.47264E+01
   4.46519E+01  4.50154E+01  4.55154E+01  4.54994E+01  4.48685E+01  4.44655E+01  4.41424E+01  4.33646E+01  4.21374E+01  4.11101E+01
   4.09188E+01  4.10689E+01  4.09930E+01  4.12131E+01  4.21284E+01  4.33250E+01  4.41168E+01  4.43385E+01  4.44139E+01  4.45628E+01
   4.42576E+01  4.35486E+01  4.29092E+01  4.24765E+01  4.21744E+01  4.17526E+01  4.09176E+01  3.98729E+01  3.88067E+01  3.78548E+01
   3.69979E+01  3.61917E+01  3.54212E+01  3.46812E+01  3.39709E+01  3.32903E+01  3.26410E+01  3.20241E+01  3.14415E+01  3.08939E+01
   3.03824E+01  2.99076E+01  2.94703E+01  2.90708E+01  2.87095E+01  2.83862E+01  2.81007E+01  2.78526E+01  2.76413E+01  2.74656E+01
   2.73244E+01  2.72152E+01  2.71358E+01  2.70828E+01  2.70527E+01  2.70410E+01  2.70426E+01  2.70520E+01  2.70633E+01  2.70705E+01
   2.70678E+01  2.70492E+01  2.70097E+01  2.69446E+01  2.68506E+01  2.67252E+01  2.65673E+01  2.63768E+01  2.61551E+01  2.59042E+01
   2.56278E+01  2.53296E+01  2.50144E+01  2.46868E+01  2.43518E+01  2.40139E+01  2.36777E+01  2.33470E+01  2.30249E+01  2.27141E+01
   2.24166E+01  2.21336E+01  2.18660E+01  2.16141E+01  2.13776E+01  2.11560E+01  2.09488E+01  2.07548E+01  2.05733E+01  2.04030E+01
   2.02431E+01  2.00924E+01  1.99501E+01  1.98152E+01  1.96872E+01  1.95651E+01  1.94484E+01  1.93365E+01  1.92291E+01  1.91256E+01
   1.90258E+01  1.89292E+01  1.88357E+01  1.87450E+01  1.86569E+01  1.85713E+01  1.84880E+01  1.84068E+01  1.83277E+01  1.82505E+01
   1.81752E+01  1.81017E+01  1.80300E+01  1.79599E+01  1.78914E+01  1.78243E+01  1.77588E+01  1.76946E+01  1.76317E+01  1.75700E+01
   1.75096E+01  1.74502E+01  1.73921E+01  1.73348E+01  1.72786E+01  1.72233E+01  1.71690E+01  1.71155E+01  1.70629E+01  1.70110E+01
   1.69598E+01  1.69094E+01  1.68597E+01  1.68106E+01  1.67622E+01  1.67142E+01  1.66669E+01  1.66201E+01  1.65738E+01  1.65279E+01
   1.64825E+01  1.64374E+01  1.63928E+01  1.63484E+01  1.63045E+01  1.62607E+01  1.62173E+01  1.61740E+01  1.61310E+01  1.60881E+01
   1.60454E+01  1.60028E+01  1.59602E+01  1.59177E+01  1.58753E+01  1.58328E+01  1.57904E+01  1.57477E+01
 NY background values follow
    -5.194E+01   -5.159E+01   -5.124E+01   -5.090E+01   -5.055E+01   -5.020E+01   -4.985E+01   -4.950E+01   -4.915E+01   -4.881E+01
    -4.846E+01   -4.811E+01   -4.776E+01   -4.741E+01   -4.706E+01   -4.672E+01   -4.637E+01   -4.602E+01   -4.567E+01   -4.532E+01
    -4.498E+01   -4.463E+01   -4.428E+01   -4.393E+01   -4.359E+01   -4.324E+01   -4.289E+01   -4.255E+01   -4.220E+01   -4.186E+01
    -4.151E+01   -4.116E+01   -4.082E+01   -4.048E+01   -4.013E+01   -3.979E+01   -3.945E+01   -3.910E+01   -3.876E+01   -3.842E+01
    -3.808E+01   -3.774E+01   -3.740E+01   -3.706E+01   -3.672E+01   -3.638E+01   -3.604E+01   -3.571E+01   -3.537E+01   -3.503E+01
    -3.470E+01   -3.437E+01   -3.403E+01   -3.370E+01   -3.337E+01   -3.303E+01   -3.270E+01   -3.237E+01   -3.205E+01   -3.172E+01
    -3.139E+01   -3.106E+01   -3.074E+01   -3.041E+01   -3.009E+01   -2.977E+01   -2.944E+01   -2.912E+01   -2.880E+01   -2.848E+01
    -2.817E+01   -2.785E+01   -2.753E+01   -2.722E+01   -2.691E+01   -2.659E+01   -2.628E+01   -2.597E+01   -2.566E+01   -2.535E+01
    -2.505E+01   -2.474E+01   -2.444E+01   -2.414E+01   -2.383E+01   -2.353E+01   -2.323E+01   -2.294E+01   -2.264E+01   -2.235E+01
    -2.205E+01   -2.176E+01   -2.147E+01   -2.118E+01   -2.089E+01   -2.061E+01   -2.032E+01   -2.004E+01   -1.975E+01   -1.947E+01
    -1.919E+01   -1.892E+01   -1.864E+01   -1.836E+01   -1.809E+01   -1.782E+01   -1.754E+01   -1.727E+01   -1.700E+01   -1.674E+01
    -1.647E+01   -1.620E+01   -1.594E+01   -1.568E+01   -1.542E+01   -1.516E+01   -1.490E+01   -1.464E+01   -1.438E+01   -1.413E+01
    -1.387E+01   -1.362E+01   -1.337E+01   -1.312E+01   -1.287E+01   -1.262E+01   -1.238E+01   -1.213E+01   -1.189E+01   -1.164E+01
    -1.140E+01   -1.116E+01   -1.092E+01   -1.068E+01   -1.045E+01   -1.021E+01   -9.974E+00   -9.740E+00   -9.507E+00   -9.275E+00
    -9.044E+00   -8.814E+00   -8.586E+00   -8.358E+00   -8.131E+00   -7.905E+00   -7.680E+00   -7.456E+00   -7.233E+00   -7.010E+00
    -6.789E+00   -6.568E+00   -6.348E+00   -6.129E+00   -5.910E+00   -5.692E+00   -5.475E+00   -5.259E+00   -5.043E+00   -4.828E+00
    -4.613E+00   -4.400E+00   -4.186E+00   -3.973E+00   -3.761E+00   -3.549E+00   -3.338E+00   -3.127E+00   -2.916E+00   -2.706E+00
    -2.496E+00   -2.287E+00   -2.078E+00   -1.869E+00   -1.661E+00   -1.452E+00   -1.244E+00   -1.037E+00   -8.293E-01   -6.220E-01
    -4.148E-01   -2.078E-01   -8.884E-04    2.059E-01    4.125E-01    6.190E-01    8.253E-01    1.031E+00    1.237E+00    1.443E+00
     1.649E+00    1.854E+00    2.059E+00    2.264E+00    2.469E+00    2.673E+00    2.877E+00    3.081E+00    3.285E+00    3.488E+00
     3.691E+00    3.894E+00    4.096E+00    4.298E+00    4.500E+00    4.701E+00    4.902E+00    5.103E+00    5.303E+00    5.503E+00
     5.703E+00    5.902E+00    6.100E+00    6.299E+00    6.496E+00    6.694E+00    6.891E+00    7.087E+00    7.283E+00    7.479E+00
     7.673E+00    7.868E+00    8.062E+00    8.255E+00    8.448E+00    8.641E+00    8.832E+00    9.024E+00    9.214E+00    9.404E+00
     9.594E+00    9.783E+00    9.970E+00    1.016E+01    1.034E+01    1.053E+01    1.071E+01    1.090E+01    1.108E+01    1.126E+01
     1.144E+01    1.162E+01    1.180E+01    1.198E+01    1.216E+01    1.234E+01    1.251E+01    1.268E+01    1.286E+01    1.303E+01
     1.320E+01    1.337E+01    1.353E+01    1.370E+01    1.386E+01    1.403E+01    1.419E+01    1.435E+01    1.451E+01    1.466E+01
     1.482E+01    1.497E+01    1.513E+01    1.528E+01    1.542E+01    1.557E+01    1.572E+01    1.586E+01    1.600E+01    1.614E+01
     1.628E+01    1.642E+01    1.655E+01    1.668E+01    1.681E+01    1.694E+01    1.707E+01    1.719E+01    1.732E+01    1.744E+01
     1.756E+01    1.767E+01    1.779E+01    1.790E+01    1.801E+01    1.812E+01    1.823E+01    1.833E+01    1.844E+01    1.854E+01
     1.864E+01    1.873E+01    1.883E+01    1.892E+01    1.901E+01    1.910E+01    1.919E+01    1.927E+01    1.936E+01    1.944E+01
     1.952E+01    1.959E+01    1.967E+01    1.974E+01    1.981E+01    1.988E+01    1.995E+01    2.001E+01    2.008E+01    2.014E+01
     2.020E+01    2.025E+01    2.031E+01    2.036E+01    2.041E+01    2.046E+01    2.051E+01    2.055E+01    2.060E+01    2.064E+01
     2.067E+01    2.071E+01    2.075E+01    2.078E+01    2.081E+01    2.084E+01    2.087E+01    2.089E+01    2.091E+01    2.094E+01
     2.096E+01    2.097E+01    2.099E+01    2.100E+01    2.102E+01    2.103E+01    2.104E+01    2.104E+01    2.105E+01    2.106E+01
     2.106E+01    2.106E+01    2.106E+01    2.106E+01    2.105E+01    2.105E+01    2.104E+01    2.103E+01    2.102E+01    2.101E+01
     2.100E+01    2.099E+01    2.097E+01    2.095E+01    2.094E+01    2.092E+01    2.090E+01    2.087E+01    2.085E+01    2.083E+01
     2.080E+01    2.077E+01    2.075E+01    2.072E+01    2.069E+01    2.065E+01    2.062E+01    2.059E+01    2.055E+01    2.052E+01
     2.048E+01    2.044E+01    2.040E+01    2.036E+01    2.032E+01    2.028E+01    2.024E+01    2.019E+01    2.015E+01    2.010E+01
     2.006E+01    2.001E+01    1.996E+01    1.992E+01    1.987E+01    1.982E+01    1.977E+01    1.972E+01    1.967E+01    1.962E+01
     1.956E+01    1.951E+01    1.946E+01    1.941E+01    1.935E+01    1.930E+01    1.924E+01    1.919E+01    1.913E+01    1.908E+01
     1.902E+01    1.897E+01    1.891E+01    1.886E+01    1.880E+01    1.874E+01    1.869E+01    1.863E+01    1.857E+01    1.852E+01
     1.846E+01    1.840E+01    1.835E+01    1.829E+01    1.823E+01    1.818E+01    1.812E+01    1.806E+01    1.801E+01    1.795E+01
     1.790E+01    1.784E+01    1.778E+01    1.773E+01    1.767E+01    1.762E+01    1.756E+01    1.751E+01    1.746E+01    1.740E+01
     1.735E+01    1.729E+01    1.724E+01    1.719E+01    1.714E+01    1.708E+01    1.703E+01    1.698E+01    1.693E+01    1.688E+01
     1.683E+01    1.678E+01    1.673E+01    1.668E+01    1.664E+01    1.659E+01    1.654E+01    1.649E+01    1.645E+01    1.640E+01
     1.636E+01    1.631E+01    1.627E+01    1.623E+01    1.619E+01    1.614E+01    1.610E+01    1.606E+01    1.602E+01    1.598E+01
     1.595E+01    1.591E+01    1.587E+01    1.583E+01    1.580E+01    1.576E+01    1.572E+01    1.569E+01    1.565E+01    1.562E+01
     1.558E+01    1.555E+01    1.551E+01    1.548E+01    1.545E+01    1.541E+01    1.538E+01    1.535E+01    1.532E+01    1.528E+01
     1.525E+01    1.522E+01    1.519E+01    1.516E+01    1.513E+01    1.510E+01    1.506E+01    1.503E+01    1.500E+01    1.497E+01
     1.494E+01    1.491E+01    1.488E+01    1.485E+01    1.482E+01    1.478E+01    1.475E+01    1.472E+01
 PCr      Conc. = 1.13E+03
