 LCModel (Version 6.3-1L) Copyright: S.W. Provencher.          Ref.: Magn. Reson. Med. 30:672-679 (1993).                
 Slice#2 Row#3 Col#2  K_02_press_1_raw_act
 36 lines in following concentration table = NCONC+1
    Conc.  %SD /Cr+PCr  Metabolite                                         
 4.24E+03  53%   0.000 Ala                                                 
    0.117 999%   0.000 Asp                                                 
    0.000 999%   0.000 Cr                                                  
    0.000 999%   0.000 PCr                                                 
    0.000 999%   0.000 GABA                                                
 2.45E-02 999%   0.000 Glc                                                 
    0.000 999%   0.000 Gln                                                 
 3.92E+04   8%   0.000 Glu                                                 
    0.000 999%   0.000 GPC                                                 
    0.000 999%   0.000 PCh                                                 
    0.000 999%   0.000 GSH                                                 
 5.49E+03  17%   0.000 Ins                                                 
 6.13E+03  47%   0.000 Lac                                                 
    0.000 999%   0.000 NAA                                                 
    0.000 999%   0.000 NAAG                                                
 9.40E-02 999%   0.000 Scyllo                                              
 1.28E-02 999%   0.000 Tau                                                 
    0.000 999%   0.000 -CrCH2                                              
    0.000 999%   0.000 GPC+PCh                                             
    0.000 999%   0.000 NAA+NAAG                                            
    0.000 999%   0.000 Cr+PCr                                              
 3.92E+04   8%   0.000 Glu+Gln                                             
 3.31E+04  15%   0.000 Lip13a                                              
    0.000 999%   0.000 Lip13b                                              
 1.71E+03  64%   0.000-Lip09                                               
    4.411 999%   0.000 MM09                                                
    0.000 999%   0.000-Lip20                                               
    0.000 999%   0.000 MM20                                                
    1.151 999%   0.000 MM12                                                
    7.892 999%   0.000 MM14                                                
   43.428 131%   0.000 MM17                                                
 3.31E+04  15%   0.000 Lip13a+Lip13b                                       
 3.31E+04  15%   0.000 MM14+Lip13a+Lip13b+MM12                             
 1.71E+03  64%   0.000 MM09+Lip09                                          
    0.000 999%   0.000 MM20+Lip20                                          
   6 lines in following misc. output table
  FWHM = 0.199 ppm    S/N =   5                                            
  Data shift = 0.000 ppm                                                   
  Ph:  24 deg     199.9 deg/ppm                                            
  alphaB,S = 1.4E+00,   4.1E+02                                            
    7 spline knots.   Ns = 9(2)                                            
  (13) 6 infls.   ( 7) 1 extrs.                                            
  498 points on ppm-axis = NY
      4.000000     3.992357     3.984714     3.977070     3.969427     3.961784     3.954141     3.946497     3.938854     3.931211
      3.923568     3.915925     3.908281     3.900638     3.892995     3.885352     3.877708     3.870065     3.862422     3.854779
      3.847136     3.839492     3.831849     3.824206     3.816563     3.808919     3.801276     3.793633     3.785990     3.778347
      3.770703     3.763060     3.755417     3.747774     3.740130     3.732487     3.724844     3.717201     3.709558     3.701914
      3.694271     3.686628     3.678985     3.671341     3.663698     3.656055     3.648412     3.640769     3.633125     3.625482
      3.617839     3.610196     3.602552     3.594909     3.587266     3.579623     3.571980     3.564336     3.556693     3.549050
      3.541407     3.533763     3.526120     3.518477     3.510834     3.503191     3.495547     3.487904     3.480261     3.472618
      3.464974     3.457331     3.449688     3.442045     3.434402     3.426758     3.419115     3.411472     3.403829     3.396185
      3.388542     3.380899     3.373256     3.365613     3.357969     3.350326     3.342683     3.335040     3.327396     3.319753
      3.312110     3.304467     3.296824     3.289180     3.281537     3.273894     3.266251     3.258607     3.250964     3.243321
      3.235678     3.228034     3.220391     3.212748     3.205105     3.197462     3.189818     3.182175     3.174532     3.166889
      3.159245     3.151602     3.143959     3.136316     3.128673     3.121029     3.113386     3.105743     3.098100     3.090456
      3.082813     3.075170     3.067527     3.059884     3.052240     3.044597     3.036954     3.029311     3.021667     3.014024
      3.006381     2.998738     2.991095     2.983451     2.975808     2.968165     2.960522     2.952878     2.945235     2.937592
      2.929949     2.922306     2.914662     2.907019     2.899376     2.891733     2.884089     2.876446     2.868803     2.861160
      2.853517     2.845873     2.838230     2.830587     2.822944     2.815300     2.807657     2.800014     2.792371     2.784728
      2.777084     2.769441     2.761798     2.754155     2.746511     2.738868     2.731225     2.723582     2.715939     2.708295
      2.700652     2.693009     2.685366     2.677722     2.670079     2.662436     2.654793     2.647150     2.639506     2.631863
      2.624220     2.616577     2.608933     2.601290     2.593647     2.586004     2.578361     2.570717     2.563074     2.555431
      2.547788     2.540144     2.532501     2.524858     2.517215     2.509572     2.501928     2.494285     2.486642     2.478999
      2.471355     2.463712     2.456069     2.448426     2.440783     2.433139     2.425496     2.417853     2.410210     2.402566
      2.394923     2.387280     2.379637     2.371994     2.364350     2.356707     2.349064     2.341421     2.333777     2.326134
      2.318491     2.310848     2.303205     2.295561     2.287918     2.280275     2.272632     2.264988     2.257345     2.249702
      2.242059     2.234416     2.226772     2.219129     2.211486     2.203843     2.196199     2.188556     2.180913     2.173270
      2.165627     2.157983     2.150340     2.142697     2.135054     2.127410     2.119767     2.112124     2.104481     2.096838
      2.089194     2.081551     2.073908     2.066265     2.058621     2.050978     2.043335     2.035692     2.028049     2.020405
      2.012762     2.005119     1.997476     1.989833     1.982190     1.974546     1.966903     1.959260     1.951617     1.943974
      1.936331     1.928688     1.921045     1.913402     1.905759     1.898115     1.890472     1.882829     1.875186     1.867543
      1.859900     1.852257     1.844614     1.836971     1.829327     1.821684     1.814041     1.806398     1.798755     1.791112
      1.783469     1.775826     1.768183     1.760540     1.752896     1.745253     1.737610     1.729967     1.722324     1.714681
      1.707038     1.699395     1.691752     1.684108     1.676465     1.668822     1.661179     1.653536     1.645893     1.638250
      1.630607     1.622964     1.615321     1.607677     1.600034     1.592391     1.584748     1.577105     1.569462     1.561819
      1.554176     1.546533     1.538890     1.531246     1.523603     1.515960     1.508317     1.500674     1.493031     1.485388
      1.477745     1.470102     1.462458     1.454815     1.447172     1.439529     1.431886     1.424243     1.416600     1.408957
      1.401314     1.393671     1.386027     1.378384     1.370741     1.363098     1.355455     1.347812     1.340169     1.332526
      1.324883     1.317240     1.309596     1.301953     1.294310     1.286667     1.279024     1.271381     1.263738     1.256095
      1.248452     1.240808     1.233165     1.225522     1.217879     1.210236     1.202593     1.194950     1.187307     1.179664
      1.172021     1.164377     1.156734     1.149091     1.141448     1.133805     1.126162     1.118519     1.110876     1.103233
      1.095590     1.087946     1.080303     1.072660     1.065017     1.057374     1.049731     1.042088     1.034445     1.026802
      1.019158     1.011515     1.003872     0.996229     0.988586     0.980943     0.973300     0.965657     0.958014     0.950371
      0.942727     0.935084     0.927441     0.919798     0.912155     0.904512     0.896869     0.889226     0.881583     0.873940
      0.866296     0.858653     0.851010     0.843367     0.835724     0.828081     0.820438     0.812795     0.805152     0.797508
      0.789865     0.782222     0.774579     0.766936     0.759293     0.751650     0.744007     0.736364     0.728721     0.721077
      0.713434     0.705791     0.698148     0.690505     0.682862     0.675219     0.667576     0.659933     0.652290     0.644646
      0.637003     0.629360     0.621717     0.614074     0.606431     0.598788     0.591145     0.583502     0.575858     0.568215
      0.560572     0.552929     0.545286     0.537643     0.530000     0.522357     0.514714     0.507071     0.499427     0.491784
      0.484141     0.476498     0.468855     0.461212     0.453569     0.445925     0.438282     0.430639     0.422996     0.415353
      0.407710     0.400067     0.392424     0.384780     0.377137     0.369494     0.361851     0.354208     0.346565     0.338922
      0.331278     0.323635     0.315992     0.308349     0.300706     0.293063     0.285420     0.277777     0.270133     0.262490
      0.254847     0.247204     0.239561     0.231918     0.224275     0.216631     0.208988     0.201345
 NY phased data points follow
   1.79420E+00  4.82990E+00  3.06904E-01  5.38462E+00 -5.46524E-01  6.69572E+00  5.08385E+00  3.98349E+00  2.45603E+00  7.13817E+00
   5.96007E+00  6.15637E+00  8.30068E+00  8.31693E+00  9.75443E+00  1.26427E+01  8.75967E+00  1.19836E+01  8.68239E+00  1.01055E+01
   1.02769E+01  8.31047E+00  1.24962E+01  1.34139E+01  1.01833E+01  1.57806E+01  9.20339E+00  1.38903E+01  1.47019E+01  1.02802E+01
   1.16558E+01  1.09764E+01  1.05030E+01  1.37423E+01  1.77997E+01  1.47232E+01  1.43544E+01  1.39944E+01  1.18353E+01  1.29651E+01
   1.40623E+01  1.74130E+01  1.32591E+01  1.60324E+01  1.42537E+01  1.39777E+01  1.41623E+01  1.57011E+01  1.19420E+01  1.41175E+01
   1.46727E+01  1.36224E+01  1.40917E+01  1.83837E+01  1.34688E+01  1.39530E+01  8.35768E+00  1.38236E+01  1.58925E+01  1.69530E+01
   1.35576E+01  1.12899E+01  1.31125E+01  1.22546E+01  1.27660E+01  1.34060E+01  7.15780E+00  1.31095E+01  9.93705E+00  1.26112E+01
   8.82528E+00  1.21101E+01  8.03112E+00  1.18390E+01  1.33222E+01  1.05146E+01  7.86489E+00  1.03416E+01  6.81869E+00  9.56295E+00
   6.88184E+00  1.07851E+01  7.29103E+00  9.07434E+00  8.10076E+00  8.27014E+00  7.73676E+00  6.69123E+00  3.78452E+00  8.56495E+00
   7.93190E+00  1.22303E+01  7.25194E+00  5.19610E+00  3.59990E+00  5.09000E+00  7.40294E+00  4.20954E+00  5.14957E-03  1.04210E+01
   7.53804E+00  5.65595E+00  3.52511E+00  5.68562E+00  5.90645E+00  3.96071E+00  4.95016E+00  1.28043E+00  4.28052E+00  5.11260E+00
   1.86813E+00  5.32108E+00  4.54435E+00  7.95340E+00  5.87325E+00  4.40197E+00  5.13370E+00  8.44991E+00  4.73118E+00  5.72412E+00
   5.99107E+00  3.88612E+00  7.66347E+00  7.20167E+00  6.37772E+00  1.04734E+01  7.28137E+00  8.67061E+00  9.33973E+00  7.61549E+00
   7.56993E+00  6.14632E+00  5.70185E+00  1.21296E+01  8.48968E+00  1.01363E+01  8.39852E+00  1.00085E+01  8.74415E+00  1.06476E+01
   8.02907E+00  8.21710E+00  1.00276E+01  5.92365E+00  6.10180E+00  1.22626E+01  1.08136E+01  9.12823E+00  9.97148E+00  1.13353E+01
   8.82123E+00  1.04569E+01  7.40444E+00  7.58724E+00  8.09948E+00  7.73698E+00  8.51147E+00  1.08503E+01  1.35066E+01  9.83440E+00
   1.05694E+01  1.19244E+01  1.13864E+01  1.20671E+01  1.62662E+01  1.41949E+01  1.61129E+01  1.32395E+01  1.33573E+01  1.65910E+01
   1.19498E+01  1.54245E+01  1.81101E+01  1.81941E+01  1.60822E+01  2.06119E+01  1.67731E+01  1.51374E+01  2.06065E+01  1.85913E+01
   1.96838E+01  2.34876E+01  2.13569E+01  2.37331E+01  2.40202E+01  2.11704E+01  2.28079E+01  2.43331E+01  2.25319E+01  2.36376E+01
   2.31518E+01  2.36700E+01  2.43492E+01  1.93612E+01  2.59400E+01  1.98772E+01  1.87035E+01  2.01304E+01  1.83729E+01  1.74223E+01
   1.64993E+01  1.57075E+01  1.35958E+01  1.55423E+01  8.16966E+00  7.09849E+00  5.36835E+00  4.15680E+00 -8.39011E-01  1.40813E+00
  -3.09605E+00 -4.19300E+00 -5.37282E+00 -7.62277E+00 -1.12841E+01 -1.28230E+01 -1.65300E+01 -1.42518E+01 -1.43127E+01 -1.20803E+01
  -1.95038E+01 -2.00776E+01 -2.19329E+01 -2.22647E+01 -2.96993E+01 -2.84189E+01 -3.02562E+01 -3.19709E+01 -3.39350E+01 -3.64056E+01
  -3.61520E+01 -3.58244E+01 -3.68048E+01 -3.89647E+01 -3.88751E+01 -3.88390E+01 -4.17161E+01 -4.14305E+01 -4.14285E+01 -4.11695E+01
  -4.34404E+01 -4.41050E+01 -3.96737E+01 -4.24564E+01 -3.97014E+01 -3.63686E+01 -3.94297E+01 -4.03190E+01 -4.02037E+01 -3.82998E+01
  -3.48558E+01 -3.90338E+01 -3.58000E+01 -3.43931E+01 -3.49297E+01 -3.62340E+01 -3.48695E+01 -3.12391E+01 -3.37242E+01 -3.35613E+01
  -3.30657E+01 -3.46315E+01 -2.25709E+01 -2.75546E+01 -2.52754E+01 -2.37837E+01 -2.35972E+01 -2.48799E+01 -2.62411E+01 -2.32565E+01
  -2.28588E+01 -2.57281E+01 -1.90108E+01 -1.84899E+01 -1.84207E+01 -2.09867E+01 -1.83234E+01 -1.80121E+01 -1.34602E+01 -1.69311E+01
  -1.38528E+01 -1.45864E+01 -1.36942E+01 -1.09430E+01 -1.23541E+01 -1.12937E+01 -1.04211E+01 -1.40332E+01 -1.41939E+01 -1.27994E+01
  -1.05066E+01 -1.19364E+01 -1.19369E+01 -1.10316E+01 -1.14914E+01 -1.25303E+01 -6.91284E+00 -1.21498E+01 -1.25327E+01 -8.04404E+00
  -9.94999E+00 -1.16042E+01 -8.67795E+00 -9.17903E+00 -8.86019E+00 -8.80703E+00 -1.07665E+01 -1.45014E+01 -8.04512E+00 -7.11895E+00
  -1.06536E+01 -1.00991E+01 -7.27973E+00 -8.65943E+00 -7.13236E+00 -6.11869E+00 -8.67265E+00 -7.61649E+00 -6.45856E+00 -9.09769E+00
  -6.57645E+00 -2.96555E+00 -2.75245E+00 -3.86955E+00  3.29067E+00  4.46051E+00  5.44555E+00  8.69058E+00  1.05168E+01  1.38201E+01
   1.73518E+01  2.21099E+01  2.60690E+01  2.61615E+01  3.40876E+01  3.36498E+01  3.89255E+01  3.65434E+01  3.98387E+01  3.75069E+01
   3.92552E+01  4.03689E+01  4.13018E+01  4.55212E+01  4.74939E+01  4.59235E+01  5.02008E+01  4.83871E+01  5.24735E+01  5.23670E+01
   5.27979E+01  5.12283E+01  4.91623E+01  4.70634E+01  4.46108E+01  4.35952E+01  4.09770E+01  4.00613E+01  4.14947E+01  3.64189E+01
   4.07810E+01  3.73675E+01  3.76493E+01  3.62908E+01  3.59373E+01  3.40962E+01  3.38165E+01  3.03566E+01  2.70445E+01  2.74739E+01
   2.55234E+01  2.78560E+01  2.49019E+01  2.57091E+01  1.92185E+01  2.36532E+01  2.02839E+01  1.82716E+01  1.59255E+01  1.53140E+01
   1.34667E+01  1.57429E+01  1.62701E+01  1.58426E+01  1.40794E+01  1.84320E+01  1.04823E+01  1.27919E+01  9.46870E+00  7.74583E+00
   9.17651E+00  8.30577E+00  6.05591E+00  3.17278E+00  4.19464E+00  2.47479E+00  6.12865E+00  4.32412E+00  3.06882E+00  1.34433E+00
  -9.13297E-01  2.78294E+00 -4.99177E-01  5.10490E-01 -1.92247E+00  3.01941E+00 -4.40861E+00 -2.00309E+00 -3.05378E+00 -2.75346E+00
  -2.20638E+00 -2.37378E+00 -4.28884E+00 -4.02910E+00 -2.87248E+00 -5.01237E+00 -3.49087E+00 -2.58024E+00 -3.90125E+00 -4.09802E+00
  -4.97696E+00 -2.38268E+00 -7.74824E+00 -6.72161E+00 -6.28293E+00 -6.96815E+00 -9.20052E+00 -9.95959E+00 -7.45787E+00 -5.72502E+00
  -6.43825E+00 -7.47738E+00 -9.62991E+00 -8.37467E+00 -1.05215E+01 -8.43906E+00 -9.26897E+00 -1.00336E+01 -3.26774E+00 -1.02029E+01
  -1.15307E+01 -8.97610E+00 -9.66623E+00 -1.19604E+01 -9.70498E+00 -1.45443E+01 -1.34527E+01 -1.31500E+01 -1.10016E+01 -1.11896E+01
  -1.23320E+01 -1.25908E+01 -1.19776E+01 -1.27883E+01 -1.12574E+01 -1.24408E+01 -1.26381E+01 -1.12494E+01 -1.30367E+01 -1.44636E+01
  -1.28661E+01 -1.35525E+01 -1.29656E+01 -1.28935E+01 -1.10088E+01 -1.27439E+01 -1.64150E+01 -1.16051E+01 -1.32568E+01 -1.39010E+01
  -1.07611E+01 -1.08261E+01 -1.15466E+01 -1.17718E+01 -1.30361E+01 -1.21260E+01 -1.35801E+01 -1.37695E+01 -1.18665E+01 -1.22607E+01
  -1.32383E+01 -1.09496E+01 -1.40006E+01 -1.17088E+01 -1.10749E+01 -1.48334E+01 -1.18176E+01 -1.15835E+01 -9.05780E+00 -1.08244E+01
  -1.21225E+01 -1.32987E+01 -7.84154E+00 -6.72686E+00 -1.03320E+01 -9.63348E+00 -1.17119E+01 -1.01830E+01
 NY points of the fit to the data follow
   1.37486E+00  2.98604E+00  1.51420E+00  3.05782E+00  2.50127E+00  3.87228E+00  3.35471E+00  4.66742E+00  3.97212E+00  5.07242E+00
   3.15416E+00  2.76925E+00  1.38505E+00  1.42291E+00  1.28195E+00  3.41286E+00  4.37115E+00  7.33801E+00  7.89806E+00  9.51637E+00
   9.25072E+00  1.05220E+01  1.06055E+01  1.30537E+01  1.29479E+01  1.53195E+01  1.43390E+01  1.61223E+01  1.45630E+01  1.62570E+01
   1.49198E+01  1.72652E+01  1.67439E+01  1.98991E+01  1.90071E+01  2.13726E+01  1.95321E+01  2.10509E+01  1.89256E+01  2.02915E+01
   1.83149E+01  2.00497E+01  1.79051E+01  1.92253E+01  1.68827E+01  1.78653E+01  1.62937E+01  1.79786E+01  1.70937E+01  1.96171E+01
   1.73463E+01  1.75420E+01  1.40898E+01  1.28771E+01  1.01316E+01  1.08661E+01  1.05358E+01  1.29125E+01  1.23728E+01  1.35872E+01
   1.18422E+01  1.13206E+01  9.54108E+00  1.01049E+01  8.71620E+00  9.54095E+00  8.23720E+00  9.08479E+00  7.66440E+00  8.30635E+00
   6.86568E+00  7.60342E+00  6.82064E+00  8.29911E+00  7.51553E+00  8.63306E+00  7.57537E+00  8.47430E+00  7.33779E+00  8.14066E+00
   6.94725E+00  7.67320E+00  6.52887E+00  6.91722E+00  6.08558E+00  6.52928E+00  6.01297E+00  6.42398E+00  5.90446E+00  6.05189E+00
   5.49078E+00  5.44179E+00  5.01021E+00  4.93104E+00  4.73217E+00  4.69730E+00  4.70531E+00  4.93226E+00  5.12516E+00  5.39287E+00
   5.68344E+00  5.94336E+00  6.34766E+00  6.60340E+00  7.09300E+00  7.34380E+00  7.87991E+00  8.13207E+00  8.74292E+00  9.04417E+00
   9.75580E+00  1.00724E+01  1.06037E+01  1.07581E+01  1.10740E+01  1.12043E+01  1.14504E+01  1.16149E+01  1.18348E+01  1.21465E+01
   1.23723E+01  1.28266E+01  1.30883E+01  1.34361E+01  1.36051E+01  1.38446E+01  1.39624E+01  1.40914E+01  1.41482E+01  1.41663E+01
   1.41976E+01  1.42006E+01  1.42051E+01  1.41824E+01  1.41587E+01  1.41126E+01  1.40654E+01  1.40058E+01  1.39405E+01  1.38719E+01
   1.37893E+01  1.37028E+01  1.36028E+01  1.34909E+01  1.33651E+01  1.32263E+01  1.30761E+01  1.29144E+01  1.27427E+01  1.25599E+01
   1.23685E+01  1.21667E+01  1.19582E+01  1.17414E+01  1.15143E+01  1.12795E+01  1.10342E+01  1.07842E+01  1.05269E+01  1.02617E+01
   9.98852E+00  9.70630E+00  9.41540E+00  9.11292E+00  8.80363E+00  8.48963E+00  8.16795E+00  7.84354E+00  7.50800E+00  7.16828E+00
   6.81696E+00  6.47775E+00  6.12232E+00  5.78655E+00  5.42676E+00  5.09737E+00  4.74173E+00  4.42696E+00  4.08126E+00  3.78806E+00
   3.47559E+00  3.24107E+00  2.99663E+00  2.81829E+00  2.65361E+00  2.57282E+00  2.56334E+00  2.69974E+00  3.01886E+00  3.45657E+00
   3.52090E+00  3.88727E+00  3.61483E+00  2.93080E+00  2.36087E+00  1.12791E+00  9.80202E-01  6.24973E-01  2.61227E+00  5.56508E+00
   8.00689E+00  1.08967E+01  1.23509E+01  1.41988E+01  1.33678E+01  1.22857E+01  8.64395E+00  7.39212E+00  3.68775E+00  2.14056E+00
  -1.46904E+00 -3.57966E+00 -6.92935E+00 -8.67279E+00 -1.14235E+01 -1.22478E+01 -1.40326E+01 -1.41816E+01 -1.56169E+01 -1.63449E+01
  -1.81197E+01 -1.97808E+01 -2.17476E+01 -2.41151E+01 -2.60808E+01 -2.84535E+01 -3.01139E+01 -3.18135E+01 -3.20264E+01 -3.24684E+01
  -3.23213E+01 -3.11783E+01 -3.07973E+01 -3.03010E+01 -3.11477E+01 -3.21579E+01 -3.32173E+01 -3.39139E+01 -3.27406E+01 -2.85475E+01
  -2.61148E+01 -2.12381E+01 -1.88586E+01 -1.39004E+01 -1.34258E+01 -1.24901E+01 -1.60329E+01 -1.56100E+01 -1.91301E+01 -1.90021E+01
  -2.15793E+01 -2.10932E+01 -2.24746E+01 -2.15982E+01 -2.23767E+01 -2.21135E+01 -2.23308E+01 -2.25759E+01 -2.22171E+01 -2.26704E+01
  -2.13565E+01 -2.16318E+01 -1.89829E+01 -1.97044E+01 -1.69232E+01 -1.85122E+01 -1.67161E+01 -1.87001E+01 -1.65532E+01 -1.81392E+01
  -1.57817E+01 -1.63790E+01 -1.38818E+01 -1.48512E+01 -1.37082E+01 -1.53213E+01 -1.45100E+01 -1.56192E+01 -1.47710E+01 -1.52988E+01
  -1.47306E+01 -1.59665E+01 -1.62603E+01 -1.74969E+01 -1.77394E+01 -1.86185E+01 -1.87978E+01 -1.88785E+01 -1.92108E+01 -1.92977E+01
  -1.94919E+01 -1.94350E+01 -1.96122E+01 -1.95936E+01 -1.99591E+01 -2.03053E+01 -2.07625E+01 -2.09838E+01 -2.12436E+01 -2.13068E+01
  -2.13578E+01 -2.12412E+01 -2.10555E+01 -2.08300E+01 -2.05426E+01 -2.01526E+01 -1.96341E+01 -1.88855E+01 -1.76393E+01 -1.54905E+01
  -1.43144E+01 -1.23461E+01 -1.14802E+01 -9.76793E+00 -9.21133E+00 -7.88342E+00 -8.23413E+00 -6.52428E+00 -6.12566E+00 -4.33384E+00
  -3.42841E+00 -1.79962E+00 -4.88670E-01  1.22686E+00  3.17832E+00  5.09906E+00  7.78111E+00  9.86131E+00  1.35901E+01  1.71090E+01
   2.10086E+01  2.32641E+01  2.68789E+01  2.79502E+01  3.13211E+01  3.10519E+01  3.34810E+01  3.35782E+01  3.66126E+01  3.63509E+01
   3.94450E+01  3.87466E+01  4.16799E+01  4.11066E+01  4.39913E+01  4.32620E+01  4.60325E+01  4.50231E+01  4.79323E+01  4.79236E+01
   5.00900E+01  4.91478E+01  5.05884E+01  4.91578E+01  4.96661E+01  4.74333E+01  4.59780E+01  4.35448E+01  4.26274E+01  4.00799E+01
   3.93095E+01  3.70393E+01  3.64615E+01  3.44897E+01  3.39820E+01  3.14064E+01  3.06713E+01  2.77726E+01  2.74453E+01  2.76393E+01
   2.79030E+01  2.78601E+01  2.82705E+01  2.74382E+01  2.73133E+01  2.45303E+01  2.20515E+01  2.00227E+01  1.82720E+01  1.67147E+01
   1.53045E+01  1.40131E+01  1.28219E+01  1.17184E+01  1.06934E+01  9.74018E+00  8.85288E+00  8.02690E+00  7.25844E+00  6.54440E+00
   5.88196E+00  5.26834E+00  4.70066E+00  4.17612E+00  3.69197E+00  3.24550E+00  2.83380E+00  2.45370E+00  2.10185E+00  1.77484E+00
   1.46935E+00  1.18204E+00  9.09476E-01  6.48194E-01  3.94859E-01  1.46387E-01 -9.99588E-02 -3.46691E-01 -5.96078E-01 -8.50109E-01
  -1.11032E+00 -1.37783E+00 -1.65328E+00 -1.93705E+00 -2.22922E+00 -2.52959E+00 -2.83762E+00 -3.15243E+00 -3.47299E+00 -3.79820E+00
  -4.12691E+00 -4.45790E+00 -4.78983E+00 -5.12137E+00 -5.45126E+00 -5.77839E+00 -6.10173E+00 -6.42031E+00 -6.73317E+00 -7.03954E+00
  -7.33870E+00 -7.63021E+00 -7.91354E+00 -8.18842E+00 -8.45438E+00 -8.71130E+00 -8.95893E+00 -9.19737E+00 -9.42646E+00 -9.64630E+00
  -9.85675E+00 -1.00580E+01 -1.02501E+01 -1.04332E+01 -1.06074E+01 -1.07730E+01 -1.09298E+01 -1.10782E+01 -1.12183E+01 -1.13503E+01
  -1.14743E+01 -1.15905E+01 -1.16990E+01 -1.18000E+01 -1.18937E+01 -1.19802E+01 -1.20597E+01 -1.21323E+01 -1.21981E+01 -1.22573E+01
  -1.23101E+01 -1.23565E+01 -1.23968E+01 -1.24310E+01 -1.24592E+01 -1.24817E+01 -1.24985E+01 -1.25099E+01 -1.25158E+01 -1.25164E+01
  -1.25119E+01 -1.25025E+01 -1.24882E+01 -1.24693E+01 -1.24457E+01 -1.24177E+01 -1.23855E+01 -1.23493E+01 -1.23092E+01 -1.22654E+01
  -1.22180E+01 -1.21674E+01 -1.21137E+01 -1.20573E+01 -1.19983E+01 -1.19370E+01 -1.18739E+01 -1.18093E+01 -1.17436E+01 -1.16774E+01
  -1.16111E+01 -1.15455E+01 -1.14812E+01 -1.14192E+01 -1.13606E+01 -1.13068E+01 -1.12592E+01 -1.12201E+01
 NY background values follow
    -2.702E+01   -2.681E+01   -2.659E+01   -2.636E+01   -2.613E+01   -2.589E+01   -2.564E+01   -2.539E+01   -2.513E+01   -2.486E+01
    -2.459E+01   -2.431E+01   -2.402E+01   -2.373E+01   -2.343E+01   -2.313E+01   -2.282E+01   -2.250E+01   -2.218E+01   -2.185E+01
    -2.152E+01   -2.119E+01   -2.084E+01   -2.050E+01   -2.014E+01   -1.979E+01   -1.942E+01   -1.906E+01   -1.869E+01   -1.831E+01
    -1.793E+01   -1.755E+01   -1.716E+01   -1.677E+01   -1.637E+01   -1.598E+01   -1.557E+01   -1.517E+01   -1.476E+01   -1.435E+01
    -1.393E+01   -1.351E+01   -1.309E+01   -1.267E+01   -1.224E+01   -1.182E+01   -1.139E+01   -1.096E+01   -1.052E+01   -1.009E+01
    -9.649E+00   -9.210E+00   -8.771E+00   -8.330E+00   -7.888E+00   -7.446E+00   -7.003E+00   -6.559E+00   -6.115E+00   -5.671E+00
    -5.226E+00   -4.782E+00   -4.338E+00   -3.895E+00   -3.452E+00   -3.010E+00   -2.568E+00   -2.128E+00   -1.689E+00   -1.252E+00
    -8.155E-01   -3.812E-01    5.129E-02    4.817E-01    9.099E-01    1.336E+00    1.759E+00    2.180E+00    2.598E+00    3.012E+00
     3.424E+00    3.832E+00    4.237E+00    4.637E+00    5.034E+00    5.427E+00    5.816E+00    6.201E+00    6.581E+00    6.956E+00
     7.326E+00    7.691E+00    8.051E+00    8.406E+00    8.755E+00    9.098E+00    9.435E+00    9.766E+00    1.009E+01    1.041E+01
     1.072E+01    1.103E+01    1.133E+01    1.162E+01    1.190E+01    1.218E+01    1.245E+01    1.271E+01    1.296E+01    1.320E+01
     1.344E+01    1.367E+01    1.389E+01    1.410E+01    1.430E+01    1.449E+01    1.468E+01    1.485E+01    1.501E+01    1.517E+01
     1.531E+01    1.545E+01    1.557E+01    1.568E+01    1.579E+01    1.588E+01    1.596E+01    1.603E+01    1.609E+01    1.614E+01
     1.618E+01    1.621E+01    1.623E+01    1.624E+01    1.623E+01    1.622E+01    1.620E+01    1.617E+01    1.613E+01    1.608E+01
     1.602E+01    1.595E+01    1.587E+01    1.579E+01    1.569E+01    1.559E+01    1.547E+01    1.535E+01    1.522E+01    1.508E+01
     1.493E+01    1.478E+01    1.461E+01    1.444E+01    1.426E+01    1.408E+01    1.388E+01    1.368E+01    1.347E+01    1.325E+01
     1.303E+01    1.280E+01    1.256E+01    1.231E+01    1.206E+01    1.181E+01    1.154E+01    1.127E+01    1.100E+01    1.071E+01
     1.043E+01    1.013E+01    9.833E+00    9.528E+00    9.218E+00    8.903E+00    8.583E+00    8.257E+00    7.928E+00    7.593E+00
     7.254E+00    6.911E+00    6.563E+00    6.211E+00    5.856E+00    5.496E+00    5.133E+00    4.766E+00    4.396E+00    4.023E+00
     3.646E+00    3.267E+00    2.884E+00    2.499E+00    2.112E+00    1.722E+00    1.329E+00    9.345E-01    5.379E-01    1.393E-01
    -2.609E-01   -6.628E-01   -1.066E+00   -1.471E+00   -1.877E+00   -2.284E+00   -2.692E+00   -3.101E+00   -3.510E+00   -3.920E+00
    -4.330E+00   -4.741E+00   -5.151E+00   -5.562E+00   -5.972E+00   -6.382E+00   -6.792E+00   -7.201E+00   -7.609E+00   -8.017E+00
    -8.424E+00   -8.829E+00   -9.233E+00   -9.636E+00   -1.004E+01   -1.044E+01   -1.084E+01   -1.123E+01   -1.163E+01   -1.202E+01
    -1.241E+01   -1.279E+01   -1.318E+01   -1.356E+01   -1.394E+01   -1.432E+01   -1.469E+01   -1.506E+01   -1.543E+01   -1.579E+01
    -1.615E+01   -1.650E+01   -1.686E+01   -1.721E+01   -1.755E+01   -1.789E+01   -1.823E+01   -1.856E+01   -1.889E+01   -1.921E+01
    -1.953E+01   -1.984E+01   -2.015E+01   -2.045E+01   -2.075E+01   -2.105E+01   -2.134E+01   -2.163E+01   -2.191E+01   -2.219E+01
    -2.246E+01   -2.273E+01   -2.300E+01   -2.326E+01   -2.351E+01   -2.377E+01   -2.402E+01   -2.426E+01   -2.451E+01   -2.474E+01
    -2.498E+01   -2.521E+01   -2.543E+01   -2.566E+01   -2.588E+01   -2.609E+01   -2.631E+01   -2.651E+01   -2.672E+01   -2.692E+01
    -2.712E+01   -2.732E+01   -2.751E+01   -2.770E+01   -2.788E+01   -2.806E+01   -2.824E+01   -2.842E+01   -2.859E+01   -2.876E+01
    -2.893E+01   -2.909E+01   -2.925E+01   -2.941E+01   -2.957E+01   -2.972E+01   -2.987E+01   -3.002E+01   -3.016E+01   -3.031E+01
    -3.045E+01   -3.058E+01   -3.072E+01   -3.085E+01   -3.098E+01   -3.111E+01   -3.123E+01   -3.135E+01   -3.148E+01   -3.159E+01
    -3.171E+01   -3.182E+01   -3.194E+01   -3.204E+01   -3.215E+01   -3.226E+01   -3.236E+01   -3.246E+01   -3.256E+01   -3.266E+01
    -3.276E+01   -3.285E+01   -3.294E+01   -3.303E+01   -3.312E+01   -3.321E+01   -3.330E+01   -3.338E+01   -3.346E+01   -3.354E+01
    -3.362E+01   -3.370E+01   -3.378E+01   -3.385E+01   -3.392E+01   -3.400E+01   -3.407E+01   -3.414E+01   -3.420E+01   -3.427E+01
    -3.433E+01   -3.440E+01   -3.446E+01   -3.452E+01   -3.458E+01   -3.464E+01   -3.470E+01   -3.476E+01   -3.481E+01   -3.487E+01
    -3.492E+01   -3.497E+01   -3.502E+01   -3.508E+01   -3.512E+01   -3.517E+01   -3.522E+01   -3.527E+01   -3.531E+01   -3.536E+01
    -3.540E+01   -3.544E+01   -3.549E+01   -3.553E+01   -3.557E+01   -3.561E+01   -3.565E+01   -3.568E+01   -3.572E+01   -3.576E+01
    -3.579E+01   -3.583E+01   -3.586E+01   -3.589E+01   -3.593E+01   -3.596E+01   -3.599E+01   -3.602E+01   -3.605E+01   -3.607E+01
    -3.610E+01   -3.613E+01   -3.615E+01   -3.618E+01   -3.620E+01   -3.622E+01   -3.624E+01   -3.626E+01   -3.627E+01   -3.629E+01
    -3.630E+01   -3.631E+01   -3.633E+01   -3.634E+01   -3.634E+01   -3.635E+01   -3.635E+01   -3.636E+01   -3.636E+01   -3.636E+01
    -3.635E+01   -3.635E+01   -3.634E+01   -3.634E+01   -3.633E+01   -3.631E+01   -3.630E+01   -3.628E+01   -3.626E+01   -3.624E+01
    -3.622E+01   -3.620E+01   -3.617E+01   -3.614E+01   -3.611E+01   -3.607E+01   -3.604E+01   -3.600E+01   -3.596E+01   -3.591E+01
    -3.587E+01   -3.582E+01   -3.577E+01   -3.571E+01   -3.566E+01   -3.560E+01   -3.554E+01   -3.547E+01   -3.540E+01   -3.533E+01
    -3.526E+01   -3.519E+01   -3.511E+01   -3.503E+01   -3.494E+01   -3.486E+01   -3.477E+01   -3.467E+01   -3.458E+01   -3.448E+01
    -3.438E+01   -3.427E+01   -3.417E+01   -3.406E+01   -3.394E+01   -3.383E+01   -3.371E+01   -3.358E+01   -3.346E+01   -3.333E+01
    -3.320E+01   -3.306E+01   -3.292E+01   -3.278E+01   -3.264E+01   -3.249E+01   -3.234E+01   -3.218E+01   -3.202E+01   -3.186E+01
    -3.170E+01   -3.153E+01   -3.136E+01   -3.118E+01   -3.100E+01   -3.082E+01   -3.064E+01   -3.045E+01   -3.026E+01   -3.006E+01
    -2.986E+01   -2.966E+01   -2.946E+01   -2.925E+01   -2.904E+01   -2.882E+01   -2.860E+01   -2.838E+01   -2.816E+01   -2.793E+01
    -2.769E+01   -2.746E+01   -2.722E+01   -2.698E+01   -2.673E+01   -2.648E+01   -2.623E+01   -2.597E+01   -2.571E+01   -2.545E+01
    -2.518E+01   -2.491E+01   -2.464E+01   -2.436E+01   -2.408E+01   -2.380E+01   -2.351E+01   -2.322E+01
 Ala      Conc. = 4.24E+03
