 LCModel (Version 6.3-1L) Copyright: S.W. Provencher.          Ref.: Magn. Reson. Med. 30:672-679 (1993).                
 Slice#1 Row#4 Col#13  K_02_press_1_raw_act
 36 lines in following concentration table = NCONC+1
    Conc.  %SD /Cr+PCr  Metabolite                                         
    0.000 999%   0.000 Ala                                                 
   25.550  54%   0.147 Asp                                                 
    0.000 999%   0.000 Cr                                                  
  173.772  85%   1.000 PCr                                                 
   15.334  54% 8.8E-02 GABA                                                
   15.335  54% 8.8E-02 Glc                                                 
  947.639  97%   5.453 Gln                                                 
 3.65E+03  38%  20.999 Glu                                                 
    0.000 999%   0.000 GPC                                                 
  112.386  45%   0.647 PCh                                                 
    0.000 999%   0.000 GSH                                                 
  765.760  70%   4.407 Ins                                                 
 4.44E+03  37%  25.567 Lac                                                 
    0.000 999%   0.000 NAA                                                 
    0.000 999%   0.000 NAAG                                                
    5.126  54% 3.0E-02 Scyllo                                              
   25.593  54%   0.147 Tau                                                 
   17.364  86%   0.100 -CrCH2                                              
  112.386  45%   0.647 GPC+PCh                                             
    0.000 999%   0.000 NAA+NAAG                                            
  173.772  85%   1.000 Cr+PCr                                              
 4.60E+03  39%  26.453 Glu+Gln                                             
 4.08E+04  12% 234.752 Lip13a                                              
    0.000 999%   0.000 Lip13b                                              
 5.14E+03  23%  29.555 Lip09                                               
 3.48E+03  24%  20.051 MM09                                                
 1.15E+03  85%   6.642-Lip20                                               
 1.84E+03  50%  10.562 MM20                                                
  959.135  59%   5.520 MM12                                                
 2.37E+04   8% 136.465+MM14                                                
 1.25E+04  11%  71.997+MM17                                                
 4.08E+04  12% 234.752 Lip13a+Lip13b                                       
 6.55E+04   7% 376.736 MM14+Lip13a+Lip13b+MM12                             
 8.62E+03  15%  49.607 MM09+Lip09                                          
 2.99E+03  26%  17.204 MM20+Lip20                                          
   6 lines in following misc. output table
  FWHM = 0.199 ppm    S/N =  19                                            
  Data shift = 0.245 ppm                                                   
  Ph: -99 deg     -42.2 deg/ppm                                            
  alphaB,S = 4.1E+01,   2.2E+02                                            
    6 spline knots.   Ns = 9(2)                                            
  (13) 2 infls.   ( 8) 1 extrs.                                            
  498 points on ppm-axis = NY
      4.000000     3.992357     3.984714     3.977070     3.969427     3.961784     3.954141     3.946497     3.938854     3.931211
      3.923568     3.915925     3.908281     3.900638     3.892995     3.885352     3.877708     3.870065     3.862422     3.854779
      3.847136     3.839492     3.831849     3.824206     3.816563     3.808919     3.801276     3.793633     3.785990     3.778347
      3.770703     3.763060     3.755417     3.747774     3.740130     3.732487     3.724844     3.717201     3.709558     3.701914
      3.694271     3.686628     3.678985     3.671341     3.663698     3.656055     3.648412     3.640769     3.633125     3.625482
      3.617839     3.610196     3.602552     3.594909     3.587266     3.579623     3.571980     3.564336     3.556693     3.549050
      3.541407     3.533763     3.526120     3.518477     3.510834     3.503191     3.495547     3.487904     3.480261     3.472618
      3.464974     3.457331     3.449688     3.442045     3.434402     3.426758     3.419115     3.411472     3.403829     3.396185
      3.388542     3.380899     3.373256     3.365613     3.357969     3.350326     3.342683     3.335040     3.327396     3.319753
      3.312110     3.304467     3.296824     3.289180     3.281537     3.273894     3.266251     3.258607     3.250964     3.243321
      3.235678     3.228034     3.220391     3.212748     3.205105     3.197462     3.189818     3.182175     3.174532     3.166889
      3.159245     3.151602     3.143959     3.136316     3.128673     3.121029     3.113386     3.105743     3.098100     3.090456
      3.082813     3.075170     3.067527     3.059884     3.052240     3.044597     3.036954     3.029311     3.021667     3.014024
      3.006381     2.998738     2.991095     2.983451     2.975808     2.968165     2.960522     2.952878     2.945235     2.937592
      2.929949     2.922306     2.914662     2.907019     2.899376     2.891733     2.884089     2.876446     2.868803     2.861160
      2.853517     2.845873     2.838230     2.830587     2.822944     2.815300     2.807657     2.800014     2.792371     2.784728
      2.777084     2.769441     2.761798     2.754155     2.746511     2.738868     2.731225     2.723582     2.715939     2.708295
      2.700652     2.693009     2.685366     2.677722     2.670079     2.662436     2.654793     2.647150     2.639506     2.631863
      2.624220     2.616577     2.608933     2.601290     2.593647     2.586004     2.578361     2.570717     2.563074     2.555431
      2.547788     2.540144     2.532501     2.524858     2.517215     2.509572     2.501928     2.494285     2.486642     2.478999
      2.471355     2.463712     2.456069     2.448426     2.440783     2.433139     2.425496     2.417853     2.410210     2.402566
      2.394923     2.387280     2.379637     2.371994     2.364350     2.356707     2.349064     2.341421     2.333777     2.326134
      2.318491     2.310848     2.303205     2.295561     2.287918     2.280275     2.272632     2.264988     2.257345     2.249702
      2.242059     2.234416     2.226772     2.219129     2.211486     2.203843     2.196199     2.188556     2.180913     2.173270
      2.165627     2.157983     2.150340     2.142697     2.135054     2.127410     2.119767     2.112124     2.104481     2.096838
      2.089194     2.081551     2.073908     2.066265     2.058621     2.050978     2.043335     2.035692     2.028049     2.020405
      2.012762     2.005119     1.997476     1.989833     1.982190     1.974546     1.966903     1.959260     1.951617     1.943974
      1.936331     1.928688     1.921045     1.913402     1.905759     1.898115     1.890472     1.882829     1.875186     1.867543
      1.859900     1.852257     1.844614     1.836971     1.829327     1.821684     1.814041     1.806398     1.798755     1.791112
      1.783469     1.775826     1.768183     1.760540     1.752896     1.745253     1.737610     1.729967     1.722324     1.714681
      1.707038     1.699395     1.691752     1.684108     1.676465     1.668822     1.661179     1.653536     1.645893     1.638250
      1.630607     1.622964     1.615321     1.607677     1.600034     1.592391     1.584748     1.577105     1.569462     1.561819
      1.554176     1.546533     1.538890     1.531246     1.523603     1.515960     1.508317     1.500674     1.493031     1.485388
      1.477745     1.470102     1.462458     1.454815     1.447172     1.439529     1.431886     1.424243     1.416600     1.408957
      1.401314     1.393671     1.386027     1.378384     1.370741     1.363098     1.355455     1.347812     1.340169     1.332526
      1.324883     1.317240     1.309596     1.301953     1.294310     1.286667     1.279024     1.271381     1.263738     1.256095
      1.248452     1.240808     1.233165     1.225522     1.217879     1.210236     1.202593     1.194950     1.187307     1.179664
      1.172021     1.164377     1.156734     1.149091     1.141448     1.133805     1.126162     1.118519     1.110876     1.103233
      1.095590     1.087946     1.080303     1.072660     1.065017     1.057374     1.049731     1.042088     1.034445     1.026802
      1.019158     1.011515     1.003872     0.996229     0.988586     0.980943     0.973300     0.965657     0.958014     0.950371
      0.942727     0.935084     0.927441     0.919798     0.912155     0.904512     0.896869     0.889226     0.881583     0.873940
      0.866296     0.858653     0.851010     0.843367     0.835724     0.828081     0.820438     0.812795     0.805152     0.797508
      0.789865     0.782222     0.774579     0.766936     0.759293     0.751650     0.744007     0.736364     0.728721     0.721077
      0.713434     0.705791     0.698148     0.690505     0.682862     0.675219     0.667576     0.659933     0.652290     0.644646
      0.637003     0.629360     0.621717     0.614074     0.606431     0.598788     0.591145     0.583502     0.575858     0.568215
      0.560572     0.552929     0.545286     0.537643     0.530000     0.522357     0.514714     0.507071     0.499427     0.491784
      0.484141     0.476498     0.468855     0.461212     0.453569     0.445925     0.438282     0.430639     0.422996     0.415353
      0.407710     0.400067     0.392424     0.384780     0.377137     0.369494     0.361851     0.354208     0.346565     0.338922
      0.331278     0.323635     0.315992     0.308349     0.300706     0.293063     0.285420     0.277777     0.270133     0.262490
      0.254847     0.247204     0.239561     0.231918     0.224275     0.216631     0.208988     0.201345
 NY phased data points follow
   1.98524E+01  1.69999E+01  1.92143E+01  2.08580E+01  1.92006E+01  1.80529E+01  2.04568E+01  1.98567E+01  1.99311E+01  1.88976E+01
   1.92204E+01  2.31230E+01  1.95218E+01  2.24454E+01  1.93528E+01  2.06095E+01  1.89551E+01  2.16785E+01  1.85270E+01  2.28682E+01
   1.95051E+01  1.92438E+01  1.87592E+01  1.97593E+01  2.18807E+01  2.19968E+01  2.04991E+01  1.63958E+01  2.09394E+01  2.01970E+01
   1.70381E+01  2.05370E+01  2.08583E+01  1.99994E+01  2.45016E+01  1.58124E+01  1.90110E+01  2.12903E+01  2.19476E+01  2.39733E+01
   2.41859E+01  2.49712E+01  1.91273E+01  2.18797E+01  2.27411E+01  1.95990E+01  2.08589E+01  1.96203E+01  2.22966E+01  2.12263E+01
   2.13635E+01  2.10865E+01  1.98987E+01  1.92380E+01  2.12707E+01  2.07255E+01  2.01880E+01  1.99318E+01  2.12294E+01  2.35594E+01
   1.95315E+01  2.14296E+01  2.05500E+01  2.33828E+01  2.12186E+01  2.11319E+01  2.04150E+01  2.02982E+01  2.04316E+01  2.54513E+01
   2.29728E+01  2.35037E+01  2.12063E+01  2.41845E+01  1.77231E+01  2.24360E+01  1.95256E+01  2.14757E+01  2.23785E+01  2.18057E+01
   2.15550E+01  2.21286E+01  2.12931E+01  2.18444E+01  1.80908E+01  2.02960E+01  2.10697E+01  2.48289E+01  2.42022E+01  2.44800E+01
   2.49293E+01  2.30116E+01  2.48292E+01  2.02358E+01  2.22093E+01  2.59801E+01  2.46454E+01  2.59258E+01  2.35077E+01  2.24546E+01
   2.31784E+01  2.30035E+01  2.37715E+01  2.25501E+01  2.57701E+01  2.11447E+01  1.94115E+01  2.34913E+01  2.49197E+01  2.20787E+01
   2.44248E+01  2.47166E+01  2.50829E+01  2.19143E+01  2.16567E+01  2.05494E+01  2.51649E+01  2.67793E+01  2.27749E+01  2.45886E+01
   2.21662E+01  2.57665E+01  2.40069E+01  2.13375E+01  2.39054E+01  2.69180E+01  2.48696E+01  2.50618E+01  2.66096E+01  2.45272E+01
   2.32274E+01  2.45426E+01  2.19655E+01  2.26191E+01  2.76173E+01  2.62299E+01  2.53947E+01  2.77823E+01  2.17846E+01  2.21396E+01
   2.25306E+01  2.42679E+01  2.65200E+01  2.43361E+01  2.45324E+01  2.91907E+01  2.57425E+01  2.51591E+01  2.55817E+01  2.32135E+01
   2.44766E+01  2.32052E+01  2.30346E+01  2.38104E+01  2.55127E+01  2.31613E+01  2.23205E+01  2.54342E+01  2.63164E+01  2.52881E+01
   2.71551E+01  2.30618E+01  2.33048E+01  2.22522E+01  2.67149E+01  2.74504E+01  2.50689E+01  2.64769E+01  2.37246E+01  2.27903E+01
   2.44562E+01  2.80515E+01  2.47276E+01  2.70229E+01  2.63796E+01  2.43814E+01  2.86545E+01  2.76052E+01  2.41599E+01  2.36541E+01
   2.66278E+01  2.59750E+01  2.77210E+01  2.57198E+01  2.76935E+01  2.79217E+01  2.85997E+01  2.66874E+01  2.87910E+01  2.35063E+01
   2.70966E+01  2.35651E+01  2.52848E+01  2.55717E+01  2.81274E+01  2.65171E+01  2.83911E+01  2.65084E+01  2.93285E+01  2.66150E+01
   2.79045E+01  2.45722E+01  2.98608E+01  2.55519E+01  2.65962E+01  2.66071E+01  2.86594E+01  3.01967E+01  2.64845E+01  2.58867E+01
   2.61844E+01  2.74567E+01  2.82185E+01  2.94170E+01  3.10228E+01  2.61014E+01  2.60998E+01  2.76741E+01  3.08909E+01  2.79098E+01
   2.59345E+01  3.15605E+01  3.05589E+01  3.11874E+01  3.30761E+01  2.80992E+01  3.28444E+01  3.70577E+01  3.43565E+01  3.57334E+01
   3.92260E+01  4.14835E+01  4.18101E+01  3.54969E+01  3.98120E+01  3.57910E+01  4.53750E+01  4.46040E+01  4.52549E+01  4.43248E+01
   4.85485E+01  4.57705E+01  4.69125E+01  4.49716E+01  4.23426E+01  4.56653E+01  4.77173E+01  4.45068E+01  5.02749E+01  4.97341E+01
   5.19184E+01  5.26199E+01  5.47991E+01  5.38590E+01  5.20556E+01  5.73418E+01  5.61909E+01  5.67007E+01  5.85803E+01  6.00144E+01
   5.94918E+01  6.19620E+01  6.60587E+01  6.81178E+01  7.05410E+01  7.36159E+01  7.32629E+01  7.90690E+01  7.88799E+01  8.59387E+01
   8.92062E+01  9.23603E+01  9.50990E+01  9.94176E+01  1.06118E+02  1.10859E+02  1.17147E+02  1.17833E+02  1.24087E+02  1.26657E+02
   1.31787E+02  1.29442E+02  1.34803E+02  1.39822E+02  1.42760E+02  1.46401E+02  1.49559E+02  1.53833E+02  1.56349E+02  1.61320E+02
   1.67049E+02  1.69197E+02  1.66926E+02  1.73205E+02  1.75844E+02  1.79372E+02  1.77114E+02  1.84617E+02  1.85524E+02  1.85030E+02
   1.83241E+02  1.87361E+02  1.81411E+02  1.82195E+02  1.79310E+02  1.78295E+02  1.79220E+02  1.76987E+02  1.71916E+02  1.69139E+02
   1.69280E+02  1.71245E+02  1.66554E+02  1.63414E+02  1.56046E+02  1.57446E+02  1.58062E+02  1.51929E+02  1.46649E+02  1.44709E+02
   1.37097E+02  1.35824E+02  1.37696E+02  1.38585E+02  1.33762E+02  1.31848E+02  1.31566E+02  1.29913E+02  1.30176E+02  1.30024E+02
   1.27961E+02  1.31814E+02  1.32984E+02  1.30832E+02  1.27281E+02  1.25695E+02  1.28824E+02  1.22519E+02  1.24478E+02  1.23738E+02
   1.24312E+02  1.22687E+02  1.23046E+02  1.25957E+02  1.22619E+02  1.26278E+02  1.22763E+02  1.24658E+02  1.23993E+02  1.20184E+02
   1.22673E+02  1.19066E+02  1.23872E+02  1.18203E+02  1.17295E+02  1.16030E+02  1.14201E+02  1.16566E+02  1.09866E+02  1.09430E+02
   1.07620E+02  1.07155E+02  1.09677E+02  1.07506E+02  1.08320E+02  1.05768E+02  1.05085E+02  1.03145E+02  1.02304E+02  1.00998E+02
   1.00640E+02  9.84155E+01  9.48269E+01  9.51149E+01  9.54656E+01  9.44180E+01  8.99442E+01  8.99892E+01  9.01831E+01  9.14172E+01
   8.71554E+01  8.92078E+01  8.43974E+01  8.11754E+01  8.28741E+01  8.22444E+01  8.44880E+01  7.88632E+01  7.82610E+01  7.74279E+01
   7.36476E+01  7.61361E+01  6.99233E+01  7.41243E+01  7.29808E+01  7.43106E+01  6.78526E+01  6.79138E+01  6.47536E+01  6.63780E+01
   6.76246E+01  6.41611E+01  6.22298E+01  6.00514E+01  6.64180E+01  5.94743E+01  6.14417E+01  5.99544E+01  5.72257E+01  5.64353E+01
   5.73799E+01  5.62513E+01  5.58737E+01  5.41237E+01  5.34342E+01  5.17445E+01  5.00256E+01  4.98990E+01  5.07130E+01  5.13803E+01
   4.61731E+01  4.85104E+01  4.80864E+01  4.37084E+01  4.33223E+01  4.43687E+01  4.55261E+01  4.26461E+01  4.65242E+01  4.34238E+01
   4.32287E+01  4.32653E+01  3.93981E+01  4.11800E+01  4.11371E+01  4.10145E+01  3.96895E+01  3.75939E+01  3.79686E+01  3.73254E+01
   3.65827E+01  3.73740E+01  3.85974E+01  3.55280E+01  3.68966E+01  3.46733E+01  3.39897E+01  3.30272E+01  3.47567E+01  3.28935E+01
   3.27928E+01  3.12628E+01  3.19048E+01  3.48043E+01  3.10193E+01  2.96159E+01  2.91518E+01  3.21841E+01  3.56942E+01  2.97420E+01
   2.81041E+01  3.05617E+01  2.97944E+01  3.01369E+01  2.63357E+01  2.88825E+01  2.34951E+01  2.79211E+01  2.84607E+01  2.87718E+01
   2.92181E+01  2.75423E+01  2.82006E+01  2.83978E+01  2.70748E+01  2.49807E+01  2.85651E+01  2.61031E+01  2.21910E+01  2.36481E+01
   2.34078E+01  2.60013E+01  2.47596E+01  2.17899E+01  2.33188E+01  2.25479E+01  2.17338E+01  2.69985E+01  2.82926E+01  2.02373E+01
   2.58721E+01  2.09260E+01  2.43813E+01  2.47609E+01  2.08033E+01  2.04984E+01  2.21440E+01  2.27821E+01
 NY points of the fit to the data follow
   1.79877E+01  1.83505E+01  1.83285E+01  1.86430E+01  1.85262E+01  1.88245E+01  1.86831E+01  1.89509E+01  1.89263E+01  1.91517E+01
   1.89770E+01  1.91034E+01  1.87011E+01  1.88187E+01  1.84934E+01  1.89428E+01  1.88248E+01  1.95653E+01  1.94154E+01  2.02302E+01
   1.97544E+01  2.04779E+01  1.99134E+01  2.06051E+01  2.00350E+01  2.06874E+01  2.01307E+01  2.07201E+01  2.02146E+01  2.08161E+01
   2.05146E+01  2.11817E+01  2.09939E+01  2.15718E+01  2.13779E+01  2.18139E+01  2.16764E+01  2.20147E+01  2.19754E+01  2.22338E+01
   2.22423E+01  2.23470E+01  2.23651E+01  2.23227E+01  2.24036E+01  2.22592E+01  2.24192E+01  2.22189E+01  2.24008E+01  2.21463E+01
   2.22802E+01  2.20166E+01  2.21375E+01  2.19096E+01  2.20621E+01  2.19130E+01  2.20308E+01  2.18850E+01  2.19163E+01  2.17529E+01
   2.17178E+01  2.15566E+01  2.15334E+01  2.14093E+01  2.14037E+01  2.13122E+01  2.13286E+01  2.12681E+01  2.13092E+01  2.12608E+01
   2.12854E+01  2.12102E+01  2.11769E+01  2.10635E+01  2.09907E+01  2.08640E+01  2.07773E+01  2.06613E+01  2.05700E+01  2.04878E+01
   2.03772E+01  2.03119E+01  2.01699E+01  2.01068E+01  1.99584E+01  2.01542E+01  2.01734E+01  2.04869E+01  2.06505E+01  2.09545E+01
   2.12138E+01  2.14553E+01  2.17721E+01  2.19296E+01  2.22738E+01  2.23481E+01  2.27013E+01  2.26958E+01  2.30478E+01  2.29993E+01
   2.33537E+01  2.32510E+01  2.35840E+01  2.34154E+01  2.37084E+01  2.34801E+01  2.37313E+01  2.34789E+01  2.37673E+01  2.36651E+01
   2.39311E+01  2.39088E+01  2.40695E+01  2.41022E+01  2.41343E+01  2.42225E+01  2.41332E+01  2.43059E+01  2.41276E+01  2.43816E+01
   2.41391E+01  2.44649E+01  2.41968E+01  2.46018E+01  2.43327E+01  2.47999E+01  2.45433E+01  2.49823E+01  2.47221E+01  2.51177E+01
   2.48626E+01  2.52184E+01  2.49700E+01  2.52765E+01  2.50256E+01  2.52480E+01  2.50065E+01  2.51425E+01  2.49274E+01  2.49870E+01
   2.48195E+01  2.48339E+01  2.47200E+01  2.47115E+01  2.46519E+01  2.46431E+01  2.46326E+01  2.46421E+01  2.46726E+01  2.47180E+01
   2.47603E+01  2.48127E+01  2.48578E+01  2.49112E+01  2.49545E+01  2.50055E+01  2.50444E+01  2.50918E+01  2.51243E+01  2.51658E+01
   2.51902E+01  2.52236E+01  2.52388E+01  2.52632E+01  2.52708E+01  2.52875E+01  2.52912E+01  2.53041E+01  2.53052E+01  2.53159E+01
   2.53196E+01  2.53306E+01  2.53394E+01  2.53531E+01  2.53696E+01  2.53874E+01  2.54004E+01  2.54042E+01  2.54135E+01  2.53650E+01
   2.53898E+01  2.53003E+01  2.53567E+01  2.52699E+01  2.54401E+01  2.54180E+01  2.57147E+01  2.57939E+01  2.62500E+01  2.62938E+01
   2.68311E+01  2.67240E+01  2.70024E+01  2.66568E+01  2.68080E+01  2.64037E+01  2.67065E+01  2.65627E+01  2.75858E+01  2.74683E+01
   2.89738E+01  2.86068E+01  3.02734E+01  2.93634E+01  3.06546E+01  2.91336E+01  3.03140E+01  2.86340E+01  2.98809E+01  2.83662E+01
   2.97245E+01  2.84857E+01  2.99517E+01  2.88891E+01  3.03140E+01  2.94180E+01  3.07735E+01  3.00893E+01  3.13417E+01  3.08865E+01
   3.21662E+01  3.19691E+01  3.31891E+01  3.31760E+01  3.41921E+01  3.41331E+01  3.49955E+01  3.49494E+01  3.57456E+01  3.57907E+01
   3.67454E+01  3.69085E+01  3.79026E+01  3.80897E+01  3.92181E+01  3.94672E+01  4.07458E+01  4.10243E+01  4.24272E+01  4.25996E+01
   4.38604E+01  4.39673E+01  4.51116E+01  4.52984E+01  4.63803E+01  4.67708E+01  4.79212E+01  4.84951E+01  4.96504E+01  5.04074E+01
   5.15028E+01  5.24308E+01  5.34184E+01  5.44697E+01  5.53114E+01  5.65383E+01  5.73263E+01  5.87785E+01  5.96266E+01  6.13466E+01
   6.23624E+01  6.43542E+01  6.56054E+01  6.78819E+01  6.94853E+01  7.20869E+01  7.41786E+01  7.71876E+01  7.98300E+01  8.32574E+01
   8.64742E+01  9.03122E+01  9.40357E+01  9.82500E+01  1.02410E+02  1.06919E+02  1.11368E+02  1.16019E+02  1.20570E+02  1.25178E+02
   1.29631E+02  1.34028E+02  1.38225E+02  1.42265E+02  1.46073E+02  1.49660E+02  1.53019E+02  1.56132E+02  1.59050E+02  1.61751E+02
   1.64293E+02  1.66660E+02  1.68902E+02  1.71007E+02  1.73001E+02  1.74874E+02  1.76620E+02  1.78216E+02  1.79636E+02  1.80849E+02
   1.81815E+02  1.82503E+02  1.82868E+02  1.82887E+02  1.82526E+02  1.81774E+02  1.80617E+02  1.79063E+02  1.77120E+02  1.74820E+02
   1.72191E+02  1.69283E+02  1.66145E+02  1.62834E+02  1.59410E+02  1.55936E+02  1.52470E+02  1.49072E+02  1.45793E+02  1.42683E+02
   1.39784E+02  1.37133E+02  1.34761E+02  1.32694E+02  1.30956E+02  1.29577E+02  1.28599E+02  1.28105E+02  1.28327E+02  1.29604E+02
   1.29908E+02  1.30846E+02  1.30680E+02  1.30429E+02  1.29680E+02  1.27972E+02  1.26662E+02  1.25639E+02  1.24891E+02  1.24568E+02
   1.24372E+02  1.24305E+02  1.24440E+02  1.24478E+02  1.24636E+02  1.24428E+02  1.24447E+02  1.23882E+02  1.23718E+02  1.22790E+02
   1.22424E+02  1.21409E+02  1.20828E+02  1.19529E+02  1.18620E+02  1.16808E+02  1.15746E+02  1.13786E+02  1.12754E+02  1.11084E+02
   1.10302E+02  1.09162E+02  1.08558E+02  1.07473E+02  1.06804E+02  1.05608E+02  1.04755E+02  1.03352E+02  1.02257E+02  1.00764E+02
   9.93610E+01  9.75545E+01  9.60807E+01  9.43181E+01  9.29487E+01  9.14696E+01  9.03285E+01  8.93787E+01  8.85306E+01  8.77435E+01
   8.69888E+01  8.62451E+01  8.54932E+01  8.47178E+01  8.39049E+01  8.30444E+01  8.21275E+01  8.11502E+01  8.01099E+01  7.90087E+01
   7.78501E+01  7.66416E+01  7.53916E+01  7.41112E+01  7.28117E+01  7.15061E+01  7.02057E+01  6.89229E+01  6.76676E+01  6.64495E+01
   6.52752E+01  6.41511E+01  6.30799E+01  6.20640E+01  6.11026E+01  6.01946E+01  5.93363E+01  5.85240E+01  5.77522E+01  5.70157E+01
   5.63080E+01  5.56238E+01  5.49566E+01  5.43014E+01  5.36527E+01  5.30064E+01  5.23582E+01  5.17055E+01  5.10455E+01  5.03769E+01
   4.96983E+01  4.90099E+01  4.83114E+01  4.76042E+01  4.68891E+01  4.61683E+01  4.54431E+01  4.47163E+01  4.39895E+01  4.32658E+01
   4.25470E+01  4.18358E+01  4.11340E+01  4.04441E+01  3.97674E+01  3.91062E+01  3.84612E+01  3.78344E+01  3.72261E+01  3.66376E+01
   3.60690E+01  3.55212E+01  3.49937E+01  3.44871E+01  3.40008E+01  3.35351E+01  3.30890E+01  3.26626E+01  3.22549E+01  3.18657E+01
   3.14940E+01  3.11396E+01  3.08012E+01  3.04789E+01  3.01711E+01  2.98780E+01  2.95982E+01  2.93316E+01  2.90770E+01  2.88344E+01
   2.86026E+01  2.83816E+01  2.81703E+01  2.79687E+01  2.77758E+01  2.75917E+01  2.74153E+01  2.72468E+01  2.70852E+01  2.69308E+01
   2.67826E+01  2.66408E+01  2.65046E+01  2.63742E+01  2.62489E+01  2.61288E+01  2.60133E+01  2.59026E+01  2.57960E+01  2.56938E+01
   2.55953E+01  2.55009E+01  2.54099E+01  2.53226E+01  2.52385E+01  2.51580E+01  2.50803E+01  2.50059E+01  2.49343E+01  2.48659E+01
   2.48002E+01  2.47376E+01  2.46775E+01  2.46207E+01  2.45665E+01  2.45157E+01  2.44679E+01  2.44239E+01
 NY background values follow
     2.757E+01    2.759E+01    2.761E+01    2.763E+01    2.765E+01    2.767E+01    2.769E+01    2.771E+01    2.773E+01    2.774E+01
     2.776E+01    2.778E+01    2.780E+01    2.781E+01    2.783E+01    2.785E+01    2.787E+01    2.788E+01    2.790E+01    2.792E+01
     2.793E+01    2.795E+01    2.797E+01    2.798E+01    2.800E+01    2.801E+01    2.803E+01    2.805E+01    2.806E+01    2.808E+01
     2.809E+01    2.811E+01    2.812E+01    2.814E+01    2.815E+01    2.817E+01    2.818E+01    2.819E+01    2.821E+01    2.822E+01
     2.824E+01    2.825E+01    2.827E+01    2.828E+01    2.829E+01    2.831E+01    2.832E+01    2.833E+01    2.835E+01    2.836E+01
     2.837E+01    2.839E+01    2.840E+01    2.841E+01    2.842E+01    2.844E+01    2.845E+01    2.846E+01    2.847E+01    2.848E+01
     2.850E+01    2.851E+01    2.852E+01    2.853E+01    2.854E+01    2.856E+01    2.857E+01    2.858E+01    2.859E+01    2.860E+01
     2.861E+01    2.862E+01    2.864E+01    2.865E+01    2.866E+01    2.867E+01    2.868E+01    2.869E+01    2.870E+01    2.871E+01
     2.872E+01    2.873E+01    2.874E+01    2.875E+01    2.876E+01    2.877E+01    2.879E+01    2.880E+01    2.881E+01    2.882E+01
     2.883E+01    2.884E+01    2.885E+01    2.886E+01    2.887E+01    2.888E+01    2.889E+01    2.890E+01    2.890E+01    2.891E+01
     2.892E+01    2.893E+01    2.894E+01    2.895E+01    2.896E+01    2.897E+01    2.898E+01    2.899E+01    2.900E+01    2.901E+01
     2.902E+01    2.903E+01    2.904E+01    2.905E+01    2.906E+01    2.907E+01    2.908E+01    2.909E+01    2.910E+01    2.910E+01
     2.911E+01    2.912E+01    2.913E+01    2.914E+01    2.915E+01    2.916E+01    2.917E+01    2.918E+01    2.919E+01    2.920E+01
     2.921E+01    2.922E+01    2.923E+01    2.924E+01    2.925E+01    2.926E+01    2.927E+01    2.927E+01    2.928E+01    2.929E+01
     2.930E+01    2.931E+01    2.932E+01    2.933E+01    2.934E+01    2.935E+01    2.936E+01    2.937E+01    2.938E+01    2.939E+01
     2.940E+01    2.941E+01    2.942E+01    2.943E+01    2.944E+01    2.945E+01    2.946E+01    2.947E+01    2.948E+01    2.949E+01
     2.950E+01    2.951E+01    2.952E+01    2.954E+01    2.955E+01    2.956E+01    2.957E+01    2.958E+01    2.959E+01    2.960E+01
     2.961E+01    2.962E+01    2.963E+01    2.965E+01    2.966E+01    2.967E+01    2.968E+01    2.969E+01    2.970E+01    2.971E+01
     2.973E+01    2.974E+01    2.975E+01    2.976E+01    2.977E+01    2.978E+01    2.980E+01    2.981E+01    2.982E+01    2.983E+01
     2.985E+01    2.986E+01    2.987E+01    2.988E+01    2.989E+01    2.991E+01    2.992E+01    2.993E+01    2.994E+01    2.996E+01
     2.997E+01    2.998E+01    2.999E+01    3.001E+01    3.002E+01    3.003E+01    3.004E+01    3.006E+01    3.007E+01    3.008E+01
     3.009E+01    3.011E+01    3.012E+01    3.013E+01    3.015E+01    3.016E+01    3.017E+01    3.018E+01    3.020E+01    3.021E+01
     3.022E+01    3.024E+01    3.025E+01    3.026E+01    3.027E+01    3.029E+01    3.030E+01    3.031E+01    3.033E+01    3.034E+01
     3.035E+01    3.036E+01    3.038E+01    3.039E+01    3.040E+01    3.042E+01    3.043E+01    3.044E+01    3.045E+01    3.047E+01
     3.048E+01    3.049E+01    3.050E+01    3.052E+01    3.053E+01    3.054E+01    3.055E+01    3.057E+01    3.058E+01    3.059E+01
     3.060E+01    3.062E+01    3.063E+01    3.064E+01    3.065E+01    3.067E+01    3.068E+01    3.069E+01    3.070E+01    3.072E+01
     3.073E+01    3.074E+01    3.075E+01    3.076E+01    3.078E+01    3.079E+01    3.080E+01    3.081E+01    3.082E+01    3.083E+01
     3.085E+01    3.086E+01    3.087E+01    3.088E+01    3.089E+01    3.090E+01    3.091E+01    3.092E+01    3.094E+01    3.095E+01
     3.096E+01    3.097E+01    3.098E+01    3.099E+01    3.100E+01    3.101E+01    3.102E+01    3.103E+01    3.104E+01    3.105E+01
     3.106E+01    3.107E+01    3.108E+01    3.109E+01    3.110E+01    3.111E+01    3.112E+01    3.113E+01    3.114E+01    3.115E+01
     3.116E+01    3.117E+01    3.118E+01    3.119E+01    3.120E+01    3.120E+01    3.121E+01    3.122E+01    3.123E+01    3.124E+01
     3.125E+01    3.125E+01    3.126E+01    3.127E+01    3.128E+01    3.129E+01    3.129E+01    3.130E+01    3.131E+01    3.131E+01
     3.132E+01    3.133E+01    3.134E+01    3.134E+01    3.135E+01    3.135E+01    3.136E+01    3.137E+01    3.137E+01    3.138E+01
     3.138E+01    3.139E+01    3.140E+01    3.140E+01    3.141E+01    3.141E+01    3.142E+01    3.142E+01    3.142E+01    3.143E+01
     3.143E+01    3.144E+01    3.144E+01    3.145E+01    3.145E+01    3.145E+01    3.146E+01    3.146E+01    3.146E+01    3.147E+01
     3.147E+01    3.147E+01    3.147E+01    3.148E+01    3.148E+01    3.148E+01    3.148E+01    3.148E+01    3.149E+01    3.149E+01
     3.149E+01    3.149E+01    3.149E+01    3.149E+01    3.149E+01    3.149E+01    3.149E+01    3.149E+01    3.149E+01    3.149E+01
     3.149E+01    3.149E+01    3.149E+01    3.149E+01    3.149E+01    3.149E+01    3.149E+01    3.149E+01    3.149E+01    3.149E+01
     3.148E+01    3.148E+01    3.148E+01    3.148E+01    3.148E+01    3.147E+01    3.147E+01    3.147E+01    3.147E+01    3.146E+01
     3.146E+01    3.146E+01    3.145E+01    3.145E+01    3.145E+01    3.144E+01    3.144E+01    3.143E+01    3.143E+01    3.142E+01
     3.142E+01    3.141E+01    3.141E+01    3.140E+01    3.140E+01    3.139E+01    3.139E+01    3.138E+01    3.138E+01    3.137E+01
     3.136E+01    3.136E+01    3.135E+01    3.134E+01    3.134E+01    3.133E+01    3.132E+01    3.132E+01    3.131E+01    3.130E+01
     3.129E+01    3.128E+01    3.128E+01    3.127E+01    3.126E+01    3.125E+01    3.124E+01    3.123E+01    3.122E+01    3.121E+01
     3.121E+01    3.120E+01    3.119E+01    3.118E+01    3.117E+01    3.116E+01    3.115E+01    3.113E+01    3.112E+01    3.111E+01
     3.110E+01    3.109E+01    3.108E+01    3.107E+01    3.106E+01    3.104E+01    3.103E+01    3.102E+01    3.101E+01    3.100E+01
     3.098E+01    3.097E+01    3.096E+01    3.094E+01    3.093E+01    3.092E+01    3.090E+01    3.089E+01    3.088E+01    3.086E+01
     3.085E+01    3.083E+01    3.082E+01    3.080E+01    3.079E+01    3.077E+01    3.076E+01    3.074E+01    3.073E+01    3.071E+01
     3.069E+01    3.068E+01    3.066E+01    3.065E+01    3.063E+01    3.061E+01    3.060E+01    3.058E+01    3.056E+01    3.054E+01
     3.053E+01    3.051E+01    3.049E+01    3.047E+01    3.045E+01    3.044E+01    3.042E+01    3.040E+01    3.038E+01    3.036E+01
     3.034E+01    3.032E+01    3.030E+01    3.028E+01    3.026E+01    3.024E+01    3.022E+01    3.020E+01
 Asp      Conc. = 2.55E+01
