 LCModel (Version 6.3-1L) Copyright: S.W. Provencher.          Ref.: Magn. Reson. Med. 30:672-679 (1993).                
 Slice#1 Row#1 Col#7  K_02_press_1_raw_act
 36 lines in following concentration table = NCONC+1
    Conc.  %SD /Cr+PCr  Metabolite                                         
   87.923  99%   1.710 Ala                                                 
    5.419  74%   0.105 Asp                                                 
   51.417  79%   1.000 Cr                                                  
    0.000 999%   0.000 PCr                                                 
    3.264  73% 6.3E-02 GABA                                                
    3.265  73% 6.4E-02 Glc                                                 
    0.000 999%   0.000 Gln                                                 
    0.000 999%   0.000 Glu                                                 
    0.000 999%   0.000 GPC                                                 
   19.098  83%   0.371 PCh                                                 
  106.582  57%   2.073 GSH                                                 
  201.755  93%   3.924 Ins                                                 
   83.342 114%   1.621 Lac                                                 
    0.000 999%   0.000 NAA                                                 
    0.000 999%   0.000 NAAG                                                
    1.094  73% 2.1E-02 Scyllo                                              
    5.477  73%   0.107 Tau                                                 
    5.143  87%   0.100 -CrCH2                                              
   19.098  83%   0.371 GPC+PCh                                             
    0.000 999%   0.000 NAA+NAAG                                            
   51.417  79%   1.000 Cr+PCr                                              
    0.000 999%   0.000 Glu+Gln                                             
 4.85E+03   9%  94.279 Lip13a                                              
    0.000 999%   0.000 Lip13b                                              
 1.28E+03  13%  24.813 Lip09                                               
   19.270 236%   0.375 MM09                                                
  490.534  27%   9.540 Lip20                                               
    0.000 999%   0.000 MM20                                                
    6.023 394%   0.117 MM12                                                
  204.769  44%   3.983 MM14                                                
    0.000 999%   0.000 MM17                                                
 4.85E+03   9%  94.279 Lip13a+Lip13b                                       
 5.06E+03   8%  98.379 MM14+Lip13a+Lip13b+MM12                             
 1.30E+03  12%  25.188 MM09+Lip09                                          
  490.534  27%   9.540 MM20+Lip20                                          
   6 lines in following misc. output table
  FWHM = 0.046 ppm    S/N =   2                                            
  Data shift = 0.092 ppm                                                   
  Ph: -76 deg      -6.4 deg/ppm                                            
  alphaB,S = 8.5E+01,   1.3E+01                                            
   14 spline knots.   Ns = 5(1)                                            
  ( 8) 4 infls.   ( 9) 3 extrs.                                            
  498 points on ppm-axis = NY
      4.000000     3.992357     3.984714     3.977070     3.969427     3.961784     3.954141     3.946497     3.938854     3.931211
      3.923568     3.915925     3.908281     3.900638     3.892995     3.885352     3.877708     3.870065     3.862422     3.854779
      3.847136     3.839492     3.831849     3.824206     3.816563     3.808919     3.801276     3.793633     3.785990     3.778347
      3.770703     3.763060     3.755417     3.747774     3.740130     3.732487     3.724844     3.717201     3.709558     3.701914
      3.694271     3.686628     3.678985     3.671341     3.663698     3.656055     3.648412     3.640769     3.633125     3.625482
      3.617839     3.610196     3.602552     3.594909     3.587266     3.579623     3.571980     3.564336     3.556693     3.549050
      3.541407     3.533763     3.526120     3.518477     3.510834     3.503191     3.495547     3.487904     3.480261     3.472618
      3.464974     3.457331     3.449688     3.442045     3.434402     3.426758     3.419115     3.411472     3.403829     3.396185
      3.388542     3.380899     3.373256     3.365613     3.357969     3.350326     3.342683     3.335040     3.327396     3.319753
      3.312110     3.304467     3.296824     3.289180     3.281537     3.273894     3.266251     3.258607     3.250964     3.243321
      3.235678     3.228034     3.220391     3.212748     3.205105     3.197462     3.189818     3.182175     3.174532     3.166889
      3.159245     3.151602     3.143959     3.136316     3.128673     3.121029     3.113386     3.105743     3.098100     3.090456
      3.082813     3.075170     3.067527     3.059884     3.052240     3.044597     3.036954     3.029311     3.021667     3.014024
      3.006381     2.998738     2.991095     2.983451     2.975808     2.968165     2.960522     2.952878     2.945235     2.937592
      2.929949     2.922306     2.914662     2.907019     2.899376     2.891733     2.884089     2.876446     2.868803     2.861160
      2.853517     2.845873     2.838230     2.830587     2.822944     2.815300     2.807657     2.800014     2.792371     2.784728
      2.777084     2.769441     2.761798     2.754155     2.746511     2.738868     2.731225     2.723582     2.715939     2.708295
      2.700652     2.693009     2.685366     2.677722     2.670079     2.662436     2.654793     2.647150     2.639506     2.631863
      2.624220     2.616577     2.608933     2.601290     2.593647     2.586004     2.578361     2.570717     2.563074     2.555431
      2.547788     2.540144     2.532501     2.524858     2.517215     2.509572     2.501928     2.494285     2.486642     2.478999
      2.471355     2.463712     2.456069     2.448426     2.440783     2.433139     2.425496     2.417853     2.410210     2.402566
      2.394923     2.387280     2.379637     2.371994     2.364350     2.356707     2.349064     2.341421     2.333777     2.326134
      2.318491     2.310848     2.303205     2.295561     2.287918     2.280275     2.272632     2.264988     2.257345     2.249702
      2.242059     2.234416     2.226772     2.219129     2.211486     2.203843     2.196199     2.188556     2.180913     2.173270
      2.165627     2.157983     2.150340     2.142697     2.135054     2.127410     2.119767     2.112124     2.104481     2.096838
      2.089194     2.081551     2.073908     2.066265     2.058621     2.050978     2.043335     2.035692     2.028049     2.020405
      2.012762     2.005119     1.997476     1.989833     1.982190     1.974546     1.966903     1.959260     1.951617     1.943974
      1.936331     1.928688     1.921045     1.913402     1.905759     1.898115     1.890472     1.882829     1.875186     1.867543
      1.859900     1.852257     1.844614     1.836971     1.829327     1.821684     1.814041     1.806398     1.798755     1.791112
      1.783469     1.775826     1.768183     1.760540     1.752896     1.745253     1.737610     1.729967     1.722324     1.714681
      1.707038     1.699395     1.691752     1.684108     1.676465     1.668822     1.661179     1.653536     1.645893     1.638250
      1.630607     1.622964     1.615321     1.607677     1.600034     1.592391     1.584748     1.577105     1.569462     1.561819
      1.554176     1.546533     1.538890     1.531246     1.523603     1.515960     1.508317     1.500674     1.493031     1.485388
      1.477745     1.470102     1.462458     1.454815     1.447172     1.439529     1.431886     1.424243     1.416600     1.408957
      1.401314     1.393671     1.386027     1.378384     1.370741     1.363098     1.355455     1.347812     1.340169     1.332526
      1.324883     1.317240     1.309596     1.301953     1.294310     1.286667     1.279024     1.271381     1.263738     1.256095
      1.248452     1.240808     1.233165     1.225522     1.217879     1.210236     1.202593     1.194950     1.187307     1.179664
      1.172021     1.164377     1.156734     1.149091     1.141448     1.133805     1.126162     1.118519     1.110876     1.103233
      1.095590     1.087946     1.080303     1.072660     1.065017     1.057374     1.049731     1.042088     1.034445     1.026802
      1.019158     1.011515     1.003872     0.996229     0.988586     0.980943     0.973300     0.965657     0.958014     0.950371
      0.942727     0.935084     0.927441     0.919798     0.912155     0.904512     0.896869     0.889226     0.881583     0.873940
      0.866296     0.858653     0.851010     0.843367     0.835724     0.828081     0.820438     0.812795     0.805152     0.797508
      0.789865     0.782222     0.774579     0.766936     0.759293     0.751650     0.744007     0.736364     0.728721     0.721077
      0.713434     0.705791     0.698148     0.690505     0.682862     0.675219     0.667576     0.659933     0.652290     0.644646
      0.637003     0.629360     0.621717     0.614074     0.606431     0.598788     0.591145     0.583502     0.575858     0.568215
      0.560572     0.552929     0.545286     0.537643     0.530000     0.522357     0.514714     0.507071     0.499427     0.491784
      0.484141     0.476498     0.468855     0.461212     0.453569     0.445925     0.438282     0.430639     0.422996     0.415353
      0.407710     0.400067     0.392424     0.384780     0.377137     0.369494     0.361851     0.354208     0.346565     0.338922
      0.331278     0.323635     0.315992     0.308349     0.300706     0.293063     0.285420     0.277777     0.270133     0.262490
      0.254847     0.247204     0.239561     0.231918     0.224275     0.216631     0.208988     0.201345
 NY phased data points follow
  -2.27748E+00  2.48227E+00  8.28275E-01  4.16065E+00  5.25515E+00 -2.70097E+00  6.78206E+00  2.30948E+00  7.08047E+00  7.18903E+00
   4.73598E+00  4.44279E+00  3.06761E-02  1.31878E+00  2.88155E+00  8.73002E-01  3.59594E+00  2.09862E+00  6.65704E+00  5.50029E+00
   2.11981E+00 -1.79021E+00  5.26947E+00  1.14837E-01  2.76113E+00  4.32319E+00 -2.58219E+00  4.48259E+00  6.92693E+00  3.45557E+00
   7.72608E+00  1.41500E+00  2.92060E-01  2.74247E+00  4.74072E+00 -1.66345E+00  5.26924E+00 -5.95763E-01  2.14031E+00  4.34291E+00
   5.85218E-01 -1.44644E+00 -7.53389E-01  2.10287E+00 -1.72555E+00  2.52635E+00  2.41191E+00  4.89859E+00  3.13252E+00  1.52712E+00
  -3.00122E+00  5.70001E-01  8.02433E+00  5.58016E+00  4.40730E+00  4.82207E+00  1.75414E+00  1.19436E+00  5.44909E-01  6.40660E+00
  -7.60987E+00  1.61102E-02  9.75558E-01  2.72281E+00 -8.55803E-01  5.53844E-02  1.32481E-01  2.58805E+00  1.95378E-02  4.45025E-01
   4.44344E+00 -2.39606E+00 -4.07858E+00  2.94585E+00  1.12588E+00 -1.70277E+00  3.24902E+00  4.06939E+00 -2.36113E+00 -1.15507E-01
  -4.62371E+00  2.92763E+00 -6.34417E-01  1.65352E+00  5.20523E-01 -7.48760E-01  4.71545E+00  7.49991E+00 -1.10581E+00  1.15312E+00
  -1.13031E+00 -3.14795E+00 -1.44276E+00 -8.12069E-01  3.33693E+00  9.12018E+00 -1.88153E-01  6.41058E+00 -6.00064E-01 -1.26642E+00
   1.54420E-01  2.79270E+00  1.09015E+00  1.55380E+00  3.18763E+00  7.84149E+00  2.35347E-01  6.91800E-02  7.86145E-01 -1.73135E+00
   4.07452E+00  6.55763E-01  3.05124E+00  3.22216E+00  3.22160E+00 -1.60594E+00  2.80799E+00  5.25535E+00 -2.60044E+00 -1.31164E-01
   3.01387E-01  6.34618E-01  1.61333E+00  1.09819E+00 -1.87580E-01 -1.86328E+00  2.09988E+00  4.91065E+00 -9.51231E-01 -8.64006E-01
   2.20066E-01  1.21120E+00 -3.85485E+00  4.01167E+00 -5.37136E-01  1.25264E+00  2.59537E+00 -1.81332E-01  1.06248E-01 -1.64421E+00
   4.51922E-01  2.92739E+00 -3.86516E+00 -1.43915E+00 -2.34357E+00  2.08735E+00 -1.51361E+00 -1.50522E+00  3.52665E+00 -4.06687E-01
   3.28295E+00  4.49543E+00 -4.07830E-01  3.62844E+00 -3.53943E-01  3.49605E+00 -2.87532E-01 -2.92987E+00 -1.56939E+00  2.32464E+00
  -4.41316E+00  4.14748E+00 -1.03086E+00 -8.00076E-01 -1.60225E+00  1.41646E-02 -6.05010E+00  4.15644E+00  4.13744E+00  3.64785E-01
  -2.12313E-01  1.68860E+00  1.58620E+00  5.34675E-01  2.86715E-01 -3.25965E-01  4.13741E+00 -9.64157E-01  9.81325E-01 -1.01341E+00
  -2.15446E+00  5.70196E-01 -1.83944E+00 -1.44068E+00  3.17497E+00  2.72405E+00 -2.58536E+00  3.07477E-01  4.21459E+00  5.49064E+00
   4.04656E+00  7.19983E+00  7.21512E-01  6.22693E+00  1.42557E+00  7.51520E+00  1.72593E+00 -3.73624E+00  5.26365E+00  2.89925E+00
   1.36857E+00  8.09433E+00  2.89315E+00  2.64876E+00  2.71128E+00  1.10005E+00  2.19831E+00  3.39639E+00  7.24336E-01  4.50407E+00
   3.05262E+00  3.22074E+00  1.52646E-01 -4.41446E-01  1.15786E+00 -1.01366E+00  4.12848E+00  6.32896E+00  1.24834E+00 -9.41519E-01
   4.16195E+00  6.10878E+00 -1.60920E+00  4.63302E+00  3.37096E-01  3.69343E+00  3.77251E+00  2.67371E+00 -6.21287E+00  1.31875E+00
   3.00761E+00 -1.66352E+00  6.56884E+00  3.53270E+00  8.98740E+00  1.91758E+00 -2.51677E-01 -3.43852E+00  5.55722E+00  2.70991E+00
   3.74585E+00  6.83586E-01  3.76261E+00  4.24377E+00 -6.04638E-01  3.99330E+00 -3.16884E-02  1.97423E+00  5.32806E+00 -2.20804E+00
  -6.54777E+00 -8.09086E+00 -7.36117E+00  2.97913E+00  5.20555E-01 -7.07563E-01 -4.56029E+00 -1.75173E+00  1.37835E+00 -6.41589E+00
  -1.15521E+00 -3.84215E-01  3.25223E+00  1.33344E+00  8.02476E-01  5.01936E+00  6.18840E-01  1.26719E+00 -1.66317E-01  3.31906E-02
   4.97034E-01 -4.88196E+00  2.34971E+00 -3.38652E-01 -1.15181E+00  4.41488E+00 -9.58628E-01  5.05168E+00  1.19084E+00  3.93169E+00
   9.53821E-01  1.35338E+00  4.80344E+00  2.22910E+00  6.88150E+00 -9.10821E-01  1.34865E+00  1.04616E+00  6.26539E+00  3.56100E+00
   3.30093E+00  5.73103E+00  9.55383E+00  5.92470E+00  3.04442E+00  2.59271E+00  2.62625E+00  2.97078E+00 -5.20948E-01  2.69289E+00
   6.83046E+00  2.75046E+00  2.18917E+00  6.75333E+00  8.13163E+00  1.01920E+01  3.82913E+00  8.45644E+00  8.65897E+00  7.06241E+00
   4.56488E+00  4.57649E+00  7.37473E+00  1.22776E+01  1.13195E+01  8.45018E+00  1.25166E+01  1.27257E+01  1.11699E+01  1.07796E+01
   1.83711E+01  1.22278E+01  1.77558E+01  1.86305E+01  1.63311E+01  2.06516E+01  1.72445E+01  1.23667E+01  8.40166E+00  1.91646E+01
   1.54287E+01  1.54648E+01  1.58372E+01  1.41125E+01  1.68717E+01  1.01713E+01  1.91019E+01  1.16630E+01  2.18098E+01  1.07896E+01
   1.21220E+01  1.80124E+01  1.29939E+01  1.44411E+01  1.26632E+01  1.67649E+01  1.64251E+01  9.22474E+00  1.25749E+01  1.38992E+01
   7.70355E+00  8.69484E+00  1.14949E+01  1.24815E+01  1.21008E+01  9.23608E+00  1.20296E+01  8.32927E+00  7.59555E+00  7.08829E+00
   8.63421E+00  1.33900E+01  9.48212E+00  8.20539E+00  1.04704E+01  9.31749E+00  1.25408E+01  8.04898E+00  1.47397E+01  1.26256E+01
   8.27624E+00  8.75585E+00  1.26459E+01  1.04152E+01  4.95997E+00  9.36847E+00  5.34175E+00  2.77797E+00  6.32686E+00  7.98652E+00
   1.05280E+01  1.03792E+01  1.07561E+01  9.12438E+00  1.05199E+01  4.96024E+00  8.53471E+00  9.14643E+00  9.43832E+00  7.80367E+00
   9.41333E+00  5.21423E+00  5.50511E+00  5.01792E+00  4.28752E+00  3.10191E+00  4.08473E+00  7.48423E+00  5.14029E+00  3.37984E+00
   2.37063E+00 -2.29243E+00 -9.17857E-01  6.04954E+00  5.05137E+00  2.04248E+00  5.69723E+00  4.20917E+00  6.08571E+00  4.52742E+00
   7.64595E+00  1.91435E+00  8.04508E-01  7.23901E+00  5.42544E+00 -2.19442E+00  3.08494E+00  7.07830E-01  3.09441E+00  8.73207E+00
   6.20440E+00  9.43227E+00  4.00259E-01  1.03807E+00  4.60914E+00  3.35387E+00  1.87359E+00  3.14921E+00  4.46697E+00  1.05919E+00
   8.25191E+00  3.00372E+00  3.12832E+00  1.12608E+00  5.15710E+00  3.87857E+00  4.32367E+00  1.96622E-01  1.75608E+00  1.23994E+00
  -6.07154E-01  4.85294E+00  1.65349E+00 -1.31413E+00  3.81160E+00 -9.37312E-01  2.93033E+00  1.17671E+00  5.04414E+00  1.83829E+00
   8.70915E-01  2.95990E+00 -2.45671E+00  4.03895E+00  3.58706E-01  2.59748E+00  4.65203E+00 -3.29233E-01  2.56158E+00 -4.43114E+00
   1.78245E+00  1.47127E+00  9.19007E-01  5.02314E-01  3.64585E-01  3.49396E-01  2.85287E+00 -4.44527E-01  9.88533E-02  9.24109E-01
   4.63722E+00  1.66002E-01  4.54683E+00 -1.34672E-01  6.07092E+00 -2.10802E-01  8.85937E-01  3.65764E+00  3.69939E+00  5.45743E-01
   3.34955E+00  4.99035E+00  6.40710E-01  1.82353E+00  5.96413E+00 -1.15110E+00  1.45165E+00 -2.45639E+00 -1.39668E+00  4.07728E+00
   6.84959E+00 -2.78153E+00 -2.86074E+00  2.33763E+00 -1.55048E+00 -1.34138E+00 -1.25232E+00  1.68277E+00
 NY points of the fit to the data follow
   1.80874E+00  1.92361E+00  2.04324E+00  2.16099E+00  2.26868E+00  2.39260E+00  2.54309E+00  2.68331E+00  2.80548E+00  2.85027E+00
   2.74168E+00  2.47326E+00  2.11568E+00  1.78506E+00  1.57824E+00  1.51917E+00  1.57853E+00  1.73446E+00  1.95127E+00  2.13196E+00
   2.25679E+00  2.32716E+00  2.37528E+00  2.44690E+00  2.60750E+00  2.87986E+00  3.17595E+00  3.46074E+00  3.56861E+00  3.30117E+00
   2.64964E+00  1.80295E+00  1.03502E+00  5.18920E-01  2.99132E-01  2.86132E-01  4.16146E-01  6.28798E-01  7.48040E-01  8.24875E-01
   9.59943E-01  1.18726E+00  1.48790E+00  1.79911E+00  2.06902E+00  2.21500E+00  2.13201E+00  1.78731E+00  1.26829E+00  7.41319E-01
   3.73570E-01  2.50499E-01  3.40834E-01  5.77494E-01  8.99902E-01  1.20804E+00  1.43422E+00  1.56441E+00  1.60131E+00  1.54420E+00
   1.39880E+00  1.20198E+00  1.01852E+00  9.07547E-01  8.92562E-01  9.65538E-01  1.10618E+00  1.25627E+00  1.37104E+00  1.43231E+00
   1.43337E+00  1.38162E+00  1.29130E+00  1.18670E+00  1.09300E+00  1.02324E+00  9.83180E-01  9.60759E-01  9.56715E-01  9.64746E-01
   9.67746E-01  9.56190E-01  9.26437E-01  8.81261E-01  8.27363E-01  7.83305E-01  7.79948E-01  8.47082E-01  9.94520E-01  1.20036E+00
   1.41945E+00  1.61017E+00  1.74129E+00  1.80462E+00  1.80633E+00  1.77196E+00  1.74520E+00  1.77999E+00  1.93040E+00  2.15740E+00
   2.41885E+00  2.64611E+00  2.68782E+00  2.45444E+00  1.97362E+00  1.39196E+00  8.89348E-01  5.82319E-01  4.69698E-01  4.98862E-01
   6.60695E-01  8.53652E-01  9.97278E-01  1.10735E+00  1.19687E+00  1.27459E+00  1.34804E+00  1.42286E+00  1.50821E+00  1.61826E+00
   1.76911E+00  1.98612E+00  2.27298E+00  2.55921E+00  2.81866E+00  2.96339E+00  2.87561E+00  2.53428E+00  2.03571E+00  1.52242E+00
   1.11254E+00  8.51277E-01  6.66049E-01  5.14309E-01  4.37639E-01  4.03594E-01  4.80994E-01  7.13551E-01  1.05055E+00  1.40091E+00
   1.67878E+00  1.81281E+00  1.77710E+00  1.63659E+00  1.46736E+00  1.31848E+00  1.22621E+00  1.18107E+00  1.16885E+00  1.17168E+00
   1.16926E+00  1.16630E+00  1.16806E+00  1.17893E+00  1.19844E+00  1.22237E+00  1.24388E+00  1.25308E+00  1.24808E+00  1.23283E+00
   1.21313E+00  1.19235E+00  1.17277E+00  1.15875E+00  1.15014E+00  1.14594E+00  1.14488E+00  1.14527E+00  1.14574E+00  1.14408E+00
   1.13895E+00  1.13017E+00  1.11648E+00  1.09773E+00  1.07807E+00  1.06234E+00  1.05478E+00  1.05710E+00  1.06789E+00  1.08402E+00
   1.09999E+00  1.11887E+00  1.13963E+00  1.16684E+00  1.21722E+00  1.30643E+00  1.43821E+00  1.60072E+00  1.76210E+00  1.87895E+00
   1.90928E+00  1.82804E+00  1.63789E+00  1.40272E+00  1.20617E+00  1.09702E+00  1.12114E+00  1.29485E+00  1.57390E+00  1.87542E+00
   2.11390E+00  2.24808E+00  2.29068E+00  2.28093E+00  2.24288E+00  2.20121E+00  2.19410E+00  2.21307E+00  2.23996E+00  2.26377E+00
   2.28138E+00  2.29455E+00  2.30663E+00  2.32376E+00  2.35142E+00  2.39241E+00  2.44468E+00  2.50097E+00  2.55481E+00  2.60289E+00
   2.64429E+00  2.67727E+00  2.70183E+00  2.71952E+00  2.72844E+00  2.72445E+00  2.70042E+00  2.66144E+00  2.62000E+00  2.58720E+00
   2.59458E+00  2.67715E+00  2.84344E+00  3.05410E+00  3.23741E+00  3.33758E+00  3.30947E+00  3.14198E+00  2.87200E+00  2.59330E+00
   2.42479E+00  2.41956E+00  2.56499E+00  2.81749E+00  3.12068E+00  3.39798E+00  3.56663E+00  3.60995E+00  3.55863E+00  3.45737E+00
   3.34460E+00  3.24357E+00  3.18249E+00  3.17035E+00  3.18791E+00  3.21677E+00  3.24314E+00  3.25966E+00  3.26345E+00  3.25408E+00
   3.23658E+00  3.21505E+00  3.19356E+00  3.17264E+00  3.15232E+00  3.13334E+00  3.11694E+00  3.10419E+00  3.09658E+00  3.09548E+00
   3.10172E+00  3.11544E+00  3.13589E+00  3.16182E+00  3.19231E+00  3.22653E+00  3.26346E+00  3.30289E+00  3.34544E+00  3.39163E+00
   3.44215E+00  3.49741E+00  3.55744E+00  3.62229E+00  3.69154E+00  3.76421E+00  3.83959E+00  3.91736E+00  3.99722E+00  4.07925E+00
   4.16368E+00  4.25069E+00  4.34062E+00  4.43369E+00  4.52996E+00  4.62951E+00  4.73256E+00  4.83934E+00  4.95003E+00  5.06485E+00
   5.18409E+00  5.30799E+00  5.43685E+00  5.57098E+00  5.71077E+00  5.85663E+00  6.00903E+00  6.16844E+00  6.33534E+00  6.51024E+00
   6.69366E+00  6.88612E+00  7.08822E+00  7.30057E+00  7.52381E+00  7.75872E+00  8.00619E+00  8.26738E+00  8.54397E+00  8.83873E+00
   9.15680E+00  9.50850E+00  9.89265E+00  1.02480E+01  1.05507E+01  1.07451E+01  1.07534E+01  1.05839E+01  1.03381E+01  1.01679E+01
   1.02370E+01  1.05845E+01  1.11711E+01  1.19742E+01  1.29105E+01  1.37507E+01  1.43479E+01  1.46733E+01  1.47777E+01  1.47704E+01
   1.47373E+01  1.47180E+01  1.47932E+01  1.49105E+01  1.49846E+01  1.49485E+01  1.47094E+01  1.42493E+01  1.36497E+01  1.30641E+01
   1.26669E+01  1.25067E+01  1.25710E+01  1.28233E+01  1.31711E+01  1.34009E+01  1.33688E+01  1.30709E+01  1.25753E+01  1.19891E+01
   1.13788E+01  1.07781E+01  1.02647E+01  9.81898E+00  9.40204E+00  9.00450E+00  8.62501E+00  8.26433E+00  7.92391E+00  7.60529E+00
   7.30986E+00  7.03881E+00  6.79302E+00  6.57308E+00  6.37926E+00  6.21155E+00  6.06964E+00  5.95299E+00  5.86080E+00  5.79209E+00
   5.74563E+00  5.72003E+00  5.71368E+00  5.72482E+00  5.75153E+00  5.79172E+00  5.84312E+00  5.90334E+00  5.96983E+00  6.03997E+00
   6.11102E+00  6.18022E+00  6.24479E+00  6.30196E+00  6.34911E+00  6.38376E+00  6.40363E+00  6.40675E+00  6.39147E+00  6.35652E+00
   6.30108E+00  6.22479E+00  6.12776E+00  6.01056E+00  5.87421E+00  5.72017E+00  5.55023E+00  5.36652E+00  5.17138E+00  4.96731E+00
   4.75689E+00  4.54269E+00  4.32723E+00  4.11286E+00  3.90176E+00  3.69588E+00  3.49690E+00  3.30623E+00  3.12500E+00  2.95404E+00
   2.79396E+00  2.64509E+00  2.50756E+00  2.38133E+00  2.26617E+00  2.16174E+00  2.06762E+00  1.98327E+00  1.90816E+00  1.84169E+00
   1.78326E+00  1.73228E+00  1.68815E+00  1.65031E+00  1.61823E+00  1.59141E+00  1.56936E+00  1.55166E+00  1.53789E+00  1.52769E+00
   1.52071E+00  1.51666E+00  1.51524E+00  1.51620E+00  1.51931E+00  1.52437E+00  1.53118E+00  1.53959E+00  1.54943E+00  1.56057E+00
   1.57288E+00  1.58625E+00  1.60058E+00  1.61579E+00  1.63177E+00  1.64847E+00  1.66582E+00  1.68375E+00  1.70221E+00  1.72114E+00
   1.74051E+00  1.76027E+00  1.78037E+00  1.80080E+00  1.82152E+00  1.84249E+00  1.86369E+00  1.88510E+00  1.90670E+00  1.92846E+00
   1.95037E+00  1.97242E+00  1.99457E+00  2.01684E+00  2.03919E+00  2.06162E+00  2.08412E+00  2.10667E+00  2.12927E+00  2.15191E+00
   2.17459E+00  2.19729E+00  2.22001E+00  2.24273E+00  2.26547E+00  2.28821E+00  2.31095E+00  2.33368E+00  2.35640E+00  2.37910E+00
   2.40179E+00  2.42446E+00  2.44711E+00  2.46974E+00  2.49234E+00  2.51491E+00  2.53745E+00  2.55997E+00
 NY background values follow
     1.647E-01    1.490E-01    1.333E-01    1.178E-01    1.024E-01    8.703E-02    7.177E-02    5.661E-02    4.154E-02    2.656E-02
     1.168E-02   -3.121E-03   -1.782E-02   -3.244E-02   -4.696E-02   -6.138E-02   -7.572E-02   -8.996E-02   -1.041E-01   -1.182E-01
    -1.321E-01   -1.460E-01   -1.598E-01   -1.735E-01   -1.871E-01   -2.006E-01   -2.140E-01   -2.273E-01   -2.405E-01   -2.536E-01
    -2.666E-01   -2.796E-01   -2.924E-01   -3.052E-01   -3.178E-01   -3.304E-01   -3.428E-01   -3.552E-01   -3.675E-01   -3.797E-01
    -3.918E-01   -4.037E-01   -4.156E-01   -4.274E-01   -4.392E-01   -4.508E-01   -4.623E-01   -4.737E-01   -4.850E-01   -4.963E-01
    -5.074E-01   -5.184E-01   -5.294E-01   -5.402E-01   -5.510E-01   -5.616E-01   -5.722E-01   -5.827E-01   -5.930E-01   -6.033E-01
    -6.135E-01   -6.235E-01   -6.335E-01   -6.434E-01   -6.532E-01   -6.629E-01   -6.725E-01   -6.820E-01   -6.914E-01   -7.007E-01
    -7.099E-01   -7.191E-01   -7.281E-01   -7.370E-01   -7.458E-01   -7.546E-01   -7.632E-01   -7.717E-01   -7.802E-01   -7.885E-01
    -7.968E-01   -8.049E-01   -8.130E-01   -8.209E-01   -8.288E-01   -8.366E-01   -8.442E-01   -8.518E-01   -8.593E-01   -8.667E-01
    -8.739E-01   -8.811E-01   -8.882E-01   -8.952E-01   -9.021E-01   -9.089E-01   -9.156E-01   -9.222E-01   -9.287E-01   -9.351E-01
    -9.414E-01   -9.476E-01   -9.538E-01   -9.598E-01   -9.657E-01   -9.715E-01   -9.773E-01   -9.829E-01   -9.884E-01   -9.939E-01
    -9.992E-01   -1.004E+00   -1.010E+00   -1.015E+00   -1.020E+00   -1.025E+00   -1.029E+00   -1.034E+00   -1.039E+00   -1.043E+00
    -1.047E+00   -1.052E+00   -1.056E+00   -1.060E+00   -1.064E+00   -1.068E+00   -1.072E+00   -1.075E+00   -1.079E+00   -1.083E+00
    -1.086E+00   -1.089E+00   -1.093E+00   -1.096E+00   -1.099E+00   -1.102E+00   -1.105E+00   -1.107E+00   -1.110E+00   -1.112E+00
    -1.115E+00   -1.117E+00   -1.120E+00   -1.122E+00   -1.124E+00   -1.126E+00   -1.128E+00   -1.130E+00   -1.131E+00   -1.133E+00
    -1.134E+00   -1.136E+00   -1.137E+00   -1.139E+00   -1.140E+00   -1.141E+00   -1.142E+00   -1.143E+00   -1.143E+00   -1.144E+00
    -1.145E+00   -1.145E+00   -1.146E+00   -1.146E+00   -1.146E+00   -1.146E+00   -1.146E+00   -1.146E+00   -1.146E+00   -1.146E+00
    -1.145E+00   -1.145E+00   -1.144E+00   -1.144E+00   -1.143E+00   -1.142E+00   -1.142E+00   -1.141E+00   -1.139E+00   -1.138E+00
    -1.137E+00   -1.136E+00   -1.134E+00   -1.133E+00   -1.131E+00   -1.129E+00   -1.128E+00   -1.126E+00   -1.124E+00   -1.122E+00
    -1.120E+00   -1.117E+00   -1.115E+00   -1.113E+00   -1.110E+00   -1.108E+00   -1.105E+00   -1.102E+00   -1.099E+00   -1.096E+00
    -1.093E+00   -1.090E+00   -1.087E+00   -1.084E+00   -1.080E+00   -1.077E+00   -1.073E+00   -1.070E+00   -1.066E+00   -1.062E+00
    -1.058E+00   -1.054E+00   -1.050E+00   -1.046E+00   -1.042E+00   -1.037E+00   -1.033E+00   -1.028E+00   -1.024E+00   -1.019E+00
    -1.014E+00   -1.010E+00   -1.005E+00   -9.997E-01   -9.946E-01   -9.894E-01   -9.841E-01   -9.788E-01   -9.734E-01   -9.679E-01
    -9.623E-01   -9.566E-01   -9.509E-01   -9.450E-01   -9.391E-01   -9.331E-01   -9.270E-01   -9.209E-01   -9.147E-01   -9.083E-01
    -9.019E-01   -8.955E-01   -8.889E-01   -8.823E-01   -8.755E-01   -8.687E-01   -8.619E-01   -8.549E-01   -8.479E-01   -8.408E-01
    -8.336E-01   -8.263E-01   -8.190E-01   -8.115E-01   -8.040E-01   -7.965E-01   -7.888E-01   -7.811E-01   -7.733E-01   -7.654E-01
    -7.574E-01   -7.494E-01   -7.413E-01   -7.331E-01   -7.249E-01   -7.165E-01   -7.081E-01   -6.996E-01   -6.911E-01   -6.824E-01
    -6.737E-01   -6.650E-01   -6.561E-01   -6.472E-01   -6.382E-01   -6.291E-01   -6.200E-01   -6.108E-01   -6.015E-01   -5.922E-01
    -5.827E-01   -5.733E-01   -5.637E-01   -5.541E-01   -5.444E-01   -5.346E-01   -5.248E-01   -5.148E-01   -5.049E-01   -4.948E-01
    -4.847E-01   -4.745E-01   -4.643E-01   -4.540E-01   -4.436E-01   -4.331E-01   -4.226E-01   -4.120E-01   -4.014E-01   -3.907E-01
    -3.799E-01   -3.690E-01   -3.581E-01   -3.472E-01   -3.361E-01   -3.250E-01   -3.139E-01   -3.026E-01   -2.913E-01   -2.800E-01
    -2.686E-01   -2.571E-01   -2.456E-01   -2.340E-01   -2.223E-01   -2.106E-01   -1.988E-01   -1.869E-01   -1.750E-01   -1.631E-01
    -1.511E-01   -1.390E-01   -1.268E-01   -1.146E-01   -1.024E-01   -9.007E-02   -7.769E-02   -6.527E-02   -5.278E-02   -4.024E-02
    -2.764E-02   -1.498E-02   -2.272E-03    1.049E-02    2.331E-02    3.619E-02    4.912E-02    6.210E-02    7.514E-02    8.823E-02
     1.014E-01    1.146E-01    1.278E-01    1.411E-01    1.545E-01    1.679E-01    1.813E-01    1.948E-01    2.084E-01    2.220E-01
     2.357E-01    2.494E-01    2.631E-01    2.769E-01    2.908E-01    3.047E-01    3.186E-01    3.326E-01    3.467E-01    3.608E-01
     3.749E-01    3.891E-01    4.033E-01    4.176E-01    4.319E-01    4.463E-01    4.607E-01    4.751E-01    4.896E-01    5.041E-01
     5.187E-01    5.334E-01    5.480E-01    5.627E-01    5.775E-01    5.923E-01    6.071E-01    6.220E-01    6.369E-01    6.518E-01
     6.668E-01    6.819E-01    6.969E-01    7.120E-01    7.272E-01    7.424E-01    7.576E-01    7.728E-01    7.881E-01    8.035E-01
     8.188E-01    8.342E-01    8.497E-01    8.651E-01    8.807E-01    8.962E-01    9.118E-01    9.274E-01    9.430E-01    9.587E-01
     9.744E-01    9.901E-01    1.006E+00    1.022E+00    1.038E+00    1.053E+00    1.069E+00    1.085E+00    1.101E+00    1.117E+00
     1.133E+00    1.149E+00    1.165E+00    1.181E+00    1.197E+00    1.214E+00    1.230E+00    1.246E+00    1.262E+00    1.278E+00
     1.295E+00    1.311E+00    1.327E+00    1.344E+00    1.360E+00    1.376E+00    1.393E+00    1.409E+00    1.426E+00    1.442E+00
     1.459E+00    1.475E+00    1.492E+00    1.508E+00    1.525E+00    1.541E+00    1.558E+00    1.575E+00    1.591E+00    1.608E+00
     1.625E+00    1.641E+00    1.658E+00    1.675E+00    1.692E+00    1.708E+00    1.725E+00    1.742E+00    1.759E+00    1.776E+00
     1.792E+00    1.809E+00    1.826E+00    1.843E+00    1.860E+00    1.877E+00    1.894E+00    1.911E+00    1.928E+00    1.944E+00
     1.961E+00    1.978E+00    1.995E+00    2.012E+00    2.029E+00    2.046E+00    2.063E+00    2.080E+00    2.097E+00    2.114E+00
     2.131E+00    2.148E+00    2.165E+00    2.182E+00    2.199E+00    2.216E+00    2.233E+00    2.251E+00    2.268E+00    2.285E+00
     2.302E+00    2.319E+00    2.336E+00    2.353E+00    2.370E+00    2.387E+00    2.404E+00    2.421E+00    2.438E+00    2.455E+00
     2.472E+00    2.489E+00    2.506E+00    2.523E+00    2.540E+00    2.557E+00    2.574E+00    2.591E+00
 Ala      Conc. = 8.79E+01
