 LCModel (Version 6.3-1L) Copyright: S.W. Provencher.          Ref.: Magn. Reson. Med. 30:672-679 (1993).                
 Slice#2 Row#10 Col#2  K_02_press_1_raw_act
 36 lines in following concentration table = NCONC+1
    Conc.  %SD /Cr+PCr  Metabolite                                         
    0.000 999%   0.000 Ala                                                 
    0.000 999%   0.000 Asp                                                 
    0.000 999%   0.000 Cr                                                  
  364.543   9%   1.000 PCr                                                 
   31.434 143% 8.6E-02 GABA                                                
   23.498 188% 6.4E-02 Glc                                                 
   43.859 312%   0.120 Gln                                                 
  502.764  31%   1.379 Glu                                                 
  113.774  48%   0.312 GPC                                                 
   10.662 512% 2.9E-02 PCh                                                 
  231.524  18%   0.635 GSH                                                 
    0.000 999%   0.000 Ins                                                 
   79.334  90%   0.218 Lac                                                 
  551.894   6%   1.514 NAA                                                 
    0.000 999%   0.000 NAAG                                                
    9.496 116% 2.6E-02 Scyllo                                              
    0.000 999%   0.000 Tau                                                 
   74.441  75%   0.204 -CrCH2                                              
  124.436   9%   0.341 GPC+PCh                                             
  551.894   6%   1.514 NAA+NAAG                                            
  364.543   9%   1.000 Cr+PCr                                              
  546.623  42%   1.499 Glu+Gln                                             
  508.684  33%   1.395 Lip13a                                              
    0.000 999%   0.000 Lip13b                                              
    0.000 999%   0.000 Lip09                                               
  347.586  25%   0.953 MM09                                                
   68.941  98%   0.189 Lip20                                               
  521.297  25%   1.430 MM20                                                
  104.278  25%   0.286 MM12                                                
  260.890  25%   0.716 MM14                                                
  130.511  25%   0.358 MM17                                                
  508.684  33%   1.395 Lip13a+Lip13b                                       
  873.852  22%   2.397 MM14+Lip13a+Lip13b+MM12                             
  347.586  25%   0.953 MM09+Lip09                                          
  590.238  24%   1.619 MM20+Lip20                                          
   6 lines in following misc. output table
  FWHM = 0.061 ppm    S/N =   5                                            
  Data shift =-0.008 ppm                                                   
  Ph: -20 deg     -16.2 deg/ppm                                            
  alphaB,S = 2.7E+00,   2.6E+01                                            
   14 spline knots.   Ns = 7(1)                                            
  (14) 5 infls.   (15) 1 extrs.                                            
  498 points on ppm-axis = NY
      4.000000     3.992357     3.984714     3.977070     3.969427     3.961784     3.954141     3.946497     3.938854     3.931211
      3.923568     3.915925     3.908281     3.900638     3.892995     3.885352     3.877708     3.870065     3.862422     3.854779
      3.847136     3.839492     3.831849     3.824206     3.816563     3.808919     3.801276     3.793633     3.785990     3.778347
      3.770703     3.763060     3.755417     3.747774     3.740130     3.732487     3.724844     3.717201     3.709558     3.701914
      3.694271     3.686628     3.678985     3.671341     3.663698     3.656055     3.648412     3.640769     3.633125     3.625482
      3.617839     3.610196     3.602552     3.594909     3.587266     3.579623     3.571980     3.564336     3.556693     3.549050
      3.541407     3.533763     3.526120     3.518477     3.510834     3.503191     3.495547     3.487904     3.480261     3.472618
      3.464974     3.457331     3.449688     3.442045     3.434402     3.426758     3.419115     3.411472     3.403829     3.396185
      3.388542     3.380899     3.373256     3.365613     3.357969     3.350326     3.342683     3.335040     3.327396     3.319753
      3.312110     3.304467     3.296824     3.289180     3.281537     3.273894     3.266251     3.258607     3.250964     3.243321
      3.235678     3.228034     3.220391     3.212748     3.205105     3.197462     3.189818     3.182175     3.174532     3.166889
      3.159245     3.151602     3.143959     3.136316     3.128673     3.121029     3.113386     3.105743     3.098100     3.090456
      3.082813     3.075170     3.067527     3.059884     3.052240     3.044597     3.036954     3.029311     3.021667     3.014024
      3.006381     2.998738     2.991095     2.983451     2.975808     2.968165     2.960522     2.952878     2.945235     2.937592
      2.929949     2.922306     2.914662     2.907019     2.899376     2.891733     2.884089     2.876446     2.868803     2.861160
      2.853517     2.845873     2.838230     2.830587     2.822944     2.815300     2.807657     2.800014     2.792371     2.784728
      2.777084     2.769441     2.761798     2.754155     2.746511     2.738868     2.731225     2.723582     2.715939     2.708295
      2.700652     2.693009     2.685366     2.677722     2.670079     2.662436     2.654793     2.647150     2.639506     2.631863
      2.624220     2.616577     2.608933     2.601290     2.593647     2.586004     2.578361     2.570717     2.563074     2.555431
      2.547788     2.540144     2.532501     2.524858     2.517215     2.509572     2.501928     2.494285     2.486642     2.478999
      2.471355     2.463712     2.456069     2.448426     2.440783     2.433139     2.425496     2.417853     2.410210     2.402566
      2.394923     2.387280     2.379637     2.371994     2.364350     2.356707     2.349064     2.341421     2.333777     2.326134
      2.318491     2.310848     2.303205     2.295561     2.287918     2.280275     2.272632     2.264988     2.257345     2.249702
      2.242059     2.234416     2.226772     2.219129     2.211486     2.203843     2.196199     2.188556     2.180913     2.173270
      2.165627     2.157983     2.150340     2.142697     2.135054     2.127410     2.119767     2.112124     2.104481     2.096838
      2.089194     2.081551     2.073908     2.066265     2.058621     2.050978     2.043335     2.035692     2.028049     2.020405
      2.012762     2.005119     1.997476     1.989833     1.982190     1.974546     1.966903     1.959260     1.951617     1.943974
      1.936331     1.928688     1.921045     1.913402     1.905759     1.898115     1.890472     1.882829     1.875186     1.867543
      1.859900     1.852257     1.844614     1.836971     1.829327     1.821684     1.814041     1.806398     1.798755     1.791112
      1.783469     1.775826     1.768183     1.760540     1.752896     1.745253     1.737610     1.729967     1.722324     1.714681
      1.707038     1.699395     1.691752     1.684108     1.676465     1.668822     1.661179     1.653536     1.645893     1.638250
      1.630607     1.622964     1.615321     1.607677     1.600034     1.592391     1.584748     1.577105     1.569462     1.561819
      1.554176     1.546533     1.538890     1.531246     1.523603     1.515960     1.508317     1.500674     1.493031     1.485388
      1.477745     1.470102     1.462458     1.454815     1.447172     1.439529     1.431886     1.424243     1.416600     1.408957
      1.401314     1.393671     1.386027     1.378384     1.370741     1.363098     1.355455     1.347812     1.340169     1.332526
      1.324883     1.317240     1.309596     1.301953     1.294310     1.286667     1.279024     1.271381     1.263738     1.256095
      1.248452     1.240808     1.233165     1.225522     1.217879     1.210236     1.202593     1.194950     1.187307     1.179664
      1.172021     1.164377     1.156734     1.149091     1.141448     1.133805     1.126162     1.118519     1.110876     1.103233
      1.095590     1.087946     1.080303     1.072660     1.065017     1.057374     1.049731     1.042088     1.034445     1.026802
      1.019158     1.011515     1.003872     0.996229     0.988586     0.980943     0.973300     0.965657     0.958014     0.950371
      0.942727     0.935084     0.927441     0.919798     0.912155     0.904512     0.896869     0.889226     0.881583     0.873940
      0.866296     0.858653     0.851010     0.843367     0.835724     0.828081     0.820438     0.812795     0.805152     0.797508
      0.789865     0.782222     0.774579     0.766936     0.759293     0.751650     0.744007     0.736364     0.728721     0.721077
      0.713434     0.705791     0.698148     0.690505     0.682862     0.675219     0.667576     0.659933     0.652290     0.644646
      0.637003     0.629360     0.621717     0.614074     0.606431     0.598788     0.591145     0.583502     0.575858     0.568215
      0.560572     0.552929     0.545286     0.537643     0.530000     0.522357     0.514714     0.507071     0.499427     0.491784
      0.484141     0.476498     0.468855     0.461212     0.453569     0.445925     0.438282     0.430639     0.422996     0.415353
      0.407710     0.400067     0.392424     0.384780     0.377137     0.369494     0.361851     0.354208     0.346565     0.338922
      0.331278     0.323635     0.315992     0.308349     0.300706     0.293063     0.285420     0.277777     0.270133     0.262490
      0.254847     0.247204     0.239561     0.231918     0.224275     0.216631     0.208988     0.201345
 NY phased data points follow
   1.97713E+00  3.04923E+00  7.89728E+00  5.30868E+00  3.45723E+00  6.40962E+00  5.93595E+00  7.29370E+00  7.64402E+00  3.85683E+00
   7.03051E+00  8.15346E+00  6.47033E+00  6.15826E+00  3.41090E+00  3.79302E+00  1.64693E+00  9.12660E-01  1.29262E-01  4.74398E-01
  -1.75875E-01 -2.40305E+00 -9.56474E-01 -7.63731E-01  1.94156E-01 -5.73009E-01  3.29698E+00  1.85392E+00  2.72942E+00  5.14615E+00
   2.93542E+00  2.92681E+00  4.51457E+00  5.23753E+00  5.40620E+00  6.92848E+00  3.40922E+00  6.44730E+00  1.90048E+00  1.81300E+00
   2.33939E+00  4.66051E+00  4.35888E+00  2.10572E+00  7.43944E-01  2.83510E+00  2.97324E+00  8.21593E-01 -1.57549E-01  2.77834E+00
  -6.07757E-01 -1.34308E+00  2.30302E+00 -9.56176E-01 -1.31551E+00 -7.93424E-01 -3.67149E+00 -1.98721E+00 -1.99935E+00 -3.83565E+00
  -3.81119E+00 -3.17137E+00 -4.57124E+00 -4.86128E+00 -4.38822E+00 -3.31827E+00 -5.13201E+00 -1.87575E+00 -3.74398E+00 -4.01032E+00
  -5.02678E+00 -2.19523E+00 -2.60578E+00 -2.78963E+00 -4.55103E-01 -1.59614E+00 -3.45152E+00 -2.35427E+00 -4.94049E+00  3.23701E-02
  -1.91238E+00 -2.77215E+00 -3.04751E+00 -1.83725E+00 -1.55255E+00 -3.49558E+00 -2.70175E+00 -5.77320E+00 -4.71327E-01 -3.98230E+00
  -1.01058E+00 -1.62305E+00 -5.49391E+00 -3.48991E+00 -3.45393E+00 -3.34814E-02 -5.09004E-01 -6.29105E-01  1.84459E+00  2.46815E+00
   5.02378E+00  8.02209E+00  1.10071E+01  7.27785E+00  6.07196E+00  3.43309E+00  3.66101E+00  2.17074E+00  2.85393E+00  3.37121E-01
   2.03652E+00  5.80590E-02  4.44722E-01 -6.72233E-01 -2.14250E+00 -3.98701E+00 -2.83436E+00  1.34071E+00 -1.38738E+00  1.60887E+00
   3.70131E-01  8.07740E-01  1.85453E+00  3.78114E+00  6.98943E+00  9.28080E+00  9.05773E+00  7.75346E+00  8.10043E+00  6.89457E+00
   6.73864E+00  3.92578E+00  1.73185E+00 -1.30479E+00 -2.00787E+00  5.37199E-02 -1.26418E+00 -2.70224E+00 -4.98309E-01 -1.78982E+00
  -3.15324E+00 -5.79799E-02 -1.42269E+00 -3.11998E+00 -3.60634E+00 -1.34067E+00 -1.46612E+00 -2.77783E+00  4.76652E-01 -2.07003E+00
   5.99972E-02 -1.12773E+00 -2.86913E-01 -2.99568E-01  7.98265E-01  1.57371E+00  4.85272E-01  5.23286E-01  2.07839E-01 -1.10057E+00
  -5.51643E-01 -1.26449E-01 -2.81770E+00 -1.55769E+00 -3.11625E+00 -4.76770E-01 -1.89340E+00 -1.61209E+00 -4.26942E+00 -7.66902E+00
  -3.21396E+00 -4.23772E+00 -3.08194E+00 -6.87822E+00 -6.39315E+00 -6.69745E+00 -5.73727E+00 -7.85149E+00 -5.59853E+00 -5.73610E+00
  -6.27848E+00 -7.60892E+00 -7.95417E+00 -7.10931E+00 -3.20634E+00 -7.35875E+00 -4.09860E+00 -4.81130E+00 -5.41842E+00 -4.43525E+00
  -6.02418E+00 -5.85880E+00 -2.32692E+00 -3.37383E+00 -1.81622E+00 -4.70167E+00 -7.05363E+00 -6.43522E+00 -3.31308E+00 -4.91996E+00
  -2.27354E+00 -4.56191E+00 -2.44233E+00 -3.47961E+00 -4.37565E+00 -4.33581E+00 -3.76258E+00 -3.24927E+00 -5.14901E+00 -3.42467E+00
  -4.55582E+00 -8.43994E+00 -4.79426E+00 -3.92008E+00 -2.08350E+00 -3.22470E+00 -2.27329E+00 -3.34673E+00 -2.94923E+00 -6.20562E+00
  -4.52798E+00 -9.10674E+00 -6.97163E+00 -6.69858E+00 -7.21327E+00 -3.66174E+00 -4.89846E+00 -3.55308E+00 -3.86046E+00 -3.28442E+00
  -7.07813E+00 -5.65181E+00 -3.62766E+00 -4.81160E+00 -5.38362E+00 -2.68220E+00 -3.89418E+00 -5.41478E+00 -5.50024E+00 -4.88076E+00
  -7.03884E+00 -6.46567E+00 -7.44043E+00 -4.73243E+00 -4.69442E+00 -5.53927E+00 -5.01879E-01 -1.18336E+00 -3.99148E+00 -4.90459E-01
  -4.22045E+00 -1.83024E+00  2.36210E-01  1.59742E+00 -2.69808E-01  3.17800E+00  9.73771E+00  1.12445E+01  1.09793E+01  1.18659E+01
   1.17067E+01  1.14409E+01  1.20160E+01  4.42041E+00 -7.98115E-01 -4.51155E+00 -3.00695E+00 -5.73051E+00 -1.99247E+00 -5.34563E+00
  -3.15868E+00 -5.36840E+00 -7.05092E+00 -4.32103E+00 -7.02193E+00 -4.25689E+00 -5.61628E+00 -3.46001E+00 -5.64923E+00 -4.89164E+00
  -3.74411E+00 -4.35936E+00 -6.52092E+00 -5.67770E+00 -8.34463E+00 -7.70282E+00 -6.10591E+00 -5.85210E+00 -6.20802E+00 -3.81198E+00
  -2.65552E+00 -7.57533E+00 -8.25952E+00 -5.49548E+00 -4.99996E+00 -6.56556E+00 -6.09981E+00 -6.08714E+00 -4.22960E+00 -4.40949E+00
  -5.20765E+00 -3.33722E+00 -4.88373E+00 -1.53819E+00 -2.03068E+00 -2.31769E+00 -1.54591E+00 -3.87512E+00 -5.17990E+00 -2.10398E+00
  -1.28456E+00 -5.49597E+00 -2.52421E+00 -5.04360E+00 -2.37740E+00 -3.43128E+00 -5.36881E+00 -3.52249E+00 -6.12240E+00 -2.70038E+00
  -6.80936E+00 -4.51830E+00 -6.37230E+00 -3.75409E+00 -5.86615E+00 -1.23380E+00 -4.38096E+00 -2.76202E+00 -4.33453E+00 -4.67163E+00
  -2.05391E+00 -4.97064E+00 -3.75864E+00 -3.55791E+00 -3.87002E+00 -3.87912E+00 -3.99995E+00 -4.45115E+00 -5.75587E+00 -4.49853E+00
  -5.11510E+00 -4.78415E+00 -5.56327E+00 -7.24640E+00 -4.05380E+00 -6.49253E+00 -5.15180E+00 -4.40589E+00 -2.94257E+00 -6.50087E+00
  -7.22716E+00 -7.70706E+00 -4.76599E+00 -7.34505E+00 -6.85966E+00 -2.16441E+00 -3.55964E+00 -6.30241E+00 -6.87127E+00 -4.20742E+00
  -6.65673E+00 -6.11750E+00 -5.11616E+00 -8.06735E+00 -5.75076E+00 -6.20445E+00 -9.02140E+00 -6.38165E+00 -7.34440E+00 -1.06755E+01
  -6.23233E+00 -5.28712E+00 -8.76286E+00 -5.89922E+00 -8.44349E+00 -4.98728E+00 -5.54529E+00 -5.26952E+00 -6.95850E+00 -8.27858E+00
  -6.97040E+00 -9.16715E+00 -9.13906E+00 -7.25097E+00 -7.21773E+00 -8.16811E+00 -7.35949E+00 -5.63744E+00 -5.06268E+00 -8.55912E+00
  -8.67181E+00 -7.07429E+00 -6.38152E+00 -7.80765E+00 -8.00129E+00 -9.83956E+00 -9.87321E+00 -7.32980E+00 -9.81036E+00 -1.16928E+01
  -9.47301E+00 -1.09526E+01 -9.73504E+00 -1.07597E+01 -9.26418E+00 -1.14400E+01 -1.10857E+01 -8.95259E+00 -1.14471E+01 -1.12461E+01
  -1.18251E+01 -1.14515E+01 -1.15039E+01 -9.64918E+00 -1.10216E+01 -1.15512E+01 -1.23288E+01 -7.46820E+00 -8.04034E+00 -9.94222E+00
  -1.37109E+01 -1.12625E+01 -1.22165E+01 -1.10609E+01 -1.10523E+01 -1.35355E+01 -1.06282E+01 -1.20563E+01 -1.30279E+01 -1.11099E+01
  -1.10157E+01 -9.81836E+00 -1.14138E+01 -1.38420E+01 -1.31071E+01 -1.50178E+01 -1.09106E+01 -1.09794E+01 -1.18151E+01 -1.07740E+01
  -9.28793E+00 -1.10402E+01 -1.05613E+01 -8.19068E+00 -1.36384E+01 -9.96987E+00 -1.22439E+01 -1.13502E+01 -1.09084E+01 -9.79553E+00
  -1.29155E+01 -8.78057E+00 -1.08075E+01 -9.33458E+00 -9.65518E+00 -1.13352E+01 -1.26305E+01 -1.31575E+01 -1.24267E+01 -9.12758E+00
  -9.37103E+00 -1.15390E+01 -1.14322E+01 -1.03287E+01 -1.02693E+01 -1.09995E+01 -1.00217E+01 -9.37088E+00 -8.98844E+00 -1.25117E+01
  -1.26850E+01 -1.16961E+01 -1.07056E+01 -7.74989E+00 -1.01125E+01 -1.31011E+01 -1.10836E+01 -1.14973E+01 -1.25202E+01 -1.13095E+01
  -8.55214E+00 -1.34115E+01 -1.20983E+01 -9.22861E+00 -1.13001E+01 -1.04767E+01 -1.27805E+01 -8.85931E+00 -1.05887E+01 -1.27846E+01
  -6.57671E+00 -9.32311E+00 -1.11519E+01 -8.04603E+00 -8.03544E+00 -8.80153E+00 -8.54243E+00 -7.80913E+00
 NY points of the fit to the data follow
   1.49871E-01  5.96944E-01  1.37658E+00  1.79074E+00  2.63111E+00  3.89717E+00  5.13055E+00  6.10017E+00  6.66538E+00  6.94679E+00
   6.99774E+00  6.43894E+00  5.30442E+00  4.16967E+00  3.43966E+00  3.03794E+00  2.63560E+00  2.22491E+00  1.94245E+00  1.73066E+00
   1.54808E+00  1.24166E+00  8.66316E-01  8.11189E-01  1.23581E+00  1.36391E+00  1.65628E+00  2.42654E+00  3.47485E+00  4.42571E+00
   5.08897E+00  5.55043E+00  5.84703E+00  5.69106E+00  4.88709E+00  3.73312E+00  2.74015E+00  2.03814E+00  1.50283E+00  1.12155E+00
   9.75246E-01  9.49396E-01  9.98936E-01  1.03889E+00  1.01342E+00  9.02418E-01  7.44537E-01  6.31654E-01  5.48436E-01  4.32059E-01
   3.07657E-01  2.09476E-01  1.23587E-01 -5.14262E-03 -1.70882E-01 -3.28357E-01 -4.65038E-01 -6.01603E-01 -7.38888E-01 -8.67010E-01
  -9.80487E-01 -1.08241E+00 -1.17578E+00 -1.26501E+00 -1.35062E+00 -1.43261E+00 -1.51111E+00 -1.58554E+00 -1.65410E+00 -1.71812E+00
  -1.77792E+00 -1.83447E+00 -1.88463E+00 -1.93001E+00 -1.97669E+00 -2.02809E+00 -2.08225E+00 -2.14142E+00 -2.20045E+00 -2.21651E+00
  -2.21820E+00 -2.24647E+00 -2.24057E+00 -2.20456E+00 -2.17413E+00 -2.17093E+00 -2.20926E+00 -2.27863E+00 -2.37619E+00 -2.53173E+00
  -2.73971E+00 -2.95200E+00 -3.13175E+00 -3.27453E+00 -3.24908E+00 -2.29685E+00 -9.72204E-01  1.67832E-02  1.56758E+00  3.67997E+00
   5.72497E+00  7.23852E+00  7.97416E+00  8.14227E+00  7.78783E+00  6.44043E+00  4.22987E+00  2.06035E+00  6.23024E-01 -1.79686E-01
  -8.65350E-01 -1.44102E+00 -1.75227E+00 -1.95141E+00 -2.10632E+00 -2.23216E+00 -2.35702E+00 -2.46006E+00 -2.30452E+00 -1.10632E+00
   1.95087E-01  1.15919E+00  2.84268E+00  5.00472E+00  6.95558E+00  8.28433E+00  8.85977E+00  9.02593E+00  8.60781E+00  7.04136E+00
   4.78226E+00  2.78101E+00  1.50342E+00  7.05987E-01 -1.91828E-01 -9.23567E-01 -1.35478E+00 -1.70088E+00 -1.89259E+00 -1.86143E+00
  -1.65444E+00 -1.38631E+00 -1.18415E+00 -1.08877E+00 -1.11365E+00 -1.26599E+00 -1.48370E+00 -1.70210E+00 -1.89976E+00 -2.06557E+00
  -2.20999E+00 -2.33996E+00 -2.45279E+00 -2.56907E+00 -2.71850E+00 -2.81916E+00 -2.89865E+00 -2.98862E+00 -3.05417E+00 -3.15848E+00
  -3.24267E+00 -3.27989E+00 -3.33226E+00 -3.39718E+00 -3.45018E+00 -3.50823E+00 -3.59335E+00 -3.74563E+00 -3.96424E+00 -4.19948E+00
  -4.35280E+00 -4.43028E+00 -4.55446E+00 -4.70919E+00 -4.85278E+00 -4.91492E+00 -4.94260E+00 -5.00280E+00 -5.07598E+00 -5.14551E+00
  -5.20473E+00 -5.23925E+00 -5.32784E+00 -5.39475E+00 -5.30169E+00 -5.08432E+00 -4.80779E+00 -4.51835E+00 -4.18400E+00 -3.78540E+00
  -3.44821E+00 -3.37849E+00 -3.45624E+00 -3.60016E+00 -3.90376E+00 -4.28566E+00 -4.57527E+00 -4.67208E+00 -4.60973E+00 -4.43298E+00
  -4.19832E+00 -3.89925E+00 -3.54719E+00 -3.43901E+00 -3.54675E+00 -3.76890E+00 -4.11323E+00 -4.44495E+00 -4.72903E+00 -4.79007E+00
  -4.66713E+00 -4.53113E+00 -4.16835E+00 -3.67903E+00 -3.33865E+00 -3.32530E+00 -3.64230E+00 -4.07935E+00 -4.63465E+00 -5.52178E+00
  -6.38281E+00 -6.79345E+00 -6.71801E+00 -6.31488E+00 -5.83063E+00 -5.27277E+00 -4.54031E+00 -3.93506E+00 -3.72080E+00 -3.76907E+00
  -3.78562E+00 -3.66489E+00 -3.56836E+00 -3.53690E+00 -3.40891E+00 -3.19010E+00 -3.14369E+00 -3.29349E+00 -3.56816E+00 -3.83527E+00
  -4.10457E+00 -4.32831E+00 -4.37228E+00 -4.17293E+00 -3.78345E+00 -3.35022E+00 -2.95237E+00 -2.62590E+00 -2.42673E+00 -2.36437E+00
  -2.33366E+00 -2.18679E+00 -1.44916E+00  9.52824E-01  2.95431E+00  4.51663E+00  7.15511E+00  9.99181E+00  1.19753E+01  1.26482E+01
   1.20964E+01  1.09058E+01  8.85326E+00  5.34259E+00  1.31555E+00 -1.68032E+00 -3.15188E+00 -3.91349E+00 -4.75820E+00 -5.26770E+00
  -5.36666E+00 -5.37661E+00 -5.36320E+00 -5.33101E+00 -5.29547E+00 -5.27244E+00 -5.27291E+00 -5.31215E+00 -5.38061E+00 -5.45786E+00
  -5.52522E+00 -5.57805E+00 -5.61673E+00 -5.63639E+00 -5.63822E+00 -5.62937E+00 -5.61447E+00 -5.59867E+00 -5.58135E+00 -5.56241E+00
  -5.54288E+00 -5.51918E+00 -5.48934E+00 -5.45507E+00 -5.41639E+00 -5.37272E+00 -5.32402E+00 -5.27193E+00 -5.21846E+00 -5.16452E+00
  -5.11139E+00 -5.06090E+00 -5.01409E+00 -4.97273E+00 -4.93768E+00 -4.90977E+00 -4.88955E+00 -4.87739E+00 -4.87276E+00 -4.87499E+00
  -4.88298E+00 -4.89587E+00 -4.91222E+00 -4.93055E+00 -4.94918E+00 -4.96672E+00 -4.98168E+00 -4.99299E+00 -4.99955E+00 -5.00085E+00
  -4.99648E+00 -4.98661E+00 -4.97143E+00 -4.95169E+00 -4.92805E+00 -4.90165E+00 -4.87345E+00 -4.84466E+00 -4.81619E+00 -4.78904E+00
  -4.76376E+00 -4.74095E+00 -4.72063E+00 -4.70269E+00 -4.68633E+00 -4.67038E+00 -4.65255E+00 -4.62930E+00 -4.59338E+00 -4.52834E+00
  -4.42731E+00 -4.43007E+00 -4.48393E+00 -4.50226E+00 -4.59576E+00 -4.80865E+00 -5.11217E+00 -5.42868E+00 -5.60464E+00 -5.78706E+00
  -5.97998E+00 -5.98943E+00 -5.79192E+00 -5.50895E+00 -5.28472E+00 -5.17243E+00 -5.09763E+00 -5.08862E+00 -5.23394E+00 -5.49530E+00
  -5.76615E+00 -5.97928E+00 -6.15659E+00 -6.34445E+00 -6.51788E+00 -6.66899E+00 -6.80942E+00 -6.94245E+00 -7.06833E+00 -7.18672E+00
  -7.29673E+00 -7.39765E+00 -7.48853E+00 -7.56871E+00 -7.63741E+00 -7.69425E+00 -7.73880E+00 -7.77108E+00 -7.79111E+00 -7.79942E+00
  -7.79656E+00 -7.78366E+00 -7.76197E+00 -7.73329E+00 -7.69954E+00 -7.66316E+00 -7.62665E+00 -7.59295E+00 -7.56491E+00 -7.54564E+00
  -7.53790E+00 -7.54448E+00 -7.56759E+00 -7.60921E+00 -7.67054E+00 -7.75231E+00 -7.85436E+00 -7.97600E+00 -8.11569E+00 -8.27145E+00
  -8.44059E+00 -8.62024E+00 -8.80703E+00 -8.99775E+00 -9.18901E+00 -9.37784E+00 -9.56132E+00 -9.73714E+00 -9.90326E+00 -1.00583E+01
  -1.02012E+01 -1.03314E+01 -1.04488E+01 -1.05536E+01 -1.06463E+01 -1.07276E+01 -1.07983E+01 -1.08594E+01 -1.09118E+01 -1.09566E+01
  -1.09945E+01 -1.10267E+01 -1.10537E+01 -1.10764E+01 -1.10953E+01 -1.11110E+01 -1.11239E+01 -1.11345E+01 -1.11431E+01 -1.11500E+01
  -1.11553E+01 -1.11593E+01 -1.11621E+01 -1.11639E+01 -1.11646E+01 -1.11646E+01 -1.11637E+01 -1.11622E+01 -1.11599E+01 -1.11570E+01
  -1.11534E+01 -1.11493E+01 -1.11446E+01 -1.11394E+01 -1.11336E+01 -1.11274E+01 -1.11206E+01 -1.11134E+01 -1.11057E+01 -1.10976E+01
  -1.10889E+01 -1.10799E+01 -1.10704E+01 -1.10605E+01 -1.10501E+01 -1.10393E+01 -1.10282E+01 -1.10166E+01 -1.10047E+01 -1.09923E+01
  -1.09796E+01 -1.09666E+01 -1.09532E+01 -1.09394E+01 -1.09253E+01 -1.09108E+01 -1.08960E+01 -1.08809E+01 -1.08655E+01 -1.08497E+01
  -1.08337E+01 -1.08173E+01 -1.08006E+01 -1.07837E+01 -1.07664E+01 -1.07489E+01 -1.07310E+01 -1.07130E+01 -1.06946E+01 -1.06759E+01
  -1.06570E+01 -1.06378E+01 -1.06184E+01 -1.05987E+01 -1.05787E+01 -1.05585E+01 -1.05380E+01 -1.05173E+01 -1.04962E+01 -1.04750E+01
  -1.04534E+01 -1.04316E+01 -1.04094E+01 -1.03870E+01 -1.03642E+01 -1.03412E+01 -1.03177E+01 -1.02939E+01
 NY background values follow
     2.546E+00    2.486E+00    2.425E+00    2.364E+00    2.303E+00    2.241E+00    2.180E+00    2.118E+00    2.056E+00    1.994E+00
     1.931E+00    1.869E+00    1.807E+00    1.744E+00    1.682E+00    1.619E+00    1.556E+00    1.494E+00    1.431E+00    1.369E+00
     1.306E+00    1.244E+00    1.182E+00    1.120E+00    1.058E+00    9.964E-01    9.349E-01    8.736E-01    8.126E-01    7.518E-01
     6.914E-01    6.312E-01    5.714E-01    5.120E-01    4.529E-01    3.942E-01    3.360E-01    2.781E-01    2.208E-01    1.639E-01
     1.076E-01    5.176E-02   -3.505E-03   -5.819E-02   -1.123E-01   -1.657E-01   -2.185E-01   -2.707E-01   -3.222E-01   -3.731E-01
    -4.233E-01   -4.728E-01   -5.217E-01   -5.700E-01   -6.175E-01   -6.645E-01   -7.108E-01   -7.564E-01   -8.013E-01   -8.456E-01
    -8.893E-01   -9.323E-01   -9.746E-01   -1.016E+00   -1.057E+00   -1.098E+00   -1.137E+00   -1.176E+00   -1.215E+00   -1.253E+00
    -1.290E+00   -1.326E+00   -1.362E+00   -1.397E+00   -1.432E+00   -1.465E+00   -1.499E+00   -1.531E+00   -1.563E+00   -1.594E+00
    -1.625E+00   -1.655E+00   -1.684E+00   -1.713E+00   -1.741E+00   -1.768E+00   -1.795E+00   -1.821E+00   -1.846E+00   -1.871E+00
    -1.895E+00   -1.919E+00   -1.942E+00   -1.964E+00   -1.986E+00   -2.007E+00   -2.028E+00   -2.048E+00   -2.068E+00   -2.087E+00
    -2.106E+00   -2.124E+00   -2.142E+00   -2.160E+00   -2.178E+00   -2.195E+00   -2.212E+00   -2.229E+00   -2.245E+00   -2.262E+00
    -2.278E+00   -2.294E+00   -2.310E+00   -2.326E+00   -2.342E+00   -2.358E+00   -2.374E+00   -2.390E+00   -2.406E+00   -2.423E+00
    -2.439E+00   -2.456E+00   -2.472E+00   -2.489E+00   -2.506E+00   -2.524E+00   -2.542E+00   -2.560E+00   -2.578E+00   -2.597E+00
    -2.617E+00   -2.636E+00   -2.657E+00   -2.677E+00   -2.699E+00   -2.721E+00   -2.743E+00   -2.766E+00   -2.790E+00   -2.814E+00
    -2.839E+00   -2.864E+00   -2.890E+00   -2.916E+00   -2.943E+00   -2.971E+00   -2.999E+00   -3.027E+00   -3.056E+00   -3.085E+00
    -3.115E+00   -3.145E+00   -3.176E+00   -3.207E+00   -3.238E+00   -3.270E+00   -3.302E+00   -3.335E+00   -3.367E+00   -3.400E+00
    -3.434E+00   -3.468E+00   -3.502E+00   -3.536E+00   -3.570E+00   -3.605E+00   -3.640E+00   -3.675E+00   -3.710E+00   -3.746E+00
    -3.781E+00   -3.817E+00   -3.853E+00   -3.889E+00   -3.925E+00   -3.962E+00   -3.998E+00   -4.034E+00   -4.071E+00   -4.107E+00
    -4.144E+00   -4.180E+00   -4.217E+00   -4.253E+00   -4.290E+00   -4.326E+00   -4.362E+00   -4.399E+00   -4.435E+00   -4.471E+00
    -4.507E+00   -4.542E+00   -4.578E+00   -4.613E+00   -4.648E+00   -4.683E+00   -4.718E+00   -4.752E+00   -4.786E+00   -4.820E+00
    -4.854E+00   -4.887E+00   -4.920E+00   -4.952E+00   -4.984E+00   -5.016E+00   -5.047E+00   -5.078E+00   -5.109E+00   -5.139E+00
    -5.168E+00   -5.197E+00   -5.225E+00   -5.253E+00   -5.281E+00   -5.308E+00   -5.334E+00   -5.360E+00   -5.385E+00   -5.409E+00
    -5.433E+00   -5.456E+00   -5.478E+00   -5.500E+00   -5.521E+00   -5.542E+00   -5.561E+00   -5.580E+00   -5.598E+00   -5.615E+00
    -5.632E+00   -5.648E+00   -5.663E+00   -5.678E+00   -5.692E+00   -5.706E+00   -5.718E+00   -5.731E+00   -5.742E+00   -5.754E+00
    -5.764E+00   -5.774E+00   -5.784E+00   -5.793E+00   -5.802E+00   -5.810E+00   -5.818E+00   -5.825E+00   -5.832E+00   -5.839E+00
    -5.845E+00   -5.851E+00   -5.857E+00   -5.862E+00   -5.867E+00   -5.872E+00   -5.877E+00   -5.881E+00   -5.885E+00   -5.889E+00
    -5.893E+00   -5.896E+00   -5.900E+00   -5.903E+00   -5.906E+00   -5.910E+00   -5.913E+00   -5.916E+00   -5.919E+00   -5.922E+00
    -5.925E+00   -5.928E+00   -5.931E+00   -5.934E+00   -5.937E+00   -5.940E+00   -5.943E+00   -5.947E+00   -5.950E+00   -5.954E+00
    -5.958E+00   -5.962E+00   -5.967E+00   -5.971E+00   -5.976E+00   -5.981E+00   -5.987E+00   -5.993E+00   -5.999E+00   -6.006E+00
    -6.013E+00   -6.020E+00   -6.028E+00   -6.036E+00   -6.045E+00   -6.055E+00   -6.064E+00   -6.075E+00   -6.086E+00   -6.097E+00
    -6.109E+00   -6.122E+00   -6.135E+00   -6.149E+00   -6.163E+00   -6.179E+00   -6.195E+00   -6.211E+00   -6.229E+00   -6.247E+00
    -6.266E+00   -6.286E+00   -6.306E+00   -6.328E+00   -6.350E+00   -6.373E+00   -6.397E+00   -6.422E+00   -6.447E+00   -6.474E+00
    -6.501E+00   -6.530E+00   -6.559E+00   -6.588E+00   -6.619E+00   -6.650E+00   -6.682E+00   -6.715E+00   -6.748E+00   -6.782E+00
    -6.817E+00   -6.852E+00   -6.888E+00   -6.924E+00   -6.961E+00   -6.999E+00   -7.037E+00   -7.075E+00   -7.114E+00   -7.153E+00
    -7.193E+00   -7.233E+00   -7.274E+00   -7.315E+00   -7.356E+00   -7.397E+00   -7.439E+00   -7.481E+00   -7.523E+00   -7.566E+00
    -7.609E+00   -7.652E+00   -7.695E+00   -7.738E+00   -7.781E+00   -7.825E+00   -7.868E+00   -7.912E+00   -7.956E+00   -8.000E+00
    -8.043E+00   -8.087E+00   -8.131E+00   -8.174E+00   -8.218E+00   -8.261E+00   -8.305E+00   -8.348E+00   -8.391E+00   -8.434E+00
    -8.477E+00   -8.519E+00   -8.562E+00   -8.604E+00   -8.646E+00   -8.687E+00   -8.729E+00   -8.770E+00   -8.811E+00   -8.851E+00
    -8.891E+00   -8.931E+00   -8.970E+00   -9.009E+00   -9.047E+00   -9.085E+00   -9.122E+00   -9.159E+00   -9.196E+00   -9.232E+00
    -9.267E+00   -9.302E+00   -9.337E+00   -9.371E+00   -9.404E+00   -9.436E+00   -9.468E+00   -9.500E+00   -9.531E+00   -9.561E+00
    -9.590E+00   -9.619E+00   -9.647E+00   -9.674E+00   -9.700E+00   -9.726E+00   -9.751E+00   -9.775E+00   -9.798E+00   -9.821E+00
    -9.843E+00   -9.864E+00   -9.884E+00   -9.904E+00   -9.923E+00   -9.941E+00   -9.958E+00   -9.975E+00   -9.990E+00   -1.001E+01
    -1.002E+01   -1.003E+01   -1.005E+01   -1.006E+01   -1.007E+01   -1.008E+01   -1.009E+01   -1.010E+01   -1.011E+01   -1.012E+01
    -1.013E+01   -1.013E+01   -1.014E+01   -1.015E+01   -1.015E+01   -1.016E+01   -1.016E+01   -1.017E+01   -1.017E+01   -1.017E+01
    -1.017E+01   -1.017E+01   -1.017E+01   -1.018E+01   -1.017E+01   -1.017E+01   -1.017E+01   -1.017E+01   -1.017E+01   -1.017E+01
    -1.016E+01   -1.016E+01   -1.015E+01   -1.015E+01   -1.014E+01   -1.014E+01   -1.013E+01   -1.013E+01   -1.012E+01   -1.011E+01
    -1.010E+01   -1.009E+01   -1.009E+01   -1.008E+01   -1.007E+01   -1.006E+01   -1.005E+01   -1.004E+01   -1.003E+01   -1.002E+01
    -1.000E+01   -9.992E+00   -9.980E+00   -9.967E+00   -9.954E+00   -9.941E+00   -9.928E+00   -9.915E+00   -9.901E+00   -9.887E+00
    -9.872E+00   -9.858E+00   -9.843E+00   -9.828E+00   -9.812E+00   -9.797E+00   -9.781E+00   -9.765E+00   -9.749E+00   -9.733E+00
    -9.716E+00   -9.700E+00   -9.683E+00   -9.666E+00   -9.649E+00   -9.631E+00   -9.614E+00   -9.596E+00
 PCr      Conc. = 3.65E+02
