 LCModel (Version 6.3-1L) Copyright: S.W. Provencher.          Ref.: Magn. Reson. Med. 30:672-679 (1993).                
 Slice#1 Row#13 Col#11  K_02_press_1_raw_act
 36 lines in following concentration table = NCONC+1
    Conc.  %SD /Cr+PCr  Metabolite                                         
   80.524  34%   1.160 Ala                                                 
   10.288 127%   0.148 Asp                                                 
   69.434  20%   1.000 Cr                                                  
    0.000 999%   0.000 PCr                                                 
   10.247  76%   0.148 GABA                                                
    9.898  80%   0.143 Glc                                                 
   65.945  79%   0.950 Gln                                                 
   43.680 131%   0.629 Glu                                                 
    0.000 999%   0.000 GPC                                                 
   16.997  30%   0.245 PCh                                                 
   25.076  76%   0.361 GSH                                                 
    0.000 999%   0.000 Ins                                                 
   34.394  83%   0.495 Lac                                                 
  193.720   9%   2.790 NAA                                                 
    0.000 999%   0.000 NAAG                                                
    3.593  70% 5.2E-02 Scyllo                                              
   13.954  93%   0.201 Tau                                                 
   11.829 105%   0.170 -CrCH2                                              
   16.997  30%   0.245 GPC+PCh                                             
  193.720   9%   2.790 NAA+NAAG                                            
   69.434  20%   1.000 Cr+PCr                                              
  109.625  67%   1.579 Glu+Gln                                             
  211.552  44%   3.047 Lip13a                                              
    0.000 999%   0.000 Lip13b                                              
   75.307  50%   1.085 Lip09                                               
  188.934  26%   2.721 MM09                                                
   27.046  97%   0.390 Lip20                                               
   74.371 109%   1.071 MM20                                                
   65.186  52%   0.939 MM12                                                
    0.000 999%   0.000 MM14                                                
   48.492 106%   0.698 MM17                                                
  211.552  44%   3.047 Lip13a+Lip13b                                       
  276.738  31%   3.986 MM14+Lip13a+Lip13b+MM12                             
  264.242  17%   3.806 MM09+Lip09                                          
  101.417  80%   1.461 MM20+Lip20                                          
   6 lines in following misc. output table
  FWHM = 0.046 ppm    S/N =   3                                            
  Data shift =-0.008 ppm                                                   
  Ph:  13 deg       6.1 deg/ppm                                            
  alphaB,S = 8.5E+01,   5.1E+01                                            
   14 spline knots.   Ns = 5(1)                                            
   2 inflections.     1 extrema                                            
  498 points on ppm-axis = NY
      4.000000     3.992357     3.984714     3.977070     3.969427     3.961784     3.954141     3.946497     3.938854     3.931211
      3.923568     3.915925     3.908281     3.900638     3.892995     3.885352     3.877708     3.870065     3.862422     3.854779
      3.847136     3.839492     3.831849     3.824206     3.816563     3.808919     3.801276     3.793633     3.785990     3.778347
      3.770703     3.763060     3.755417     3.747774     3.740130     3.732487     3.724844     3.717201     3.709558     3.701914
      3.694271     3.686628     3.678985     3.671341     3.663698     3.656055     3.648412     3.640769     3.633125     3.625482
      3.617839     3.610196     3.602552     3.594909     3.587266     3.579623     3.571980     3.564336     3.556693     3.549050
      3.541407     3.533763     3.526120     3.518477     3.510834     3.503191     3.495547     3.487904     3.480261     3.472618
      3.464974     3.457331     3.449688     3.442045     3.434402     3.426758     3.419115     3.411472     3.403829     3.396185
      3.388542     3.380899     3.373256     3.365613     3.357969     3.350326     3.342683     3.335040     3.327396     3.319753
      3.312110     3.304467     3.296824     3.289180     3.281537     3.273894     3.266251     3.258607     3.250964     3.243321
      3.235678     3.228034     3.220391     3.212748     3.205105     3.197462     3.189818     3.182175     3.174532     3.166889
      3.159245     3.151602     3.143959     3.136316     3.128673     3.121029     3.113386     3.105743     3.098100     3.090456
      3.082813     3.075170     3.067527     3.059884     3.052240     3.044597     3.036954     3.029311     3.021667     3.014024
      3.006381     2.998738     2.991095     2.983451     2.975808     2.968165     2.960522     2.952878     2.945235     2.937592
      2.929949     2.922306     2.914662     2.907019     2.899376     2.891733     2.884089     2.876446     2.868803     2.861160
      2.853517     2.845873     2.838230     2.830587     2.822944     2.815300     2.807657     2.800014     2.792371     2.784728
      2.777084     2.769441     2.761798     2.754155     2.746511     2.738868     2.731225     2.723582     2.715939     2.708295
      2.700652     2.693009     2.685366     2.677722     2.670079     2.662436     2.654793     2.647150     2.639506     2.631863
      2.624220     2.616577     2.608933     2.601290     2.593647     2.586004     2.578361     2.570717     2.563074     2.555431
      2.547788     2.540144     2.532501     2.524858     2.517215     2.509572     2.501928     2.494285     2.486642     2.478999
      2.471355     2.463712     2.456069     2.448426     2.440783     2.433139     2.425496     2.417853     2.410210     2.402566
      2.394923     2.387280     2.379637     2.371994     2.364350     2.356707     2.349064     2.341421     2.333777     2.326134
      2.318491     2.310848     2.303205     2.295561     2.287918     2.280275     2.272632     2.264988     2.257345     2.249702
      2.242059     2.234416     2.226772     2.219129     2.211486     2.203843     2.196199     2.188556     2.180913     2.173270
      2.165627     2.157983     2.150340     2.142697     2.135054     2.127410     2.119767     2.112124     2.104481     2.096838
      2.089194     2.081551     2.073908     2.066265     2.058621     2.050978     2.043335     2.035692     2.028049     2.020405
      2.012762     2.005119     1.997476     1.989833     1.982190     1.974546     1.966903     1.959260     1.951617     1.943974
      1.936331     1.928688     1.921045     1.913402     1.905759     1.898115     1.890472     1.882829     1.875186     1.867543
      1.859900     1.852257     1.844614     1.836971     1.829327     1.821684     1.814041     1.806398     1.798755     1.791112
      1.783469     1.775826     1.768183     1.760540     1.752896     1.745253     1.737610     1.729967     1.722324     1.714681
      1.707038     1.699395     1.691752     1.684108     1.676465     1.668822     1.661179     1.653536     1.645893     1.638250
      1.630607     1.622964     1.615321     1.607677     1.600034     1.592391     1.584748     1.577105     1.569462     1.561819
      1.554176     1.546533     1.538890     1.531246     1.523603     1.515960     1.508317     1.500674     1.493031     1.485388
      1.477745     1.470102     1.462458     1.454815     1.447172     1.439529     1.431886     1.424243     1.416600     1.408957
      1.401314     1.393671     1.386027     1.378384     1.370741     1.363098     1.355455     1.347812     1.340169     1.332526
      1.324883     1.317240     1.309596     1.301953     1.294310     1.286667     1.279024     1.271381     1.263738     1.256095
      1.248452     1.240808     1.233165     1.225522     1.217879     1.210236     1.202593     1.194950     1.187307     1.179664
      1.172021     1.164377     1.156734     1.149091     1.141448     1.133805     1.126162     1.118519     1.110876     1.103233
      1.095590     1.087946     1.080303     1.072660     1.065017     1.057374     1.049731     1.042088     1.034445     1.026802
      1.019158     1.011515     1.003872     0.996229     0.988586     0.980943     0.973300     0.965657     0.958014     0.950371
      0.942727     0.935084     0.927441     0.919798     0.912155     0.904512     0.896869     0.889226     0.881583     0.873940
      0.866296     0.858653     0.851010     0.843367     0.835724     0.828081     0.820438     0.812795     0.805152     0.797508
      0.789865     0.782222     0.774579     0.766936     0.759293     0.751650     0.744007     0.736364     0.728721     0.721077
      0.713434     0.705791     0.698148     0.690505     0.682862     0.675219     0.667576     0.659933     0.652290     0.644646
      0.637003     0.629360     0.621717     0.614074     0.606431     0.598788     0.591145     0.583502     0.575858     0.568215
      0.560572     0.552929     0.545286     0.537643     0.530000     0.522357     0.514714     0.507071     0.499427     0.491784
      0.484141     0.476498     0.468855     0.461212     0.453569     0.445925     0.438282     0.430639     0.422996     0.415353
      0.407710     0.400067     0.392424     0.384780     0.377137     0.369494     0.361851     0.354208     0.346565     0.338922
      0.331278     0.323635     0.315992     0.308349     0.300706     0.293063     0.285420     0.277777     0.270133     0.262490
      0.254847     0.247204     0.239561     0.231918     0.224275     0.216631     0.208988     0.201345
 NY phased data points follow
  -2.52601E-01 -6.79274E-01 -9.24516E-01 -2.52429E+00 -1.26589E-01 -2.08147E+00 -1.72454E+00 -1.78797E+00 -1.34100E+00 -5.69438E-01
   1.83828E+00  1.61136E+00 -3.27135E-01 -1.51995E+00 -1.15838E-01 -2.17932E+00  2.98846E-01 -2.17877E+00 -3.01846E+00 -7.41421E-01
   6.06983E-02 -1.36223E-01  2.11022E-01 -9.85933E-01  1.65038E-01 -8.98533E-01  1.11564E-01  4.42149E-01 -1.77805E+00 -1.98541E-02
  -2.66545E-01 -7.12374E-01 -1.90980E+00 -1.01905E+00 -2.49188E+00 -2.64354E-01 -1.04056E+00 -9.61882E-01  1.93690E+00 -8.96002E-01
  -1.84536E-01 -2.59808E+00  4.57614E-01  6.62735E-01  1.30015E+00 -1.22579E+00 -2.29020E+00 -4.90378E-01 -1.81504E+00 -7.13141E-01
   2.09810E-01  9.52511E-01 -4.61506E-01  3.47015E-01 -1.30890E+00 -6.54184E-01 -2.32907E+00 -2.19291E+00 -1.41738E+00 -1.14412E+00
   2.56822E-01 -1.65175E+00 -1.94116E+00 -1.19001E+00 -1.67898E+00 -1.38133E-02  1.28841E+00 -5.28978E-01 -2.19557E+00 -2.32510E-01
  -7.92615E-01 -1.59643E+00  7.78790E-02 -7.41953E-01 -2.75422E-01 -1.82723E+00  7.72183E-01 -1.53849E+00  2.25678E-01 -4.15892E-01
  -1.42844E+00 -6.70945E-01  3.17600E-01 -1.39127E+00 -6.30307E-01  5.83195E-02 -1.11847E+00  1.75823E+00 -1.00064E+00 -4.78020E-01
  -1.28794E+00  1.49647E-01  2.22615E-01  3.66092E-01 -3.68085E-01 -1.81964E+00 -2.49300E-02 -7.28233E-01 -6.23718E-01 -1.60348E+00
  -8.41690E-01  4.14052E-01  1.54891E+00  2.22496E+00  2.75842E+00  6.04312E-01 -3.79808E-01 -1.08954E+00 -1.24250E+00 -9.51684E-01
   4.55304E-01 -1.72054E+00  2.61125E-01 -8.85486E-01 -9.86615E-01 -1.58418E+00 -9.34843E-01  4.71387E-02 -8.89520E-01 -1.54582E-01
  -2.88449E+00 -1.63158E+00  4.85696E-01 -8.67982E-01 -1.26262E+00  1.59825E+00  1.58431E+00  4.49181E+00  1.55153E+00  2.96635E+00
   1.80915E+00  1.91271E+00 -1.28273E+00 -4.71642E-01 -7.02913E-01 -7.36388E-01 -7.04201E-01 -6.86928E-01 -1.16664E+00 -1.89412E+00
   1.44585E+00 -1.00991E+00  1.33374E+00 -1.55442E+00  6.05626E-01 -1.18708E+00 -1.49316E+00 -2.45948E+00  1.66871E-02 -2.99705E+00
  -4.60106E-01  1.78844E+00  5.21520E-01  1.22614E+00  1.45294E+00  1.71805E+00 -4.31692E-01 -7.64686E-01 -1.89939E+00 -1.00394E+00
  -2.57155E-01  2.72629E+00  8.56318E-01 -2.78678E+00  4.51368E-01  1.48283E+00  1.96515E+00  5.47996E-01 -4.53402E+00  5.10552E-01
  -7.60154E-01 -1.89438E+00 -3.41630E+00 -7.23128E-01 -1.44484E+00 -1.02943E+00 -3.61302E+00 -2.35434E+00  6.71499E-01  2.75121E-01
  -1.02835E+00 -9.07130E-02 -1.11412E+00 -2.93957E+00  3.06452E-01 -4.63689E-01 -1.97970E+00 -1.63319E+00 -3.35096E+00  2.75635E-01
   1.53139E+00  2.30717E+00  1.03725E+00 -9.64843E-01 -1.51500E+00 -1.48869E+00 -7.20834E-02  1.19265E+00 -2.04949E+00  3.63443E-01
  -1.62809E+00  1.38813E+00 -1.10993E+00 -4.36944E-01  9.06601E-01 -2.42262E-02 -8.77013E-01  8.88100E-01 -1.42603E+00 -1.73429E+00
  -1.00916E+00 -1.01749E+00 -2.15657E+00  6.18415E-02  7.96817E-01  8.08293E-01 -1.88827E-01  2.25636E+00  2.06044E+00  2.97152E-01
  -3.36343E-01 -3.80287E-01 -1.04452E+00 -1.11585E+00  5.33639E-01  7.75606E-01 -2.84694E-01 -6.16411E-01  1.75038E-01 -6.61502E-01
  -1.68120E+00 -1.72309E+00 -1.38620E-01  4.57928E-01 -3.47116E-01 -6.71519E-01  4.48721E-01  1.59582E+00 -7.54992E-02  3.58518E-01
  -1.08115E-01  1.20850E+00  9.44913E-01 -2.27873E+00 -4.25171E-01 -3.45440E-01  6.02270E-01 -7.17928E-01  2.94641E-01  1.21820E+00
  -6.44323E-01  8.23706E-02 -6.07862E-01 -5.57704E-01  1.00754E-01  1.37668E+00  3.52682E-01  2.40438E+00  5.10061E+00  8.58075E+00
   8.17854E+00  9.21349E+00  6.53696E+00  3.99345E+00  2.39639E+00 -4.49028E-01 -2.67532E+00 -1.38095E+00 -1.19190E+00  3.07657E-01
  -9.95142E-01  8.95059E-01  4.29360E-01  1.33768E+00  3.36766E-02 -1.78329E+00  2.18169E-01  5.81464E-01  3.06144E-01  1.59789E+00
  -6.43149E-01 -1.62828E+00  5.30091E-01 -5.42480E-01  1.34049E+00 -2.39433E+00 -7.05549E-02  1.90298E-01  3.27731E-02 -2.16154E+00
  -8.13083E-01 -2.22984E-01 -3.29288E-01  2.65488E+00  2.44474E+00  1.80302E+00  1.56150E+00  1.70696E+00  1.23553E+00 -2.05882E+00
   2.16078E+00  3.24020E-01  8.12239E-01  1.06887E+00  2.89418E+00 -1.06033E+00  9.19614E-01  1.05589E+00 -2.42028E+00 -4.06483E-01
  -4.10937E-02 -4.80773E-01  7.31197E-01 -6.74751E-01 -4.46249E+00 -1.26204E+00 -1.20345E+00  5.13872E-01 -1.01364E-01  1.25799E+00
  -1.91367E+00  9.91882E-01  9.65265E-01  2.11866E+00 -2.75441E-02  1.46034E+00  9.41108E-01  1.56199E+00  1.51436E+00 -3.17425E-01
  -6.11580E-01 -3.25559E-01 -2.40675E+00 -2.55624E+00 -5.38556E-02 -2.36866E+00  7.08213E-01 -5.01423E-01  1.06837E+00  9.72364E-01
   1.75916E+00 -1.05969E+00 -1.04824E+00  5.13740E-01  1.34245E+00  3.01231E+00  2.26395E+00  1.29684E+00  3.82150E-01 -6.45620E-01
   1.07980E+00 -1.77781E-01  3.20367E-02  2.15688E+00  3.94781E-01  1.03842E-01  8.18856E-01  2.24576E-01  2.52278E+00  1.96932E+00
   1.16966E+00  2.21082E+00  2.84593E+00  6.43516E-01  3.01868E+00  1.74665E-02 -7.87435E-01  2.92562E+00  8.54994E-01  4.88232E-01
   3.26088E+00  1.16436E+00  2.40620E+00  8.82480E-01  4.17512E+00  1.16494E+00  9.88515E-02 -1.41064E-01  1.56725E+00  7.48569E-01
   1.09747E+00  7.50140E-01 -4.94996E-01  4.52112E-01  2.42409E+00 -3.08905E-01  1.78487E+00  1.83128E+00  1.84932E+00  2.60515E+00
   3.20493E+00  2.68582E+00  3.80045E+00  1.38229E+00  3.68905E+00  3.76546E+00  3.03860E+00  7.05960E-01  2.50411E+00  4.16806E+00
   5.40615E-01  2.39108E+00  1.71433E+00  2.44680E+00  3.40305E+00  1.93743E+00  3.04607E-01  2.22053E+00  1.30613E+00  3.00779E+00
   1.59183E+00  5.52062E-01  2.27987E+00  1.96079E+00  1.24357E+00 -2.08121E-01  2.41130E+00  2.83292E+00  5.69813E-01  1.37342E+00
   1.44829E-01  2.96029E+00  3.55792E+00  1.45873E+00 -1.40437E-02  1.60280E+00  2.86882E+00  8.80803E-01  3.68104E-02  1.00496E+00
   1.19097E+00  9.62320E-01 -2.59487E+00  1.38781E+00  2.49794E+00  1.74774E+00  6.69977E-01  7.11232E-01  3.72627E-01  3.86223E-01
  -5.85634E-02  7.38296E-01 -4.52833E-01 -9.34511E-02  7.43577E-01  2.84702E+00 -1.73241E-01 -2.12645E-01  1.48781E+00  2.87352E+00
   2.65774E-01 -3.84868E-01  7.44806E-01  1.99056E+00  9.70185E-01  6.47070E-01  8.11095E-01 -1.01847E+00  5.05146E-01  1.53564E+00
   3.89871E-01 -1.22864E+00  5.46775E-01  1.80623E+00 -7.75325E-01 -9.23967E-01 -1.05053E+00  1.65115E+00  1.61972E-02  2.14936E+00
   1.00887E+00 -4.74945E-01 -1.25527E+00 -7.47101E-01  1.09607E+00 -6.59896E-01 -4.76076E-01  1.07308E+00  1.26134E+00 -1.26500E-01
  -1.53112E+00 -1.00271E+00  3.14848E+00  8.84886E-01  1.72459E+00 -9.49716E-02 -1.36535E-01 -3.09675E-01  8.14897E-01 -1.70513E+00
   5.18051E-02 -2.61087E-01  1.93629E+00 -6.06137E-01  1.69435E+00  5.46304E-01  1.59163E+00 -5.19808E-02
 NY points of the fit to the data follow
  -1.05231E+00 -1.02971E+00 -1.00634E+00 -9.91852E-01 -1.00046E+00 -1.03098E+00 -1.02992E+00 -8.95303E-01 -5.67869E-01 -7.99658E-02
   4.25720E-01  7.66612E-01  8.19088E-01  5.70519E-01  1.12587E-01 -3.95323E-01 -7.80958E-01 -9.52173E-01 -9.63921E-01 -9.19735E-01
  -8.32470E-01 -7.15591E-01 -6.07132E-01 -5.55935E-01 -5.90654E-01 -6.79573E-01 -7.56295E-01 -7.57510E-01 -6.62423E-01 -4.97192E-01
  -3.15838E-01 -1.81919E-01 -1.54039E-01 -2.51247E-01 -4.24738E-01 -5.99873E-01 -7.32454E-01 -8.24604E-01 -8.68865E-01 -8.72629E-01
  -8.53535E-01 -8.39324E-01 -8.43363E-01 -8.56811E-01 -8.67339E-01 -8.65153E-01 -8.55925E-01 -8.50569E-01 -8.48002E-01 -8.43937E-01
  -8.36303E-01 -8.25890E-01 -8.14334E-01 -8.04683E-01 -8.00556E-01 -8.02727E-01 -8.09545E-01 -8.18125E-01 -8.23719E-01 -8.24459E-01
  -8.21602E-01 -8.15625E-01 -8.06811E-01 -7.96809E-01 -7.86762E-01 -7.78651E-01 -7.75221E-01 -7.77899E-01 -7.85650E-01 -7.94577E-01
  -7.97548E-01 -7.86432E-01 -7.58466E-01 -7.19699E-01 -6.83350E-01 -6.63116E-01 -6.68941E-01 -6.97584E-01 -7.35590E-01 -7.67452E-01
  -7.79129E-01 -7.56918E-01 -6.99007E-01 -6.17832E-01 -5.31807E-01 -4.65955E-01 -4.40959E-01 -4.61322E-01 -5.16408E-01 -5.89238E-01
  -6.61583E-01 -7.17874E-01 -7.52421E-01 -7.73873E-01 -7.83224E-01 -7.71371E-01 -7.34873E-01 -6.70407E-01 -5.35261E-01 -2.56759E-01
   1.86601E-01  7.32043E-01  1.22313E+00  1.48724E+00  1.42974E+00  1.07453E+00  5.45310E-01  1.29265E-02 -3.69691E-01 -5.36694E-01
  -5.71318E-01 -5.88973E-01 -6.01679E-01 -6.08630E-01 -6.10650E-01 -6.11736E-01 -6.14306E-01 -6.19134E-01 -6.25629E-01 -6.30530E-01
  -6.26731E-01 -5.93375E-01 -4.43350E-01 -5.93266E-02  5.85368E-01  1.38357E+00  2.09912E+00  2.48488E+00  2.41403E+00  1.93428E+00
   1.22672E+00  5.16628E-01 -6.27057E-03 -2.71055E-01 -3.98782E-01 -5.16869E-01 -6.03580E-01 -6.31426E-01 -5.95183E-01 -5.13085E-01
  -4.23065E-01 -3.59280E-01 -3.32511E-01 -3.39648E-01 -3.67064E-01 -3.97608E-01 -4.22856E-01 -4.41073E-01 -4.55065E-01 -4.68830E-01
  -4.81422E-01 -4.91254E-01 -4.96818E-01 -4.97361E-01 -4.92083E-01 -4.83906E-01 -4.86482E-01 -5.12894E-01 -5.66373E-01 -6.32534E-01
  -6.79101E-01 -6.80033E-01 -6.31607E-01 -5.57294E-01 -4.94398E-01 -4.73490E-01 -5.06066E-01 -5.77321E-01 -6.50941E-01 -7.03080E-01
  -7.30331E-01 -7.50878E-01 -7.91376E-01 -8.46727E-01 -8.93988E-01 -9.09950E-01 -8.89808E-01 -8.48633E-01 -8.09229E-01 -7.87308E-01
  -7.84791E-01 -7.96455E-01 -8.17489E-01 -8.33223E-01 -8.30818E-01 -8.06533E-01 -7.46803E-01 -6.40908E-01 -4.90870E-01 -3.30746E-01
  -2.09844E-01 -1.63247E-01 -1.95246E-01 -2.83275E-01 -3.85288E-01 -4.75044E-01 -5.36980E-01 -5.53106E-01 -5.10257E-01 -4.03170E-01
  -2.40106E-01 -4.76961E-02  1.25227E-01  2.24736E-01  2.10013E-01  6.72979E-02 -1.85555E-01 -4.92295E-01 -7.79478E-01 -9.72885E-01
  -1.02702E+00 -9.35589E-01 -7.26347E-01 -4.56591E-01 -1.97604E-01 -1.87148E-02  4.62850E-02  1.36586E-02 -9.91358E-02 -2.61110E-01
  -4.05346E-01 -4.78626E-01 -4.61975E-01 -3.74901E-01 -2.50969E-01 -1.26557E-01 -4.08757E-02 -2.05709E-02 -6.39155E-02 -1.37596E-01
  -2.01530E-01 -2.40277E-01 -2.52280E-01 -2.34899E-01 -1.89738E-01 -1.21174E-01 -3.82232E-02  4.44717E-02  1.06058E-01  1.24323E-01
   7.92901E-02 -2.57167E-02 -1.54119E-01 -2.51829E-01 -2.95436E-01 -2.88446E-01 -2.39530E-01 -1.68059E-01 -1.00245E-01 -4.70717E-02
   3.91951E-03  5.48826E-02  9.99655E-02  1.38112E-01  2.09787E-01  5.61381E-01  1.54240E+00  3.25846E+00  5.43301E+00  7.40780E+00
   8.47240E+00  8.24450E+00  6.83671E+00  4.76272E+00  2.69423E+00  1.22722E+00  6.04459E-01  4.54515E-01  3.51478E-01  2.70541E-01
   2.14405E-01  1.79618E-01  1.63253E-01  1.61622E-01  1.66464E-01  1.69186E-01  1.64185E-01  1.50176E-01  1.28710E-01  1.04080E-01
   8.09453E-02  6.28193E-02  5.23621E-02  5.00408E-02  5.43200E-02  6.33991E-02  7.52305E-02  8.78027E-02  1.00283E-01  1.12242E-01
   1.23793E-01  1.35640E-01  1.48161E-01  1.61249E-01  1.74958E-01  1.89489E-01  2.04632E-01  2.19818E-01  2.34577E-01  2.48438E-01
   2.60812E-01  2.71437E-01  2.80144E-01  2.86820E-01  2.91423E-01  2.93990E-01  2.94639E-01  2.93595E-01  2.91187E-01  2.87824E-01
   2.83940E-01  2.80009E-01  2.76561E-01  2.74192E-01  2.73582E-01  2.75517E-01  2.80918E-01  2.90976E-01  3.07387E-01  3.32804E-01
   3.71838E-01  4.33925E-01  5.42748E-01  7.30621E-01  9.68186E-01  1.16452E+00  1.19593E+00  9.73671E-01  5.04424E-01 -1.15275E-01
  -7.43917E-01 -1.20416E+00 -1.34112E+00 -1.08856E+00 -5.31117E-01  1.33852E-01  7.58792E-01  1.21958E+00  1.44108E+00  1.43315E+00
   1.28292E+00  1.13129E+00  1.10075E+00  1.17375E+00  1.28082E+00  1.36257E+00  1.36043E+00  1.24650E+00  1.03843E+00  7.88099E-01
   5.74817E-01  4.80604E-01  5.55255E-01  7.86851E-01  1.09081E+00  1.37617E+00  1.59036E+00  1.69894E+00  1.70051E+00  1.62600E+00
   1.52912E+00  1.45996E+00  1.41840E+00  1.38297E+00  1.34866E+00  1.31398E+00  1.27840E+00  1.24190E+00  1.20475E+00  1.16744E+00
   1.13056E+00  1.09477E+00  1.06076E+00  1.02922E+00  1.00084E+00  9.76321E-01  9.56328E-01  9.41523E-01  9.32539E-01  9.29988E-01
   9.34450E-01  9.46469E-01  9.66536E-01  9.95063E-01  1.03235E+00  1.07857E+00  1.13372E+00  1.19759E+00  1.26974E+00  1.34946E+00
   1.43572E+00  1.52722E+00  1.62234E+00  1.71924E+00  1.81581E+00  1.90982E+00  1.99892E+00  2.08081E+00  2.15329E+00  2.21438E+00
   2.26238E+00  2.29599E+00  2.31435E+00  2.31707E+00  2.30426E+00  2.27649E+00  2.23475E+00  2.18042E+00  2.11514E+00  2.04079E+00
   1.95933E+00  1.87274E+00  1.78297E+00  1.69180E+00  1.60088E+00  1.51162E+00  1.42520E+00  1.34255E+00  1.26437E+00  1.19112E+00
   1.12309E+00  1.06039E+00  1.00299E+00  9.50736E-01  9.03400E-01  8.60697E-01  8.22303E-01  7.87878E-01  7.57071E-01  7.29539E-01
   7.04953E-01  6.83012E-01  6.63434E-01  6.45962E-01  6.30358E-01  6.16412E-01  6.03937E-01  5.92773E-01  5.82776E-01  5.73816E-01
   5.65778E-01  5.58563E-01  5.52087E-01  5.46279E-01  5.41071E-01  5.36402E-01  5.32220E-01  5.28478E-01  5.25140E-01  5.22173E-01
   5.19543E-01  5.17219E-01  5.15175E-01  5.13391E-01  5.11850E-01  5.10534E-01  5.09424E-01  5.08503E-01  5.07756E-01  5.07175E-01
   5.06749E-01  5.06470E-01  5.06323E-01  5.06301E-01  5.06395E-01  5.06603E-01  5.06916E-01  5.07329E-01  5.07830E-01  5.08416E-01
   5.09084E-01  5.09832E-01  5.10655E-01  5.11547E-01  5.12501E-01  5.13516E-01  5.14591E-01  5.15725E-01  5.16912E-01  5.18147E-01
   5.19427E-01  5.20752E-01  5.22122E-01  5.23534E-01  5.24985E-01  5.26469E-01  5.27986E-01  5.29537E-01  5.31122E-01  5.32737E-01
   5.34377E-01  5.36041E-01  5.37728E-01  5.39440E-01  5.41175E-01  5.42929E-01  5.44697E-01  5.46480E-01
 NY background values follow
    -1.034E+00   -1.031E+00   -1.028E+00   -1.025E+00   -1.022E+00   -1.019E+00   -1.016E+00   -1.013E+00   -1.010E+00   -1.007E+00
    -1.004E+00   -1.001E+00   -9.979E-01   -9.949E-01   -9.919E-01   -9.888E-01   -9.858E-01   -9.828E-01   -9.798E-01   -9.768E-01
    -9.738E-01   -9.707E-01   -9.677E-01   -9.647E-01   -9.617E-01   -9.587E-01   -9.557E-01   -9.527E-01   -9.496E-01   -9.466E-01
    -9.436E-01   -9.406E-01   -9.376E-01   -9.346E-01   -9.316E-01   -9.285E-01   -9.255E-01   -9.225E-01   -9.195E-01   -9.165E-01
    -9.135E-01   -9.104E-01   -9.074E-01   -9.044E-01   -9.014E-01   -8.984E-01   -8.954E-01   -8.924E-01   -8.893E-01   -8.863E-01
    -8.833E-01   -8.803E-01   -8.773E-01   -8.743E-01   -8.713E-01   -8.682E-01   -8.652E-01   -8.622E-01   -8.592E-01   -8.562E-01
    -8.532E-01   -8.502E-01   -8.471E-01   -8.441E-01   -8.411E-01   -8.381E-01   -8.351E-01   -8.321E-01   -8.291E-01   -8.260E-01
    -8.230E-01   -8.200E-01   -8.170E-01   -8.140E-01   -8.110E-01   -8.080E-01   -8.049E-01   -8.019E-01   -7.989E-01   -7.959E-01
    -7.929E-01   -7.899E-01   -7.869E-01   -7.839E-01   -7.808E-01   -7.778E-01   -7.748E-01   -7.718E-01   -7.688E-01   -7.658E-01
    -7.628E-01   -7.597E-01   -7.567E-01   -7.537E-01   -7.507E-01   -7.477E-01   -7.447E-01   -7.417E-01   -7.387E-01   -7.356E-01
    -7.326E-01   -7.296E-01   -7.266E-01   -7.236E-01   -7.206E-01   -7.176E-01   -7.146E-01   -7.115E-01   -7.085E-01   -7.055E-01
    -7.025E-01   -6.995E-01   -6.965E-01   -6.935E-01   -6.905E-01   -6.874E-01   -6.844E-01   -6.814E-01   -6.784E-01   -6.754E-01
    -6.724E-01   -6.694E-01   -6.664E-01   -6.633E-01   -6.603E-01   -6.573E-01   -6.543E-01   -6.513E-01   -6.483E-01   -6.453E-01
    -6.423E-01   -6.393E-01   -6.362E-01   -6.332E-01   -6.302E-01   -6.272E-01   -6.242E-01   -6.212E-01   -6.182E-01   -6.152E-01
    -6.122E-01   -6.091E-01   -6.061E-01   -6.031E-01   -6.001E-01   -5.971E-01   -5.941E-01   -5.911E-01   -5.881E-01   -5.851E-01
    -5.820E-01   -5.790E-01   -5.760E-01   -5.730E-01   -5.700E-01   -5.670E-01   -5.640E-01   -5.610E-01   -5.580E-01   -5.550E-01
    -5.519E-01   -5.489E-01   -5.459E-01   -5.429E-01   -5.399E-01   -5.369E-01   -5.339E-01   -5.309E-01   -5.279E-01   -5.249E-01
    -5.219E-01   -5.188E-01   -5.158E-01   -5.128E-01   -5.098E-01   -5.068E-01   -5.038E-01   -5.008E-01   -4.978E-01   -4.948E-01
    -4.918E-01   -4.888E-01   -4.858E-01   -4.827E-01   -4.797E-01   -4.767E-01   -4.737E-01   -4.707E-01   -4.677E-01   -4.647E-01
    -4.617E-01   -4.587E-01   -4.557E-01   -4.527E-01   -4.497E-01   -4.467E-01   -4.436E-01   -4.406E-01   -4.376E-01   -4.346E-01
    -4.316E-01   -4.286E-01   -4.256E-01   -4.226E-01   -4.196E-01   -4.166E-01   -4.136E-01   -4.106E-01   -4.076E-01   -4.046E-01
    -4.016E-01   -3.985E-01   -3.955E-01   -3.925E-01   -3.895E-01   -3.865E-01   -3.835E-01   -3.805E-01   -3.775E-01   -3.745E-01
    -3.715E-01   -3.685E-01   -3.655E-01   -3.625E-01   -3.595E-01   -3.565E-01   -3.535E-01   -3.505E-01   -3.475E-01   -3.444E-01
    -3.414E-01   -3.384E-01   -3.354E-01   -3.324E-01   -3.294E-01   -3.264E-01   -3.234E-01   -3.204E-01   -3.174E-01   -3.144E-01
    -3.114E-01   -3.084E-01   -3.054E-01   -3.024E-01   -2.994E-01   -2.964E-01   -2.934E-01   -2.904E-01   -2.874E-01   -2.844E-01
    -2.814E-01   -2.784E-01   -2.754E-01   -2.724E-01   -2.694E-01   -2.664E-01   -2.634E-01   -2.604E-01   -2.574E-01   -2.544E-01
    -2.514E-01   -2.483E-01   -2.453E-01   -2.423E-01   -2.393E-01   -2.363E-01   -2.333E-01   -2.303E-01   -2.273E-01   -2.243E-01
    -2.213E-01   -2.183E-01   -2.153E-01   -2.123E-01   -2.093E-01   -2.063E-01   -2.033E-01   -2.003E-01   -1.973E-01   -1.943E-01
    -1.913E-01   -1.883E-01   -1.853E-01   -1.823E-01   -1.793E-01   -1.763E-01   -1.733E-01   -1.703E-01   -1.673E-01   -1.643E-01
    -1.613E-01   -1.583E-01   -1.553E-01   -1.523E-01   -1.493E-01   -1.463E-01   -1.434E-01   -1.404E-01   -1.374E-01   -1.344E-01
    -1.314E-01   -1.284E-01   -1.254E-01   -1.224E-01   -1.194E-01   -1.164E-01   -1.134E-01   -1.104E-01   -1.074E-01   -1.044E-01
    -1.014E-01   -9.839E-02   -9.540E-02   -9.240E-02   -8.940E-02   -8.641E-02   -8.341E-02   -8.042E-02   -7.742E-02   -7.442E-02
    -7.143E-02   -6.843E-02   -6.544E-02   -6.244E-02   -5.945E-02   -5.645E-02   -5.346E-02   -5.046E-02   -4.747E-02   -4.448E-02
    -4.148E-02   -3.849E-02   -3.549E-02   -3.250E-02   -2.951E-02   -2.651E-02   -2.352E-02   -2.052E-02   -1.753E-02   -1.454E-02
    -1.155E-02   -8.552E-03   -5.559E-03   -2.567E-03    4.259E-04    3.418E-03    6.411E-03    9.403E-03    1.239E-02    1.539E-02
     1.838E-02    2.137E-02    2.436E-02    2.735E-02    3.034E-02    3.334E-02    3.633E-02    3.932E-02    4.231E-02    4.530E-02
     4.829E-02    5.128E-02    5.427E-02    5.726E-02    6.025E-02    6.324E-02    6.623E-02    6.922E-02    7.221E-02    7.520E-02
     7.819E-02    8.118E-02    8.417E-02    8.716E-02    9.014E-02    9.313E-02    9.612E-02    9.911E-02    1.021E-01    1.051E-01
     1.081E-01    1.111E-01    1.140E-01    1.170E-01    1.200E-01    1.230E-01    1.260E-01    1.290E-01    1.320E-01    1.350E-01
     1.379E-01    1.409E-01    1.439E-01    1.469E-01    1.499E-01    1.529E-01    1.559E-01    1.588E-01    1.618E-01    1.648E-01
     1.678E-01    1.708E-01    1.738E-01    1.768E-01    1.797E-01    1.827E-01    1.857E-01    1.887E-01    1.917E-01    1.947E-01
     1.976E-01    2.006E-01    2.036E-01    2.066E-01    2.096E-01    2.126E-01    2.155E-01    2.185E-01    2.215E-01    2.245E-01
     2.275E-01    2.305E-01    2.334E-01    2.364E-01    2.394E-01    2.424E-01    2.454E-01    2.483E-01    2.513E-01    2.543E-01
     2.573E-01    2.603E-01    2.632E-01    2.662E-01    2.692E-01    2.722E-01    2.752E-01    2.781E-01    2.811E-01    2.841E-01
     2.871E-01    2.901E-01    2.930E-01    2.960E-01    2.990E-01    3.020E-01    3.050E-01    3.079E-01    3.109E-01    3.139E-01
     3.169E-01    3.198E-01    3.228E-01    3.258E-01    3.288E-01    3.318E-01    3.347E-01    3.377E-01    3.407E-01    3.437E-01
     3.466E-01    3.496E-01    3.526E-01    3.556E-01    3.585E-01    3.615E-01    3.645E-01    3.675E-01    3.704E-01    3.734E-01
     3.764E-01    3.794E-01    3.823E-01    3.853E-01    3.883E-01    3.912E-01    3.942E-01    3.972E-01    4.002E-01    4.031E-01
     4.061E-01    4.091E-01    4.121E-01    4.150E-01    4.180E-01    4.210E-01    4.239E-01    4.269E-01    4.299E-01    4.329E-01
     4.358E-01    4.388E-01    4.418E-01    4.447E-01    4.477E-01    4.507E-01    4.537E-01    4.566E-01
 Ala      Conc. = 8.05E+01
