 LCModel (Version 6.3-1L) Copyright: S.W. Provencher.          Ref.: Magn. Reson. Med. 30:672-679 (1993).                
 Slice#3 Row#6 Col#3  K_02_press_1_raw_act
 36 lines in following concentration table = NCONC+1
    Conc.  %SD /Cr+PCr  Metabolite                                         
   39.033 427% 2.2E-02 Ala                                                 
    0.000 999%   0.000 Asp                                                 
  187.441 179%   0.105 Cr                                                  
 1.60E+03  21%   0.895 PCr                                                 
    0.000 999%   0.000 GABA                                                
    0.000 999%   0.000 Glc                                                 
  808.220  47%   0.453 Gln                                                 
 1.97E+03  22%   1.106 Glu                                                 
  432.688   5%   0.243 GPC                                                 
    0.000 999%   0.000 PCh                                                 
  450.036  19%   0.252 GSH                                                 
  328.786  84%   0.184 Ins                                                 
  154.634 118% 8.7E-02 Lac                                                 
 2.48E+03   7%   1.392 NAA                                                 
   61.522 308% 3.5E-02 NAAG                                                
    0.000 999%   0.000 Scyllo                                              
    0.000 999%   0.000 Tau                                                 
    0.000 999%   0.000 -CrCH2                                              
  432.688   5%   0.243 GPC+PCh                                             
 2.54E+03   3%   1.427 NAA+NAAG                                            
 1.78E+03   3%   1.000 Cr+PCr                                              
 2.78E+03  26%   1.559 Glu+Gln                                             
    0.000 999%   0.000 Lip13a                                              
    0.000 999%   0.000 Lip13b                                              
    0.000 999%   0.000 Lip09                                               
  216.061  53%   0.121 MM09                                                
 7.11E-03 999% 4.0E-06 Lip20                                               
  342.883  52%   0.192 MM20                                                
   60.851  62% 3.4E-02 MM12                                                
  217.763  47%   0.122 MM14                                                
   61.090  99% 3.4E-02 MM17                                                
    0.000 999%   0.000 Lip13a+Lip13b                                       
  278.613  48%   0.156 MM14+Lip13a+Lip13b+MM12                             
  216.061  53%   0.121 MM09+Lip09                                          
  342.891  52%   0.192 MM20+Lip20                                          
   6 lines in following misc. output table
  FWHM = 0.076 ppm    S/N =  11                                            
  Data shift =-0.008 ppm                                                   
  Ph:   2 deg     -11.1 deg/ppm                                            
  alphaB,S = 4.6E-01,   1.1E+02                                            
   14 spline knots.   Ns =11(1)                                            
  (21) 7 infls.   (19) 1 extrs.                                            
  498 points on ppm-axis = NY
      4.000000     3.992357     3.984714     3.977070     3.969427     3.961784     3.954141     3.946497     3.938854     3.931211
      3.923568     3.915925     3.908281     3.900638     3.892995     3.885352     3.877708     3.870065     3.862422     3.854779
      3.847136     3.839492     3.831849     3.824206     3.816563     3.808919     3.801276     3.793633     3.785990     3.778347
      3.770703     3.763060     3.755417     3.747774     3.740130     3.732487     3.724844     3.717201     3.709558     3.701914
      3.694271     3.686628     3.678985     3.671341     3.663698     3.656055     3.648412     3.640769     3.633125     3.625482
      3.617839     3.610196     3.602552     3.594909     3.587266     3.579623     3.571980     3.564336     3.556693     3.549050
      3.541407     3.533763     3.526120     3.518477     3.510834     3.503191     3.495547     3.487904     3.480261     3.472618
      3.464974     3.457331     3.449688     3.442045     3.434402     3.426758     3.419115     3.411472     3.403829     3.396185
      3.388542     3.380899     3.373256     3.365613     3.357969     3.350326     3.342683     3.335040     3.327396     3.319753
      3.312110     3.304467     3.296824     3.289180     3.281537     3.273894     3.266251     3.258607     3.250964     3.243321
      3.235678     3.228034     3.220391     3.212748     3.205105     3.197462     3.189818     3.182175     3.174532     3.166889
      3.159245     3.151602     3.143959     3.136316     3.128673     3.121029     3.113386     3.105743     3.098100     3.090456
      3.082813     3.075170     3.067527     3.059884     3.052240     3.044597     3.036954     3.029311     3.021667     3.014024
      3.006381     2.998738     2.991095     2.983451     2.975808     2.968165     2.960522     2.952878     2.945235     2.937592
      2.929949     2.922306     2.914662     2.907019     2.899376     2.891733     2.884089     2.876446     2.868803     2.861160
      2.853517     2.845873     2.838230     2.830587     2.822944     2.815300     2.807657     2.800014     2.792371     2.784728
      2.777084     2.769441     2.761798     2.754155     2.746511     2.738868     2.731225     2.723582     2.715939     2.708295
      2.700652     2.693009     2.685366     2.677722     2.670079     2.662436     2.654793     2.647150     2.639506     2.631863
      2.624220     2.616577     2.608933     2.601290     2.593647     2.586004     2.578361     2.570717     2.563074     2.555431
      2.547788     2.540144     2.532501     2.524858     2.517215     2.509572     2.501928     2.494285     2.486642     2.478999
      2.471355     2.463712     2.456069     2.448426     2.440783     2.433139     2.425496     2.417853     2.410210     2.402566
      2.394923     2.387280     2.379637     2.371994     2.364350     2.356707     2.349064     2.341421     2.333777     2.326134
      2.318491     2.310848     2.303205     2.295561     2.287918     2.280275     2.272632     2.264988     2.257345     2.249702
      2.242059     2.234416     2.226772     2.219129     2.211486     2.203843     2.196199     2.188556     2.180913     2.173270
      2.165627     2.157983     2.150340     2.142697     2.135054     2.127410     2.119767     2.112124     2.104481     2.096838
      2.089194     2.081551     2.073908     2.066265     2.058621     2.050978     2.043335     2.035692     2.028049     2.020405
      2.012762     2.005119     1.997476     1.989833     1.982190     1.974546     1.966903     1.959260     1.951617     1.943974
      1.936331     1.928688     1.921045     1.913402     1.905759     1.898115     1.890472     1.882829     1.875186     1.867543
      1.859900     1.852257     1.844614     1.836971     1.829327     1.821684     1.814041     1.806398     1.798755     1.791112
      1.783469     1.775826     1.768183     1.760540     1.752896     1.745253     1.737610     1.729967     1.722324     1.714681
      1.707038     1.699395     1.691752     1.684108     1.676465     1.668822     1.661179     1.653536     1.645893     1.638250
      1.630607     1.622964     1.615321     1.607677     1.600034     1.592391     1.584748     1.577105     1.569462     1.561819
      1.554176     1.546533     1.538890     1.531246     1.523603     1.515960     1.508317     1.500674     1.493031     1.485388
      1.477745     1.470102     1.462458     1.454815     1.447172     1.439529     1.431886     1.424243     1.416600     1.408957
      1.401314     1.393671     1.386027     1.378384     1.370741     1.363098     1.355455     1.347812     1.340169     1.332526
      1.324883     1.317240     1.309596     1.301953     1.294310     1.286667     1.279024     1.271381     1.263738     1.256095
      1.248452     1.240808     1.233165     1.225522     1.217879     1.210236     1.202593     1.194950     1.187307     1.179664
      1.172021     1.164377     1.156734     1.149091     1.141448     1.133805     1.126162     1.118519     1.110876     1.103233
      1.095590     1.087946     1.080303     1.072660     1.065017     1.057374     1.049731     1.042088     1.034445     1.026802
      1.019158     1.011515     1.003872     0.996229     0.988586     0.980943     0.973300     0.965657     0.958014     0.950371
      0.942727     0.935084     0.927441     0.919798     0.912155     0.904512     0.896869     0.889226     0.881583     0.873940
      0.866296     0.858653     0.851010     0.843367     0.835724     0.828081     0.820438     0.812795     0.805152     0.797508
      0.789865     0.782222     0.774579     0.766936     0.759293     0.751650     0.744007     0.736364     0.728721     0.721077
      0.713434     0.705791     0.698148     0.690505     0.682862     0.675219     0.667576     0.659933     0.652290     0.644646
      0.637003     0.629360     0.621717     0.614074     0.606431     0.598788     0.591145     0.583502     0.575858     0.568215
      0.560572     0.552929     0.545286     0.537643     0.530000     0.522357     0.514714     0.507071     0.499427     0.491784
      0.484141     0.476498     0.468855     0.461212     0.453569     0.445925     0.438282     0.430639     0.422996     0.415353
      0.407710     0.400067     0.392424     0.384780     0.377137     0.369494     0.361851     0.354208     0.346565     0.338922
      0.331278     0.323635     0.315992     0.308349     0.300706     0.293063     0.285420     0.277777     0.270133     0.262490
      0.254847     0.247204     0.239561     0.231918     0.224275     0.216631     0.208988     0.201345
 NY phased data points follow
   4.67761E+01  4.62261E+01  4.63731E+01  4.82929E+01  5.38682E+01  5.19257E+01  5.75546E+01  6.00392E+01  5.94542E+01  6.03175E+01
   6.50714E+01  6.16909E+01  6.33817E+01  5.97986E+01  5.54742E+01  5.35314E+01  5.08466E+01  4.70598E+01  4.51991E+01  4.33297E+01
   4.32536E+01  3.82221E+01  3.94000E+01  4.35562E+01  3.60365E+01  3.70817E+01  3.74202E+01  4.01288E+01  3.92549E+01  3.71538E+01
   3.93129E+01  3.64622E+01  3.80799E+01  4.13555E+01  3.50539E+01  3.87924E+01  3.87469E+01  3.53606E+01  3.62242E+01  3.56968E+01
   3.59259E+01  3.43221E+01  3.37229E+01  3.59318E+01  3.42638E+01  3.42065E+01  3.39411E+01  3.40513E+01  3.84447E+01  3.71205E+01
   3.53125E+01  3.33966E+01  3.20666E+01  3.07891E+01  2.74424E+01  2.84869E+01  3.35168E+01  2.83157E+01  2.96429E+01  2.81732E+01
   2.44587E+01  2.83569E+01  2.37062E+01  2.25887E+01  2.10456E+01  2.17758E+01  2.16254E+01  1.87295E+01  1.77145E+01  1.91262E+01
   2.00834E+01  2.00848E+01  2.10325E+01  1.82438E+01  1.81267E+01  1.77497E+01  1.85502E+01  1.97904E+01  1.75342E+01  1.90166E+01
   2.03179E+01  2.17726E+01  1.90649E+01  2.06837E+01  1.82235E+01  1.96043E+01  1.94068E+01  2.14535E+01  2.15149E+01  2.24494E+01
   2.03468E+01  2.14872E+01  2.28508E+01  2.59928E+01  2.67669E+01  3.14395E+01  3.00927E+01  3.45652E+01  2.90373E+01  3.16236E+01
   3.99615E+01  3.50092E+01  4.08388E+01  4.65885E+01  4.72633E+01  4.93558E+01  4.27726E+01  3.74902E+01  3.76567E+01  3.11066E+01
   2.90498E+01  2.65267E+01  2.74486E+01  2.71321E+01  2.77513E+01  2.60944E+01  2.80058E+01  3.07043E+01  2.59350E+01  2.91802E+01
   3.52149E+01  3.68026E+01  3.87693E+01  4.22821E+01  4.30863E+01  4.88298E+01  4.87231E+01  5.66969E+01  5.78091E+01  5.78955E+01
   5.31071E+01  5.01539E+01  4.32301E+01  3.58386E+01  3.36819E+01  3.17090E+01  2.98172E+01  2.61332E+01  2.45577E+01  2.62859E+01
   2.52122E+01  2.32579E+01  2.04056E+01  2.38842E+01  2.32129E+01  2.53283E+01  2.59272E+01  2.08966E+01  2.17778E+01  2.39585E+01
   2.48919E+01  1.90683E+01  2.11111E+01  2.12125E+01  2.29128E+01  1.89884E+01  2.11287E+01  2.01476E+01  1.95634E+01  1.82673E+01
   1.95385E+01  1.80480E+01  2.09086E+01  1.46514E+01  1.88744E+01  1.62973E+01  1.80218E+01  1.66253E+01  1.66681E+01  1.57151E+01
   1.88997E+01  1.35340E+01  1.38536E+01  1.65686E+01  1.17662E+01  1.08533E+01  1.07514E+01  1.46719E+01  1.47057E+01  1.32355E+01
   1.30123E+01  1.22794E+01  1.35308E+01  1.29280E+01  1.75086E+01  1.46966E+01  1.68839E+01  1.78855E+01  2.06043E+01  1.96207E+01
   2.29457E+01  2.19683E+01  2.47600E+01  2.55045E+01  2.47089E+01  2.44595E+01  2.51645E+01  2.45323E+01  2.55597E+01  2.49341E+01
   2.43961E+01  2.20827E+01  2.36894E+01  2.66775E+01  2.26380E+01  2.26170E+01  2.21633E+01  2.38278E+01  2.38223E+01  2.58814E+01
   1.92124E+01  2.34374E+01  2.19515E+01  2.28055E+01  2.75139E+01  2.58345E+01  2.54515E+01  2.86939E+01  2.99222E+01  2.28850E+01
   2.44076E+01  2.14507E+01  2.29387E+01  1.73151E+01  1.83110E+01  1.95898E+01  2.11888E+01  2.23841E+01  2.46883E+01  2.44430E+01
   2.37547E+01  2.68061E+01  2.33913E+01  2.43803E+01  2.33064E+01  2.09784E+01  2.13885E+01  2.18488E+01  1.88876E+01  2.23566E+01
   1.73597E+01  1.42182E+01  1.99300E+01  1.92402E+01  2.10833E+01  2.43237E+01  2.08530E+01  2.34696E+01  2.64206E+01  2.82456E+01
   3.15019E+01  3.25755E+01  3.41742E+01  3.53225E+01  4.08708E+01  4.84135E+01  4.44647E+01  5.43506E+01  5.98826E+01  6.80193E+01
   7.12699E+01  7.08078E+01  7.06869E+01  6.77967E+01  6.00453E+01  5.26725E+01  4.44307E+01  3.76024E+01  3.54020E+01  2.88070E+01
   3.08017E+01  2.71043E+01  2.28333E+01  2.19861E+01  2.16274E+01  1.81196E+01  1.75280E+01  1.83929E+01  1.91567E+01  1.61416E+01
   1.63739E+01  1.57427E+01  1.52777E+01  1.72470E+01  1.39083E+01  1.31711E+01  1.64103E+01  1.33150E+01  8.40752E+00  1.17762E+01
   1.13238E+01  1.10909E+01  1.29030E+01  1.19484E+01  1.33614E+01  1.31742E+01  9.62307E+00  1.19228E+01  1.05406E+01  9.73802E+00
   1.19890E+01  1.30081E+01  9.13047E+00  9.61073E+00  1.24994E+01  9.73866E+00  9.73412E+00  1.37827E+01  9.55834E+00  1.30193E+01
   1.06338E+01  9.26176E+00  8.34828E+00  1.46044E+01  8.29526E+00  9.80875E+00  8.59591E+00  8.37057E+00  7.98097E+00  1.29826E+01
   1.09664E+01  8.36497E+00  9.66782E+00  1.01634E+01  9.21107E+00  9.84823E+00  7.74967E+00  8.20724E+00  4.90524E+00  1.12143E+01
   9.59949E+00  9.23011E+00  9.39934E+00  8.22198E+00  1.01057E+01  1.18728E+01  1.00071E+01  1.01408E+01  8.39991E+00  1.14851E+01
   8.98691E+00  1.33266E+01  9.21108E+00  4.16460E+00  4.97636E+00  6.29486E+00  6.33213E+00  7.79125E+00  3.69558E+00  9.70238E+00
   4.08359E+00  6.54051E+00  2.59425E+00  3.65639E+00  3.35144E+00  1.19218E+00  4.18690E+00  3.89416E+00  3.73114E+00  5.79361E+00
   2.83289E+00 -3.16062E-01  1.93985E+00  4.76396E+00  1.72288E+00  1.71447E+00  3.77001E+00  1.35744E+00  7.59418E-01  1.57937E+00
   8.47901E-01  3.58631E+00  1.97099E+00  9.18217E-01  5.26480E+00  3.98055E+00  6.17330E-01  4.73538E+00  1.65812E+00  3.39280E+00
   2.28867E+00  3.43323E+00  7.45049E-01  1.77891E+00  1.39827E+00  8.97755E-02 -8.00839E-01  3.35629E+00  1.97716E-01  2.73014E+00
   2.66871E+00  2.17808E+00 -3.09941E+00  1.38197E+00  3.52506E+00  5.40886E+00  3.14984E+00  6.55368E+00  2.73624E+00  3.98136E+00
   3.97497E+00  2.31073E+00  4.33773E+00  3.95046E+00  1.01953E+00  2.90741E+00  1.97772E+00  2.98862E+00  1.77109E+00  5.16435E+00
   7.82055E-01  3.63608E+00  3.39023E+00  3.51542E+00  1.35788E+00  1.96138E+00  5.32026E+00  4.64008E+00  2.38219E+00  3.42423E+00
   7.12256E-01 -1.10660E+00  2.29367E-01 -1.76880E+00  1.83246E+00  2.37626E+00  3.66764E-01  6.82862E+00  1.37279E+00  4.55491E+00
   4.91309E+00  3.36120E+00  4.46206E+00  3.62713E+00  3.72585E+00  1.70732E+00  4.71580E+00  6.69526E+00  2.77481E+00  2.86076E+00
   7.12379E+00  4.38481E+00  3.67947E+00  3.52552E+00  4.30786E+00  1.46439E+00  5.70049E+00  4.04166E+00  4.04471E+00  4.20207E+00
   1.47815E+00  1.69198E+00  1.39006E+00 -2.40757E-01  2.31124E+00  4.10570E-02  3.50763E+00  4.44105E+00  2.12416E+00  1.37862E+00
   3.29743E+00  2.58221E+00  1.77717E+00  1.00202E+00  5.25158E+00  3.26651E+00  1.74525E+00  2.79540E+00 -3.01815E-01  3.25925E+00
   2.19933E-01  3.36434E+00  3.78115E+00 -9.87180E-01  3.82709E+00  3.68011E+00  3.49598E+00 -7.70164E-02  1.67628E+00  1.67164E+00
   4.26329E+00  3.80061E+00  4.39323E+00  1.16477E+00  8.60781E-01  5.43705E+00  2.28565E+00  3.18398E+00  4.92476E+00  6.77056E-01
   2.59883E+00  4.59449E+00  7.25772E-01  1.21974E+00  4.32408E+00  4.84427E+00  3.28455E+00  3.13893E+00
 NY points of the fit to the data follow
   4.45153E+01  4.54617E+01  4.69025E+01  4.84373E+01  4.98188E+01  5.15705E+01  5.40705E+01  5.68461E+01  5.95255E+01  6.18644E+01
   6.32633E+01  6.31501E+01  6.13760E+01  5.83580E+01  5.48164E+01  5.13065E+01  4.83804E+01  4.61896E+01  4.48247E+01  4.41108E+01
   4.27280E+01  4.06628E+01  3.95535E+01  3.92506E+01  3.90883E+01  3.88248E+01  3.86381E+01  3.86484E+01  3.87796E+01  3.91417E+01
   3.97095E+01  4.02680E+01  4.06223E+01  4.05010E+01  3.97988E+01  3.86711E+01  3.73079E+01  3.58679E+01  3.46054E+01  3.38495E+01
   3.36301E+01  3.34608E+01  3.31900E+01  3.31330E+01  3.30240E+01  3.27377E+01  3.23565E+01  3.20050E+01  3.17895E+01  3.15766E+01
   3.12818E+01  3.08319E+01  3.02202E+01  2.95746E+01  2.89430E+01  2.83593E+01  2.79156E+01  2.75552E+01  2.71602E+01  2.67608E+01
   2.64268E+01  2.61392E+01  2.58194E+01  2.54807E+01  2.51453E+01  2.48313E+01  2.45434E+01  2.42833E+01  2.40741E+01  2.39185E+01
   2.37827E+01  2.36272E+01  2.34501E+01  2.32631E+01  2.30691E+01  2.28702E+01  2.26514E+01  2.24233E+01  2.21979E+01  2.19815E+01
   2.17734E+01  2.15711E+01  2.13770E+01  2.11837E+01  2.09793E+01  2.07829E+01  2.05937E+01  2.04067E+01  2.02425E+01  2.01419E+01
   2.01853E+01  2.08239E+01  2.31789E+01  2.55710E+01  2.66835E+01  2.76423E+01  2.92814E+01  3.11295E+01  3.26384E+01  3.44001E+01
   3.70516E+01  4.01423E+01  4.31047E+01  4.56065E+01  4.70146E+01  4.66587E+01  4.43628E+01  4.07029E+01  3.65622E+01  3.26690E+01
   2.96615E+01  2.78177E+01  2.69193E+01  2.62583E+01  2.49769E+01  2.39166E+01  2.59411E+01  2.84513E+01  2.97081E+01  3.11845E+01
   3.36036E+01  3.61997E+01  3.85293E+01  4.14552E+01  4.53986E+01  4.96532E+01  5.36402E+01  5.68207E+01  5.82955E+01  5.73048E+01
   5.38650E+01  4.88705E+01  4.33835E+01  3.83139E+01  3.44282E+01  3.19344E+01  3.04161E+01  2.88569E+01  2.61840E+01  2.29991E+01
   2.15951E+01  2.14357E+01  2.15487E+01  2.16239E+01  2.15291E+01  2.12837E+01  2.10371E+01  2.08891E+01  2.08026E+01  2.07306E+01
   2.05714E+01  2.03658E+01  2.02000E+01  2.00631E+01  1.99767E+01  1.98708E+01  1.97396E+01  1.96366E+01  1.95276E+01  1.93614E+01
   1.91372E+01  1.89261E+01  1.87847E+01  1.86925E+01  1.86178E+01  1.84980E+01  1.83561E+01  1.82405E+01  1.80103E+01  1.76154E+01
   1.71166E+01  1.67277E+01  1.65607E+01  1.64841E+01  1.63042E+01  1.60420E+01  1.57447E+01  1.56087E+01  1.57770E+01  1.60990E+01
   1.64516E+01  1.68041E+01  1.71232E+01  1.73663E+01  1.75966E+01  1.78848E+01  1.82735E+01  1.87547E+01  1.94327E+01  2.01944E+01
   2.09166E+01  2.16032E+01  2.22387E+01  2.27718E+01  2.30097E+01  2.29655E+01  2.28146E+01  2.27071E+01  2.27497E+01  2.27461E+01
   2.28503E+01  2.31757E+01  2.34403E+01  2.36246E+01  2.38460E+01  2.41949E+01  2.42544E+01  2.35454E+01  2.25419E+01  2.16732E+01
   2.09516E+01  2.02222E+01  1.97684E+01  2.01494E+01  2.13032E+01  2.24574E+01  2.32304E+01  2.35677E+01  2.33082E+01  2.23059E+01
   2.06792E+01  1.89920E+01  1.78318E+01  1.72128E+01  1.73212E+01  1.81984E+01  1.96065E+01  2.10119E+01  2.18753E+01  2.23690E+01
   2.27017E+01  2.26696E+01  2.22444E+01  2.19368E+01  2.21767E+01  2.26334E+01  2.27273E+01  2.25774E+01  2.24765E+01  2.22206E+01
   2.16514E+01  2.09276E+01  2.03293E+01  1.99706E+01  1.98172E+01  1.99306E+01  2.03622E+01  2.10565E+01  2.23972E+01  2.63152E+01
   3.12932E+01  3.39276E+01  3.56522E+01  3.86878E+01  4.27044E+01  4.62673E+01  4.97039E+01  5.43827E+01  5.99254E+01  6.51675E+01
   6.95115E+01  7.20875E+01  7.16931E+01  6.77665E+01  6.10159E+01  5.29580E+01  4.50163E+01  3.84064E+01  3.38803E+01  3.13236E+01
   2.95857E+01  2.67583E+01  2.21489E+01  1.86327E+01  1.75120E+01  1.70719E+01  1.67780E+01  1.65498E+01  1.63486E+01  1.60931E+01
   1.58203E+01  1.55553E+01  1.53122E+01  1.51041E+01  1.49276E+01  1.47439E+01  1.45376E+01  1.43306E+01  1.41346E+01  1.39442E+01
   1.37561E+01  1.35750E+01  1.34089E+01  1.32563E+01  1.31027E+01  1.29471E+01  1.27922E+01  1.26387E+01  1.24857E+01  1.23337E+01
   1.21842E+01  1.20373E+01  1.18913E+01  1.17458E+01  1.16003E+01  1.14541E+01  1.13068E+01  1.11584E+01  1.10095E+01  1.08609E+01
   1.07136E+01  1.05689E+01  1.04270E+01  1.02896E+01  1.01588E+01  1.00388E+01  9.93461E+00  9.81991E+00  9.68682E+00  9.56165E+00
   9.45060E+00  9.34000E+00  9.22240E+00  9.10696E+00  9.01846E+00  8.94964E+00  8.86115E+00  8.74687E+00  8.61833E+00  8.48042E+00
   8.33265E+00  8.18888E+00  8.07538E+00  8.00436E+00  7.97637E+00  7.99730E+00  8.07620E+00  8.10169E+00  7.97898E+00  7.81310E+00
   7.67765E+00  7.52097E+00  7.29585E+00  7.05625E+00  6.93765E+00  6.87947E+00  6.71647E+00  6.43225E+00  6.08710E+00  5.70355E+00
   5.26984E+00  4.85214E+00  4.56022E+00  4.43016E+00  4.44804E+00  4.58699E+00  4.77838E+00  4.92185E+00  4.93176E+00  4.81772E+00
   4.69351E+00  4.57952E+00  4.43135E+00  4.29030E+00  4.18940E+00  4.12383E+00  4.03452E+00  3.86173E+00  3.68055E+00  3.54751E+00
   3.43892E+00  3.34341E+00  3.25679E+00  3.17712E+00  3.10341E+00  3.03521E+00  2.97235E+00  2.91483E+00  2.86275E+00  2.81627E+00
   2.77565E+00  2.74119E+00  2.71325E+00  2.69216E+00  2.67825E+00  2.67181E+00  2.67315E+00  2.68250E+00  2.69997E+00  2.72553E+00
   2.75897E+00  2.79991E+00  2.84772E+00  2.90156E+00  2.96027E+00  3.02243E+00  3.08638E+00  3.15026E+00  3.21208E+00  3.26974E+00
   3.32117E+00  3.36435E+00  3.39749E+00  3.41911E+00  3.42809E+00  3.42373E+00  3.40580E+00  3.37454E+00  3.33067E+00  3.27536E+00
   3.21011E+00  3.13671E+00  3.05709E+00  2.97332E+00  2.88744E+00  2.80142E+00  2.71703E+00  2.63582E+00  2.55905E+00  2.48774E+00
   2.42261E+00  2.36414E+00  2.31252E+00  2.26776E+00  2.22967E+00  2.19795E+00  2.17223E+00  2.15205E+00  2.13691E+00  2.12630E+00
   2.11972E+00  2.11672E+00  2.11687E+00  2.11978E+00  2.12507E+00  2.13240E+00  2.14151E+00  2.15215E+00  2.16410E+00  2.17716E+00
   2.19115E+00  2.20591E+00  2.22133E+00  2.23729E+00  2.25368E+00  2.27041E+00  2.28736E+00  2.30447E+00  2.32166E+00  2.33888E+00
   2.35605E+00  2.37309E+00  2.38996E+00  2.40660E+00  2.42303E+00  2.43925E+00  2.45525E+00  2.47102E+00  2.48658E+00  2.50193E+00
   2.51708E+00  2.53205E+00  2.54683E+00  2.56142E+00  2.57584E+00  2.59012E+00  2.60425E+00  2.61826E+00  2.63213E+00  2.64588E+00
   2.65952E+00  2.67309E+00  2.68659E+00  2.70002E+00  2.71340E+00  2.72674E+00  2.74007E+00  2.75341E+00  2.76675E+00  2.78012E+00
   2.79351E+00  2.80696E+00  2.82049E+00  2.83412E+00  2.84785E+00  2.86170E+00  2.87569E+00  2.88985E+00  2.90419E+00  2.91876E+00
   2.93355E+00  2.94858E+00  2.96389E+00  2.97951E+00  2.99549E+00  3.01185E+00  3.02863E+00  3.04585E+00
 NY background values follow
     3.751E+01    3.728E+01    3.704E+01    3.681E+01    3.658E+01    3.634E+01    3.611E+01    3.587E+01    3.564E+01    3.541E+01
     3.517E+01    3.494E+01    3.470E+01    3.447E+01    3.424E+01    3.400E+01    3.377E+01    3.354E+01    3.330E+01    3.307E+01
     3.284E+01    3.261E+01    3.238E+01    3.215E+01    3.192E+01    3.170E+01    3.147E+01    3.124E+01    3.102E+01    3.079E+01
     3.057E+01    3.035E+01    3.013E+01    2.990E+01    2.969E+01    2.947E+01    2.925E+01    2.903E+01    2.882E+01    2.861E+01
     2.839E+01    2.818E+01    2.798E+01    2.777E+01    2.756E+01    2.736E+01    2.715E+01    2.695E+01    2.675E+01    2.656E+01
     2.636E+01    2.617E+01    2.598E+01    2.579E+01    2.560E+01    2.541E+01    2.523E+01    2.504E+01    2.486E+01    2.469E+01
     2.451E+01    2.434E+01    2.417E+01    2.400E+01    2.383E+01    2.367E+01    2.351E+01    2.335E+01    2.319E+01    2.304E+01
     2.289E+01    2.274E+01    2.259E+01    2.245E+01    2.231E+01    2.217E+01    2.204E+01    2.191E+01    2.178E+01    2.165E+01
     2.153E+01    2.141E+01    2.129E+01    2.118E+01    2.107E+01    2.096E+01    2.086E+01    2.076E+01    2.066E+01    2.057E+01
     2.048E+01    2.039E+01    2.031E+01    2.023E+01    2.016E+01    2.008E+01    2.001E+01    1.995E+01    1.988E+01    1.982E+01
     1.977E+01    1.971E+01    1.966E+01    1.962E+01    1.957E+01    1.953E+01    1.949E+01    1.945E+01    1.942E+01    1.938E+01
     1.935E+01    1.933E+01    1.930E+01    1.928E+01    1.926E+01    1.924E+01    1.923E+01    1.921E+01    1.920E+01    1.919E+01
     1.918E+01    1.918E+01    1.917E+01    1.917E+01    1.917E+01    1.917E+01    1.917E+01    1.918E+01    1.918E+01    1.919E+01
     1.920E+01    1.921E+01    1.922E+01    1.923E+01    1.924E+01    1.926E+01    1.927E+01    1.929E+01    1.930E+01    1.932E+01
     1.934E+01    1.936E+01    1.938E+01    1.940E+01    1.943E+01    1.945E+01    1.947E+01    1.950E+01    1.952E+01    1.955E+01
     1.957E+01    1.960E+01    1.963E+01    1.965E+01    1.968E+01    1.971E+01    1.974E+01    1.977E+01    1.980E+01    1.983E+01
     1.986E+01    1.989E+01    1.992E+01    1.995E+01    1.998E+01    2.001E+01    2.004E+01    2.007E+01    2.011E+01    2.014E+01
     2.017E+01    2.020E+01    2.023E+01    2.026E+01    2.029E+01    2.033E+01    2.036E+01    2.039E+01    2.042E+01    2.045E+01
     2.048E+01    2.051E+01    2.054E+01    2.057E+01    2.059E+01    2.062E+01    2.065E+01    2.067E+01    2.070E+01    2.072E+01
     2.075E+01    2.077E+01    2.079E+01    2.081E+01    2.083E+01    2.085E+01    2.087E+01    2.088E+01    2.090E+01    2.091E+01
     2.092E+01    2.093E+01    2.094E+01    2.095E+01    2.095E+01    2.095E+01    2.095E+01    2.095E+01    2.095E+01    2.094E+01
     2.093E+01    2.092E+01    2.091E+01    2.090E+01    2.088E+01    2.086E+01    2.084E+01    2.081E+01    2.078E+01    2.075E+01
     2.072E+01    2.068E+01    2.064E+01    2.060E+01    2.055E+01    2.050E+01    2.045E+01    2.039E+01    2.033E+01    2.027E+01
     2.021E+01    2.014E+01    2.007E+01    1.999E+01    1.991E+01    1.983E+01    1.975E+01    1.966E+01    1.958E+01    1.948E+01
     1.939E+01    1.929E+01    1.920E+01    1.909E+01    1.899E+01    1.889E+01    1.878E+01    1.867E+01    1.856E+01    1.844E+01
     1.833E+01    1.821E+01    1.809E+01    1.797E+01    1.784E+01    1.772E+01    1.759E+01    1.746E+01    1.733E+01    1.720E+01
     1.707E+01    1.694E+01    1.680E+01    1.667E+01    1.653E+01    1.639E+01    1.625E+01    1.611E+01    1.597E+01    1.583E+01
     1.568E+01    1.554E+01    1.540E+01    1.525E+01    1.511E+01    1.496E+01    1.482E+01    1.467E+01    1.452E+01    1.437E+01
     1.423E+01    1.408E+01    1.393E+01    1.378E+01    1.363E+01    1.348E+01    1.333E+01    1.318E+01    1.303E+01    1.288E+01
     1.273E+01    1.258E+01    1.242E+01    1.227E+01    1.212E+01    1.197E+01    1.182E+01    1.167E+01    1.152E+01    1.136E+01
     1.121E+01    1.106E+01    1.091E+01    1.076E+01    1.061E+01    1.046E+01    1.031E+01    1.016E+01    1.001E+01    9.864E+00
     9.715E+00    9.567E+00    9.419E+00    9.272E+00    9.125E+00    8.979E+00    8.833E+00    8.688E+00    8.544E+00    8.400E+00
     8.257E+00    8.114E+00    7.972E+00    7.831E+00    7.691E+00    7.552E+00    7.414E+00    7.276E+00    7.140E+00    7.004E+00
     6.870E+00    6.736E+00    6.604E+00    6.473E+00    6.343E+00    6.214E+00    6.087E+00    5.961E+00    5.836E+00    5.713E+00
     5.591E+00    5.470E+00    5.351E+00    5.234E+00    5.118E+00    5.003E+00    4.890E+00    4.779E+00    4.670E+00    4.562E+00
     4.457E+00    4.353E+00    4.250E+00    4.150E+00    4.052E+00    3.955E+00    3.861E+00    3.769E+00    3.678E+00    3.590E+00
     3.504E+00    3.421E+00    3.339E+00    3.260E+00    3.183E+00    3.108E+00    3.035E+00    2.964E+00    2.896E+00    2.829E+00
     2.765E+00    2.703E+00    2.643E+00    2.585E+00    2.529E+00    2.474E+00    2.422E+00    2.372E+00    2.324E+00    2.277E+00
     2.233E+00    2.190E+00    2.150E+00    2.111E+00    2.073E+00    2.038E+00    2.005E+00    1.973E+00    1.943E+00    1.914E+00
     1.888E+00    1.863E+00    1.839E+00    1.818E+00    1.797E+00    1.779E+00    1.762E+00    1.747E+00    1.733E+00    1.720E+00
     1.709E+00    1.700E+00    1.692E+00    1.685E+00    1.680E+00    1.676E+00    1.674E+00    1.673E+00    1.673E+00    1.675E+00
     1.678E+00    1.682E+00    1.687E+00    1.693E+00    1.701E+00    1.709E+00    1.718E+00    1.729E+00    1.740E+00    1.752E+00
     1.766E+00    1.780E+00    1.794E+00    1.810E+00    1.826E+00    1.843E+00    1.860E+00    1.878E+00    1.897E+00    1.916E+00
     1.935E+00    1.955E+00    1.976E+00    1.996E+00    2.017E+00    2.039E+00    2.060E+00    2.082E+00    2.104E+00    2.126E+00
     2.148E+00    2.170E+00    2.192E+00    2.215E+00    2.237E+00    2.259E+00    2.280E+00    2.302E+00    2.323E+00    2.344E+00
     2.365E+00    2.386E+00    2.406E+00    2.426E+00    2.445E+00    2.464E+00    2.482E+00    2.501E+00    2.518E+00    2.536E+00
     2.553E+00    2.570E+00    2.587E+00    2.603E+00    2.619E+00    2.635E+00    2.651E+00    2.666E+00    2.682E+00    2.697E+00
     2.712E+00    2.726E+00    2.741E+00    2.756E+00    2.770E+00    2.784E+00    2.798E+00    2.812E+00    2.827E+00    2.841E+00
     2.855E+00    2.869E+00    2.883E+00    2.896E+00    2.911E+00    2.925E+00    2.939E+00    2.953E+00    2.967E+00    2.982E+00
     2.996E+00    3.011E+00    3.025E+00    3.040E+00    3.055E+00    3.071E+00    3.086E+00    3.102E+00
 Ala      Conc. = 3.90E+01
