 LCModel (Version 6.3-1L) Copyright: S.W. Provencher.          Ref.: Magn. Reson. Med. 30:672-679 (1993).                
 Slice#1 Row#10 Col#7  K_02_press_1_raw_act
 36 lines in following concentration table = NCONC+1
    Conc.  %SD /Cr+PCr  Metabolite                                         
   91.859  95% 7.1E-02 Ala                                                 
    0.000 999%   0.000 Asp                                                 
  830.649  12%   0.643 Cr                                                  
  460.288  23%   0.357 PCr                                                 
    0.000 999%   0.000 GABA                                                
    0.000 999%   0.000 Glc                                                 
  532.083  34%   0.412 Gln                                                 
 1.45E+03  14%   1.122 Glu                                                 
  310.821   6%   0.241 GPC                                                 
    0.000 999%   0.000 PCh                                                 
  357.146  18%   0.277 GSH                                                 
  877.748  23%   0.680 Ins                                                 
    0.000 999%   0.000 Lac                                                 
 2.19E+03   5%   1.693 NAA                                                 
  286.467  34%   0.222 NAAG                                                
    0.000 999%   0.000 Scyllo                                              
    0.000 999%   0.000 Tau                                                 
    0.000 999%   0.000 -CrCH2                                              
  310.821   6%   0.241 GPC+PCh                                             
 2.47E+03   4%   1.915 NAA+NAAG                                            
 1.29E+03   4%   1.000 Cr+PCr                                              
 1.98E+03  14%   1.534 Glu+Gln                                             
 1.79E+03  37%   1.390 Lip13a                                              
    0.000 999%   0.000 Lip13b                                              
  350.851  90%   0.272 Lip09                                               
 1.67E+03  21%   1.292 MM09                                                
  172.829 125%   0.134 Lip20                                               
 2.84E+03  15%   2.202 MM20                                                
  562.189  43%   0.435 MM12                                                
 1.56E+03  29%   1.207 MM14                                                
  853.824  28%   0.661 MM17                                                
 1.79E+03  37%   1.390 Lip13a+Lip13b                                       
 3.91E+03  10%   3.032 MM14+Lip13a+Lip13b+MM12                             
 2.02E+03  10%   1.564 MM09+Lip09                                          
 3.02E+03  13%   2.336 MM20+Lip20                                          
   6 lines in following misc. output table
  FWHM = 0.046 ppm    S/N =  13                                            
  Data shift = 0.015 ppm                                                   
  Ph:  28 deg       7.8 deg/ppm                                            
  alphaB,S = 3.0E+00,   2.6E+01                                            
   14 spline knots.   Ns = 5(1)                                            
  ( 4) 2 infls.   ( 1) 1 extrs.                                            
  498 points on ppm-axis = NY
      4.000000     3.992357     3.984714     3.977070     3.969427     3.961784     3.954141     3.946497     3.938854     3.931211
      3.923568     3.915925     3.908281     3.900638     3.892995     3.885352     3.877708     3.870065     3.862422     3.854779
      3.847136     3.839492     3.831849     3.824206     3.816563     3.808919     3.801276     3.793633     3.785990     3.778347
      3.770703     3.763060     3.755417     3.747774     3.740130     3.732487     3.724844     3.717201     3.709558     3.701914
      3.694271     3.686628     3.678985     3.671341     3.663698     3.656055     3.648412     3.640769     3.633125     3.625482
      3.617839     3.610196     3.602552     3.594909     3.587266     3.579623     3.571980     3.564336     3.556693     3.549050
      3.541407     3.533763     3.526120     3.518477     3.510834     3.503191     3.495547     3.487904     3.480261     3.472618
      3.464974     3.457331     3.449688     3.442045     3.434402     3.426758     3.419115     3.411472     3.403829     3.396185
      3.388542     3.380899     3.373256     3.365613     3.357969     3.350326     3.342683     3.335040     3.327396     3.319753
      3.312110     3.304467     3.296824     3.289180     3.281537     3.273894     3.266251     3.258607     3.250964     3.243321
      3.235678     3.228034     3.220391     3.212748     3.205105     3.197462     3.189818     3.182175     3.174532     3.166889
      3.159245     3.151602     3.143959     3.136316     3.128673     3.121029     3.113386     3.105743     3.098100     3.090456
      3.082813     3.075170     3.067527     3.059884     3.052240     3.044597     3.036954     3.029311     3.021667     3.014024
      3.006381     2.998738     2.991095     2.983451     2.975808     2.968165     2.960522     2.952878     2.945235     2.937592
      2.929949     2.922306     2.914662     2.907019     2.899376     2.891733     2.884089     2.876446     2.868803     2.861160
      2.853517     2.845873     2.838230     2.830587     2.822944     2.815300     2.807657     2.800014     2.792371     2.784728
      2.777084     2.769441     2.761798     2.754155     2.746511     2.738868     2.731225     2.723582     2.715939     2.708295
      2.700652     2.693009     2.685366     2.677722     2.670079     2.662436     2.654793     2.647150     2.639506     2.631863
      2.624220     2.616577     2.608933     2.601290     2.593647     2.586004     2.578361     2.570717     2.563074     2.555431
      2.547788     2.540144     2.532501     2.524858     2.517215     2.509572     2.501928     2.494285     2.486642     2.478999
      2.471355     2.463712     2.456069     2.448426     2.440783     2.433139     2.425496     2.417853     2.410210     2.402566
      2.394923     2.387280     2.379637     2.371994     2.364350     2.356707     2.349064     2.341421     2.333777     2.326134
      2.318491     2.310848     2.303205     2.295561     2.287918     2.280275     2.272632     2.264988     2.257345     2.249702
      2.242059     2.234416     2.226772     2.219129     2.211486     2.203843     2.196199     2.188556     2.180913     2.173270
      2.165627     2.157983     2.150340     2.142697     2.135054     2.127410     2.119767     2.112124     2.104481     2.096838
      2.089194     2.081551     2.073908     2.066265     2.058621     2.050978     2.043335     2.035692     2.028049     2.020405
      2.012762     2.005119     1.997476     1.989833     1.982190     1.974546     1.966903     1.959260     1.951617     1.943974
      1.936331     1.928688     1.921045     1.913402     1.905759     1.898115     1.890472     1.882829     1.875186     1.867543
      1.859900     1.852257     1.844614     1.836971     1.829327     1.821684     1.814041     1.806398     1.798755     1.791112
      1.783469     1.775826     1.768183     1.760540     1.752896     1.745253     1.737610     1.729967     1.722324     1.714681
      1.707038     1.699395     1.691752     1.684108     1.676465     1.668822     1.661179     1.653536     1.645893     1.638250
      1.630607     1.622964     1.615321     1.607677     1.600034     1.592391     1.584748     1.577105     1.569462     1.561819
      1.554176     1.546533     1.538890     1.531246     1.523603     1.515960     1.508317     1.500674     1.493031     1.485388
      1.477745     1.470102     1.462458     1.454815     1.447172     1.439529     1.431886     1.424243     1.416600     1.408957
      1.401314     1.393671     1.386027     1.378384     1.370741     1.363098     1.355455     1.347812     1.340169     1.332526
      1.324883     1.317240     1.309596     1.301953     1.294310     1.286667     1.279024     1.271381     1.263738     1.256095
      1.248452     1.240808     1.233165     1.225522     1.217879     1.210236     1.202593     1.194950     1.187307     1.179664
      1.172021     1.164377     1.156734     1.149091     1.141448     1.133805     1.126162     1.118519     1.110876     1.103233
      1.095590     1.087946     1.080303     1.072660     1.065017     1.057374     1.049731     1.042088     1.034445     1.026802
      1.019158     1.011515     1.003872     0.996229     0.988586     0.980943     0.973300     0.965657     0.958014     0.950371
      0.942727     0.935084     0.927441     0.919798     0.912155     0.904512     0.896869     0.889226     0.881583     0.873940
      0.866296     0.858653     0.851010     0.843367     0.835724     0.828081     0.820438     0.812795     0.805152     0.797508
      0.789865     0.782222     0.774579     0.766936     0.759293     0.751650     0.744007     0.736364     0.728721     0.721077
      0.713434     0.705791     0.698148     0.690505     0.682862     0.675219     0.667576     0.659933     0.652290     0.644646
      0.637003     0.629360     0.621717     0.614074     0.606431     0.598788     0.591145     0.583502     0.575858     0.568215
      0.560572     0.552929     0.545286     0.537643     0.530000     0.522357     0.514714     0.507071     0.499427     0.491784
      0.484141     0.476498     0.468855     0.461212     0.453569     0.445925     0.438282     0.430639     0.422996     0.415353
      0.407710     0.400067     0.392424     0.384780     0.377137     0.369494     0.361851     0.354208     0.346565     0.338922
      0.331278     0.323635     0.315992     0.308349     0.300706     0.293063     0.285420     0.277777     0.270133     0.262490
      0.254847     0.247204     0.239561     0.231918     0.224275     0.216631     0.208988     0.201345
 NY phased data points follow
   3.30994E+01  2.76723E+01  3.50667E+01  3.26061E+01  2.72241E+01  3.45330E+01  3.51356E+01  4.59118E+01  4.32272E+01  5.44161E+01
   5.17821E+01  4.67769E+01  5.56251E+01  5.11067E+01  4.60989E+01  4.79735E+01  3.59923E+01  3.29503E+01  2.54509E+01  3.57002E+01
   2.37892E+01  3.07428E+01  2.80199E+01  2.86292E+01  2.87042E+01  2.75006E+01  2.48664E+01  2.65998E+01  2.55163E+01  3.12933E+01
   3.00692E+01  3.21810E+01  3.58874E+01  3.41973E+01  2.85278E+01  2.81234E+01  2.67544E+01  2.30053E+01  2.76339E+01  2.29464E+01
   2.06803E+01  2.63990E+01  2.27570E+01  2.33267E+01  2.85854E+01  2.26078E+01  2.95076E+01  3.19482E+01  2.62698E+01  2.59160E+01
   1.99394E+01  1.62445E+01  1.97410E+01  1.73769E+01  2.29268E+01  2.56256E+01  2.47274E+01  2.54326E+01  2.04128E+01  2.01602E+01
   2.14680E+01  2.41557E+01  1.49871E+01  2.04592E+01  1.40170E+01  1.20550E+01  1.43977E+01  1.50942E+01  1.50681E+01  1.26146E+01
   1.14539E+01  1.21872E+01  9.86359E+00  1.66291E+01  1.47350E+01  1.40735E+01  1.67797E+01  1.13772E+01  1.30324E+01  6.06662E+00
   1.55041E+01  1.36965E+01  1.18426E+01  1.07523E+01  7.20389E+00  1.43483E+01  7.37593E+00  1.15563E+01  1.03653E+01  1.25509E+01
   8.74907E+00  1.29395E+01  1.23770E+01  1.34904E+01  1.84856E+01  1.37411E+01  1.99361E+01  1.57147E+01  2.26824E+01  2.08062E+01
   3.00301E+01  3.56571E+01  5.02727E+01  5.05370E+01  4.00743E+01  3.40458E+01  2.69373E+01  2.35259E+01  2.11731E+01  1.37848E+01
   1.39864E+01  1.11789E+01  1.54962E+01  1.49915E+01  9.40524E+00  8.17102E+00  1.01312E+01  1.29088E+01  1.36627E+01  1.45670E+01
   1.53061E+01  1.87536E+01  1.70074E+01  2.25829E+01  4.10620E+01  4.19691E+01  5.10734E+01  6.06293E+01  5.19465E+01  5.16543E+01
   4.03556E+01  2.99524E+01  2.25158E+01  1.51268E+01  1.49039E+01  1.60237E+01  1.61263E+01  9.74153E+00  8.97015E+00  1.18364E+01
   1.02808E+01  1.13490E+01  1.15551E+01  8.85773E+00  1.33712E+01  1.01052E+01  1.23044E+01  7.70222E+00  7.47518E+00  7.40244E+00
   7.24930E+00  6.79180E+00  9.76266E+00  2.62024E+00  4.00697E+00  8.71727E+00  6.01946E+00  7.64180E+00  3.67351E+00  1.10170E+01
   6.00032E+00  5.87274E+00  6.65506E+00  1.33832E+01  7.29383E+00  2.30182E+00  6.28410E+00 -1.70530E+00  4.83099E+00  5.58278E+00
  -6.11894E+00 -1.20697E+00 -1.50080E+00 -7.57110E+00 -9.02644E+00 -3.80509E+00 -3.35595E+00 -7.82059E+00 -4.83585E+00 -4.99191E+00
  -8.85203E+00 -4.77025E+00 -7.89453E+00  7.78809E-01 -4.65679E+00 -2.71826E-01  6.18957E+00  1.82670E+00 -4.20685E-01  2.77184E+00
   3.50133E+00  1.68832E+00  5.30692E+00  9.25344E+00  3.70383E+00 -6.78005E+00  1.33724E+00 -2.56733E+00 -6.04181E+00 -3.69747E+00
  -5.65439E-01  2.26882E+00  5.76221E+00  7.16381E+00  7.84577E+00  3.02867E+00  1.10201E+00  4.85597E+00  2.09846E+00  5.31905E+00
  -4.72565E+00  3.28230E+00  2.73721E-01  1.02035E+01  1.01013E+01  1.89914E+01  1.91059E+01  1.45945E+01  1.30215E+01  3.17583E-01
  -3.47435E+00 -4.10834E+00 -4.79537E+00 -2.14736E-01  2.96792E+00  9.14562E+00  5.59350E+00  7.93496E+00  1.09553E+01  1.35685E+01
   1.30357E+00  1.17483E+01  8.91202E+00  7.13517E+00  7.02055E+00  5.39154E+00  4.68615E+00  8.39937E+00  1.13178E+01  3.79705E+00
   1.02090E+01  6.36505E+00  6.67669E+00  1.70846E+00  3.64781E+00  8.92532E+00  1.35533E+01  1.43755E+01  1.29728E+01  1.94006E+01
   1.69912E+01  1.98657E+01  2.50833E+01  2.75723E+01  2.82777E+01  2.89970E+01  4.12534E+01  5.31156E+01  7.93393E+01  9.77654E+01
   1.08924E+02  1.08004E+02  8.41271E+01  5.30185E+01  3.34146E+01  2.02101E+01  1.43041E+01  6.19921E+00  8.79440E+00  5.08027E+00
   1.18861E+01  4.27105E+00  3.13808E+00  7.41539E+00  1.18393E+00  2.16106E+00  1.79032E+00  1.02057E+01  4.28131E+00  1.34115E+00
   2.44336E+00  9.20471E+00  1.34232E+00  5.39382E+00  1.78349E+00  8.60961E-01  1.86150E+00  5.58268E+00  5.14798E+00  2.45856E+00
   5.84630E+00  3.39439E+00  4.25953E+00  2.89405E+00  2.45553E+00  3.41603E+00 -3.45099E-01  2.37936E+00  6.60071E+00  6.11747E+00
   2.63965E+00  7.87924E+00  2.87676E+00  5.74683E+00  1.12800E+00  4.89552E+00 -2.13382E+00  1.14791E+01  5.82241E+00  5.06417E-01
   5.25465E+00  9.57547E+00  5.34039E+00  3.85442E+00  6.33276E+00  1.02851E+01  5.41265E+00  1.53246E+00  3.60724E+00 -1.28872E+00
  -1.70312E+00  3.99577E+00  4.68282E+00  4.00386E+00  4.80129E+00 -4.67092E-01 -2.04302E+00  5.80172E+00  6.07110E+00  3.43288E+00
   4.82877E+00  3.33227E+00  1.13727E+00  8.21709E+00  6.96643E+00  7.18801E+00  1.13513E+01  1.21962E+01  8.46436E+00  1.17728E+01
   5.60587E+00  9.01476E+00  9.83598E+00  1.45835E+01  1.27261E+01  1.46612E+01  1.83398E+01  1.15265E+01  1.49280E+01  2.01452E+01
   8.02620E+00  1.69049E+01  1.05110E+01  1.24951E+01  1.49293E+01  6.80646E-01  6.84026E+00  5.37559E+00  6.69215E+00  9.13119E+00
   1.36077E+01  1.20787E+01  1.00672E+01  2.96877E+00  7.30446E+00  1.24495E+01  6.08454E+00  7.72352E+00  1.09737E+01  1.17560E+01
   5.10698E+00  7.58126E+00  5.62670E+00  8.00842E+00  5.40952E+00  3.69341E+00  1.49513E+00  6.94595E-01  4.95355E+00  3.90409E+00
   1.87434E+00  1.91556E+00  3.29544E+00  5.73000E+00  4.00221E+00  5.24231E+00  1.86960E-01  8.85557E+00  9.61625E+00  5.19679E+00
   1.73896E+00  8.28466E+00  1.01194E+01  5.76649E+00  6.45444E+00  4.60326E+00  7.18291E+00  1.48799E+01  1.21931E+01  7.49803E+00
   5.92838E+00  1.10801E+01  9.88214E+00  8.23740E+00  1.46924E+01  1.83596E+01  1.12934E+01  1.67582E+01  1.10223E+01  1.20844E+01
   1.72823E+01  1.31139E+01  8.09096E+00  1.27508E+01  8.99808E+00  9.44123E+00  4.92725E+00  5.69080E+00  2.94451E+00  4.78525E+00
   4.93241E+00  6.17329E+00  3.10670E+00  5.96285E-01  1.83154E+00 -1.76728E+00 -9.70403E-01  3.29811E+00 -1.80126E+00 -4.29923E+00
  -5.55160E+00 -2.34191E+00 -2.03498E+00  4.51064E+00  2.85960E+00 -6.88443E-01 -1.94796E+00 -2.03851E+00 -7.95326E-01 -6.52462E+00
  -5.07183E-02 -2.64031E+00 -7.41553E-01  1.48234E+00 -1.04871E+00 -1.08782E-01 -5.22540E+00 -1.59375E+00 -3.48806E+00 -2.71132E+00
   2.02043E+00  3.93392E+00 -2.81693E+00 -2.07404E+00  7.93809E-01  2.34975E+00  1.16293E+00 -4.11097E+00 -7.38583E-01  1.62526E+00
  -1.24029E-01 -3.48242E+00 -3.76398E+00 -1.99952E-01  5.16577E-01 -6.38711E+00 -7.26320E+00 -2.73942E-02  5.10242E+00 -1.89902E-02
   5.90376E-02  3.03345E+00 -4.39702E+00 -5.13234E+00  6.82123E-01 -9.82825E-01  3.70165E+00  2.55442E-01  7.83887E+00 -3.17671E+00
  -1.68796E+00 -3.94208E+00  2.40762E+00 -9.59746E-01 -4.00235E+00  2.42814E+00 -2.82987E+00 -4.69442E+00 -7.80793E+00 -3.16472E+00
  -8.41530E-01 -2.70625E+00 -1.06822E+00 -5.16391E-01 -2.66951E+00  2.23861E+00 -4.03972E+00 -3.16814E+00
 NY points of the fit to the data follow
   2.63594E+01  2.62979E+01  2.66572E+01  2.79682E+01  3.01268E+01  3.31278E+01  3.69522E+01  4.10833E+01  4.48478E+01  4.73086E+01
   4.92006E+01  5.07513E+01  5.12036E+01  4.89969E+01  4.33913E+01  3.67231E+01  3.17837E+01  2.88258E+01  2.68941E+01  2.56346E+01
   2.52343E+01  2.51318E+01  2.49915E+01  2.45378E+01  2.38399E+01  2.32705E+01  2.31090E+01  2.39282E+01  2.63627E+01  2.99707E+01
   3.36970E+01  3.58174E+01  3.53399E+01  3.27632E+01  2.92230E+01  2.55421E+01  2.22033E+01  2.00706E+01  1.95136E+01  1.99339E+01
   2.08505E+01  2.19477E+01  2.30796E+01  2.42731E+01  2.56901E+01  2.72977E+01  2.85888E+01  2.89021E+01  2.76677E+01  2.50986E+01
   2.23088E+01  2.02332E+01  1.89735E+01  1.83074E+01  1.81755E+01  1.84536E+01  1.89815E+01  1.96413E+01  2.02600E+01  2.06780E+01
   2.06141E+01  1.99101E+01  1.87958E+01  1.76558E+01  1.68402E+01  1.64657E+01  1.65280E+01  1.68970E+01  1.73346E+01  1.77413E+01
   1.80156E+01  1.80973E+01  1.79594E+01  1.75749E+01  1.70553E+01  1.65804E+01  1.62417E+01  1.59939E+01  1.57823E+01  1.56044E+01
   1.54298E+01  1.52030E+01  1.48577E+01  1.43564E+01  1.36509E+01  1.27837E+01  1.18975E+01  1.12321E+01  1.10320E+01  1.13619E+01
   1.20415E+01  1.28524E+01  1.35728E+01  1.41056E+01  1.44035E+01  1.44459E+01  1.43982E+01  1.50076E+01  1.79685E+01  2.30445E+01
   3.07318E+01  4.00922E+01  4.74694E+01  4.98390E+01  4.53885E+01  3.57468E+01  2.61290E+01  1.97639E+01  1.60280E+01  1.35119E+01
   1.23065E+01  1.20032E+01  1.19236E+01  1.19136E+01  1.19354E+01  1.19706E+01  1.20239E+01  1.21050E+01  1.22362E+01  1.25082E+01
   1.32812E+01  1.54369E+01  1.90660E+01  2.55408E+01  3.48442E+01  4.48505E+01  5.42663E+01  5.96278E+01  5.87811E+01  5.24504E+01
   4.22231E+01  3.14814E+01  2.34334E+01  1.83716E+01  1.46245E+01  1.15932E+01  9.66248E+00  8.77634E+00  8.82540E+00  9.50228E+00
   1.04036E+01  1.11263E+01  1.13976E+01  1.11630E+01  1.05986E+01  9.96492E+00  9.41676E+00  8.99924E+00  8.64183E+00  8.31518E+00
   7.97971E+00  7.61549E+00  7.26375E+00  6.99674E+00  6.87044E+00  6.86056E+00  6.78615E+00  6.56234E+00  6.00778E+00  5.15119E+00
   4.42273E+00  4.05788E+00  4.35074E+00  5.14547E+00  5.67712E+00  5.46411E+00  4.56255E+00  3.40939E+00  2.52329E+00  2.07548E+00
   1.82773E+00  1.48677E+00  1.01242E+00  4.35796E-01 -2.58363E-01 -6.54539E-01 -5.84712E-01 -7.01621E-02  5.70965E-01  7.57689E-01
   4.06592E-01 -8.80317E-03 -1.20264E-01  1.02310E-01  2.65296E-01  3.17302E-01  7.72195E-01  2.03464E+00  3.99630E+00  6.08871E+00
   7.58086E+00  8.06450E+00  7.72802E+00  6.72485E+00  5.44396E+00  4.24909E+00  3.34711E+00  2.90206E+00  3.04604E+00  4.02181E+00
   5.74028E+00  7.73185E+00  9.35887E+00  1.02032E+01  1.00597E+01  8.41633E+00  5.66114E+00  2.37971E+00 -8.18859E-01 -2.89131E+00
  -3.39870E+00 -1.87203E+00  1.40904E+00  5.54578E+00  9.75829E+00  1.28599E+01  1.36869E+01  1.14189E+01  6.72906E+00  1.54757E+00
  -2.80550E+00 -5.68066E+00 -6.33974E+00 -4.36563E+00 -2.75457E-01  4.33273E+00  7.75346E+00  9.44897E+00  9.92493E+00  9.52433E+00
   8.49529E+00  7.36464E+00  6.82566E+00  7.08518E+00  7.95462E+00  9.07362E+00  1.01317E+01  1.09272E+01  1.10346E+01  1.03087E+01
   8.88992E+00  7.52791E+00  6.88686E+00  7.18636E+00  8.40080E+00  1.01710E+01  1.17905E+01  1.27320E+01  1.30755E+01  1.32180E+01
   1.36913E+01  1.51832E+01  1.76602E+01  2.12608E+01  2.56062E+01  3.30264E+01  4.42731E+01  5.81724E+01  7.78411E+01  9.75487E+01
   1.08721E+02  1.04402E+02  8.31753E+01  5.62114E+01  3.60947E+01  2.41774E+01  1.60273E+01  1.05872E+01  8.50151E+00  7.41120E+00
   6.63120E+00  6.12295E+00  5.85629E+00  5.70300E+00  5.56399E+00  5.31573E+00  4.90926E+00  4.43017E+00  3.98410E+00  3.59821E+00
   3.27587E+00  3.03674E+00  2.89269E+00  2.81232E+00  2.73840E+00  2.64819E+00  2.56485E+00  2.51252E+00  2.49494E+00  2.52879E+00
   2.62823E+00  2.78764E+00  2.98622E+00  3.19467E+00  3.39325E+00  3.58350E+00  3.76560E+00  3.94095E+00  4.11379E+00  4.28817E+00
   4.46280E+00  4.62682E+00  4.76288E+00  4.86059E+00  4.91653E+00  4.92839E+00  4.89549E+00  4.82370E+00  4.71921E+00  4.58792E+00
   4.43616E+00  4.27058E+00  4.09854E+00  3.92863E+00  3.76989E+00  3.63110E+00  3.52019E+00  3.44464E+00  3.41235E+00  3.43272E+00
   3.51826E+00  3.69264E+00  3.99376E+00  4.36214E+00  4.75725E+00  5.11082E+00  5.25607E+00  5.13689E+00  4.80379E+00  4.43394E+00
   4.34693E+00  4.65600E+00  5.24432E+00  6.10958E+00  7.21673E+00  8.40126E+00  9.41908E+00  1.00692E+01  1.03819E+01  1.05672E+01
   1.07487E+01  1.09166E+01  1.10688E+01  1.12346E+01  1.13938E+01  1.15327E+01  1.16458E+01  1.17310E+01  1.17873E+01  1.18139E+01
   1.18099E+01  1.17748E+01  1.17086E+01  1.16112E+01  1.14822E+01  1.13210E+01  1.11273E+01  1.09013E+01  1.06439E+01  1.03564E+01
   1.00402E+01  9.69704E+00  9.32951E+00  8.94092E+00  8.53528E+00  8.11671E+00  7.68938E+00  7.25756E+00  6.82595E+00  6.39954E+00
   5.98325E+00  5.58157E+00  5.19855E+00  4.83815E+00  4.50442E+00  4.20133E+00  3.93251E+00  3.70109E+00  3.50996E+00  3.36216E+00
   3.26092E+00  3.20945E+00  3.21068E+00  3.26717E+00  3.38139E+00  3.55583E+00  3.79269E+00  4.09347E+00  4.45847E+00  4.88672E+00
   5.37598E+00  5.92259E+00  6.52099E+00  7.16333E+00  7.83929E+00  8.53643E+00  9.24057E+00  9.93609E+00  1.06061E+01  1.12328E+01
   1.17986E+01  1.22864E+01  1.26815E+01  1.29714E+01  1.31465E+01  1.32004E+01  1.31304E+01  1.29380E+01  1.26287E+01  1.22115E+01
   1.16979E+01  1.11017E+01  1.04383E+01  9.72441E+00  8.97662E+00  8.21099E+00  7.44214E+00  6.68299E+00  5.94472E+00  5.23662E+00
   4.56584E+00  3.93728E+00  3.35375E+00  2.81644E+00  2.32535E+00  1.87949E+00  1.47689E+00  1.11477E+00  7.89898E-01  4.98975E-01
   2.38893E-01  6.65392E-03 -2.00755E-01 -3.86324E-01 -5.52789E-01 -7.02431E-01 -8.37120E-01 -9.58547E-01 -1.06838E+00 -1.16821E+00
  -1.25931E+00 -1.34261E+00 -1.41883E+00 -1.48870E+00 -1.55306E+00 -1.61267E+00 -1.66803E+00 -1.71941E+00 -1.76706E+00 -1.81138E+00
  -1.85284E+00 -1.89182E+00 -1.92845E+00 -1.96276E+00 -1.99487E+00 -2.02505E+00 -2.05365E+00 -2.08080E+00 -2.10648E+00 -2.13066E+00
  -2.15345E+00 -2.17510E+00 -2.19583E+00 -2.21563E+00 -2.23439E+00 -2.25210E+00 -2.26891E+00 -2.28505E+00 -2.30062E+00 -2.31553E+00
  -2.32966E+00 -2.34304E+00 -2.35586E+00 -2.36829E+00 -2.38032E+00 -2.39180E+00 -2.40267E+00 -2.41303E+00 -2.42308E+00 -2.43290E+00
  -2.44241E+00 -2.45146E+00 -2.46004E+00 -2.46831E+00 -2.47643E+00 -2.48441E+00 -2.49209E+00 -2.49937E+00 -2.50634E+00 -2.51316E+00
  -2.51994E+00 -2.52659E+00 -2.53297E+00 -2.53903E+00 -2.54491E+00 -2.55079E+00 -2.55667E+00 -2.56242E+00
 NY background values follow
     2.321E+01    2.309E+01    2.296E+01    2.284E+01    2.272E+01    2.260E+01    2.247E+01    2.235E+01    2.223E+01    2.211E+01
     2.199E+01    2.186E+01    2.174E+01    2.162E+01    2.150E+01    2.137E+01    2.125E+01    2.113E+01    2.101E+01    2.088E+01
     2.076E+01    2.064E+01    2.052E+01    2.040E+01    2.027E+01    2.015E+01    2.003E+01    1.991E+01    1.979E+01    1.966E+01
     1.954E+01    1.942E+01    1.930E+01    1.918E+01    1.906E+01    1.893E+01    1.881E+01    1.869E+01    1.857E+01    1.845E+01
     1.833E+01    1.821E+01    1.809E+01    1.797E+01    1.785E+01    1.772E+01    1.760E+01    1.748E+01    1.736E+01    1.724E+01
     1.712E+01    1.700E+01    1.688E+01    1.676E+01    1.665E+01    1.653E+01    1.641E+01    1.629E+01    1.617E+01    1.605E+01
     1.593E+01    1.581E+01    1.570E+01    1.558E+01    1.546E+01    1.534E+01    1.522E+01    1.511E+01    1.499E+01    1.487E+01
     1.476E+01    1.464E+01    1.452E+01    1.441E+01    1.429E+01    1.418E+01    1.406E+01    1.395E+01    1.383E+01    1.372E+01
     1.360E+01    1.349E+01    1.337E+01    1.326E+01    1.315E+01    1.303E+01    1.292E+01    1.281E+01    1.270E+01    1.258E+01
     1.247E+01    1.236E+01    1.225E+01    1.214E+01    1.203E+01    1.192E+01    1.181E+01    1.170E+01    1.159E+01    1.148E+01
     1.137E+01    1.126E+01    1.116E+01    1.105E+01    1.094E+01    1.083E+01    1.073E+01    1.062E+01    1.051E+01    1.041E+01
     1.030E+01    1.020E+01    1.009E+01    9.989E+00    9.885E+00    9.781E+00    9.677E+00    9.574E+00    9.472E+00    9.369E+00
     9.267E+00    9.165E+00    9.064E+00    8.963E+00    8.862E+00    8.762E+00    8.662E+00    8.563E+00    8.464E+00    8.365E+00
     8.266E+00    8.168E+00    8.071E+00    7.973E+00    7.876E+00    7.780E+00    7.684E+00    7.588E+00    7.493E+00    7.398E+00
     7.303E+00    7.209E+00    7.115E+00    7.022E+00    6.929E+00    6.836E+00    6.744E+00    6.652E+00    6.561E+00    6.470E+00
     6.380E+00    6.289E+00    6.200E+00    6.111E+00    6.022E+00    5.934E+00    5.846E+00    5.758E+00    5.671E+00    5.585E+00
     5.499E+00    5.413E+00    5.328E+00    5.243E+00    5.159E+00    5.075E+00    4.992E+00    4.909E+00    4.826E+00    4.745E+00
     4.663E+00    4.582E+00    4.502E+00    4.422E+00    4.342E+00    4.263E+00    4.185E+00    4.107E+00    4.029E+00    3.953E+00
     3.876E+00    3.800E+00    3.725E+00    3.650E+00    3.575E+00    3.501E+00    3.428E+00    3.355E+00    3.283E+00    3.211E+00
     3.140E+00    3.069E+00    2.998E+00    2.928E+00    2.859E+00    2.790E+00    2.722E+00    2.654E+00    2.586E+00    2.519E+00
     2.453E+00    2.387E+00    2.321E+00    2.256E+00    2.192E+00    2.128E+00    2.064E+00    2.001E+00    1.938E+00    1.876E+00
     1.814E+00    1.753E+00    1.692E+00    1.632E+00    1.572E+00    1.513E+00    1.454E+00    1.395E+00    1.337E+00    1.280E+00
     1.223E+00    1.166E+00    1.110E+00    1.054E+00    9.984E-01    9.435E-01    8.890E-01    8.349E-01    7.813E-01    7.281E-01
     6.754E-01    6.231E-01    5.712E-01    5.197E-01    4.687E-01    4.181E-01    3.679E-01    3.181E-01    2.688E-01    2.199E-01
     1.714E-01    1.233E-01    7.562E-02    2.837E-02   -1.848E-02   -6.492E-02   -1.110E-01   -1.566E-01   -2.018E-01   -2.466E-01
    -2.910E-01   -3.350E-01   -3.787E-01   -4.219E-01   -4.647E-01   -5.071E-01   -5.492E-01   -5.908E-01   -6.321E-01   -6.730E-01
    -7.135E-01   -7.536E-01   -7.933E-01   -8.326E-01   -8.716E-01   -9.102E-01   -9.484E-01   -9.862E-01   -1.024E+00   -1.061E+00
    -1.097E+00   -1.134E+00   -1.170E+00   -1.205E+00   -1.241E+00   -1.276E+00   -1.310E+00   -1.344E+00   -1.378E+00   -1.412E+00
    -1.445E+00   -1.477E+00   -1.510E+00   -1.542E+00   -1.574E+00   -1.605E+00   -1.636E+00   -1.667E+00   -1.697E+00   -1.727E+00
    -1.757E+00   -1.786E+00   -1.815E+00   -1.844E+00   -1.872E+00   -1.900E+00   -1.928E+00   -1.955E+00   -1.982E+00   -2.009E+00
    -2.035E+00   -2.061E+00   -2.087E+00   -2.113E+00   -2.138E+00   -2.162E+00   -2.187E+00   -2.211E+00   -2.235E+00   -2.259E+00
    -2.282E+00   -2.305E+00   -2.327E+00   -2.350E+00   -2.372E+00   -2.394E+00   -2.415E+00   -2.436E+00   -2.457E+00   -2.478E+00
    -2.498E+00   -2.518E+00   -2.538E+00   -2.557E+00   -2.577E+00   -2.596E+00   -2.614E+00   -2.633E+00   -2.651E+00   -2.668E+00
    -2.686E+00   -2.703E+00   -2.720E+00   -2.737E+00   -2.754E+00   -2.770E+00   -2.786E+00   -2.801E+00   -2.817E+00   -2.832E+00
    -2.847E+00   -2.862E+00   -2.876E+00   -2.891E+00   -2.905E+00   -2.918E+00   -2.932E+00   -2.945E+00   -2.958E+00   -2.971E+00
    -2.984E+00   -2.996E+00   -3.008E+00   -3.020E+00   -3.032E+00   -3.043E+00   -3.054E+00   -3.066E+00   -3.076E+00   -3.087E+00
    -3.097E+00   -3.108E+00   -3.118E+00   -3.127E+00   -3.137E+00   -3.146E+00   -3.155E+00   -3.164E+00   -3.173E+00   -3.182E+00
    -3.190E+00   -3.198E+00   -3.206E+00   -3.214E+00   -3.222E+00   -3.229E+00   -3.237E+00   -3.244E+00   -3.251E+00   -3.257E+00
    -3.264E+00   -3.270E+00   -3.276E+00   -3.282E+00   -3.288E+00   -3.294E+00   -3.299E+00   -3.305E+00   -3.310E+00   -3.315E+00
    -3.320E+00   -3.324E+00   -3.329E+00   -3.333E+00   -3.337E+00   -3.341E+00   -3.345E+00   -3.349E+00   -3.353E+00   -3.356E+00
    -3.359E+00   -3.363E+00   -3.366E+00   -3.368E+00   -3.371E+00   -3.374E+00   -3.376E+00   -3.378E+00   -3.381E+00   -3.383E+00
    -3.385E+00   -3.386E+00   -3.388E+00   -3.389E+00   -3.391E+00   -3.392E+00   -3.393E+00   -3.394E+00   -3.395E+00   -3.396E+00
    -3.397E+00   -3.397E+00   -3.398E+00   -3.398E+00   -3.399E+00   -3.399E+00   -3.399E+00   -3.399E+00   -3.399E+00   -3.398E+00
    -3.398E+00   -3.398E+00   -3.397E+00   -3.397E+00   -3.396E+00   -3.396E+00   -3.395E+00   -3.394E+00   -3.393E+00   -3.392E+00
    -3.391E+00   -3.390E+00   -3.389E+00   -3.387E+00   -3.386E+00   -3.385E+00   -3.383E+00   -3.382E+00   -3.380E+00   -3.379E+00
    -3.377E+00   -3.375E+00   -3.374E+00   -3.372E+00   -3.370E+00   -3.368E+00   -3.367E+00   -3.365E+00   -3.363E+00   -3.361E+00
    -3.359E+00   -3.357E+00   -3.355E+00   -3.353E+00   -3.350E+00   -3.348E+00   -3.346E+00   -3.344E+00   -3.342E+00   -3.339E+00
    -3.337E+00   -3.335E+00   -3.333E+00   -3.330E+00   -3.328E+00   -3.326E+00   -3.323E+00   -3.321E+00   -3.318E+00   -3.316E+00
    -3.314E+00   -3.311E+00   -3.309E+00   -3.306E+00   -3.304E+00   -3.302E+00   -3.299E+00   -3.297E+00   -3.294E+00   -3.292E+00
    -3.289E+00   -3.287E+00   -3.285E+00   -3.282E+00   -3.280E+00   -3.277E+00   -3.275E+00   -3.273E+00
 Ala      Conc. = 9.19E+01
