 LCModel (Version 6.3-1L) Copyright: S.W. Provencher.          Ref.: Magn. Reson. Med. 30:672-679 (1993).                
 Slice#2 Row#11 Col#6  K_02_press_1_raw_act
 36 lines in following concentration table = NCONC+1
    Conc.  %SD /Cr+PCr  Metabolite                                         
    0.000 999%   0.000 Ala                                                 
    0.000 999%   0.000 Asp                                                 
 1.08E+03  28%   0.415 Cr                                                  
 1.53E+03  20%   0.585 PCr                                                 
    0.000 999%   0.000 GABA                                                
  215.703 114% 8.3E-02 Glc                                                 
 1.33E+03  25%   0.511 Gln                                                 
 2.05E+03  18%   0.784 Glu                                                 
  990.172   3%   0.379 GPC                                                 
    0.000 999%   0.000 PCh                                                 
  937.358  11%   0.359 GSH                                                 
 3.90E+03  10%   1.493 Ins                                                 
  266.774  64%   0.102 Lac                                                 
 3.95E+03   3%   1.515 NAA                                                 
    0.000 999%   0.000 NAAG                                                
  345.300  12%   0.132 Scyllo                                              
  269.326 122%   0.103 Tau                                                 
   16.222 930% 6.2E-03 -CrCH2                                              
  990.172   3%   0.379 GPC+PCh                                             
 3.95E+03   3%   1.515 NAA+NAAG                                            
 2.61E+03   3%   1.000 Cr+PCr                                              
 3.38E+03  17%   1.295 Glu+Gln                                             
 1.34E+03  48%   0.513 Lip13a                                              
    0.000 999%   0.000 Lip13b                                              
  255.499 111% 9.8E-02 Lip09                                               
 2.03E+03  18%   0.777 MM09                                                
  256.790  71% 9.8E-02 Lip20                                               
 4.32E+03  13%   1.656 MM20                                                
  727.744  40%   0.279 MM12                                                
 1.19E+03  36%   0.458 MM14                                                
  631.445  47%   0.242 MM17                                                
 1.34E+03  48%   0.513 Lip13a+Lip13b                                       
 3.26E+03  21%   1.249 MM14+Lip13a+Lip13b+MM12                             
 2.28E+03  14%   0.875 MM09+Lip09                                          
 4.58E+03  12%   1.755 MM20+Lip20                                          
   6 lines in following misc. output table
  FWHM = 0.061 ppm    S/N =  17                                            
  Data shift = 0.023 ppm                                                   
  Ph: -33 deg     -10.2 deg/ppm                                            
  alphaB,S = 9.1E-01,   4.4E+01                                            
   14 spline knots.   Ns = 8(1)                                            
  (12) 7 infls.   ( 9) 1 extrs.                                            
  498 points on ppm-axis = NY
      4.000000     3.992357     3.984714     3.977070     3.969427     3.961784     3.954141     3.946497     3.938854     3.931211
      3.923568     3.915925     3.908281     3.900638     3.892995     3.885352     3.877708     3.870065     3.862422     3.854779
      3.847136     3.839492     3.831849     3.824206     3.816563     3.808919     3.801276     3.793633     3.785990     3.778347
      3.770703     3.763060     3.755417     3.747774     3.740130     3.732487     3.724844     3.717201     3.709558     3.701914
      3.694271     3.686628     3.678985     3.671341     3.663698     3.656055     3.648412     3.640769     3.633125     3.625482
      3.617839     3.610196     3.602552     3.594909     3.587266     3.579623     3.571980     3.564336     3.556693     3.549050
      3.541407     3.533763     3.526120     3.518477     3.510834     3.503191     3.495547     3.487904     3.480261     3.472618
      3.464974     3.457331     3.449688     3.442045     3.434402     3.426758     3.419115     3.411472     3.403829     3.396185
      3.388542     3.380899     3.373256     3.365613     3.357969     3.350326     3.342683     3.335040     3.327396     3.319753
      3.312110     3.304467     3.296824     3.289180     3.281537     3.273894     3.266251     3.258607     3.250964     3.243321
      3.235678     3.228034     3.220391     3.212748     3.205105     3.197462     3.189818     3.182175     3.174532     3.166889
      3.159245     3.151602     3.143959     3.136316     3.128673     3.121029     3.113386     3.105743     3.098100     3.090456
      3.082813     3.075170     3.067527     3.059884     3.052240     3.044597     3.036954     3.029311     3.021667     3.014024
      3.006381     2.998738     2.991095     2.983451     2.975808     2.968165     2.960522     2.952878     2.945235     2.937592
      2.929949     2.922306     2.914662     2.907019     2.899376     2.891733     2.884089     2.876446     2.868803     2.861160
      2.853517     2.845873     2.838230     2.830587     2.822944     2.815300     2.807657     2.800014     2.792371     2.784728
      2.777084     2.769441     2.761798     2.754155     2.746511     2.738868     2.731225     2.723582     2.715939     2.708295
      2.700652     2.693009     2.685366     2.677722     2.670079     2.662436     2.654793     2.647150     2.639506     2.631863
      2.624220     2.616577     2.608933     2.601290     2.593647     2.586004     2.578361     2.570717     2.563074     2.555431
      2.547788     2.540144     2.532501     2.524858     2.517215     2.509572     2.501928     2.494285     2.486642     2.478999
      2.471355     2.463712     2.456069     2.448426     2.440783     2.433139     2.425496     2.417853     2.410210     2.402566
      2.394923     2.387280     2.379637     2.371994     2.364350     2.356707     2.349064     2.341421     2.333777     2.326134
      2.318491     2.310848     2.303205     2.295561     2.287918     2.280275     2.272632     2.264988     2.257345     2.249702
      2.242059     2.234416     2.226772     2.219129     2.211486     2.203843     2.196199     2.188556     2.180913     2.173270
      2.165627     2.157983     2.150340     2.142697     2.135054     2.127410     2.119767     2.112124     2.104481     2.096838
      2.089194     2.081551     2.073908     2.066265     2.058621     2.050978     2.043335     2.035692     2.028049     2.020405
      2.012762     2.005119     1.997476     1.989833     1.982190     1.974546     1.966903     1.959260     1.951617     1.943974
      1.936331     1.928688     1.921045     1.913402     1.905759     1.898115     1.890472     1.882829     1.875186     1.867543
      1.859900     1.852257     1.844614     1.836971     1.829327     1.821684     1.814041     1.806398     1.798755     1.791112
      1.783469     1.775826     1.768183     1.760540     1.752896     1.745253     1.737610     1.729967     1.722324     1.714681
      1.707038     1.699395     1.691752     1.684108     1.676465     1.668822     1.661179     1.653536     1.645893     1.638250
      1.630607     1.622964     1.615321     1.607677     1.600034     1.592391     1.584748     1.577105     1.569462     1.561819
      1.554176     1.546533     1.538890     1.531246     1.523603     1.515960     1.508317     1.500674     1.493031     1.485388
      1.477745     1.470102     1.462458     1.454815     1.447172     1.439529     1.431886     1.424243     1.416600     1.408957
      1.401314     1.393671     1.386027     1.378384     1.370741     1.363098     1.355455     1.347812     1.340169     1.332526
      1.324883     1.317240     1.309596     1.301953     1.294310     1.286667     1.279024     1.271381     1.263738     1.256095
      1.248452     1.240808     1.233165     1.225522     1.217879     1.210236     1.202593     1.194950     1.187307     1.179664
      1.172021     1.164377     1.156734     1.149091     1.141448     1.133805     1.126162     1.118519     1.110876     1.103233
      1.095590     1.087946     1.080303     1.072660     1.065017     1.057374     1.049731     1.042088     1.034445     1.026802
      1.019158     1.011515     1.003872     0.996229     0.988586     0.980943     0.973300     0.965657     0.958014     0.950371
      0.942727     0.935084     0.927441     0.919798     0.912155     0.904512     0.896869     0.889226     0.881583     0.873940
      0.866296     0.858653     0.851010     0.843367     0.835724     0.828081     0.820438     0.812795     0.805152     0.797508
      0.789865     0.782222     0.774579     0.766936     0.759293     0.751650     0.744007     0.736364     0.728721     0.721077
      0.713434     0.705791     0.698148     0.690505     0.682862     0.675219     0.667576     0.659933     0.652290     0.644646
      0.637003     0.629360     0.621717     0.614074     0.606431     0.598788     0.591145     0.583502     0.575858     0.568215
      0.560572     0.552929     0.545286     0.537643     0.530000     0.522357     0.514714     0.507071     0.499427     0.491784
      0.484141     0.476498     0.468855     0.461212     0.453569     0.445925     0.438282     0.430639     0.422996     0.415353
      0.407710     0.400067     0.392424     0.384780     0.377137     0.369494     0.361851     0.354208     0.346565     0.338922
      0.331278     0.323635     0.315992     0.308349     0.300706     0.293063     0.285420     0.277777     0.270133     0.262490
      0.254847     0.247204     0.239561     0.231918     0.224275     0.216631     0.208988     0.201345
 NY phased data points follow
  -1.34838E+02 -1.29699E+02 -1.21841E+02 -1.19596E+02 -1.12310E+02 -1.06700E+02 -9.93234E+01 -8.84401E+01 -8.26677E+01 -7.42332E+01
  -7.11111E+01 -7.51808E+01 -8.13801E+01 -7.99909E+01 -9.05791E+01 -1.00796E+02 -1.01869E+02 -1.09464E+02 -1.08608E+02 -1.10487E+02
  -1.13088E+02 -1.14987E+02 -1.12255E+02 -1.11413E+02 -1.06390E+02 -1.04014E+02 -1.02293E+02 -9.48167E+01 -8.95672E+01 -8.76040E+01
  -8.64513E+01 -8.41003E+01 -8.91059E+01 -8.67967E+01 -8.64522E+01 -8.83833E+01 -8.91634E+01 -8.74609E+01 -8.52347E+01 -8.69512E+01
  -8.14059E+01 -8.62117E+01 -8.38889E+01 -7.80949E+01 -7.49623E+01 -7.06562E+01 -6.89146E+01 -7.26695E+01 -7.03064E+01 -7.30383E+01
  -7.81127E+01 -7.65434E+01 -7.91452E+01 -8.18286E+01 -7.92798E+01 -7.76986E+01 -7.62271E+01 -7.23716E+01 -7.75718E+01 -7.93033E+01
  -7.98762E+01 -8.27654E+01 -8.20106E+01 -7.66230E+01 -8.40335E+01 -8.05242E+01 -8.01641E+01 -8.12111E+01 -7.92602E+01 -7.58172E+01
  -7.85051E+01 -7.59605E+01 -7.50455E+01 -7.29137E+01 -7.25053E+01 -6.79334E+01 -6.58867E+01 -7.15138E+01 -7.00352E+01 -7.02736E+01
  -6.98692E+01 -6.55360E+01 -6.69892E+01 -6.41545E+01 -6.79749E+01 -6.71966E+01 -6.55423E+01 -6.20834E+01 -6.32516E+01 -5.85866E+01
  -5.73942E+01 -5.17845E+01 -5.16179E+01 -4.88902E+01 -4.99607E+01 -4.71034E+01 -4.22703E+01 -4.24262E+01 -3.37065E+01 -2.25175E+01
  -7.97831E+00  2.56160E+00  7.54475E+00  7.85949E+00 -1.36541E+00 -9.50768E+00 -1.59123E+01 -2.33708E+01 -2.79480E+01 -3.84590E+01
  -4.04251E+01 -4.81289E+01 -4.80947E+01 -4.80714E+01 -4.98751E+01 -5.14627E+01 -5.15750E+01 -5.02317E+01 -4.62571E+01 -4.23367E+01
  -3.71892E+01 -3.85559E+01 -3.01205E+01 -1.60679E+01 -2.85124E+00  1.41776E+01  2.01180E+01  2.22794E+01  1.52066E+01  7.64054E+00
  -3.19586E+00 -1.04785E+01 -2.05564E+01 -2.88017E+01 -3.28315E+01 -3.93942E+01 -4.51367E+01 -4.13000E+01 -4.84037E+01 -4.79505E+01
  -4.90582E+01 -5.02645E+01 -4.66267E+01 -5.07426E+01 -4.80050E+01 -4.59057E+01 -4.56871E+01 -4.74766E+01 -4.60144E+01 -4.52764E+01
  -4.80358E+01 -4.24367E+01 -4.41245E+01 -4.52886E+01 -4.30944E+01 -4.40839E+01 -4.61677E+01 -4.29042E+01 -4.38567E+01 -4.49166E+01
  -4.27617E+01 -4.29494E+01 -4.85657E+01 -4.39918E+01 -4.55348E+01 -4.99695E+01 -4.87577E+01 -4.70295E+01 -4.66968E+01 -4.70915E+01
  -5.08840E+01 -5.31099E+01 -5.16786E+01 -5.85465E+01 -5.83720E+01 -5.82090E+01 -5.75322E+01 -5.59004E+01 -5.03478E+01 -5.57920E+01
  -5.53114E+01 -5.80220E+01 -5.49375E+01 -5.28288E+01 -5.59122E+01 -5.25959E+01 -4.76671E+01 -5.10675E+01 -4.62132E+01 -4.27606E+01
  -3.93551E+01 -3.44174E+01 -3.66368E+01 -3.34960E+01 -3.71688E+01 -2.93958E+01 -3.27705E+01 -3.92115E+01 -3.62409E+01 -3.88542E+01
  -3.02297E+01 -2.98696E+01 -3.15846E+01 -3.07913E+01 -2.99212E+01 -3.67244E+01 -3.39561E+01 -3.29135E+01 -3.37298E+01 -3.63354E+01
  -3.88123E+01 -3.05910E+01 -2.92929E+01 -3.16441E+01 -2.28444E+01 -1.80178E+01 -1.85718E+01 -1.82630E+01 -2.09462E+01 -2.76328E+01
  -2.91130E+01 -3.14907E+01 -3.08453E+01 -3.23602E+01 -2.79863E+01 -2.19032E+01 -2.57294E+01 -1.77588E+01 -2.22052E+01 -1.77722E+01
  -2.00801E+01 -1.62582E+01 -2.01474E+01 -2.22586E+01 -1.94008E+01 -2.13605E+01 -1.45285E+01 -1.74611E+01 -1.71601E+01 -2.70551E+01
  -2.02397E+01 -2.25518E+01 -2.02633E+01 -1.52278E+01 -1.78198E+01 -1.33830E+01 -1.38642E+01 -7.54684E+00 -8.14190E+00 -4.63755E+00
  -2.20510E+00  1.55053E+00  1.44790E+01  1.41986E+01  2.27448E+01  2.79165E+01  3.60133E+01  6.33246E+01  8.26677E+01  9.53924E+01
   1.00628E+02  9.07335E+01  7.65077E+01  6.13304E+01  5.40235E+01  3.61711E+01  2.55290E+01  1.34599E+01  5.85814E+00 -8.67138E-01
  -5.54603E+00 -9.84768E+00 -1.07082E+01 -1.38557E+01 -1.55073E+01 -1.19653E+01 -1.12404E+01 -1.31626E+01 -1.59165E+01 -1.74147E+01
  -1.35488E+01 -1.52348E+01 -1.43926E+01 -2.04741E+01 -1.92737E+01 -1.76999E+01 -1.84741E+01 -1.82433E+01 -1.99613E+01 -1.56036E+01
  -1.46868E+01 -1.60578E+01 -1.63695E+01 -1.31557E+01 -1.91615E+01 -1.40329E+01 -1.57015E+01 -1.65737E+01 -1.55311E+01 -1.64378E+01
  -1.27565E+01 -1.27407E+01 -1.31488E+01 -1.51603E+01 -1.10044E+01 -1.02355E+01 -1.12874E+01 -1.00321E+01 -1.19284E+01 -7.31518E+00
  -8.32074E+00 -4.88752E+00 -5.67707E+00 -1.11598E+01 -9.43970E+00 -1.28627E+01 -1.47747E+01 -1.79942E+01 -1.43944E+01 -1.61534E+01
  -9.15646E+00 -1.01066E+01 -8.00450E+00 -9.41470E+00 -1.18286E+01 -8.81263E+00 -8.20997E+00 -8.16544E+00 -7.19409E+00 -4.54041E+00
  -3.97493E+00 -7.99656E+00 -1.60685E+00 -5.35895E+00 -2.91979E+00 -3.12931E+00 -4.43585E+00  1.90551E-01 -3.99491E+00 -3.83917E+00
  -1.47937E+00 -5.35197E+00 -1.35470E+00 -3.45594E+00 -3.22151E+00  2.02519E+00  7.45999E-01 -3.29330E-01  1.10856E+00 -1.90183E+00
  -3.83504E+00 -3.80622E+00 -2.56840E+00 -7.96814E-01 -1.48071E+00 -3.10337E+00 -9.24969E-01  3.67996E+00  4.16710E+00 -1.24799E-01
   1.49116E+00  1.99025E+00  2.01519E-01  4.68611E-01  1.66848E+00  8.64735E-02 -4.32640E+00 -1.92848E+00  3.86028E-01  4.68477E-01
  -1.67345E+00  1.10469E+00 -2.53273E-01 -1.41264E+00  3.98692E+00 -1.86452E+00 -3.42142E-01 -1.75873E+00  1.66279E+00 -3.89440E+00
  -2.47793E+00  1.46067E+00 -2.66586E+00 -2.06676E+00 -2.50025E-01 -3.67882E+00 -1.75076E+00 -1.98793E+00 -8.70231E-01 -1.10924E+00
   3.25842E+00  2.86631E+00  2.46712E+00  2.07496E+00  2.66225E+00  6.81175E+00  5.60820E+00  1.08217E+01  6.40692E+00  7.54543E+00
   1.06409E+01  5.69503E+00  8.70230E+00  7.40036E+00  1.00293E+01  9.46710E+00  1.09935E+01  1.35122E+01  5.79878E+00  1.36290E+01
   1.19904E+01  1.58674E+01  1.19116E+01  8.64248E+00  1.02918E+01  1.37172E+01  9.05233E+00  8.66205E+00  5.00473E+00  2.98829E+00
  -1.59605E-01  1.92470E+00  3.20426E+00 -6.50758E-01  2.45793E+00  4.57859E+00 -1.84998E+00 -1.21635E-01  9.77726E-01 -4.80594E+00
  -4.71756E+00 -1.61867E+00  1.05375E-01  1.93191E-01 -6.23656E+00 -1.68977E+00 -2.01063E+00  2.23916E+00 -2.61433E+00 -5.68016E+00
   4.13092E+00  4.60098E-01 -3.30532E+00  1.55260E+00 -8.40044E-01  9.07265E-01  6.76010E-01 -3.42187E-01 -1.96890E+00 -1.75854E+00
   5.53753E-01  4.60553E-01 -2.52689E-01  3.51879E+00 -1.89672E-01 -3.72101E+00 -3.07905E+00  1.62955E+00  1.04887E+00 -4.46381E+00
  -1.31929E+00 -7.60078E-01 -3.66027E+00 -1.05194E+00 -3.68485E+00 -1.12379E+00 -1.12254E+00 -5.72549E-03  1.80029E-01  6.02652E-01
  -1.00550E+00 -3.22148E-03 -1.73319E+00 -2.70882E+00  2.18979E+00 -3.08948E+00  5.47859E-01 -2.14360E-01  1.16066E+00 -8.33604E-01
   2.22549E+00  1.73399E+00  2.93127E-01 -9.67501E-01 -2.79127E+00  1.35100E+00 -9.09226E-01 -3.26993E+00  1.73933E+00 -1.17738E+00
  -1.16706E+00  2.56011E+00  6.42502E-02 -2.76166E+00  8.59891E-01 -2.67962E-01  1.34737E+00 -3.98042E-01
 NY points of the fit to the data follow
  -1.27033E+02 -1.24444E+02 -1.20408E+02 -1.16644E+02 -1.13506E+02 -1.08056E+02 -9.93660E+01 -8.91425E+01 -8.02031E+01 -7.48359E+01
  -7.40988E+01 -7.70029E+01 -8.13132E+01 -8.56252E+01 -9.01319E+01 -9.49657E+01 -9.92801E+01 -1.02681E+02 -1.05922E+02 -1.08342E+02
  -1.10129E+02 -1.10449E+02 -1.08663E+02 -1.06751E+02 -1.06235E+02 -1.05354E+02 -1.02503E+02 -9.74683E+01 -9.20327E+01 -8.71351E+01
  -8.36752E+01 -8.26886E+01 -8.36395E+01 -8.47630E+01 -8.57175E+01 -8.78626E+01 -9.10281E+01 -9.24772E+01 -9.13687E+01 -9.05770E+01
  -9.05097E+01 -8.92623E+01 -8.60127E+01 -8.09345E+01 -7.54704E+01 -7.13467E+01 -6.98258E+01 -7.09289E+01 -7.38311E+01 -7.68307E+01
  -7.87936E+01 -8.06327E+01 -8.24873E+01 -8.32788E+01 -8.31671E+01 -8.28887E+01 -8.21248E+01 -8.03417E+01 -7.82459E+01 -7.71679E+01
  -7.72460E+01 -7.79854E+01 -7.85540E+01 -7.86170E+01 -7.85378E+01 -7.80560E+01 -7.71275E+01 -7.59264E+01 -7.44710E+01 -7.31594E+01
  -7.21042E+01 -7.12269E+01 -7.06346E+01 -7.01431E+01 -6.96437E+01 -6.93795E+01 -6.94578E+01 -6.99521E+01 -7.05778E+01 -7.06692E+01
  -6.93017E+01 -6.83010E+01 -6.85321E+01 -6.86690E+01 -6.76070E+01 -6.51159E+01 -6.21975E+01 -5.95396E+01 -5.79067E+01 -5.77990E+01
  -5.83921E+01 -5.84108E+01 -5.81168E+01 -5.75813E+01 -5.33968E+01 -4.72127E+01 -4.47380E+01 -4.27183E+01 -3.57940E+01 -2.24488E+01
  -7.32883E+00  4.16545E+00  9.68027E+00  8.14122E+00  7.76602E-01 -7.53805E+00 -1.48162E+01 -2.30172E+01 -3.21316E+01 -3.91446E+01
  -4.35526E+01 -4.88801E+01 -5.42590E+01 -5.62178E+01 -5.66674E+01 -5.66083E+01 -5.62010E+01 -5.50454E+01 -5.04177E+01 -4.19722E+01
  -3.78214E+01 -3.51330E+01 -2.87331E+01 -1.62502E+01 -4.98102E-01  1.27951E+01  2.03592E+01  2.04440E+01  1.36570E+01  5.07433E+00
  -1.89924E+00 -9.10690E+00 -1.80610E+01 -2.63530E+01 -3.18348E+01 -3.77034E+01 -4.48373E+01 -4.77981E+01 -4.79885E+01 -4.74276E+01
  -4.66110E+01 -4.58088E+01 -4.53855E+01 -4.53957E+01 -4.53880E+01 -4.53292E+01 -4.53938E+01 -4.55624E+01 -4.57956E+01 -4.60681E+01
  -4.63363E+01 -4.66969E+01 -4.70048E+01 -4.73958E+01 -4.75081E+01 -4.73685E+01 -4.71350E+01 -4.70602E+01 -4.75941E+01 -4.82016E+01
  -4.84041E+01 -4.81170E+01 -4.75307E+01 -4.70918E+01 -4.70527E+01 -4.73497E+01 -4.78185E+01 -4.83408E+01 -4.89857E+01 -4.94037E+01
  -4.94345E+01 -4.96613E+01 -5.02133E+01 -5.11192E+01 -5.16674E+01 -5.14369E+01 -5.08770E+01 -5.04848E+01 -5.04234E+01 -5.05881E+01
  -5.02860E+01 -4.95322E+01 -4.87301E+01 -4.81957E+01 -4.77676E+01 -4.69014E+01 -4.54411E+01 -4.35963E+01 -4.13591E+01 -3.93097E+01
  -3.80931E+01 -3.72455E+01 -3.65896E+01 -3.64198E+01 -3.67952E+01 -3.70853E+01 -3.65932E+01 -3.59201E+01 -3.49386E+01 -3.35434E+01
  -3.21937E+01 -3.12141E+01 -3.03059E+01 -2.96494E+01 -3.01511E+01 -3.23203E+01 -3.46549E+01 -3.59182E+01 -3.61355E+01 -3.61167E+01
  -3.59914E+01 -3.48763E+01 -3.28159E+01 -3.00542E+01 -2.72837E+01 -2.56637E+01 -2.50387E+01 -2.50824E+01 -2.62363E+01 -2.83729E+01
  -3.07673E+01 -3.24343E+01 -3.27139E+01 -3.18238E+01 -2.99877E+01 -2.79298E+01 -2.61898E+01 -2.45906E+01 -2.29598E+01 -2.16374E+01
  -2.08793E+01 -2.05031E+01 -1.98497E+01 -1.90894E+01 -1.80816E+01 -1.66840E+01 -1.51973E+01 -1.41525E+01 -1.40819E+01 -1.51772E+01
  -1.64855E+01 -1.73197E+01 -1.76525E+01 -1.72206E+01 -1.59539E+01 -1.42047E+01 -1.23501E+01 -1.07353E+01 -9.25880E+00 -7.77942E+00
  -6.01512E+00 -1.96926E+00  9.66670E+00  1.95198E+01  2.28913E+01  2.80710E+01  4.12051E+01  6.19446E+01  8.22051E+01  9.53786E+01
   9.90343E+01  9.18809E+01  7.79163E+01  6.45702E+01  5.25399E+01  3.84338E+01  2.40243E+01  1.41954E+01  7.42115E+00 -2.38597E+00
  -1.00274E+01 -1.24007E+01 -1.33126E+01 -1.38961E+01 -1.42924E+01 -1.45387E+01 -1.48318E+01 -1.51235E+01 -1.53972E+01 -1.56742E+01
  -1.59411E+01 -1.61412E+01 -1.62851E+01 -1.64136E+01 -1.65184E+01 -1.65706E+01 -1.65665E+01 -1.65207E+01 -1.64468E+01 -1.63367E+01
  -1.61781E+01 -1.59914E+01 -1.57785E+01 -1.55356E+01 -1.52642E+01 -1.49694E+01 -1.46565E+01 -1.43290E+01 -1.39912E+01 -1.36521E+01
  -1.33168E+01 -1.29891E+01 -1.26759E+01 -1.23836E+01 -1.21167E+01 -1.18787E+01 -1.16712E+01 -1.14937E+01 -1.13447E+01 -1.12220E+01
  -1.11216E+01 -1.10381E+01 -1.09660E+01 -1.08990E+01 -1.08296E+01 -1.07507E+01 -1.06566E+01 -1.05421E+01 -1.04022E+01 -1.02331E+01
  -1.00319E+01 -9.79762E+00 -9.53024E+00 -9.23084E+00 -8.90122E+00 -8.54398E+00 -8.16276E+00 -7.76189E+00 -7.34605E+00 -6.91967E+00
  -6.48686E+00 -6.05145E+00 -5.61691E+00 -5.18580E+00 -4.75902E+00 -4.33494E+00 -3.90814E+00 -3.46533E+00 -2.96949E+00 -2.34888E+00
  -1.86871E+00 -1.69386E+00 -1.40577E+00 -9.36398E-01 -4.52432E-01 -2.85707E-01 -5.75667E-01 -9.39620E-01 -1.38414E+00 -2.02874E+00
  -2.51153E+00 -2.64354E+00 -2.38635E+00 -1.75550E+00 -8.42514E-01  8.62799E-02  6.39195E-01  9.06384E-01  1.21311E+00  1.44325E+00
   1.47438E+00  1.29402E+00  1.08493E+00  9.41952E-01  6.45432E-01  2.49323E-01 -5.06450E-02 -3.05372E-01 -5.43276E-01 -7.71808E-01
  -9.91989E-01 -1.20234E+00 -1.40031E+00 -1.58263E+00 -1.74558E+00 -1.88520E+00 -1.99766E+00 -2.07942E+00 -2.12714E+00 -2.13748E+00
  -2.10703E+00 -2.03244E+00 -1.91062E+00 -1.73869E+00 -1.51392E+00 -1.23351E+00 -8.94849E-01 -4.95719E-01 -3.47099E-02  4.88734E-01
   1.07416E+00  1.72000E+00  2.42304E+00  3.17811E+00  3.97773E+00  4.81220E+00  5.66966E+00  6.53623E+00  7.39605E+00  8.23158E+00
   9.02416E+00  9.75495E+00  1.04057E+01  1.09594E+01  1.14013E+01  1.17190E+01  1.19040E+01  1.19514E+01  1.18610E+01  1.16367E+01
   1.12863E+01  1.08210E+01  1.02553E+01  9.60595E+00  8.89119E+00  8.12989E+00  7.34048E+00  6.54047E+00  5.74583E+00  4.97073E+00
   4.22699E+00  3.52392E+00  2.86821E+00  2.26429E+00  1.71459E+00  1.21985E+00  7.79193E-01  3.90477E-01  5.05842E-02 -2.44044E-01
  -4.97208E-01 -7.12776E-01 -8.94716E-01 -1.04692E+00 -1.17308E+00 -1.27642E+00 -1.35980E+00 -1.42577E+00 -1.47672E+00 -1.51479E+00
  -1.54181E+00 -1.55924E+00 -1.56829E+00 -1.57004E+00 -1.56561E+00 -1.55590E+00 -1.54165E+00 -1.52336E+00 -1.50151E+00 -1.47656E+00
  -1.44906E+00 -1.41941E+00 -1.38787E+00 -1.35458E+00 -1.31973E+00 -1.28357E+00 -1.24637E+00 -1.20828E+00 -1.16935E+00 -1.12957E+00
  -1.08907E+00 -1.04802E+00 -1.00658E+00 -9.64760E-01 -9.22514E-01 -8.79832E-01 -8.36843E-01 -7.93664E-01 -7.50365E-01 -7.06871E-01
  -6.63127E-01 -6.19134E-01 -5.75023E-01 -5.30864E-01 -4.86650E-01 -4.42263E-01 -3.97671E-01 -3.52914E-01 -3.08113E-01 -2.63274E-01
  -2.18337E-01 -1.73178E-01 -1.27801E-01 -8.22666E-02 -3.66650E-02  9.06018E-03  5.50107E-02  1.01289E-01  1.47851E-01  1.94634E-01
   2.41606E-01  2.88886E-01  3.36595E-01  3.84805E-01  4.33449E-01  4.82505E-01  5.32026E-01  5.82205E-01
 NY background values follow
    -1.374E+02   -1.366E+02   -1.358E+02   -1.350E+02   -1.341E+02   -1.333E+02   -1.325E+02   -1.317E+02   -1.309E+02   -1.301E+02
    -1.293E+02   -1.284E+02   -1.276E+02   -1.268E+02   -1.260E+02   -1.252E+02   -1.244E+02   -1.236E+02   -1.228E+02   -1.219E+02
    -1.211E+02   -1.203E+02   -1.195E+02   -1.187E+02   -1.179E+02   -1.171E+02   -1.163E+02   -1.155E+02   -1.148E+02   -1.140E+02
    -1.132E+02   -1.124E+02   -1.116E+02   -1.108E+02   -1.100E+02   -1.093E+02   -1.085E+02   -1.077E+02   -1.070E+02   -1.062E+02
    -1.054E+02   -1.047E+02   -1.039E+02   -1.032E+02   -1.024E+02   -1.017E+02   -1.009E+02   -1.002E+02   -9.948E+01   -9.875E+01
    -9.803E+01   -9.731E+01   -9.659E+01   -9.588E+01   -9.517E+01   -9.446E+01   -9.377E+01   -9.307E+01   -9.238E+01   -9.169E+01
    -9.101E+01   -9.033E+01   -8.966E+01   -8.899E+01   -8.832E+01   -8.766E+01   -8.701E+01   -8.636E+01   -8.571E+01   -8.507E+01
    -8.443E+01   -8.380E+01   -8.317E+01   -8.255E+01   -8.194E+01   -8.132E+01   -8.072E+01   -8.012E+01   -7.952E+01   -7.893E+01
    -7.834E+01   -7.776E+01   -7.718E+01   -7.661E+01   -7.605E+01   -7.549E+01   -7.494E+01   -7.439E+01   -7.385E+01   -7.331E+01
    -7.278E+01   -7.225E+01   -7.173E+01   -7.122E+01   -7.071E+01   -7.021E+01   -6.971E+01   -6.922E+01   -6.873E+01   -6.825E+01
    -6.778E+01   -6.731E+01   -6.684E+01   -6.638E+01   -6.593E+01   -6.548E+01   -6.504E+01   -6.460E+01   -6.417E+01   -6.374E+01
    -6.332E+01   -6.290E+01   -6.249E+01   -6.209E+01   -6.169E+01   -6.129E+01   -6.090E+01   -6.051E+01   -6.013E+01   -5.976E+01
    -5.938E+01   -5.902E+01   -5.866E+01   -5.830E+01   -5.795E+01   -5.760E+01   -5.726E+01   -5.692E+01   -5.659E+01   -5.626E+01
    -5.594E+01   -5.562E+01   -5.531E+01   -5.500E+01   -5.469E+01   -5.439E+01   -5.409E+01   -5.380E+01   -5.351E+01   -5.323E+01
    -5.295E+01   -5.268E+01   -5.240E+01   -5.214E+01   -5.187E+01   -5.161E+01   -5.135E+01   -5.110E+01   -5.084E+01   -5.059E+01
    -5.035E+01   -5.010E+01   -4.986E+01   -4.962E+01   -4.938E+01   -4.915E+01   -4.891E+01   -4.868E+01   -4.845E+01   -4.822E+01
    -4.799E+01   -4.776E+01   -4.754E+01   -4.731E+01   -4.708E+01   -4.686E+01   -4.664E+01   -4.641E+01   -4.619E+01   -4.596E+01
    -4.574E+01   -4.552E+01   -4.529E+01   -4.507E+01   -4.484E+01   -4.461E+01   -4.438E+01   -4.416E+01   -4.392E+01   -4.369E+01
    -4.346E+01   -4.323E+01   -4.299E+01   -4.275E+01   -4.251E+01   -4.227E+01   -4.203E+01   -4.178E+01   -4.154E+01   -4.129E+01
    -4.104E+01   -4.079E+01   -4.054E+01   -4.029E+01   -4.004E+01   -3.979E+01   -3.954E+01   -3.929E+01   -3.903E+01   -3.878E+01
    -3.853E+01   -3.827E+01   -3.802E+01   -3.776E+01   -3.751E+01   -3.726E+01   -3.701E+01   -3.675E+01   -3.650E+01   -3.625E+01
    -3.600E+01   -3.575E+01   -3.550E+01   -3.525E+01   -3.500E+01   -3.476E+01   -3.451E+01   -3.427E+01   -3.402E+01   -3.378E+01
    -3.354E+01   -3.331E+01   -3.307E+01   -3.284E+01   -3.260E+01   -3.237E+01   -3.214E+01   -3.192E+01   -3.169E+01   -3.147E+01
    -3.125E+01   -3.103E+01   -3.081E+01   -3.060E+01   -3.039E+01   -3.018E+01   -2.997E+01   -2.976E+01   -2.955E+01   -2.935E+01
    -2.915E+01   -2.895E+01   -2.875E+01   -2.855E+01   -2.835E+01   -2.816E+01   -2.797E+01   -2.778E+01   -2.759E+01   -2.740E+01
    -2.721E+01   -2.702E+01   -2.684E+01   -2.666E+01   -2.647E+01   -2.629E+01   -2.611E+01   -2.593E+01   -2.576E+01   -2.558E+01
    -2.540E+01   -2.523E+01   -2.506E+01   -2.488E+01   -2.471E+01   -2.454E+01   -2.437E+01   -2.420E+01   -2.403E+01   -2.386E+01
    -2.369E+01   -2.353E+01   -2.336E+01   -2.320E+01   -2.303E+01   -2.287E+01   -2.270E+01   -2.254E+01   -2.238E+01   -2.221E+01
    -2.205E+01   -2.189E+01   -2.173E+01   -2.157E+01   -2.141E+01   -2.125E+01   -2.109E+01   -2.093E+01   -2.078E+01   -2.062E+01
    -2.046E+01   -2.031E+01   -2.015E+01   -1.999E+01   -1.984E+01   -1.968E+01   -1.953E+01   -1.938E+01   -1.922E+01   -1.907E+01
    -1.892E+01   -1.876E+01   -1.861E+01   -1.846E+01   -1.831E+01   -1.816E+01   -1.801E+01   -1.786E+01   -1.771E+01   -1.756E+01
    -1.741E+01   -1.726E+01   -1.711E+01   -1.696E+01   -1.681E+01   -1.666E+01   -1.651E+01   -1.637E+01   -1.622E+01   -1.607E+01
    -1.592E+01   -1.578E+01   -1.563E+01   -1.548E+01   -1.534E+01   -1.519E+01   -1.504E+01   -1.490E+01   -1.476E+01   -1.461E+01
    -1.447E+01   -1.432E+01   -1.418E+01   -1.404E+01   -1.390E+01   -1.375E+01   -1.361E+01   -1.347E+01   -1.333E+01   -1.319E+01
    -1.305E+01   -1.291E+01   -1.278E+01   -1.264E+01   -1.250E+01   -1.237E+01   -1.223E+01   -1.209E+01   -1.196E+01   -1.183E+01
    -1.169E+01   -1.156E+01   -1.143E+01   -1.130E+01   -1.117E+01   -1.104E+01   -1.091E+01   -1.078E+01   -1.066E+01   -1.053E+01
    -1.041E+01   -1.028E+01   -1.016E+01   -1.003E+01   -9.913E+00   -9.792E+00   -9.672E+00   -9.553E+00   -9.434E+00   -9.317E+00
    -9.200E+00   -9.084E+00   -8.968E+00   -8.854E+00   -8.740E+00   -8.627E+00   -8.515E+00   -8.403E+00   -8.292E+00   -8.182E+00
    -8.073E+00   -7.964E+00   -7.856E+00   -7.749E+00   -7.642E+00   -7.536E+00   -7.431E+00   -7.326E+00   -7.222E+00   -7.118E+00
    -7.016E+00   -6.913E+00   -6.811E+00   -6.710E+00   -6.610E+00   -6.510E+00   -6.410E+00   -6.311E+00   -6.213E+00   -6.115E+00
    -6.018E+00   -5.921E+00   -5.825E+00   -5.729E+00   -5.633E+00   -5.538E+00   -5.444E+00   -5.350E+00   -5.256E+00   -5.163E+00
    -5.070E+00   -4.978E+00   -4.886E+00   -4.795E+00   -4.704E+00   -4.614E+00   -4.524E+00   -4.435E+00   -4.346E+00   -4.258E+00
    -4.170E+00   -4.083E+00   -3.997E+00   -3.911E+00   -3.825E+00   -3.740E+00   -3.656E+00   -3.572E+00   -3.489E+00   -3.407E+00
    -3.325E+00   -3.244E+00   -3.163E+00   -3.083E+00   -3.004E+00   -2.925E+00   -2.847E+00   -2.770E+00   -2.693E+00   -2.617E+00
    -2.542E+00   -2.467E+00   -2.393E+00   -2.320E+00   -2.248E+00   -2.176E+00   -2.105E+00   -2.035E+00   -1.965E+00   -1.897E+00
    -1.829E+00   -1.762E+00   -1.696E+00   -1.630E+00   -1.565E+00   -1.501E+00   -1.438E+00   -1.376E+00   -1.314E+00   -1.253E+00
    -1.192E+00   -1.132E+00   -1.073E+00   -1.014E+00   -9.564E-01   -8.989E-01   -8.419E-01   -7.855E-01   -7.296E-01   -6.742E-01
    -6.192E-01   -5.647E-01   -5.106E-01   -4.569E-01   -4.036E-01   -3.507E-01   -2.981E-01   -2.458E-01   -1.939E-01   -1.422E-01
    -9.085E-02   -3.973E-02    1.117E-02    6.185E-02    1.123E-01    1.627E-01    2.128E-01    2.628E-01    3.127E-01    3.625E-01
     4.123E-01    4.619E-01    5.116E-01    5.612E-01    6.108E-01    6.604E-01    7.101E-01    7.598E-01
 Cr       Conc. = 1.08E+03
