 LCModel (Version 6.3-1L) Copyright: S.W. Provencher.          Ref.: Magn. Reson. Med. 30:672-679 (1993).                
 Slice#3 Row#11 Col#12  K_02_press_1_raw_act
 36 lines in following concentration table = NCONC+1
    Conc.  %SD /Cr+PCr  Metabolite                                         
   14.584 511% 3.2E-02 Ala                                                 
   58.858 118%   0.127 Asp                                                 
    0.000 999%   0.000 Cr                                                  
  462.045   8%   1.000 PCr                                                 
   24.074 178% 5.2E-02 GABA                                                
   40.806 103% 8.8E-02 Glc                                                 
    0.000 999%   0.000 Gln                                                 
  316.632  50%   0.685 Glu                                                 
  103.110  12%   0.223 GPC                                                 
    0.000 999%   0.000 PCh                                                 
   39.391 106% 8.5E-02 GSH                                                 
  382.565  37%   0.828 Ins                                                 
    0.000 999%   0.000 Lac                                                 
  442.846  18%   0.958 NAA                                                 
  241.529  32%   0.523 NAAG                                                
   17.413  64% 3.8E-02 Scyllo                                              
  116.761  56%   0.253 Tau                                                 
  398.730  14%   0.863 -CrCH2                                              
  103.110  12%   0.223 GPC+PCh                                             
  684.375   7%   1.481 NAA+NAAG                                            
  462.045   8%   1.000 Cr+PCr                                              
  316.632  50%   0.685 Glu+Gln                                             
 8.07E+03  11%  17.472 Lip13a                                              
    0.000 999%   0.000 Lip13b                                              
 1.50E+03  22%   3.252 Lip09                                               
  932.211  23%   2.018 MM09                                                
 1.12E+03  21%   2.425 Lip20                                               
 1.48E+03  19%   3.195 MM20                                                
  309.402  44%   0.670 MM12                                                
 2.68E+03  17%   5.793+MM14                                                
  464.465  47%   1.005 MM17                                                
 8.07E+03  11%  17.472 Lip13a+Lip13b                                       
 1.11E+04   6%  23.934 MM14+Lip13a+Lip13b+MM12                             
 2.43E+03  11%   5.270 MM09+Lip09                                          
 2.60E+03  10%   5.620 MM20+Lip20                                          
   6 lines in following misc. output table
  FWHM = 0.069 ppm    S/N =  10                                            
  Data shift = 0.023 ppm                                                   
  Ph:  84 deg      31.7 deg/ppm                                            
  alphaB,S = 9.7E-01,   4.4E+01                                            
   14 spline knots.   Ns = 8(1)                                            
  (15) 4 infls.   (17) 1 extrs.                                            
  498 points on ppm-axis = NY
      4.000000     3.992357     3.984714     3.977070     3.969427     3.961784     3.954141     3.946497     3.938854     3.931211
      3.923568     3.915925     3.908281     3.900638     3.892995     3.885352     3.877708     3.870065     3.862422     3.854779
      3.847136     3.839492     3.831849     3.824206     3.816563     3.808919     3.801276     3.793633     3.785990     3.778347
      3.770703     3.763060     3.755417     3.747774     3.740130     3.732487     3.724844     3.717201     3.709558     3.701914
      3.694271     3.686628     3.678985     3.671341     3.663698     3.656055     3.648412     3.640769     3.633125     3.625482
      3.617839     3.610196     3.602552     3.594909     3.587266     3.579623     3.571980     3.564336     3.556693     3.549050
      3.541407     3.533763     3.526120     3.518477     3.510834     3.503191     3.495547     3.487904     3.480261     3.472618
      3.464974     3.457331     3.449688     3.442045     3.434402     3.426758     3.419115     3.411472     3.403829     3.396185
      3.388542     3.380899     3.373256     3.365613     3.357969     3.350326     3.342683     3.335040     3.327396     3.319753
      3.312110     3.304467     3.296824     3.289180     3.281537     3.273894     3.266251     3.258607     3.250964     3.243321
      3.235678     3.228034     3.220391     3.212748     3.205105     3.197462     3.189818     3.182175     3.174532     3.166889
      3.159245     3.151602     3.143959     3.136316     3.128673     3.121029     3.113386     3.105743     3.098100     3.090456
      3.082813     3.075170     3.067527     3.059884     3.052240     3.044597     3.036954     3.029311     3.021667     3.014024
      3.006381     2.998738     2.991095     2.983451     2.975808     2.968165     2.960522     2.952878     2.945235     2.937592
      2.929949     2.922306     2.914662     2.907019     2.899376     2.891733     2.884089     2.876446     2.868803     2.861160
      2.853517     2.845873     2.838230     2.830587     2.822944     2.815300     2.807657     2.800014     2.792371     2.784728
      2.777084     2.769441     2.761798     2.754155     2.746511     2.738868     2.731225     2.723582     2.715939     2.708295
      2.700652     2.693009     2.685366     2.677722     2.670079     2.662436     2.654793     2.647150     2.639506     2.631863
      2.624220     2.616577     2.608933     2.601290     2.593647     2.586004     2.578361     2.570717     2.563074     2.555431
      2.547788     2.540144     2.532501     2.524858     2.517215     2.509572     2.501928     2.494285     2.486642     2.478999
      2.471355     2.463712     2.456069     2.448426     2.440783     2.433139     2.425496     2.417853     2.410210     2.402566
      2.394923     2.387280     2.379637     2.371994     2.364350     2.356707     2.349064     2.341421     2.333777     2.326134
      2.318491     2.310848     2.303205     2.295561     2.287918     2.280275     2.272632     2.264988     2.257345     2.249702
      2.242059     2.234416     2.226772     2.219129     2.211486     2.203843     2.196199     2.188556     2.180913     2.173270
      2.165627     2.157983     2.150340     2.142697     2.135054     2.127410     2.119767     2.112124     2.104481     2.096838
      2.089194     2.081551     2.073908     2.066265     2.058621     2.050978     2.043335     2.035692     2.028049     2.020405
      2.012762     2.005119     1.997476     1.989833     1.982190     1.974546     1.966903     1.959260     1.951617     1.943974
      1.936331     1.928688     1.921045     1.913402     1.905759     1.898115     1.890472     1.882829     1.875186     1.867543
      1.859900     1.852257     1.844614     1.836971     1.829327     1.821684     1.814041     1.806398     1.798755     1.791112
      1.783469     1.775826     1.768183     1.760540     1.752896     1.745253     1.737610     1.729967     1.722324     1.714681
      1.707038     1.699395     1.691752     1.684108     1.676465     1.668822     1.661179     1.653536     1.645893     1.638250
      1.630607     1.622964     1.615321     1.607677     1.600034     1.592391     1.584748     1.577105     1.569462     1.561819
      1.554176     1.546533     1.538890     1.531246     1.523603     1.515960     1.508317     1.500674     1.493031     1.485388
      1.477745     1.470102     1.462458     1.454815     1.447172     1.439529     1.431886     1.424243     1.416600     1.408957
      1.401314     1.393671     1.386027     1.378384     1.370741     1.363098     1.355455     1.347812     1.340169     1.332526
      1.324883     1.317240     1.309596     1.301953     1.294310     1.286667     1.279024     1.271381     1.263738     1.256095
      1.248452     1.240808     1.233165     1.225522     1.217879     1.210236     1.202593     1.194950     1.187307     1.179664
      1.172021     1.164377     1.156734     1.149091     1.141448     1.133805     1.126162     1.118519     1.110876     1.103233
      1.095590     1.087946     1.080303     1.072660     1.065017     1.057374     1.049731     1.042088     1.034445     1.026802
      1.019158     1.011515     1.003872     0.996229     0.988586     0.980943     0.973300     0.965657     0.958014     0.950371
      0.942727     0.935084     0.927441     0.919798     0.912155     0.904512     0.896869     0.889226     0.881583     0.873940
      0.866296     0.858653     0.851010     0.843367     0.835724     0.828081     0.820438     0.812795     0.805152     0.797508
      0.789865     0.782222     0.774579     0.766936     0.759293     0.751650     0.744007     0.736364     0.728721     0.721077
      0.713434     0.705791     0.698148     0.690505     0.682862     0.675219     0.667576     0.659933     0.652290     0.644646
      0.637003     0.629360     0.621717     0.614074     0.606431     0.598788     0.591145     0.583502     0.575858     0.568215
      0.560572     0.552929     0.545286     0.537643     0.530000     0.522357     0.514714     0.507071     0.499427     0.491784
      0.484141     0.476498     0.468855     0.461212     0.453569     0.445925     0.438282     0.430639     0.422996     0.415353
      0.407710     0.400067     0.392424     0.384780     0.377137     0.369494     0.361851     0.354208     0.346565     0.338922
      0.331278     0.323635     0.315992     0.308349     0.300706     0.293063     0.285420     0.277777     0.270133     0.262490
      0.254847     0.247204     0.239561     0.231918     0.224275     0.216631     0.208988     0.201345
 NY phased data points follow
   2.67078E+00  3.03803E+00  2.36792E+00  4.46927E+00  3.62625E+00 -2.05157E-01  2.54701E+00  3.51641E+00  2.83414E+00  2.07193E+00
   2.54958E+00  3.35208E+00  4.39626E+00  2.61687E+00  3.27713E+00  1.99036E+00  1.46072E+00  1.62316E+00  1.04788E+00  2.35247E+00
   3.66893E+00  2.47604E+00  1.77821E+00  3.96716E+00  2.67439E+00  2.50082E+00  2.98062E-01  4.97409E+00  2.83660E+00  2.45678E+00
   8.84273E-01  1.16424E+00  1.65096E+00  2.92674E+00  1.17139E+00  6.98407E-01  2.66795E+00  1.22404E+00  2.95838E+00  8.29029E-01
   1.24565E+00  3.02629E+00 -3.40344E-01  2.33080E+00  2.26786E+00  3.27549E+00  4.02664E+00  4.39606E+00  2.31281E+00  3.10169E+00
   3.38981E+00  6.05397E+00  4.42431E+00  1.51991E+00  3.58505E+00  5.71619E+00  4.94169E+00  4.96449E+00  5.14241E+00  3.16776E+00
   6.87479E-01  3.36618E+00  1.55183E+00  1.80179E+00  2.39281E+00  2.82507E+00 -5.76897E-01  3.45716E+00  2.81676E-01  3.04658E+00
   9.53015E-01 -2.38270E-01  1.49208E+00  2.39241E+00 -1.30829E-01  2.09243E+00  2.19524E+00  1.22485E+00  3.12881E+00  3.38775E-01
  -2.68922E-01  6.18758E-04  3.56625E-01 -1.14270E+00  2.79967E+00  1.04626E+00 -7.57143E-03  7.36000E-01  2.24369E+00 -1.55861E+00
   1.45556E+00 -4.32950E-02 -1.73652E-01  1.85508E+00  4.08206E-02  9.10596E-01  2.52096E+00  1.28801E+00 -1.48379E-01  4.51620E-01
   3.07258E+00  2.98626E+00  6.80342E+00  4.85543E+00  7.34544E+00  6.16034E+00  7.28202E+00  7.00316E+00  8.47693E+00  6.42482E+00
   3.87300E+00  5.14418E+00  5.91379E+00  3.22386E+00  1.53816E+00 -1.58149E+00  9.25530E-01  2.38908E+00  2.28153E+00  3.43160E+00
  -1.73047E-01  1.28860E+00  1.12719E+00  1.27784E+00  2.68660E+00  5.41751E+00  8.80687E+00  1.18999E+01  1.07704E+01  1.53026E+01
   1.33278E+01  9.93892E+00  1.25101E+01  9.78817E+00  9.56671E+00  6.32059E+00  6.06506E+00  4.38986E+00  5.71204E+00  3.23606E+00
   3.20887E+00  3.50966E+00  5.88010E+00  3.03614E+00  2.01890E+00  9.39010E-01  9.64538E-01 -5.67576E-01  2.32936E+00 -1.14534E-02
   4.50361E-01  2.98541E+00 -7.26700E-01  4.07862E-01  2.25624E+00  1.12440E+00 -4.15466E-01  7.33066E-01 -2.45443E+00  4.20500E-01
  -2.39325E-01 -3.39531E+00 -1.48804E+00 -1.50919E+00 -5.75676E-01  6.09533E-01 -1.88874E+00 -1.70148E+00 -2.62786E+00 -5.68519E+00
  -2.39609E+00 -4.56417E-01 -4.43162E+00 -4.37028E+00 -6.64018E+00 -3.98579E+00 -4.29895E+00 -8.33110E+00 -6.47185E+00 -5.67737E+00
  -7.38022E+00 -2.98109E+00 -4.56959E+00 -6.53315E+00 -4.93475E+00 -4.92001E+00 -3.58310E+00 -5.07731E+00 -4.99611E+00 -2.74798E+00
  -5.33213E+00  8.44586E-01 -2.69923E+00 -4.14282E+00 -3.00606E+00 -4.37554E+00 -7.94641E+00 -3.35080E+00 -6.05124E+00 -4.77263E+00
  -2.08045E+00 -4.23395E+00 -2.09194E+00 -2.66913E+00 -3.10731E+00 -1.91566E-01 -1.53682E+00 -2.12704E+00 -2.12410E+00 -4.44374E+00
  -2.60478E+00 -1.94207E+00 -8.31871E-01 -2.49028E-01  1.71287E+00  1.57437E+00  1.94115E+00  1.46959E+00  1.17991E+00  2.71586E-01
   3.25094E-01  7.67140E-01 -9.72948E-01 -2.14221E+00 -7.23559E-01  2.04623E+00  1.06011E+00  1.17362E+00  1.20163E+00 -7.23175E-02
   3.49683E-01  3.02152E-01  1.54683E+00  8.86159E-01  3.75933E+00  4.91262E+00  3.05912E+00  6.54434E+00  4.57218E+00  1.51739E+00
   2.31659E+00  2.69974E+00  4.38404E+00  4.40282E+00  3.39128E+00  4.24329E+00  3.99461E+00  6.63999E+00  6.29384E+00  8.58759E+00
   1.00788E+01  1.00234E+01  8.12353E+00  1.12900E+01  1.06934E+01  1.25422E+01  1.36366E+01  1.75076E+01  2.17196E+01  2.51121E+01
   2.57796E+01  2.37722E+01  2.27727E+01  1.68240E+01  1.39182E+01  1.17687E+01  9.37758E+00  4.93855E+00  1.68266E+00  2.72077E+00
   9.29458E-01  1.48580E+00 -1.92038E+00 -2.14526E+00 -3.37235E-01 -1.64309E+00  6.02116E-02 -1.67072E+00 -3.10803E+00  4.57864E-01
  -2.98137E-01 -3.21881E+00 -1.71480E-01  3.59630E-01 -2.44095E+00 -3.65951E+00 -9.78581E-01  7.09929E-01  1.95887E-01 -1.16987E+00
  -2.34992E+00 -1.57120E+00 -1.14692E+00  8.56771E-01 -1.32624E+00  1.63191E+00 -2.04532E+00  1.96758E+00 -8.76568E-01  6.99364E-01
   1.49978E+00  7.54623E-01  1.06047E+00  1.51286E+00  2.47140E+00  1.26947E+00  2.92272E+00  4.67518E+00  2.89542E+00  3.05399E+00
   6.56061E-01  5.72212E+00  6.25774E+00  3.43900E+00  5.43697E+00  5.28625E+00  7.99251E+00  4.77059E+00  7.23844E+00  8.99077E+00
   8.46664E+00  1.18211E+01  1.19658E+01  1.30461E+01  1.40542E+01  1.63022E+01  1.58307E+01  1.97137E+01  2.04212E+01  1.85673E+01
   2.27757E+01  2.66267E+01  2.70741E+01  2.91231E+01  3.06273E+01  3.19216E+01  3.19359E+01  3.43187E+01  3.56978E+01  3.46391E+01
   3.73177E+01  3.27737E+01  3.57113E+01  3.43166E+01  3.50429E+01  3.59808E+01  3.58707E+01  3.43780E+01  3.52961E+01  3.35356E+01
   3.03514E+01  3.26445E+01  3.30093E+01  3.22344E+01  3.21609E+01  2.81499E+01  2.83825E+01  2.64717E+01  2.48080E+01  2.30075E+01
   2.11085E+01  1.99851E+01  2.05496E+01  2.12021E+01  2.38794E+01  2.00938E+01  1.85994E+01  1.70437E+01  1.56485E+01  1.71653E+01
   1.55785E+01  1.08956E+01  1.45994E+01  1.39144E+01  1.35461E+01  1.10016E+01  1.32915E+01  1.28687E+01  1.09556E+01  1.12835E+01
   1.29259E+01  9.44856E+00  9.69597E+00  9.05828E+00  9.88031E+00  1.01652E+01  1.02363E+01  9.52637E+00  1.04055E+01  1.04611E+01
   1.23595E+01  6.66524E+00  9.30987E+00  7.25592E+00  7.32510E+00  1.03542E+01  1.00205E+01  8.75776E+00  8.77468E+00  7.15605E+00
   8.21334E+00  7.60758E+00  7.08378E+00  6.35216E+00  1.01844E+01  7.56789E+00  8.00199E+00  5.10569E+00  4.54530E+00  3.71594E+00
   6.52233E+00  4.03256E+00  3.52225E+00  4.03505E+00  3.63642E+00  9.45051E-01  1.24109E+00  2.38708E+00  1.01637E+00  2.70824E+00
   3.30457E+00  3.82353E+00  8.68917E-01  1.87332E+00  7.33466E-01  2.72241E+00  3.89176E+00  2.23658E+00  1.86486E+00  3.65825E-01
   1.30547E+00  4.61517E-01  1.61907E+00 -2.04046E+00 -2.29527E+00  1.85788E+00 -5.57868E-01  1.40154E+00  2.15135E+00 -1.03082E+00
   2.89318E+00 -7.59449E-01  3.44833E-01  4.82922E-01  5.15852E-01 -7.15491E-01 -1.56575E-01  3.21939E-01 -1.61757E+00 -1.49499E+00
   1.55122E+00 -3.79443E-01 -1.84621E+00 -3.73066E+00 -3.43052E-01 -1.40514E+00 -1.45201E+00 -1.43363E-01 -1.27101E+00 -1.42260E+00
  -4.17329E+00  7.83127E-01 -3.31205E+00 -2.65586E-01 -1.13647E+00 -9.55527E-01 -7.44613E-01 -1.64555E+00 -2.39869E+00  1.81929E+00
   5.26916E-02 -2.78628E+00  2.05511E-01 -1.09421E+00 -1.39261E+00 -2.40473E-02 -1.96780E+00 -2.45285E+00 -3.31957E-01 -1.70348E+00
  -2.15287E+00 -2.99259E+00 -2.11657E+00 -9.59442E-01 -5.82232E-01 -1.32155E+00 -1.29934E+00 -1.89702E+00 -2.99033E+00 -1.05344E+00
  -4.19237E-01 -2.10575E+00  1.15633E-01 -3.31466E+00 -1.38407E+00  2.71759E-01 -2.41695E+00 -4.36519E+00
 NY points of the fit to the data follow
   3.49077E+00  3.17541E+00  2.93343E+00  2.84911E+00  2.74251E+00  2.55341E+00  2.43007E+00  2.48020E+00  2.72260E+00  3.04354E+00
   3.32156E+00  3.51424E+00  3.62703E+00  3.61218E+00  3.54293E+00  3.45091E+00  3.34204E+00  3.18258E+00  3.03390E+00  2.74756E+00
   2.46802E+00  2.35862E+00  2.34937E+00  2.37304E+00  2.33319E+00  2.25471E+00  2.18630E+00  2.17952E+00  2.22032E+00  2.32484E+00
   2.49426E+00  2.70581E+00  2.88574E+00  2.99086E+00  3.00236E+00  2.94995E+00  2.85394E+00  2.72202E+00  2.52112E+00  2.32462E+00
   2.18426E+00  2.00686E+00  1.79165E+00  1.73881E+00  2.01602E+00  2.57724E+00  3.17700E+00  3.63700E+00  3.89910E+00  3.91795E+00
   3.71783E+00  3.41391E+00  3.08987E+00  2.75987E+00  2.40972E+00  2.02407E+00  1.65170E+00  1.46311E+00  1.54092E+00  1.76044E+00
   1.94232E+00  2.03581E+00  2.01893E+00  1.92351E+00  1.81320E+00  1.71160E+00  1.61680E+00  1.54019E+00  1.46735E+00  1.39998E+00
   1.37468E+00  1.41726E+00  1.54168E+00  1.71773E+00  1.87502E+00  1.93808E+00  1.88725E+00  1.76268E+00  1.59559E+00  1.42346E+00
   1.24408E+00  1.08789E+00  1.04251E+00  1.09928E+00  1.14235E+00  1.09797E+00  9.82772E-01  8.27538E-01  6.65217E-01  5.13529E-01
   3.77228E-01  2.57437E-01  1.28049E-01 -3.08142E-03 -9.23843E-02 -2.98722E-02  2.84393E-01  4.05455E-01  2.41420E-01  3.45299E-01
   1.27583E+00  3.02891E+00  5.07393E+00  6.79064E+00  7.88737E+00  8.32538E+00  8.10416E+00  7.42325E+00  6.62638E+00  5.79787E+00
   4.81446E+00  3.62703E+00  2.26721E+00  9.98406E-01  4.30149E-01  2.45440E-01  1.55512E-01  9.92921E-02  1.05719E-01  3.16166E-01
   7.13686E-01  6.94877E-01  4.20431E-01  8.12472E-01  2.56641E+00  5.51331E+00  8.73963E+00  1.13150E+01  1.29000E+01  1.34839E+01
   1.30754E+01  1.20274E+01  1.08164E+01  9.44672E+00  7.78796E+00  5.83300E+00  3.65975E+00  1.79731E+00  1.05135E+00  8.28471E-01
   7.33004E-01  6.91475E-01  6.82151E-01  7.03002E-01  7.45872E-01  7.84777E-01  8.04487E-01  8.01276E-01  7.80480E-01  7.51253E-01
   7.08773E-01  6.46030E-01  5.46451E-01  4.24625E-01  3.37785E-01  2.95294E-01  2.60808E-01  1.79877E-01  8.43943E-03 -2.08182E-01
  -4.04992E-01 -5.60554E-01 -6.88042E-01 -7.94637E-01 -9.13420E-01 -1.09094E+00 -1.32423E+00 -1.58979E+00 -1.83787E+00 -1.98535E+00
  -2.08051E+00 -2.23274E+00 -2.46371E+00 -2.74007E+00 -2.97369E+00 -3.10795E+00 -3.18489E+00 -3.25222E+00 -3.34425E+00 -3.45834E+00
  -3.56335E+00 -3.62872E+00 -3.64022E+00 -3.61258E+00 -3.54927E+00 -3.45762E+00 -3.36658E+00 -3.22796E+00 -3.00895E+00 -2.74525E+00
  -2.51985E+00 -2.37726E+00 -2.28017E+00 -2.23706E+00 -2.23885E+00 -2.26015E+00 -2.30535E+00 -2.39192E+00 -2.47026E+00 -2.51199E+00
  -2.48271E+00 -2.37772E+00 -2.23574E+00 -2.09139E+00 -1.98722E+00 -1.95153E+00 -1.96370E+00 -2.01744E+00 -2.13295E+00 -2.32644E+00
  -2.51685E+00 -2.56019E+00 -2.36172E+00 -1.93636E+00 -1.41943E+00 -9.27219E-01 -4.98772E-01 -2.30928E-01 -2.24825E-01 -4.50303E-01
  -7.57279E-01 -9.72067E-01 -1.03624E+00 -9.83037E-01 -7.82491E-01 -4.32781E-01  6.20030E-02  5.58215E-01  9.75516E-01  1.32591E+00
   1.63329E+00  1.92070E+00  2.14715E+00  2.31619E+00  2.49729E+00  2.70781E+00  2.91910E+00  3.11783E+00  3.26383E+00  3.36343E+00
   3.48901E+00  3.67850E+00  3.95969E+00  4.34909E+00  4.82451E+00  5.36666E+00  5.91619E+00  6.44804E+00  7.04533E+00  7.48788E+00
   7.64805E+00  8.03434E+00  9.27912E+00  1.08116E+01  1.21380E+01  1.35869E+01  1.57336E+01  1.85896E+01  2.13438E+01  2.30796E+01
   2.36141E+01  2.30497E+01  2.13153E+01  1.86809E+01  1.57604E+01  1.27942E+01  1.01369E+01  7.68241E+00  5.10466E+00  2.63444E+00
   1.32612E+00  7.89923E-01  4.47440E-01  1.80953E-01 -3.94680E-02 -2.41659E-01 -4.38645E-01 -6.20942E-01 -7.86925E-01 -9.30364E-01
  -1.04910E+00 -1.14396E+00 -1.21754E+00 -1.26664E+00 -1.28258E+00 -1.26795E+00 -1.23376E+00 -1.19087E+00 -1.13552E+00 -1.05770E+00
  -9.54299E-01 -8.31028E-01 -6.89410E-01 -5.25504E-01 -3.40741E-01 -1.46230E-01  5.80181E-02  2.74103E-01  5.01886E-01  7.41718E-01
   9.90464E-01  1.24348E+00  1.50413E+00  1.77166E+00  2.04146E+00  2.31233E+00  2.58318E+00  2.85496E+00  3.12847E+00  3.40309E+00
   3.68311E+00  3.97749E+00  4.29404E+00  4.64335E+00  5.03613E+00  5.48471E+00  6.00127E+00  6.59908E+00  7.29047E+00  8.08702E+00
   8.99037E+00  1.00096E+01  1.11612E+01  1.24500E+01  1.38595E+01  1.53628E+01  1.69348E+01  1.85653E+01  2.02383E+01  2.19225E+01
   2.35967E+01  2.52538E+01  2.68784E+01  2.84427E+01  2.99107E+01  3.12488E+01  3.24344E+01  3.34566E+01  3.42904E+01  3.49252E+01
   3.53710E+01  3.56372E+01  3.57335E+01  3.56729E+01  3.54683E+01  3.51496E+01  3.47461E+01  3.42690E+01  3.37290E+01  3.31369E+01
   3.25009E+01  3.18276E+01  3.11203E+01  3.03815E+01  2.96115E+01  2.88105E+01  2.79777E+01  2.71134E+01  2.62177E+01  2.52929E+01
   2.43413E+01  2.33678E+01  2.23775E+01  2.13774E+01  2.03750E+01  1.93788E+01  1.83975E+01  1.74400E+01  1.65147E+01  1.56302E+01
   1.47935E+01  1.40118E+01  1.32903E+01  1.26339E+01  1.20456E+01  1.15279E+01  1.10812E+01  1.07054E+01  1.03984E+01  1.01573E+01
   9.97758E+00  9.85408E+00  9.77995E+00  9.74807E+00  9.74991E+00  9.77703E+00  9.82007E+00  9.87026E+00  9.91848E+00  9.95679E+00
   9.97744E+00  9.97433E+00  9.94204E+00  9.87716E+00  9.77713E+00  9.64147E+00  9.47046E+00  9.26621E+00  9.03130E+00  8.76969E+00
   8.48530E+00  8.18294E+00  7.86680E+00  7.54153E+00  7.21081E+00  6.87844E+00  6.54707E+00  6.21931E+00  5.89658E+00  5.58038E+00
   5.27115E+00  4.96954E+00  4.67530E+00  4.38860E+00  4.10889E+00  3.83617E+00  3.56990E+00  3.31018E+00  3.05659E+00  2.80937E+00
   2.56831E+00  2.33384E+00  2.10590E+00  1.88504E+00  1.67123E+00  1.46505E+00  1.26649E+00  1.07606E+00  8.93706E-01  7.19840E-01
   5.54265E-01  3.97287E-01  2.48606E-01  1.08426E-01 -2.36628E-02 -1.47567E-01 -2.63788E-01 -3.72301E-01 -4.73647E-01 -5.67841E-01
  -6.55465E-01 -7.36570E-01 -8.11753E-01 -8.81060E-01 -9.45064E-01 -1.00380E+00 -1.05785E+00 -1.10723E+00 -1.15250E+00 -1.19364E+00
  -1.23116E+00 -1.26504E+00 -1.29577E+00 -1.32330E+00 -1.34810E+00 -1.37007E+00 -1.38964E+00 -1.40672E+00 -1.42171E+00 -1.43451E+00
  -1.44550E+00 -1.45453E+00 -1.46197E+00 -1.46768E+00 -1.47200E+00 -1.47480E+00 -1.47638E+00 -1.47657E+00 -1.47570E+00 -1.47360E+00
  -1.47058E+00 -1.46644E+00 -1.46149E+00 -1.45552E+00 -1.44883E+00 -1.44123E+00 -1.43301E+00 -1.42396E+00 -1.41434E+00 -1.40395E+00
  -1.39308E+00 -1.38151E+00 -1.36951E+00 -1.35685E+00 -1.34380E+00 -1.33014E+00 -1.31614E+00 -1.30158E+00 -1.28671E+00 -1.27130E+00
  -1.25561E+00 -1.23941E+00 -1.22295E+00 -1.20602E+00 -1.18884E+00 -1.17118E+00 -1.15329E+00 -1.13495E+00
 NY background values follow
     2.488E+00    2.462E+00    2.436E+00    2.411E+00    2.385E+00    2.360E+00    2.334E+00    2.309E+00    2.283E+00    2.258E+00
     2.232E+00    2.207E+00    2.181E+00    2.156E+00    2.130E+00    2.104E+00    2.079E+00    2.053E+00    2.028E+00    2.002E+00
     1.976E+00    1.951E+00    1.925E+00    1.899E+00    1.873E+00    1.847E+00    1.821E+00    1.796E+00    1.770E+00    1.744E+00
     1.717E+00    1.691E+00    1.665E+00    1.639E+00    1.612E+00    1.586E+00    1.560E+00    1.533E+00    1.507E+00    1.480E+00
     1.453E+00    1.426E+00    1.399E+00    1.372E+00    1.345E+00    1.318E+00    1.291E+00    1.264E+00    1.236E+00    1.209E+00
     1.181E+00    1.153E+00    1.126E+00    1.098E+00    1.070E+00    1.042E+00    1.013E+00    9.850E-01    9.566E-01    9.280E-01
     8.994E-01    8.706E-01    8.417E-01    8.127E-01    7.836E-01    7.543E-01    7.250E-01    6.955E-01    6.659E-01    6.361E-01
     6.063E-01    5.763E-01    5.462E-01    5.159E-01    4.855E-01    4.550E-01    4.244E-01    3.936E-01    3.626E-01    3.316E-01
     3.003E-01    2.690E-01    2.375E-01    2.058E-01    1.740E-01    1.421E-01    1.100E-01    7.770E-02    4.528E-02    1.271E-02
    -2.002E-02   -5.290E-02   -8.595E-02   -1.192E-01   -1.525E-01   -1.860E-01   -2.197E-01   -2.535E-01   -2.875E-01   -3.216E-01
    -3.559E-01   -3.903E-01   -4.249E-01   -4.596E-01   -4.944E-01   -5.294E-01   -5.645E-01   -5.998E-01   -6.352E-01   -6.708E-01
    -7.064E-01   -7.422E-01   -7.782E-01   -8.142E-01   -8.504E-01   -8.868E-01   -9.232E-01   -9.598E-01   -9.965E-01   -1.033E+00
    -1.070E+00   -1.107E+00   -1.144E+00   -1.182E+00   -1.219E+00   -1.257E+00   -1.294E+00   -1.332E+00   -1.370E+00   -1.408E+00
    -1.446E+00   -1.484E+00   -1.522E+00   -1.561E+00   -1.599E+00   -1.638E+00   -1.676E+00   -1.715E+00   -1.754E+00   -1.793E+00
    -1.832E+00   -1.871E+00   -1.910E+00   -1.949E+00   -1.988E+00   -2.027E+00   -2.066E+00   -2.105E+00   -2.144E+00   -2.183E+00
    -2.222E+00   -2.261E+00   -2.300E+00   -2.339E+00   -2.378E+00   -2.416E+00   -2.455E+00   -2.493E+00   -2.531E+00   -2.570E+00
    -2.608E+00   -2.645E+00   -2.683E+00   -2.720E+00   -2.758E+00   -2.795E+00   -2.832E+00   -2.868E+00   -2.905E+00   -2.941E+00
    -2.977E+00   -3.013E+00   -3.048E+00   -3.083E+00   -3.118E+00   -3.152E+00   -3.186E+00   -3.220E+00   -3.254E+00   -3.287E+00
    -3.320E+00   -3.352E+00   -3.384E+00   -3.416E+00   -3.447E+00   -3.478E+00   -3.509E+00   -3.539E+00   -3.569E+00   -3.598E+00
    -3.628E+00   -3.656E+00   -3.685E+00   -3.713E+00   -3.740E+00   -3.768E+00   -3.795E+00   -3.821E+00   -3.847E+00   -3.873E+00
    -3.899E+00   -3.924E+00   -3.949E+00   -3.973E+00   -3.997E+00   -4.021E+00   -4.044E+00   -4.067E+00   -4.090E+00   -4.112E+00
    -4.134E+00   -4.156E+00   -4.177E+00   -4.198E+00   -4.219E+00   -4.239E+00   -4.259E+00   -4.279E+00   -4.298E+00   -4.317E+00
    -4.335E+00   -4.354E+00   -4.372E+00   -4.389E+00   -4.407E+00   -4.423E+00   -4.440E+00   -4.456E+00   -4.472E+00   -4.488E+00
    -4.503E+00   -4.518E+00   -4.533E+00   -4.547E+00   -4.561E+00   -4.575E+00   -4.588E+00   -4.601E+00   -4.613E+00   -4.626E+00
    -4.637E+00   -4.649E+00   -4.660E+00   -4.671E+00   -4.682E+00   -4.692E+00   -4.702E+00   -4.711E+00   -4.720E+00   -4.729E+00
    -4.737E+00   -4.746E+00   -4.753E+00   -4.761E+00   -4.768E+00   -4.774E+00   -4.781E+00   -4.787E+00   -4.792E+00   -4.797E+00
    -4.802E+00   -4.807E+00   -4.811E+00   -4.815E+00   -4.818E+00   -4.821E+00   -4.824E+00   -4.826E+00   -4.828E+00   -4.829E+00
    -4.830E+00   -4.831E+00   -4.832E+00   -4.832E+00   -4.831E+00   -4.831E+00   -4.830E+00   -4.828E+00   -4.827E+00   -4.824E+00
    -4.822E+00   -4.819E+00   -4.816E+00   -4.813E+00   -4.809E+00   -4.805E+00   -4.800E+00   -4.795E+00   -4.790E+00   -4.785E+00
    -4.779E+00   -4.773E+00   -4.767E+00   -4.760E+00   -4.753E+00   -4.746E+00   -4.738E+00   -4.730E+00   -4.722E+00   -4.714E+00
    -4.705E+00   -4.696E+00   -4.687E+00   -4.677E+00   -4.668E+00   -4.658E+00   -4.647E+00   -4.637E+00   -4.626E+00   -4.615E+00
    -4.603E+00   -4.592E+00   -4.580E+00   -4.568E+00   -4.556E+00   -4.543E+00   -4.531E+00   -4.518E+00   -4.504E+00   -4.491E+00
    -4.477E+00   -4.464E+00   -4.450E+00   -4.435E+00   -4.421E+00   -4.406E+00   -4.392E+00   -4.376E+00   -4.361E+00   -4.346E+00
    -4.330E+00   -4.314E+00   -4.298E+00   -4.282E+00   -4.266E+00   -4.249E+00   -4.233E+00   -4.216E+00   -4.199E+00   -4.181E+00
    -4.164E+00   -4.146E+00   -4.129E+00   -4.111E+00   -4.093E+00   -4.074E+00   -4.056E+00   -4.038E+00   -4.019E+00   -4.000E+00
    -3.981E+00   -3.962E+00   -3.943E+00   -3.923E+00   -3.904E+00   -3.884E+00   -3.864E+00   -3.844E+00   -3.824E+00   -3.804E+00
    -3.784E+00   -3.763E+00   -3.743E+00   -3.722E+00   -3.702E+00   -3.681E+00   -3.660E+00   -3.639E+00   -3.617E+00   -3.596E+00
    -3.575E+00   -3.553E+00   -3.532E+00   -3.510E+00   -3.488E+00   -3.466E+00   -3.444E+00   -3.422E+00   -3.400E+00   -3.377E+00
    -3.355E+00   -3.332E+00   -3.310E+00   -3.287E+00   -3.264E+00   -3.241E+00   -3.218E+00   -3.195E+00   -3.172E+00   -3.149E+00
    -3.126E+00   -3.102E+00   -3.079E+00   -3.055E+00   -3.032E+00   -3.008E+00   -2.984E+00   -2.961E+00   -2.937E+00   -2.913E+00
    -2.889E+00   -2.864E+00   -2.840E+00   -2.816E+00   -2.792E+00   -2.767E+00   -2.743E+00   -2.718E+00   -2.694E+00   -2.669E+00
    -2.644E+00   -2.620E+00   -2.595E+00   -2.570E+00   -2.545E+00   -2.520E+00   -2.495E+00   -2.470E+00   -2.445E+00   -2.420E+00
    -2.395E+00   -2.370E+00   -2.345E+00   -2.320E+00   -2.295E+00   -2.270E+00   -2.244E+00   -2.219E+00   -2.194E+00   -2.169E+00
    -2.144E+00   -2.119E+00   -2.093E+00   -2.068E+00   -2.043E+00   -2.018E+00   -1.993E+00   -1.968E+00   -1.943E+00   -1.918E+00
    -1.893E+00   -1.868E+00   -1.843E+00   -1.818E+00   -1.793E+00   -1.768E+00   -1.743E+00   -1.719E+00   -1.694E+00   -1.669E+00
    -1.645E+00   -1.620E+00   -1.596E+00   -1.572E+00   -1.547E+00   -1.523E+00   -1.499E+00   -1.475E+00   -1.451E+00   -1.427E+00
    -1.403E+00   -1.379E+00   -1.355E+00   -1.331E+00   -1.307E+00   -1.284E+00   -1.260E+00   -1.237E+00   -1.213E+00   -1.189E+00
    -1.166E+00   -1.143E+00   -1.119E+00   -1.096E+00   -1.073E+00   -1.049E+00   -1.026E+00   -1.003E+00   -9.796E-01   -9.564E-01
    -9.333E-01   -9.102E-01   -8.871E-01   -8.640E-01   -8.410E-01   -8.180E-01   -7.950E-01   -7.720E-01   -7.491E-01   -7.261E-01
    -7.032E-01   -6.803E-01   -6.574E-01   -6.345E-01   -6.116E-01   -5.887E-01   -5.659E-01   -5.430E-01
 Ala      Conc. = 1.46E+01
