 LCModel (Version 6.3-1L) Copyright: S.W. Provencher.          Ref.: Magn. Reson. Med. 30:672-679 (1993).                
 Slice#3 Row#8 Col#6  K_02_press_1_raw_act
 36 lines in following concentration table = NCONC+1
    Conc.  %SD /Cr+PCr  Metabolite                                         
    9.240 999% 4.1E-03 Ala                                                 
    0.000 999%   0.000 Asp                                                 
  735.073  31%   0.326 Cr                                                  
 1.52E+03  15%   0.674 PCr                                                 
    0.000 999%   0.000 GABA                                                
   24.975 765% 1.1E-02 Glc                                                 
  983.980  24%   0.436 Gln                                                 
 1.68E+03  15%   0.742 Glu                                                 
  826.749   3%   0.366 GPC                                                 
    0.000 999%   0.000 PCh                                                 
  800.140  10%   0.354 GSH                                                 
 1.48E+03  20%   0.657 Ins                                                 
  231.301  52%   0.102 Lac                                                 
 2.79E+03   5%   1.235 NAA                                                 
  329.232  39%   0.146 NAAG                                                
   87.282  37% 3.9E-02 Scyllo                                              
    0.000 999%   0.000 Tau                                                 
    0.000 999%   0.000 -CrCH2                                              
  826.749   3%   0.366 GPC+PCh                                             
 3.12E+03   3%   1.381 NAA+NAAG                                            
 2.26E+03   3%   1.000 Cr+PCr                                              
 2.66E+03  13%   1.178 Glu+Gln                                             
 1.25E+03  43%   0.554 Lip13a                                              
    0.000 999%   0.000 Lip13b                                              
  245.743  94%   0.109 Lip09                                               
  961.016  27%   0.426 MM09                                                
  190.232  79% 8.4E-02 Lip20                                               
 2.04E+03  20%   0.905 MM20                                                
  299.935  53%   0.133 MM12                                                
  860.670  41%   0.381 MM14                                                
    0.000 999%   0.000 MM17                                                
 1.25E+03  43%   0.554 Lip13a+Lip13b                                       
 2.41E+03  22%   1.069 MM14+Lip13a+Lip13b+MM12                             
 1.21E+03  19%   0.535 MM09+Lip09                                          
 2.23E+03  18%   0.989 MM20+Lip20                                          
   6 lines in following misc. output table
  FWHM = 0.046 ppm    S/N =  13                                            
  Data shift = 0.015 ppm                                                   
  Ph: -32 deg     -13.9 deg/ppm                                            
  alphaB,S = 9.9E-01,   8.5E+01                                            
   14 spline knots.   Ns = 6(1)                                            
  ( 9) 2 infls.   ( 5) 1 extrs.                                            
  498 points on ppm-axis = NY
      4.000000     3.992357     3.984714     3.977070     3.969427     3.961784     3.954141     3.946497     3.938854     3.931211
      3.923568     3.915925     3.908281     3.900638     3.892995     3.885352     3.877708     3.870065     3.862422     3.854779
      3.847136     3.839492     3.831849     3.824206     3.816563     3.808919     3.801276     3.793633     3.785990     3.778347
      3.770703     3.763060     3.755417     3.747774     3.740130     3.732487     3.724844     3.717201     3.709558     3.701914
      3.694271     3.686628     3.678985     3.671341     3.663698     3.656055     3.648412     3.640769     3.633125     3.625482
      3.617839     3.610196     3.602552     3.594909     3.587266     3.579623     3.571980     3.564336     3.556693     3.549050
      3.541407     3.533763     3.526120     3.518477     3.510834     3.503191     3.495547     3.487904     3.480261     3.472618
      3.464974     3.457331     3.449688     3.442045     3.434402     3.426758     3.419115     3.411472     3.403829     3.396185
      3.388542     3.380899     3.373256     3.365613     3.357969     3.350326     3.342683     3.335040     3.327396     3.319753
      3.312110     3.304467     3.296824     3.289180     3.281537     3.273894     3.266251     3.258607     3.250964     3.243321
      3.235678     3.228034     3.220391     3.212748     3.205105     3.197462     3.189818     3.182175     3.174532     3.166889
      3.159245     3.151602     3.143959     3.136316     3.128673     3.121029     3.113386     3.105743     3.098100     3.090456
      3.082813     3.075170     3.067527     3.059884     3.052240     3.044597     3.036954     3.029311     3.021667     3.014024
      3.006381     2.998738     2.991095     2.983451     2.975808     2.968165     2.960522     2.952878     2.945235     2.937592
      2.929949     2.922306     2.914662     2.907019     2.899376     2.891733     2.884089     2.876446     2.868803     2.861160
      2.853517     2.845873     2.838230     2.830587     2.822944     2.815300     2.807657     2.800014     2.792371     2.784728
      2.777084     2.769441     2.761798     2.754155     2.746511     2.738868     2.731225     2.723582     2.715939     2.708295
      2.700652     2.693009     2.685366     2.677722     2.670079     2.662436     2.654793     2.647150     2.639506     2.631863
      2.624220     2.616577     2.608933     2.601290     2.593647     2.586004     2.578361     2.570717     2.563074     2.555431
      2.547788     2.540144     2.532501     2.524858     2.517215     2.509572     2.501928     2.494285     2.486642     2.478999
      2.471355     2.463712     2.456069     2.448426     2.440783     2.433139     2.425496     2.417853     2.410210     2.402566
      2.394923     2.387280     2.379637     2.371994     2.364350     2.356707     2.349064     2.341421     2.333777     2.326134
      2.318491     2.310848     2.303205     2.295561     2.287918     2.280275     2.272632     2.264988     2.257345     2.249702
      2.242059     2.234416     2.226772     2.219129     2.211486     2.203843     2.196199     2.188556     2.180913     2.173270
      2.165627     2.157983     2.150340     2.142697     2.135054     2.127410     2.119767     2.112124     2.104481     2.096838
      2.089194     2.081551     2.073908     2.066265     2.058621     2.050978     2.043335     2.035692     2.028049     2.020405
      2.012762     2.005119     1.997476     1.989833     1.982190     1.974546     1.966903     1.959260     1.951617     1.943974
      1.936331     1.928688     1.921045     1.913402     1.905759     1.898115     1.890472     1.882829     1.875186     1.867543
      1.859900     1.852257     1.844614     1.836971     1.829327     1.821684     1.814041     1.806398     1.798755     1.791112
      1.783469     1.775826     1.768183     1.760540     1.752896     1.745253     1.737610     1.729967     1.722324     1.714681
      1.707038     1.699395     1.691752     1.684108     1.676465     1.668822     1.661179     1.653536     1.645893     1.638250
      1.630607     1.622964     1.615321     1.607677     1.600034     1.592391     1.584748     1.577105     1.569462     1.561819
      1.554176     1.546533     1.538890     1.531246     1.523603     1.515960     1.508317     1.500674     1.493031     1.485388
      1.477745     1.470102     1.462458     1.454815     1.447172     1.439529     1.431886     1.424243     1.416600     1.408957
      1.401314     1.393671     1.386027     1.378384     1.370741     1.363098     1.355455     1.347812     1.340169     1.332526
      1.324883     1.317240     1.309596     1.301953     1.294310     1.286667     1.279024     1.271381     1.263738     1.256095
      1.248452     1.240808     1.233165     1.225522     1.217879     1.210236     1.202593     1.194950     1.187307     1.179664
      1.172021     1.164377     1.156734     1.149091     1.141448     1.133805     1.126162     1.118519     1.110876     1.103233
      1.095590     1.087946     1.080303     1.072660     1.065017     1.057374     1.049731     1.042088     1.034445     1.026802
      1.019158     1.011515     1.003872     0.996229     0.988586     0.980943     0.973300     0.965657     0.958014     0.950371
      0.942727     0.935084     0.927441     0.919798     0.912155     0.904512     0.896869     0.889226     0.881583     0.873940
      0.866296     0.858653     0.851010     0.843367     0.835724     0.828081     0.820438     0.812795     0.805152     0.797508
      0.789865     0.782222     0.774579     0.766936     0.759293     0.751650     0.744007     0.736364     0.728721     0.721077
      0.713434     0.705791     0.698148     0.690505     0.682862     0.675219     0.667576     0.659933     0.652290     0.644646
      0.637003     0.629360     0.621717     0.614074     0.606431     0.598788     0.591145     0.583502     0.575858     0.568215
      0.560572     0.552929     0.545286     0.537643     0.530000     0.522357     0.514714     0.507071     0.499427     0.491784
      0.484141     0.476498     0.468855     0.461212     0.453569     0.445925     0.438282     0.430639     0.422996     0.415353
      0.407710     0.400067     0.392424     0.384780     0.377137     0.369494     0.361851     0.354208     0.346565     0.338922
      0.331278     0.323635     0.315992     0.308349     0.300706     0.293063     0.285420     0.277777     0.270133     0.262490
      0.254847     0.247204     0.239561     0.231918     0.224275     0.216631     0.208988     0.201345
 NY phased data points follow
  -5.27837E+01 -5.52481E+01 -5.22441E+01 -4.98108E+01 -4.08414E+01 -3.32998E+01 -2.88864E+01 -1.60976E+01 -4.68703E+00  6.01960E+00
   1.55283E+01  1.58077E+01  8.16790E+00 -9.96028E-01 -6.27890E+00 -1.60145E+01 -2.88198E+01 -3.56043E+01 -3.16401E+01 -3.72127E+01
  -3.72957E+01 -3.81152E+01 -3.49245E+01 -3.22107E+01 -2.82649E+01 -2.57548E+01 -2.70540E+01 -2.43511E+01 -2.26059E+01 -1.86703E+01
  -1.15612E+01 -1.01225E+01 -9.40202E+00 -1.34068E+01 -2.12064E+01 -2.49236E+01 -2.23541E+01 -1.69479E+01 -1.74894E+01 -1.43161E+01
  -1.72803E+01 -1.82136E+01 -1.80372E+01 -2.05831E+01 -1.83874E+01 -1.32584E+01 -6.29639E+00 -8.65809E+00 -5.45398E+00 -9.84440E+00
  -1.41730E+01 -1.39569E+01 -1.65557E+01 -2.34429E+01 -2.04758E+01 -1.64880E+01 -1.82452E+01 -1.54171E+01 -1.53248E+01 -1.87252E+01
  -1.69603E+01 -1.55609E+01 -2.31609E+01 -2.28169E+01 -2.62697E+01 -2.39733E+01 -2.08751E+01 -2.84557E+01 -2.16473E+01 -2.23109E+01
  -2.13181E+01 -2.24971E+01 -1.74731E+01 -1.51780E+01 -1.62328E+01 -1.98433E+01 -1.54957E+01 -1.62695E+01 -1.36845E+01 -1.65640E+01
  -1.42922E+01 -1.26538E+01 -9.80756E+00 -1.46814E+01 -2.13293E+01 -1.22418E+01 -1.40986E+01 -1.31823E+01 -1.38956E+01 -1.12348E+01
  -7.40036E+00 -8.95598E+00 -5.08874E+00 -4.09325E+00 -1.75518E+00 -5.01297E-01 -1.98764E+00 -3.36395E+00  6.13244E+00  1.35134E+01
   2.16424E+01  4.37467E+01  6.41434E+01  7.65052E+01  6.90497E+01  5.51394E+01  4.32638E+01  3.22700E+01  2.12067E+01  1.17577E+01
   4.17532E+00  1.41456E+00  1.57410E+00 -3.87896E+00 -5.03962E+00 -4.89386E+00 -3.24887E+00 -3.54947E+00  1.44385E+00  7.11841E+00
  -1.37159E+00  1.63308E-01  5.90989E+00  1.06415E+01  2.67947E+01  4.66581E+01  6.61937E+01  7.59440E+01  7.55658E+01  6.72639E+01
   5.39707E+01  3.74182E+01  2.83603E+01  2.23949E+01  1.45322E+01  5.54853E+00 -1.69082E+00 -6.95859E-01 -4.32723E+00 -3.36793E+00
   1.86862E-01 -5.87371E+00  6.51925E-01  1.39303E+00 -3.15116E+00 -4.06625E+00 -5.47158E-01 -5.32136E-01 -1.78749E+00 -1.73588E+00
  -3.52260E-01 -5.65505E+00  8.22378E-01  4.26040E+00 -5.84458E+00 -1.01249E+01 -4.25753E+00 -1.04006E+00 -3.88683E+00 -4.53033E+00
   4.12767E-01 -5.19511E+00 -6.41239E+00 -1.15889E+00 -1.99967E+00 -5.84756E+00  2.08873E+00 -2.38843E-01  2.35537E+00 -6.02522E+00
  -9.78363E+00 -5.12800E+00 -1.05027E+01 -1.67024E+01 -1.73308E+01 -1.74875E+01 -1.58400E+01 -1.41856E+01 -1.20500E+01 -3.20779E+00
  -1.18084E+01 -9.81530E+00 -9.62432E+00 -1.06024E+01 -1.62695E+01 -9.80232E+00 -1.10180E+01 -9.84769E+00 -6.16274E+00  3.19028E+00
   5.55575E+00  7.92844E+00  1.66819E+01  1.15300E+01  8.50692E+00  9.82746E+00  1.15511E+01  6.48525E+00 -8.31961E-01 -2.45301E+00
  -3.15064E+00  4.25185E+00  9.04025E+00  1.22292E+01  1.40704E+01  7.37367E+00  1.33297E+00  1.28029E+00  9.50758E-01  1.19234E+00
  -3.21920E+00 -5.83037E+00  4.22121E+00  1.57189E+01  1.16006E+01  1.55665E+01  2.36398E+01  2.51766E+01  1.79127E+01  1.86176E+01
   1.09887E+01  8.66021E+00  4.91449E+00  2.11441E-01  4.82358E+00  1.03774E+01  1.26576E+01  1.81613E+01  1.96503E+01  1.82954E+01
   1.73616E+01  1.77843E+01  2.03489E+01  1.61150E+01  1.64550E+01  1.74730E+01  1.48840E+01  1.61265E+01  1.38474E+01  1.84968E+01
   1.71373E+01  6.26840E+00  1.24735E+01  5.98398E+00  9.53622E+00  9.27075E+00  1.44736E+01  1.66943E+01  2.05638E+01  2.26063E+01
   2.39821E+01  2.49289E+01  2.42150E+01  3.28758E+01  3.74488E+01  5.18515E+01  5.09174E+01  6.35526E+01  8.02143E+01  1.06276E+02
   1.28734E+02  1.26354E+02  1.08157E+02  9.25157E+01  7.46208E+01  5.31035E+01  3.35233E+01  3.02341E+01  2.68649E+01  2.31972E+01
   2.08521E+01  2.25334E+01  2.02110E+01  2.20516E+01  1.95925E+01  2.19354E+01  1.96573E+01  1.61134E+01  1.30491E+01  1.63677E+01
   1.73906E+01  1.37166E+01  1.94500E+01  1.07806E+01  1.50650E+01  1.65441E+01  1.90663E+01  1.44076E+01  1.47907E+01  1.42172E+01
   1.26972E+01  1.21187E+01  1.61702E+01  1.91733E+01  1.23348E+01  1.50065E+01  1.55196E+01  1.81939E+01  1.53559E+01  1.24887E+01
   1.61010E+01  1.67238E+01  1.46755E+01  1.92405E+01  1.65356E+01  1.52338E+01  1.42609E+01  1.66463E+01  1.31339E+01  1.91008E+01
   2.10280E+01  1.96556E+01  1.53601E+01  1.82647E+01  1.46815E+01  1.72217E+01  2.07363E+01  1.74118E+01  1.87236E+01  2.10058E+01
   1.91318E+01  1.95873E+01  2.10212E+01  1.54440E+01  2.16310E+01  2.19619E+01  1.90505E+01  2.20619E+01  2.31657E+01  2.08665E+01
   2.74019E+01  2.26199E+01  2.38336E+01  1.96641E+01  1.89983E+01  2.61083E+01  2.26058E+01  1.76097E+01  2.51429E+01  2.59727E+01
   2.57514E+01  2.53259E+01  2.46339E+01  2.83978E+01  3.38258E+01  2.91276E+01  2.78288E+01  3.05595E+01  2.97319E+01  2.86856E+01
   2.62212E+01  2.48902E+01  2.28951E+01  2.54216E+01  2.60862E+01  2.35997E+01  2.39919E+01  3.04330E+01  2.77946E+01  2.79996E+01
   2.70276E+01  2.36855E+01  2.61357E+01  2.92669E+01  2.31886E+01  2.35467E+01  2.02982E+01  2.27405E+01  2.62931E+01  2.22707E+01
   2.43160E+01  2.14986E+01  2.54848E+01  2.50324E+01  2.66446E+01  2.48470E+01  2.35076E+01  2.34207E+01  2.53635E+01  2.54410E+01
   2.98835E+01  2.66535E+01  2.58331E+01  2.09157E+01  2.46039E+01  2.20007E+01  2.32647E+01  2.05495E+01  2.46371E+01  2.63443E+01
   1.99356E+01  2.37755E+01  2.34392E+01  2.22041E+01  2.31380E+01  2.21338E+01  2.52818E+01  2.88100E+01  2.56830E+01  2.51201E+01
   2.21850E+01  2.88355E+01  3.11440E+01  2.59256E+01  2.60563E+01  2.66205E+01  2.81385E+01  2.57878E+01  2.92844E+01  3.28705E+01
   2.88266E+01  2.93998E+01  2.56766E+01  2.52815E+01  2.58867E+01  2.81703E+01  2.85594E+01  2.05856E+01  2.57329E+01  2.22699E+01
   2.25737E+01  2.08171E+01  1.89827E+01  2.20144E+01  2.70089E+01  2.05490E+01  2.36461E+01  1.86620E+01  2.18650E+01  1.76348E+01
   2.50552E+01  2.44806E+01  1.99172E+01  2.07894E+01  2.29540E+01  2.28667E+01  2.15933E+01  2.12731E+01  1.82408E+01  2.15404E+01
   2.00793E+01  1.71465E+01  1.91056E+01  1.43011E+01  2.38143E+01  1.72580E+01  1.78679E+01  1.99846E+01  2.13591E+01  2.14848E+01
   2.05282E+01  1.52978E+01  2.24526E+01  1.87711E+01  1.75689E+01  1.96393E+01  1.60284E+01  2.41587E+01  2.09464E+01  1.70028E+01
   2.03879E+01  2.01047E+01  1.92949E+01  2.18807E+01  1.76187E+01  1.67802E+01  2.00999E+01  1.93211E+01  1.87563E+01  2.21421E+01
   1.42789E+01  1.86160E+01  1.36769E+01  1.72410E+01  2.05522E+01  1.67378E+01  1.65083E+01  1.48887E+01  2.03467E+01  2.21732E+01
   1.63444E+01  1.97645E+01  1.51792E+01  1.87134E+01  1.58260E+01  1.82785E+01  2.00035E+01  1.76485E+01  1.79765E+01  1.68676E+01
   1.80555E+01  2.04789E+01  1.93945E+01  1.42441E+01  1.39683E+01  1.89279E+01  1.73496E+01  2.27633E+01
 NY points of the fit to the data follow
  -4.67107E+01 -4.64409E+01 -4.56502E+01 -4.35682E+01 -3.94393E+01 -3.41298E+01 -2.73391E+01 -1.74801E+01 -4.68810E+00  7.52570E+00
   1.43916E+01  1.37997E+01  7.49986E+00 -1.17000E+00 -9.70450E+00 -1.70753E+01 -2.33148E+01 -2.82047E+01 -3.09212E+01 -3.20064E+01
  -3.23933E+01 -3.25537E+01 -3.28699E+01 -3.33423E+01 -3.31404E+01 -3.23317E+01 -3.10834E+01 -2.83532E+01 -2.32969E+01 -1.67513E+01
  -1.11844E+01 -8.44214E+00 -8.61650E+00 -1.08621E+01 -1.43017E+01 -1.81096E+01 -2.17714E+01 -2.49098E+01 -2.67389E+01 -2.71813E+01
  -2.64543E+01 -2.47328E+01 -2.26619E+01 -2.05052E+01 -1.79419E+01 -1.47881E+01 -1.18171E+01 -1.03818E+01 -1.09656E+01 -1.29381E+01
  -1.53741E+01 -1.76252E+01 -1.94448E+01 -2.07435E+01 -2.14217E+01 -2.13037E+01 -2.05554E+01 -1.94769E+01 -1.82200E+01 -1.71262E+01
  -1.65975E+01 -1.67769E+01 -1.75337E+01 -1.84711E+01 -1.92112E+01 -1.95078E+01 -1.93314E+01 -1.87706E+01 -1.79613E+01 -1.69737E+01
  -1.59433E+01 -1.51040E+01 -1.46232E+01 -1.44986E+01 -1.45789E+01 -1.46856E+01 -1.47528E+01 -1.47439E+01 -1.47041E+01 -1.45949E+01
  -1.43724E+01 -1.39686E+01 -1.35953E+01 -1.32357E+01 -1.26754E+01 -1.19669E+01 -1.14507E+01 -1.14222E+01 -1.18100E+01 -1.22327E+01
  -1.23407E+01 -1.21315E+01 -1.16942E+01 -1.11220E+01 -1.05120E+01 -9.64333E+00 -7.71815E+00 -2.86183E+00  3.44770E+00  1.16280E+01
   2.53027E+01  4.46845E+01  6.36577E+01  7.37579E+01  7.14287E+01  6.00926E+01  4.54583E+01  3.12129E+01  1.87995E+01  8.28435E+00
  -1.60475E-01 -4.41308E+00 -5.68536E+00 -6.09305E+00 -6.22116E+00 -6.21162E+00 -6.10856E+00 -5.94247E+00 -5.69832E+00 -5.21479E+00
  -3.73789E+00  5.84707E-01  7.12630E+00  1.48321E+01  2.68773E+01  4.48401E+01  6.41946E+01  7.67224E+01  7.73236E+01  6.78731E+01
   5.41612E+01  4.06131E+01  2.87016E+01  1.80853E+01  8.32353E+00  1.27799E+00 -2.18282E+00 -3.86685E+00 -4.23616E+00 -3.47216E+00
  -2.06286E+00 -5.80948E-01  5.92014E-01  1.16203E+00  1.12899E+00  7.43549E-01  1.90227E-01 -3.98674E-01 -9.14783E-01 -1.39585E+00
  -1.74413E+00 -2.02403E+00 -2.28287E+00 -2.48545E+00 -2.58724E+00 -2.63028E+00 -2.56608E+00 -2.45250E+00 -2.54753E+00 -2.94945E+00
  -3.58297E+00 -4.02692E+00 -3.86175E+00 -3.22803E+00 -2.65041E+00 -2.54721E+00 -2.96034E+00 -3.58867E+00 -4.14131E+00 -4.64270E+00
  -5.12329E+00 -5.52102E+00 -5.80542E+00 -6.14327E+00 -6.68526E+00 -7.25302E+00 -7.33143E+00 -6.77733E+00 -6.08985E+00 -5.81299E+00
  -5.93402E+00 -6.07091E+00 -5.85505E+00 -5.37270E+00 -5.05261E+00 -4.85699E+00 -4.14736E+00 -2.53084E+00 -6.58909E-02  2.70830E+00
   5.07240E+00  6.53563E+00  6.72942E+00  5.93643E+00  4.66087E+00  3.13988E+00  1.70641E+00  9.70724E-01  1.53292E+00  3.37232E+00
   5.93630E+00  8.59697E+00  1.08167E+01  1.22302E+01  1.24021E+01  1.13845E+01  8.97609E+00  5.42426E+00  1.85839E+00 -4.98681E-01
  -1.05952E+00  1.08089E-02  2.14789E+00  5.40297E+00  9.69726E+00  1.40500E+01  1.68468E+01  1.70355E+01  1.48795E+01  1.15946E+01
   7.78207E+00  3.87735E+00  1.08938E+00  5.41494E-01  2.41542E+00  5.85933E+00  9.35757E+00  1.22860E+01  1.43284E+01  1.51839E+01
   1.49685E+01  1.42840E+01  1.37912E+01  1.38254E+01  1.44981E+01  1.58707E+01  1.76355E+01  1.90885E+01  1.95775E+01  1.88424E+01
   1.70189E+01  1.46415E+01  1.26037E+01  1.16853E+01  1.21356E+01  1.37094E+01  1.57878E+01  1.77793E+01  1.94495E+01  2.09025E+01
   2.23463E+01  2.36253E+01  2.52739E+01  2.85235E+01  3.59373E+01  4.63130E+01  5.53730E+01  6.69953E+01  8.57664E+01  1.08288E+02
   1.23992E+02  1.24648E+02  1.11561E+02  9.22966E+01  7.31964E+01  5.64929E+01  4.23835E+01  3.02227E+01  2.21167E+01  1.94196E+01
   1.83454E+01  1.77124E+01  1.73877E+01  1.73369E+01  1.73637E+01  1.73398E+01  1.72376E+01  1.70807E+01  1.68890E+01  1.66775E+01
   1.64647E+01  1.62796E+01  1.61596E+01  1.61044E+01  1.60723E+01  1.60352E+01  1.59944E+01  1.59514E+01  1.59114E+01  1.58788E+01
   1.58693E+01  1.58968E+01  1.59498E+01  1.60060E+01  1.60590E+01  1.61052E+01  1.61414E+01  1.61696E+01  1.61969E+01  1.62336E+01
   1.62902E+01  1.63650E+01  1.64537E+01  1.65523E+01  1.66568E+01  1.67649E+01  1.68753E+01  1.69860E+01  1.71008E+01  1.72226E+01
   1.73521E+01  1.74897E+01  1.76366E+01  1.77937E+01  1.79624E+01  1.81435E+01  1.83373E+01  1.85441E+01  1.87647E+01  1.90004E+01
   1.92528E+01  1.95234E+01  1.98060E+01  2.00987E+01  2.04059E+01  2.07217E+01  2.10302E+01  2.13186E+01  2.15899E+01  2.18637E+01
   2.21539E+01  2.24571E+01  2.27747E+01  2.31138E+01  2.34756E+01  2.38508E+01  2.42179E+01  2.45641E+01  2.48974E+01  2.52355E+01
   2.56081E+01  2.60735E+01  2.65809E+01  2.70076E+01  2.74961E+01  2.80285E+01  2.82792E+01  2.78851E+01  2.68158E+01  2.55520E+01
   2.45534E+01  2.38692E+01  2.36059E+01  2.39633E+01  2.49492E+01  2.62895E+01  2.75022E+01  2.81563E+01  2.83089E+01  2.81500E+01
   2.78177E+01  2.73815E+01  2.68356E+01  2.62881E+01  2.58710E+01  2.55222E+01  2.52044E+01  2.49048E+01  2.46193E+01  2.43469E+01
   2.40884E+01  2.38450E+01  2.36181E+01  2.34089E+01  2.32191E+01  2.30505E+01  2.29046E+01  2.27825E+01  2.26852E+01  2.26135E+01
   2.25689E+01  2.25526E+01  2.25655E+01  2.26086E+01  2.26826E+01  2.27884E+01  2.29271E+01  2.30994E+01  2.33053E+01  2.35444E+01
   2.38155E+01  2.41174E+01  2.44475E+01  2.48025E+01  2.51773E+01  2.55660E+01  2.59618E+01  2.63568E+01  2.67427E+01  2.71099E+01
   2.74487E+01  2.77496E+01  2.80038E+01  2.82037E+01  2.83428E+01  2.84158E+01  2.84196E+01  2.83532E+01  2.82180E+01  2.80174E+01
   2.77565E+01  2.74418E+01  2.70811E+01  2.66834E+01  2.62581E+01  2.58148E+01  2.53622E+01  2.49085E+01  2.44611E+01  2.40265E+01
   2.36100E+01  2.32155E+01  2.28456E+01  2.25018E+01  2.21850E+01  2.18953E+01  2.16321E+01  2.13939E+01  2.11790E+01  2.09856E+01
   2.08118E+01  2.06560E+01  2.05163E+01  2.03906E+01  2.02771E+01  2.01744E+01  2.00812E+01  1.99965E+01  1.99190E+01  1.98476E+01
   1.97815E+01  1.97199E+01  1.96626E+01  1.96089E+01  1.95583E+01  1.95102E+01  1.94643E+01  1.94204E+01  1.93784E+01  1.93380E+01
   1.92989E+01  1.92608E+01  1.92236E+01  1.91874E+01  1.91521E+01  1.91175E+01  1.90834E+01  1.90498E+01  1.90166E+01  1.89839E+01
   1.89518E+01  1.89199E+01  1.88882E+01  1.88566E+01  1.88254E+01  1.87946E+01  1.87641E+01  1.87336E+01  1.87031E+01  1.86728E+01
   1.86428E+01  1.86130E+01  1.85834E+01  1.85538E+01  1.85242E+01  1.84948E+01  1.84657E+01  1.84369E+01  1.84081E+01  1.83793E+01
   1.83506E+01  1.83223E+01  1.82942E+01  1.82663E+01  1.82385E+01  1.82107E+01  1.81833E+01  1.81562E+01  1.81294E+01  1.81028E+01
   1.80764E+01  1.80502E+01  1.80244E+01  1.79991E+01  1.79742E+01  1.79495E+01  1.79251E+01  1.79012E+01
 NY background values follow
    -5.031E+01   -4.983E+01   -4.936E+01   -4.889E+01   -4.841E+01   -4.794E+01   -4.746E+01   -4.699E+01   -4.652E+01   -4.605E+01
    -4.558E+01   -4.511E+01   -4.464E+01   -4.417E+01   -4.370E+01   -4.323E+01   -4.276E+01   -4.230E+01   -4.183E+01   -4.137E+01
    -4.091E+01   -4.045E+01   -3.999E+01   -3.953E+01   -3.907E+01   -3.862E+01   -3.817E+01   -3.771E+01   -3.726E+01   -3.682E+01
    -3.637E+01   -3.592E+01   -3.548E+01   -3.504E+01   -3.460E+01   -3.416E+01   -3.373E+01   -3.329E+01   -3.286E+01   -3.244E+01
    -3.201E+01   -3.159E+01   -3.117E+01   -3.075E+01   -3.033E+01   -2.992E+01   -2.951E+01   -2.910E+01   -2.869E+01   -2.829E+01
    -2.789E+01   -2.750E+01   -2.710E+01   -2.671E+01   -2.632E+01   -2.594E+01   -2.555E+01   -2.518E+01   -2.480E+01   -2.443E+01
    -2.406E+01   -2.369E+01   -2.332E+01   -2.296E+01   -2.260E+01   -2.225E+01   -2.190E+01   -2.155E+01   -2.120E+01   -2.086E+01
    -2.052E+01   -2.019E+01   -1.986E+01   -1.953E+01   -1.920E+01   -1.888E+01   -1.856E+01   -1.825E+01   -1.793E+01   -1.763E+01
    -1.732E+01   -1.702E+01   -1.672E+01   -1.643E+01   -1.614E+01   -1.585E+01   -1.557E+01   -1.529E+01   -1.501E+01   -1.474E+01
    -1.447E+01   -1.421E+01   -1.394E+01   -1.369E+01   -1.343E+01   -1.318E+01   -1.294E+01   -1.269E+01   -1.246E+01   -1.222E+01
    -1.199E+01   -1.176E+01   -1.153E+01   -1.131E+01   -1.109E+01   -1.088E+01   -1.066E+01   -1.046E+01   -1.025E+01   -1.005E+01
    -9.848E+00   -9.651E+00   -9.458E+00   -9.268E+00   -9.081E+00   -8.897E+00   -8.716E+00   -8.537E+00   -8.362E+00   -8.190E+00
    -8.020E+00   -7.853E+00   -7.689E+00   -7.527E+00   -7.369E+00   -7.213E+00   -7.059E+00   -6.908E+00   -6.760E+00   -6.614E+00
    -6.471E+00   -6.330E+00   -6.192E+00   -6.056E+00   -5.922E+00   -5.791E+00   -5.662E+00   -5.535E+00   -5.411E+00   -5.288E+00
    -5.167E+00   -5.048E+00   -4.931E+00   -4.815E+00   -4.701E+00   -4.588E+00   -4.476E+00   -4.366E+00   -4.256E+00   -4.148E+00
    -4.040E+00   -3.933E+00   -3.826E+00   -3.720E+00   -3.614E+00   -3.509E+00   -3.403E+00   -3.298E+00   -3.193E+00   -3.087E+00
    -2.981E+00   -2.875E+00   -2.768E+00   -2.660E+00   -2.552E+00   -2.443E+00   -2.333E+00   -2.222E+00   -2.110E+00   -1.996E+00
    -1.881E+00   -1.765E+00   -1.646E+00   -1.526E+00   -1.405E+00   -1.281E+00   -1.155E+00   -1.027E+00   -8.972E-01   -7.645E-01
    -6.294E-01   -4.917E-01   -3.513E-01   -2.084E-01   -6.294E-02    8.483E-02    2.349E-01    3.870E-01    5.412E-01    6.974E-01
     8.554E-01    1.015E+00    1.177E+00    1.339E+00    1.504E+00    1.669E+00    1.836E+00    2.004E+00    2.173E+00    2.343E+00
     2.514E+00    2.685E+00    2.857E+00    3.029E+00    3.202E+00    3.375E+00    3.549E+00    3.722E+00    3.895E+00    4.069E+00
     4.241E+00    4.414E+00    4.586E+00    4.758E+00    4.929E+00    5.099E+00    5.268E+00    5.437E+00    5.604E+00    5.770E+00
     5.935E+00    6.099E+00    6.261E+00    6.421E+00    6.580E+00    6.737E+00    6.892E+00    7.045E+00    7.196E+00    7.345E+00
     7.492E+00    7.637E+00    7.781E+00    7.923E+00    8.063E+00    8.201E+00    8.337E+00    8.472E+00    8.605E+00    8.736E+00
     8.866E+00    8.994E+00    9.120E+00    9.245E+00    9.369E+00    9.491E+00    9.611E+00    9.730E+00    9.848E+00    9.964E+00
     1.008E+01    1.019E+01    1.031E+01    1.042E+01    1.053E+01    1.064E+01    1.074E+01    1.085E+01    1.095E+01    1.106E+01
     1.116E+01    1.126E+01    1.136E+01    1.146E+01    1.156E+01    1.166E+01    1.176E+01    1.186E+01    1.195E+01    1.205E+01
     1.214E+01    1.223E+01    1.233E+01    1.242E+01    1.251E+01    1.260E+01    1.269E+01    1.278E+01    1.287E+01    1.295E+01
     1.304E+01    1.313E+01    1.321E+01    1.330E+01    1.338E+01    1.346E+01    1.355E+01    1.363E+01    1.371E+01    1.379E+01
     1.387E+01    1.395E+01    1.403E+01    1.411E+01    1.419E+01    1.427E+01    1.435E+01    1.442E+01    1.450E+01    1.458E+01
     1.465E+01    1.473E+01    1.480E+01    1.487E+01    1.495E+01    1.502E+01    1.509E+01    1.516E+01    1.524E+01    1.531E+01
     1.538E+01    1.545E+01    1.552E+01    1.559E+01    1.566E+01    1.572E+01    1.579E+01    1.586E+01    1.593E+01    1.600E+01
     1.606E+01    1.613E+01    1.619E+01    1.626E+01    1.632E+01    1.639E+01    1.645E+01    1.652E+01    1.658E+01    1.664E+01
     1.670E+01    1.677E+01    1.683E+01    1.689E+01    1.695E+01    1.701E+01    1.706E+01    1.712E+01    1.718E+01    1.724E+01
     1.729E+01    1.735E+01    1.740E+01    1.746E+01    1.751E+01    1.756E+01    1.761E+01    1.766E+01    1.771E+01    1.776E+01
     1.781E+01    1.786E+01    1.791E+01    1.795E+01    1.800E+01    1.804E+01    1.809E+01    1.813E+01    1.817E+01    1.821E+01
     1.825E+01    1.829E+01    1.833E+01    1.837E+01    1.840E+01    1.844E+01    1.847E+01    1.851E+01    1.854E+01    1.857E+01
     1.860E+01    1.863E+01    1.866E+01    1.869E+01    1.872E+01    1.874E+01    1.877E+01    1.879E+01    1.882E+01    1.884E+01
     1.886E+01    1.889E+01    1.891E+01    1.893E+01    1.895E+01    1.897E+01    1.898E+01    1.900E+01    1.902E+01    1.903E+01
     1.905E+01    1.906E+01    1.908E+01    1.909E+01    1.910E+01    1.912E+01    1.913E+01    1.914E+01    1.915E+01    1.916E+01
     1.917E+01    1.917E+01    1.918E+01    1.919E+01    1.920E+01    1.920E+01    1.921E+01    1.921E+01    1.922E+01    1.922E+01
     1.922E+01    1.923E+01    1.923E+01    1.923E+01    1.923E+01    1.923E+01    1.923E+01    1.923E+01    1.923E+01    1.923E+01
     1.923E+01    1.923E+01    1.922E+01    1.922E+01    1.922E+01    1.921E+01    1.921E+01    1.920E+01    1.920E+01    1.919E+01
     1.918E+01    1.918E+01    1.917E+01    1.916E+01    1.915E+01    1.914E+01    1.913E+01    1.912E+01    1.911E+01    1.910E+01
     1.909E+01    1.908E+01    1.906E+01    1.905E+01    1.904E+01    1.902E+01    1.901E+01    1.900E+01    1.898E+01    1.896E+01
     1.895E+01    1.893E+01    1.891E+01    1.890E+01    1.888E+01    1.886E+01    1.884E+01    1.882E+01    1.880E+01    1.878E+01
     1.876E+01    1.874E+01    1.872E+01    1.870E+01    1.868E+01    1.866E+01    1.864E+01    1.862E+01    1.859E+01    1.857E+01
     1.855E+01    1.852E+01    1.850E+01    1.848E+01    1.845E+01    1.843E+01    1.841E+01    1.838E+01    1.836E+01    1.834E+01
     1.831E+01    1.829E+01    1.826E+01    1.824E+01    1.822E+01    1.819E+01    1.817E+01    1.814E+01    1.812E+01    1.810E+01
     1.807E+01    1.805E+01    1.802E+01    1.800E+01    1.798E+01    1.795E+01    1.793E+01    1.791E+01
 Ala      Conc. = 9.24E+00
