 LCModel (Version 6.3-1L) Copyright: S.W. Provencher.          Ref.: Magn. Reson. Med. 30:672-679 (1993).                
 Slice#1 Row#3 Col#2  K_02_press_1_raw_act
 36 lines in following concentration table = NCONC+1
    Conc.  %SD /Cr+PCr  Metabolite                                         
    0.000 999%   0.000 Ala                                                 
    9.541 193%   0.000 Asp                                                 
    0.000 999%   0.000 Cr                                                  
    0.000 999%   0.000 PCr                                                 
    6.614 167%   0.000 GABA                                                
    8.287 134%   0.000 Glc                                                 
  947.762  26%   0.000 Gln                                                 
  569.454  48%   0.000 Glu                                                 
    0.000 999%   0.000 GPC                                                 
   66.203  21%   0.000 PCh                                                 
    0.000 999%   0.000 GSH                                                 
  868.274  20%   0.000 Ins                                                 
  188.942  59%   0.000 Lac                                                 
    9.667 487%   0.000 NAA                                                 
    0.000 999%   0.000 NAAG                                                
    5.017  73%   0.000 Scyllo                                              
   20.924  87%   0.000 Tau                                                 
   16.320 244%   0.000 -CrCH2                                              
   66.203  21%   0.000 GPC+PCh                                             
    9.667 487%   0.000 NAA+NAAG                                            
    0.000 999%   0.000 Cr+PCr                                              
 1.52E+03  30%   0.000 Glu+Gln                                             
    0.000 999%   0.000 Lip13a                                              
  118.772  58%   0.000 Lip13b                                              
    0.000 999%   0.000 Lip09                                               
 1.14E+03  11%   0.000 MM09                                                
   21.822 136%   0.000 Lip20                                               
 1.99E+03  10%   0.000 MM20                                                
  350.596  16%   0.000 MM12                                                
  856.613  19%   0.000 MM14                                                
  607.633  18%   0.000 MM17                                                
  118.772  58%   0.000 Lip13a+Lip13b                                       
 1.33E+03  14%   0.000 MM14+Lip13a+Lip13b+MM12                             
 1.14E+03  11%   0.000 MM09+Lip09                                          
 2.02E+03  10%   0.000 MM20+Lip20                                          
   6 lines in following misc. output table
  FWHM = 0.084 ppm    S/N =   2                                            
  Data shift = 0.038 ppm                                                   
  Ph: -89 deg      55.6 deg/ppm                                            
  alphaB,S = 4.5E+00,   6.6E+00                                            
   14 spline knots.   Ns = 5(1)                                            
  ( 8) 6 infls.   ( 7) 5 extrs.                                            
  498 points on ppm-axis = NY
      4.000000     3.992357     3.984714     3.977070     3.969427     3.961784     3.954141     3.946497     3.938854     3.931211
      3.923568     3.915925     3.908281     3.900638     3.892995     3.885352     3.877708     3.870065     3.862422     3.854779
      3.847136     3.839492     3.831849     3.824206     3.816563     3.808919     3.801276     3.793633     3.785990     3.778347
      3.770703     3.763060     3.755417     3.747774     3.740130     3.732487     3.724844     3.717201     3.709558     3.701914
      3.694271     3.686628     3.678985     3.671341     3.663698     3.656055     3.648412     3.640769     3.633125     3.625482
      3.617839     3.610196     3.602552     3.594909     3.587266     3.579623     3.571980     3.564336     3.556693     3.549050
      3.541407     3.533763     3.526120     3.518477     3.510834     3.503191     3.495547     3.487904     3.480261     3.472618
      3.464974     3.457331     3.449688     3.442045     3.434402     3.426758     3.419115     3.411472     3.403829     3.396185
      3.388542     3.380899     3.373256     3.365613     3.357969     3.350326     3.342683     3.335040     3.327396     3.319753
      3.312110     3.304467     3.296824     3.289180     3.281537     3.273894     3.266251     3.258607     3.250964     3.243321
      3.235678     3.228034     3.220391     3.212748     3.205105     3.197462     3.189818     3.182175     3.174532     3.166889
      3.159245     3.151602     3.143959     3.136316     3.128673     3.121029     3.113386     3.105743     3.098100     3.090456
      3.082813     3.075170     3.067527     3.059884     3.052240     3.044597     3.036954     3.029311     3.021667     3.014024
      3.006381     2.998738     2.991095     2.983451     2.975808     2.968165     2.960522     2.952878     2.945235     2.937592
      2.929949     2.922306     2.914662     2.907019     2.899376     2.891733     2.884089     2.876446     2.868803     2.861160
      2.853517     2.845873     2.838230     2.830587     2.822944     2.815300     2.807657     2.800014     2.792371     2.784728
      2.777084     2.769441     2.761798     2.754155     2.746511     2.738868     2.731225     2.723582     2.715939     2.708295
      2.700652     2.693009     2.685366     2.677722     2.670079     2.662436     2.654793     2.647150     2.639506     2.631863
      2.624220     2.616577     2.608933     2.601290     2.593647     2.586004     2.578361     2.570717     2.563074     2.555431
      2.547788     2.540144     2.532501     2.524858     2.517215     2.509572     2.501928     2.494285     2.486642     2.478999
      2.471355     2.463712     2.456069     2.448426     2.440783     2.433139     2.425496     2.417853     2.410210     2.402566
      2.394923     2.387280     2.379637     2.371994     2.364350     2.356707     2.349064     2.341421     2.333777     2.326134
      2.318491     2.310848     2.303205     2.295561     2.287918     2.280275     2.272632     2.264988     2.257345     2.249702
      2.242059     2.234416     2.226772     2.219129     2.211486     2.203843     2.196199     2.188556     2.180913     2.173270
      2.165627     2.157983     2.150340     2.142697     2.135054     2.127410     2.119767     2.112124     2.104481     2.096838
      2.089194     2.081551     2.073908     2.066265     2.058621     2.050978     2.043335     2.035692     2.028049     2.020405
      2.012762     2.005119     1.997476     1.989833     1.982190     1.974546     1.966903     1.959260     1.951617     1.943974
      1.936331     1.928688     1.921045     1.913402     1.905759     1.898115     1.890472     1.882829     1.875186     1.867543
      1.859900     1.852257     1.844614     1.836971     1.829327     1.821684     1.814041     1.806398     1.798755     1.791112
      1.783469     1.775826     1.768183     1.760540     1.752896     1.745253     1.737610     1.729967     1.722324     1.714681
      1.707038     1.699395     1.691752     1.684108     1.676465     1.668822     1.661179     1.653536     1.645893     1.638250
      1.630607     1.622964     1.615321     1.607677     1.600034     1.592391     1.584748     1.577105     1.569462     1.561819
      1.554176     1.546533     1.538890     1.531246     1.523603     1.515960     1.508317     1.500674     1.493031     1.485388
      1.477745     1.470102     1.462458     1.454815     1.447172     1.439529     1.431886     1.424243     1.416600     1.408957
      1.401314     1.393671     1.386027     1.378384     1.370741     1.363098     1.355455     1.347812     1.340169     1.332526
      1.324883     1.317240     1.309596     1.301953     1.294310     1.286667     1.279024     1.271381     1.263738     1.256095
      1.248452     1.240808     1.233165     1.225522     1.217879     1.210236     1.202593     1.194950     1.187307     1.179664
      1.172021     1.164377     1.156734     1.149091     1.141448     1.133805     1.126162     1.118519     1.110876     1.103233
      1.095590     1.087946     1.080303     1.072660     1.065017     1.057374     1.049731     1.042088     1.034445     1.026802
      1.019158     1.011515     1.003872     0.996229     0.988586     0.980943     0.973300     0.965657     0.958014     0.950371
      0.942727     0.935084     0.927441     0.919798     0.912155     0.904512     0.896869     0.889226     0.881583     0.873940
      0.866296     0.858653     0.851010     0.843367     0.835724     0.828081     0.820438     0.812795     0.805152     0.797508
      0.789865     0.782222     0.774579     0.766936     0.759293     0.751650     0.744007     0.736364     0.728721     0.721077
      0.713434     0.705791     0.698148     0.690505     0.682862     0.675219     0.667576     0.659933     0.652290     0.644646
      0.637003     0.629360     0.621717     0.614074     0.606431     0.598788     0.591145     0.583502     0.575858     0.568215
      0.560572     0.552929     0.545286     0.537643     0.530000     0.522357     0.514714     0.507071     0.499427     0.491784
      0.484141     0.476498     0.468855     0.461212     0.453569     0.445925     0.438282     0.430639     0.422996     0.415353
      0.407710     0.400067     0.392424     0.384780     0.377137     0.369494     0.361851     0.354208     0.346565     0.338922
      0.331278     0.323635     0.315992     0.308349     0.300706     0.293063     0.285420     0.277777     0.270133     0.262490
      0.254847     0.247204     0.239561     0.231918     0.224275     0.216631     0.208988     0.201345
 NY phased data points follow
  -2.28970E+00  3.92043E-01 -3.85953E+00 -2.47647E+00 -4.69012E-01 -1.04484E+00 -7.21379E-01 -1.16456E+00  1.18817E+00  3.18054E+00
   3.16603E+00  6.50282E-01  9.83559E-01  2.05561E+00 -3.35834E+00 -3.06575E-01 -1.56022E+00 -3.27854E-01  2.98995E+00  4.87749E-01
   3.55732E+00  1.71274E+00  1.40452E+00  3.73344E+00  4.56345E-01  4.07137E+00  2.27175E+00 -2.76607E+00 -9.44473E-01  4.58446E+00
   2.36712E+00  4.23418E+00  4.70165E+00  2.31023E+00  3.35658E+00  5.78297E-01  2.21959E+00  1.93027E+00  6.72561E+00  5.22912E-01
   2.94757E+00  1.27206E+00  2.26797E+00  1.82786E+00  3.02678E+00  2.56753E+00  3.46125E+00  3.61162E+00  6.83638E+00  6.31135E+00
   1.31782E+00  6.40865E-01  2.85436E+00  7.89112E-01  3.29994E+00  3.50971E+00  1.72570E+00  9.24311E-01  4.56754E+00  5.80821E+00
   6.70468E+00  3.93790E+00  2.89909E+00  4.43899E+00  6.69141E+00  4.40623E+00  1.55483E+00  2.36230E+00  3.20201E+00  2.02940E+00
   5.03866E+00  1.67956E+00  3.66596E+00  2.84788E+00  4.59050E+00  8.97596E-01  5.25073E+00  6.64358E+00  4.12651E+00  3.69863E+00
   3.04729E+00  7.44910E+00  6.86771E+00  2.28974E+00 -1.07611E+00  3.80996E+00  1.09068E+00  4.18496E+00  3.87061E+00  2.88207E+00
   7.41112E-01  2.03434E+00  8.85857E+00  5.29347E-01  8.59554E-01  3.77702E+00  4.72293E+00  2.92589E+00 -8.56406E-01  4.34600E+00
   6.29906E+00  3.04821E+00  5.61979E+00  4.56787E+00  6.39157E+00  1.87016E+00  4.33953E-01  2.27521E+00  1.70836E+00  2.03226E+00
   2.31865E+00 -7.55978E-01  3.43787E+00  7.78033E+00 -7.35167E-01  2.95261E+00  2.87075E+00  6.56779E-01  3.12227E+00  3.66649E-01
  -1.19636E+00  2.94996E+00  4.68229E-01  4.43466E+00  1.38489E+00  4.70085E+00  4.52112E+00  1.44954E+00 -3.12890E+00 -1.09939E-01
  -6.11647E-01  2.01848E+00 -3.12429E+00 -2.42894E+00  5.92502E-02  2.03055E+00 -1.54128E+00  1.51256E+00  2.03277E+00 -1.97448E+00
  -1.76566E+00 -1.94413E-01  2.00304E+00 -3.17003E+00  3.79849E-02 -4.59193E-01 -1.00494E+00  1.31062E+00  4.30932E+00  2.84077E-01
   2.25236E+00  7.75507E-01  4.48925E-01  1.22559E+00 -1.48310E+00 -4.97347E-01 -1.63439E+00  4.38499E-01 -2.97777E-01 -2.59155E+00
   1.69781E-01  1.67036E-01  1.93701E+00  2.71618E-01 -2.64038E+00  4.04576E+00  3.13414E-02 -1.15303E+00 -7.18062E-01  9.12283E-01
  -2.66269E+00 -3.83998E-01  8.74300E-01 -2.65286E+00  4.68107E-01 -3.87859E+00 -4.80964E+00  7.20718E-02 -1.64075E+00 -3.80291E-01
  -8.03178E-01 -2.02941E+00 -3.31603E+00 -2.46355E+00 -2.29250E+00 -1.01860E+00 -5.53893E+00 -6.16147E+00 -1.90419E+00 -4.12024E+00
  -4.90767E+00 -5.06270E+00 -5.41592E+00 -4.95001E+00 -6.76102E+00 -3.96308E+00 -5.87287E+00 -2.86388E+00 -7.93750E+00 -5.26340E+00
  -3.30340E+00 -3.62488E+00 -4.37313E+00 -2.45354E+00 -2.09711E+00 -9.83521E-01 -4.04405E+00 -2.12843E+00 -3.12520E+00 -6.37667E-02
   1.76061E+00 -6.97262E-01  2.16189E+00 -1.30099E-01 -3.11266E+00  3.39679E+00 -1.97240E+00  1.48121E+00 -2.11638E-01 -9.09426E-01
   1.21689E+00  6.65166E-01  3.09498E+00  2.46001E+00  6.43455E+00  6.46560E+00  5.65853E+00  1.45869E+00  4.02327E+00  5.07779E+00
   4.92374E+00  5.85465E+00  6.19336E+00  5.37439E+00  9.05238E+00  7.98000E+00  9.18112E+00  9.33445E+00  6.72995E+00  8.27378E+00
   4.94544E+00  4.78725E+00  7.51095E+00  6.84027E+00  7.00552E+00  6.06191E+00  6.00602E+00  9.85722E+00  5.75524E+00  6.57421E+00
   4.55427E+00  8.39537E+00  6.54040E+00  6.78200E+00  7.28486E+00  6.40050E+00  1.25218E+01  1.17031E+01  8.62264E+00  7.80809E+00
   3.56388E+00  4.31059E+00  1.41528E+00  6.29849E+00  7.23842E+00  5.27484E+00  1.06813E+01  9.40006E+00  7.00972E+00  8.77123E+00
   6.38077E+00  7.77332E+00  1.15937E+01  5.61875E+00  6.24427E+00  5.76944E+00  8.27414E+00  4.97302E+00  6.76054E+00  8.40434E+00
   5.23623E+00  5.85524E+00  4.01110E+00  3.38962E+00  5.97469E+00  5.76296E+00  5.99790E+00  5.91053E+00  4.43367E+00  3.92939E+00
   3.76826E+00  2.92836E+00  3.14002E+00  2.80379E+00  4.24669E-01  3.72594E+00  2.65211E+00  4.77538E+00  1.45652E+00  3.77385E+00
   1.44468E+00  1.12524E+00  3.90170E+00  5.98384E+00  2.79381E+00  1.87471E+00  1.97172E+00  2.92773E+00  3.87184E+00  3.28857E+00
   1.24992E+00  5.76068E-02  1.24455E+00 -2.04667E+00  2.94647E+00  2.01631E+00  4.53408E+00  2.86466E+00  1.43583E+00  3.11303E+00
   4.79406E+00  2.39361E+00  3.23590E+00  3.57630E+00  4.32475E+00  4.23193E+00  4.66355E+00  5.67601E+00  3.73839E+00  7.04023E+00
   5.78726E+00  8.53234E+00  7.66474E+00  4.75535E+00 -1.44388E-01  2.53459E+00  3.96836E+00 -2.43875E-01  3.40739E+00  2.98027E+00
   1.95899E+00  2.34416E+00  4.93879E+00  6.81315E+00  3.65952E+00  6.34544E+00  8.30537E-01  2.74227E+00  4.73576E+00  3.68332E+00
   1.34625E-01  1.71687E+00  2.54043E-01  2.20894E+00  3.22438E+00  4.88838E+00  2.75868E+00  4.71800E+00  8.13604E+00  7.73643E+00
   5.95414E+00  7.11572E+00  3.16038E+00  4.30050E+00  4.66736E+00  3.10309E+00  2.60616E+00  3.25653E+00  6.22851E+00  2.46350E+00
   6.00698E+00  2.58657E+00  1.23884E+00  3.69140E+00  1.03147E+00  1.74603E+00  3.34661E+00  4.87597E+00  4.51693E+00  7.66616E+00
   1.00234E+01  4.70703E+00  4.88854E+00  4.11113E+00  2.37142E+00  5.95428E+00  1.74002E+00  2.57914E+00  3.91577E+00  3.50727E+00
   2.81580E+00  6.25641E+00  5.54422E+00  1.81187E+00  5.84953E+00  2.53238E+00  4.79775E+00  4.72881E+00  1.74546E+00 -5.66551E-01
   3.61631E+00 -1.96045E-01  3.00140E-01  6.64797E+00  1.31823E+00  2.25531E+00  4.47240E+00  1.72558E+00 -1.36011E+00  5.32545E+00
   1.86283E+00  3.85420E+00  2.34389E+00 -2.22982E-01  5.46888E+00  2.95003E+00  2.65049E+00  8.50266E-01  3.33820E+00  5.17441E+00
  -3.28554E-01  2.88995E+00  1.10801E+00  2.55854E+00  2.72798E+00  2.97420E+00  2.01267E+00  4.37588E+00  2.04125E+00  1.29029E+00
   1.44599E+00  3.15693E+00  2.27605E+00  5.27984E+00  4.67826E+00  1.14812E+00  3.64518E+00  4.03125E+00  4.76905E-01 -1.43020E+00
   1.17854E+00 -7.13319E-01  7.08507E-01  1.94184E-01  2.54414E+00  3.58967E+00 -8.45132E-01  2.29134E+00  2.76671E+00  4.50574E-01
  -9.78658E-01  1.72223E+00  8.72312E-01  1.70263E+00  9.69534E-01  3.92295E+00 -1.77901E+00  1.25682E+00  9.38463E-01  9.43114E-01
   5.00621E-01 -1.34471E+00  8.32614E-01 -3.59972E-01 -3.42918E+00  2.60157E+00  1.95300E-01  7.14343E-01  2.27794E+00  4.08098E-01
   3.51179E-02  9.60683E-01 -3.91501E+00  2.03169E+00  1.36600E+00  4.50808E-02 -1.22267E-01  1.67895E+00 -1.47838E+00  2.54613E+00
  -4.76227E-01 -5.39097E-01 -2.61706E+00  1.94947E+00 -9.57308E-02  3.50338E-03  4.66811E-01 -3.32323E-01  3.46672E-01 -1.03377E+00
  -4.07052E-01 -2.03444E+00 -1.73551E+00 -4.62734E-01 -3.86962E+00 -3.26711E+00 -1.12697E-01 -2.33943E-01
 NY points of the fit to the data follow
   2.24353E+00  2.18372E+00  1.53359E+00  9.44963E-01  6.86631E-01  5.86248E-01  5.74839E-01  5.86070E-01  5.32461E-01  4.79858E-01
   5.28348E-01  6.31982E-01  6.85266E-01  6.76835E-01  6.99753E-01  8.78430E-01  1.05765E+00  1.20101E+00  1.36069E+00  1.58990E+00
   1.96798E+00  2.44069E+00  2.09751E+00  9.39360E-01  2.64066E-01  4.38273E-01  5.74116E-01  6.22976E-01  1.87023E+00  3.53327E+00
   3.85143E+00  3.02637E+00  2.33148E+00  2.68047E+00  2.63271E+00  2.00717E+00  2.22801E+00  3.17091E+00  3.27520E+00  1.73980E+00
   7.02405E-01  9.55952E-01  2.08550E+00  3.96181E+00  5.43451E+00  5.69884E+00  5.07119E+00  5.25659E+00  5.59009E+00  4.73976E+00
   3.29600E+00  2.95592E+00  3.75876E+00  3.55745E+00  1.97879E+00  1.13663E+00  1.48335E+00  2.02545E+00  2.20049E+00  2.32735E+00
   2.50325E+00  2.50044E+00  2.25222E+00  2.07017E+00  2.29918E+00  2.39148E+00  2.12770E+00  2.15121E+00  2.12543E+00  2.07917E+00
   2.01407E+00  2.20652E+00  2.60100E+00  2.70910E+00  2.52475E+00  2.31590E+00  2.28561E+00  2.36881E+00  2.04212E+00  1.73453E+00
   1.61539E+00  1.54044E+00  1.16620E+00  5.34630E-01 -2.05303E-02 -2.38193E-01 -3.16809E-01 -5.17559E-01 -7.25337E-01 -6.04568E-01
  -2.66025E-01 -3.55634E-02 -1.12036E-01 -1.52871E-01 -6.01630E-02  2.22756E-01  4.91461E-01  8.18633E-01  2.09916E+00  3.98317E+00
   4.36100E+00  3.70065E+00  3.62294E+00  4.42531E+00  4.67711E+00  3.70105E+00  2.88834E+00  3.29201E+00  4.23478E+00  3.39726E+00
   1.38748E+00  8.61450E-01  7.50296E-01  7.60677E-01  7.74090E-01  8.05267E-01  8.49456E-01  9.07294E-01  9.57293E-01  1.00071E+00
   1.04690E+00  1.10589E+00  1.17560E+00  1.23236E+00  1.28878E+00  1.35143E+00  1.41911E+00  1.47161E+00  1.50118E+00  1.52105E+00
   1.53420E+00  1.54159E+00  1.53420E+00  1.50826E+00  1.47544E+00  1.44469E+00  1.40407E+00  1.34502E+00  1.27938E+00  1.21866E+00
   1.16234E+00  1.10287E+00  1.02867E+00  9.53032E-01  8.83495E-01  8.12021E-01  7.37386E-01  6.59111E-01  5.87832E-01  5.24845E-01
   4.63896E-01  4.03005E-01  3.39218E-01  2.80906E-01  2.29357E-01  1.77358E-01  1.28862E-01  8.79699E-02  5.37127E-02  2.13151E-02
  -1.01321E-02 -3.70378E-02 -5.54186E-02 -7.02701E-02 -8.66414E-02 -1.02617E-01 -1.14077E-01 -1.25217E-01 -1.32885E-01 -1.36107E-01
  -1.40171E-01 -1.51441E-01 -1.61868E-01 -1.68103E-01 -1.72549E-01 -1.83742E-01 -1.99530E-01 -2.03638E-01 -1.94777E-01 -1.86138E-01
  -1.74951E-01 -1.65669E-01 -1.59323E-01 -1.39303E-01 -1.08552E-01 -9.14835E-02 -9.19866E-02 -8.35388E-02 -6.05540E-02 -1.07398E-01
  -3.71406E-01 -6.44364E-01 -9.77929E-01 -1.33054E+00 -1.58071E+00 -1.66951E+00 -1.58987E+00 -1.07710E+00 -9.48717E-02  7.45176E-01
   1.09204E+00  1.77205E+00  2.33929E+00  2.60180E+00  2.00657E+00  4.76448E-01 -1.56095E+00 -2.22393E+00 -1.46725E+00 -1.11622E+00
  -1.56178E+00 -1.02172E+00  6.68874E-02  1.12822E+00  1.09274E+00  5.99349E-01  7.98624E-01  2.04118E+00  2.29847E+00  2.38762E+00
   3.01422E+00  2.72555E+00  1.34440E+00  1.36632E+00  2.25300E+00  2.76764E+00  2.61467E+00  2.67104E+00  3.66587E+00  4.72815E+00
   4.92029E+00  4.40867E+00  3.40146E+00  2.93214E+00  3.58976E+00  4.32885E+00  4.53446E+00  5.12530E+00  6.02202E+00  6.36199E+00
   6.24874E+00  5.90914E+00  5.68365E+00  6.14242E+00  6.18667E+00  6.00953E+00  6.13441E+00  6.27859E+00  6.07428E+00  6.19000E+00
   6.76163E+00  7.08352E+00  7.65475E+00  8.09463E+00  8.02264E+00  7.91195E+00  8.30173E+00  8.53279E+00  8.22334E+00  7.84310E+00
   7.53785E+00  7.09289E+00  6.58724E+00  6.26211E+00  6.24160E+00  6.06023E+00  5.91092E+00  5.62487E+00  5.44066E+00  5.27775E+00
   5.02899E+00  4.93979E+00  4.90174E+00  4.86801E+00  4.86468E+00  4.81226E+00  4.74453E+00  4.76564E+00  4.85799E+00  4.88257E+00
   4.83127E+00  4.80135E+00  4.79992E+00  4.78206E+00  4.73650E+00  4.68059E+00  4.63872E+00  4.58049E+00  4.48496E+00  4.37125E+00
   4.24146E+00  4.08992E+00  3.91754E+00  3.73363E+00  3.54862E+00  3.35906E+00  3.16486E+00  2.97450E+00  2.79584E+00  2.62645E+00
   2.46780E+00  2.32476E+00  2.20075E+00  2.09599E+00  2.00929E+00  1.94088E+00  1.89296E+00  1.86629E+00  1.85942E+00  1.86945E+00
   1.89799E+00  1.94566E+00  2.01096E+00  2.09158E+00  2.18749E+00  2.29764E+00  2.42056E+00  2.55449E+00  2.69773E+00  2.84831E+00
   3.00417E+00  3.16274E+00  3.32141E+00  3.47734E+00  3.62801E+00  3.77075E+00  3.90309E+00  4.02243E+00  4.12665E+00  4.21398E+00
   4.28346E+00  4.33448E+00  4.36712E+00  4.38192E+00  4.38051E+00  4.36555E+00  4.34130E+00  4.31361E+00  4.29137E+00  4.28890E+00
   4.33429E+00  4.49784E+00  4.95727E+00  5.38852E+00  4.84004E+00  3.89993E+00  3.53063E+00  3.57838E+00  3.05314E+00  1.94503E+00
   1.69199E+00  2.93547E+00  3.99602E+00  3.52969E+00  2.66973E+00  3.54513E+00  4.63538E+00  4.90636E+00  4.66916E+00  4.73018E+00
   5.41540E+00  5.63968E+00  4.83266E+00  4.25881E+00  3.90856E+00  3.66103E+00  3.47844E+00  3.34338E+00  3.24457E+00  3.17320E+00
   3.12259E+00  3.08755E+00  3.06460E+00  3.05143E+00  3.04716E+00  3.05169E+00  3.06574E+00  3.09009E+00  3.12566E+00  3.17304E+00
   3.23290E+00  3.30558E+00  3.39132E+00  3.48977E+00  3.60035E+00  3.72190E+00  3.85322E+00  3.99263E+00  4.13832E+00  4.28792E+00
   4.43898E+00  4.58868E+00  4.73431E+00  4.87297E+00  5.00187E+00  5.11807E+00  5.21896E+00  5.30202E+00  5.36529E+00  5.40701E+00
   5.42598E+00  5.42123E+00  5.39250E+00  5.33990E+00  5.26424E+00  5.16659E+00  5.04853E+00  4.91182E+00  4.75872E+00  4.59153E+00
   4.41289E+00  4.22525E+00  4.03116E+00  3.83294E+00  3.63296E+00  3.43326E+00  3.23581E+00  3.04212E+00  2.85359E+00  2.67123E+00
   2.49604E+00  2.32858E+00  2.16934E+00  2.01846E+00  1.87607E+00  1.74204E+00  1.61632E+00  1.49856E+00  1.38855E+00  1.28579E+00
   1.18998E+00  1.10061E+00  1.01740E+00  9.39855E-01  8.67648E-01  8.00269E-01  7.37448E-01  6.78777E-01  6.24053E-01  5.72868E-01
   5.25001E-01  4.80089E-01  4.38012E-01  3.98491E-01  3.61415E-01  3.26483E-01  2.93602E-01  2.62534E-01  2.33250E-01  2.05541E-01
   1.79379E-01  1.54547E-01  1.31029E-01  1.08644E-01  8.74214E-02  6.72111E-02  4.80172E-02  2.96619E-02  1.21769E-02 -4.56903E-03
  -2.05092E-02 -3.57789E-02 -5.03524E-02 -6.43859E-02 -7.78147E-02 -9.07395E-02 -1.03083E-01 -1.14977E-01 -1.26391E-01 -1.37445E-01
  -1.48042E-01 -1.58285E-01 -1.68103E-01 -1.77628E-01 -1.86800E-01 -1.95722E-01 -2.04295E-01 -2.12617E-01 -2.20613E-01 -2.28412E-01
  -2.35946E-01 -2.43302E-01 -2.50375E-01 -2.57266E-01 -2.63908E-01 -2.70422E-01 -2.76722E-01 -2.82887E-01 -2.88817E-01 -2.94615E-01
  -3.00215E-01 -3.05729E-01 -3.11060E-01 -3.16283E-01 -3.21300E-01 -3.26219E-01 -3.30973E-01 -3.35661E-01
 NY background values follow
     1.019E-01    1.002E-01    9.855E-02    9.687E-02    9.519E-02    9.352E-02    9.184E-02    9.016E-02    8.848E-02    8.681E-02
     8.513E-02    8.345E-02    8.178E-02    8.010E-02    7.842E-02    7.674E-02    7.506E-02    7.338E-02    7.170E-02    7.002E-02
     6.834E-02    6.666E-02    6.498E-02    6.330E-02    6.161E-02    5.993E-02    5.824E-02    5.656E-02    5.487E-02    5.319E-02
     5.150E-02    4.981E-02    4.812E-02    4.643E-02    4.474E-02    4.305E-02    4.135E-02    3.966E-02    3.796E-02    3.627E-02
     3.457E-02    3.287E-02    3.117E-02    2.947E-02    2.776E-02    2.606E-02    2.435E-02    2.265E-02    2.094E-02    1.923E-02
     1.752E-02    1.580E-02    1.409E-02    1.237E-02    1.066E-02    8.939E-03    7.219E-03    5.497E-03    3.774E-03    2.049E-03
     3.234E-04   -1.404E-03   -3.133E-03   -4.864E-03   -6.596E-03   -8.330E-03   -1.006E-02   -1.180E-02   -1.354E-02   -1.528E-02
    -1.702E-02   -1.876E-02   -2.051E-02   -2.226E-02   -2.400E-02   -2.575E-02   -2.750E-02   -2.926E-02   -3.101E-02   -3.277E-02
    -3.453E-02   -3.629E-02   -3.805E-02   -3.981E-02   -4.158E-02   -4.334E-02   -4.511E-02   -4.688E-02   -4.865E-02   -5.042E-02
    -5.220E-02   -5.398E-02   -5.575E-02   -5.753E-02   -5.932E-02   -6.110E-02   -6.288E-02   -6.467E-02   -6.646E-02   -6.824E-02
    -7.003E-02   -7.182E-02   -7.361E-02   -7.540E-02   -7.719E-02   -7.898E-02   -8.077E-02   -8.256E-02   -8.436E-02   -8.615E-02
    -8.794E-02   -8.973E-02   -9.152E-02   -9.331E-02   -9.510E-02   -9.689E-02   -9.867E-02   -1.005E-01   -1.022E-01   -1.040E-01
    -1.058E-01   -1.076E-01   -1.094E-01   -1.112E-01   -1.129E-01   -1.147E-01   -1.165E-01   -1.183E-01   -1.200E-01   -1.218E-01
    -1.236E-01   -1.253E-01   -1.271E-01   -1.288E-01   -1.306E-01   -1.323E-01   -1.341E-01   -1.358E-01   -1.376E-01   -1.393E-01
    -1.411E-01   -1.428E-01   -1.445E-01   -1.462E-01   -1.480E-01   -1.497E-01   -1.514E-01   -1.531E-01   -1.548E-01   -1.565E-01
    -1.582E-01   -1.599E-01   -1.616E-01   -1.633E-01   -1.650E-01   -1.666E-01   -1.683E-01   -1.700E-01   -1.716E-01   -1.733E-01
    -1.750E-01   -1.766E-01   -1.782E-01   -1.799E-01   -1.815E-01   -1.831E-01   -1.848E-01   -1.864E-01   -1.880E-01   -1.896E-01
    -1.912E-01   -1.928E-01   -1.943E-01   -1.959E-01   -1.975E-01   -1.991E-01   -2.006E-01   -2.022E-01   -2.037E-01   -2.053E-01
    -2.068E-01   -2.083E-01   -2.098E-01   -2.113E-01   -2.128E-01   -2.143E-01   -2.158E-01   -2.173E-01   -2.188E-01   -2.203E-01
    -2.217E-01   -2.232E-01   -2.246E-01   -2.261E-01   -2.275E-01   -2.289E-01   -2.304E-01   -2.318E-01   -2.332E-01   -2.346E-01
    -2.360E-01   -2.374E-01   -2.388E-01   -2.402E-01   -2.416E-01   -2.429E-01   -2.443E-01   -2.457E-01   -2.470E-01   -2.484E-01
    -2.497E-01   -2.510E-01   -2.524E-01   -2.537E-01   -2.550E-01   -2.564E-01   -2.577E-01   -2.590E-01   -2.603E-01   -2.616E-01
    -2.629E-01   -2.642E-01   -2.655E-01   -2.667E-01   -2.680E-01   -2.693E-01   -2.706E-01   -2.718E-01   -2.731E-01   -2.743E-01
    -2.756E-01   -2.768E-01   -2.781E-01   -2.793E-01   -2.805E-01   -2.818E-01   -2.830E-01   -2.842E-01   -2.854E-01   -2.867E-01
    -2.879E-01   -2.891E-01   -2.903E-01   -2.915E-01   -2.927E-01   -2.939E-01   -2.951E-01   -2.963E-01   -2.975E-01   -2.987E-01
    -2.998E-01   -3.010E-01   -3.022E-01   -3.034E-01   -3.045E-01   -3.057E-01   -3.069E-01   -3.080E-01   -3.092E-01   -3.104E-01
    -3.115E-01   -3.127E-01   -3.138E-01   -3.150E-01   -3.161E-01   -3.173E-01   -3.184E-01   -3.196E-01   -3.207E-01   -3.219E-01
    -3.230E-01   -3.242E-01   -3.253E-01   -3.264E-01   -3.276E-01   -3.287E-01   -3.298E-01   -3.310E-01   -3.321E-01   -3.332E-01
    -3.344E-01   -3.355E-01   -3.366E-01   -3.377E-01   -3.389E-01   -3.400E-01   -3.411E-01   -3.422E-01   -3.434E-01   -3.445E-01
    -3.456E-01   -3.467E-01   -3.478E-01   -3.489E-01   -3.501E-01   -3.512E-01   -3.523E-01   -3.534E-01   -3.545E-01   -3.556E-01
    -3.567E-01   -3.578E-01   -3.589E-01   -3.600E-01   -3.611E-01   -3.622E-01   -3.633E-01   -3.644E-01   -3.655E-01   -3.666E-01
    -3.677E-01   -3.688E-01   -3.699E-01   -3.710E-01   -3.720E-01   -3.731E-01   -3.742E-01   -3.753E-01   -3.764E-01   -3.775E-01
    -3.785E-01   -3.796E-01   -3.807E-01   -3.818E-01   -3.828E-01   -3.839E-01   -3.850E-01   -3.861E-01   -3.871E-01   -3.882E-01
    -3.893E-01   -3.903E-01   -3.914E-01   -3.925E-01   -3.935E-01   -3.946E-01   -3.956E-01   -3.967E-01   -3.978E-01   -3.988E-01
    -3.999E-01   -4.009E-01   -4.020E-01   -4.030E-01   -4.041E-01   -4.051E-01   -4.062E-01   -4.072E-01   -4.082E-01   -4.093E-01
    -4.103E-01   -4.114E-01   -4.124E-01   -4.134E-01   -4.145E-01   -4.155E-01   -4.166E-01   -4.176E-01   -4.186E-01   -4.196E-01
    -4.207E-01   -4.217E-01   -4.227E-01   -4.237E-01   -4.248E-01   -4.258E-01   -4.268E-01   -4.278E-01   -4.288E-01   -4.299E-01
    -4.309E-01   -4.319E-01   -4.329E-01   -4.339E-01   -4.349E-01   -4.359E-01   -4.369E-01   -4.379E-01   -4.389E-01   -4.400E-01
    -4.410E-01   -4.420E-01   -4.429E-01   -4.439E-01   -4.449E-01   -4.459E-01   -4.469E-01   -4.479E-01   -4.489E-01   -4.499E-01
    -4.509E-01   -4.519E-01   -4.529E-01   -4.538E-01   -4.548E-01   -4.558E-01   -4.568E-01   -4.578E-01   -4.587E-01   -4.597E-01
    -4.607E-01   -4.616E-01   -4.626E-01   -4.636E-01   -4.646E-01   -4.655E-01   -4.665E-01   -4.674E-01   -4.684E-01   -4.694E-01
    -4.703E-01   -4.713E-01   -4.722E-01   -4.732E-01   -4.741E-01   -4.751E-01   -4.760E-01   -4.770E-01   -4.779E-01   -4.789E-01
    -4.798E-01   -4.808E-01   -4.817E-01   -4.827E-01   -4.836E-01   -4.845E-01   -4.855E-01   -4.864E-01   -4.874E-01   -4.883E-01
    -4.892E-01   -4.902E-01   -4.911E-01   -4.921E-01   -4.930E-01   -4.939E-01   -4.949E-01   -4.958E-01   -4.967E-01   -4.977E-01
    -4.986E-01   -4.996E-01   -5.005E-01   -5.014E-01   -5.024E-01   -5.033E-01   -5.042E-01   -5.052E-01   -5.061E-01   -5.070E-01
    -5.080E-01   -5.089E-01   -5.099E-01   -5.108E-01   -5.117E-01   -5.127E-01   -5.136E-01   -5.146E-01   -5.155E-01   -5.164E-01
    -5.174E-01   -5.183E-01   -5.193E-01   -5.202E-01   -5.211E-01   -5.221E-01   -5.230E-01   -5.240E-01   -5.249E-01   -5.259E-01
    -5.268E-01   -5.278E-01   -5.287E-01   -5.296E-01   -5.306E-01   -5.315E-01   -5.325E-01   -5.334E-01   -5.344E-01   -5.353E-01
    -5.363E-01   -5.372E-01   -5.382E-01   -5.391E-01   -5.401E-01   -5.410E-01   -5.420E-01   -5.429E-01   -5.438E-01   -5.448E-01
    -5.457E-01   -5.467E-01   -5.476E-01   -5.486E-01   -5.495E-01   -5.505E-01   -5.514E-01   -5.524E-01
 Asp      Conc. = 9.54E+00
