 LCModel (Version 6.3-1L) Copyright: S.W. Provencher.          Ref.: Magn. Reson. Med. 30:672-679 (1993).                
 Slice#3 Row#4 Col#10  K_02_press_1_raw_act
 36 lines in following concentration table = NCONC+1
    Conc.  %SD /Cr+PCr  Metabolite                                         
    0.000 999%   0.000 Ala                                                 
    0.000 999%   0.000 Asp                                                 
 1.02E+03  23%   0.535 Cr                                                  
  885.432  27%   0.465 PCr                                                 
    0.000 999%   0.000 GABA                                                
    0.000 999%   0.000 Glc                                                 
  599.213  42%   0.315 Gln                                                 
 1.67E+03  17%   0.877 Glu                                                 
  485.694   5%   0.255 GPC                                                 
    0.000 999%   0.000 PCh                                                 
  507.157  15%   0.267 GSH                                                 
  407.726  66%   0.214 Ins                                                 
  213.637  63%   0.112 Lac                                                 
 2.54E+03   6%   1.333 NAA                                                 
  356.899  41%   0.188 NAAG                                                
    0.000 999%   0.000 Scyllo                                              
    0.000 999%   0.000 Tau                                                 
    0.000 999%   0.000 -CrCH2                                              
  485.694   5%   0.255 GPC+PCh                                             
 2.89E+03   3%   1.521 NAA+NAAG                                            
 1.90E+03   3%   1.000 Cr+PCr                                              
 2.27E+03  18%   1.192 Glu+Gln                                             
    0.000 999%   0.000 Lip13a                                              
  125.037 119% 6.6E-02 Lip13b                                              
   30.979 142% 1.6E-02 Lip09                                               
 1.54E+03  17%   0.811 MM09                                                
   19.188 135% 1.0E-02 Lip20                                               
 3.25E+03  13%   1.708 MM20                                                
  416.006  36%   0.219 MM12                                                
 1.39E+03  24%   0.732 MM14                                                
  790.259  33%   0.415 MM17                                                
  125.037 119% 6.6E-02 Lip13a+Lip13b                                       
 1.93E+03  20%   1.016 MM14+Lip13a+Lip13b+MM12                             
 1.57E+03  17%   0.827 MM09+Lip09                                          
 3.27E+03  13%   1.718 MM20+Lip20                                          
   6 lines in following misc. output table
  FWHM = 0.046 ppm    S/N =  14                                            
  Data shift = 0.031 ppm                                                   
  Ph:   8 deg      -7.8 deg/ppm                                            
  alphaB,S = 4.4E-01,   1.0E+02                                            
   14 spline knots.   Ns = 7(1)                                            
  (14) 4 infls.   (13) 1 extrs.                                            
  498 points on ppm-axis = NY
      4.000000     3.992357     3.984714     3.977070     3.969427     3.961784     3.954141     3.946497     3.938854     3.931211
      3.923568     3.915925     3.908281     3.900638     3.892995     3.885352     3.877708     3.870065     3.862422     3.854779
      3.847136     3.839492     3.831849     3.824206     3.816563     3.808919     3.801276     3.793633     3.785990     3.778347
      3.770703     3.763060     3.755417     3.747774     3.740130     3.732487     3.724844     3.717201     3.709558     3.701914
      3.694271     3.686628     3.678985     3.671341     3.663698     3.656055     3.648412     3.640769     3.633125     3.625482
      3.617839     3.610196     3.602552     3.594909     3.587266     3.579623     3.571980     3.564336     3.556693     3.549050
      3.541407     3.533763     3.526120     3.518477     3.510834     3.503191     3.495547     3.487904     3.480261     3.472618
      3.464974     3.457331     3.449688     3.442045     3.434402     3.426758     3.419115     3.411472     3.403829     3.396185
      3.388542     3.380899     3.373256     3.365613     3.357969     3.350326     3.342683     3.335040     3.327396     3.319753
      3.312110     3.304467     3.296824     3.289180     3.281537     3.273894     3.266251     3.258607     3.250964     3.243321
      3.235678     3.228034     3.220391     3.212748     3.205105     3.197462     3.189818     3.182175     3.174532     3.166889
      3.159245     3.151602     3.143959     3.136316     3.128673     3.121029     3.113386     3.105743     3.098100     3.090456
      3.082813     3.075170     3.067527     3.059884     3.052240     3.044597     3.036954     3.029311     3.021667     3.014024
      3.006381     2.998738     2.991095     2.983451     2.975808     2.968165     2.960522     2.952878     2.945235     2.937592
      2.929949     2.922306     2.914662     2.907019     2.899376     2.891733     2.884089     2.876446     2.868803     2.861160
      2.853517     2.845873     2.838230     2.830587     2.822944     2.815300     2.807657     2.800014     2.792371     2.784728
      2.777084     2.769441     2.761798     2.754155     2.746511     2.738868     2.731225     2.723582     2.715939     2.708295
      2.700652     2.693009     2.685366     2.677722     2.670079     2.662436     2.654793     2.647150     2.639506     2.631863
      2.624220     2.616577     2.608933     2.601290     2.593647     2.586004     2.578361     2.570717     2.563074     2.555431
      2.547788     2.540144     2.532501     2.524858     2.517215     2.509572     2.501928     2.494285     2.486642     2.478999
      2.471355     2.463712     2.456069     2.448426     2.440783     2.433139     2.425496     2.417853     2.410210     2.402566
      2.394923     2.387280     2.379637     2.371994     2.364350     2.356707     2.349064     2.341421     2.333777     2.326134
      2.318491     2.310848     2.303205     2.295561     2.287918     2.280275     2.272632     2.264988     2.257345     2.249702
      2.242059     2.234416     2.226772     2.219129     2.211486     2.203843     2.196199     2.188556     2.180913     2.173270
      2.165627     2.157983     2.150340     2.142697     2.135054     2.127410     2.119767     2.112124     2.104481     2.096838
      2.089194     2.081551     2.073908     2.066265     2.058621     2.050978     2.043335     2.035692     2.028049     2.020405
      2.012762     2.005119     1.997476     1.989833     1.982190     1.974546     1.966903     1.959260     1.951617     1.943974
      1.936331     1.928688     1.921045     1.913402     1.905759     1.898115     1.890472     1.882829     1.875186     1.867543
      1.859900     1.852257     1.844614     1.836971     1.829327     1.821684     1.814041     1.806398     1.798755     1.791112
      1.783469     1.775826     1.768183     1.760540     1.752896     1.745253     1.737610     1.729967     1.722324     1.714681
      1.707038     1.699395     1.691752     1.684108     1.676465     1.668822     1.661179     1.653536     1.645893     1.638250
      1.630607     1.622964     1.615321     1.607677     1.600034     1.592391     1.584748     1.577105     1.569462     1.561819
      1.554176     1.546533     1.538890     1.531246     1.523603     1.515960     1.508317     1.500674     1.493031     1.485388
      1.477745     1.470102     1.462458     1.454815     1.447172     1.439529     1.431886     1.424243     1.416600     1.408957
      1.401314     1.393671     1.386027     1.378384     1.370741     1.363098     1.355455     1.347812     1.340169     1.332526
      1.324883     1.317240     1.309596     1.301953     1.294310     1.286667     1.279024     1.271381     1.263738     1.256095
      1.248452     1.240808     1.233165     1.225522     1.217879     1.210236     1.202593     1.194950     1.187307     1.179664
      1.172021     1.164377     1.156734     1.149091     1.141448     1.133805     1.126162     1.118519     1.110876     1.103233
      1.095590     1.087946     1.080303     1.072660     1.065017     1.057374     1.049731     1.042088     1.034445     1.026802
      1.019158     1.011515     1.003872     0.996229     0.988586     0.980943     0.973300     0.965657     0.958014     0.950371
      0.942727     0.935084     0.927441     0.919798     0.912155     0.904512     0.896869     0.889226     0.881583     0.873940
      0.866296     0.858653     0.851010     0.843367     0.835724     0.828081     0.820438     0.812795     0.805152     0.797508
      0.789865     0.782222     0.774579     0.766936     0.759293     0.751650     0.744007     0.736364     0.728721     0.721077
      0.713434     0.705791     0.698148     0.690505     0.682862     0.675219     0.667576     0.659933     0.652290     0.644646
      0.637003     0.629360     0.621717     0.614074     0.606431     0.598788     0.591145     0.583502     0.575858     0.568215
      0.560572     0.552929     0.545286     0.537643     0.530000     0.522357     0.514714     0.507071     0.499427     0.491784
      0.484141     0.476498     0.468855     0.461212     0.453569     0.445925     0.438282     0.430639     0.422996     0.415353
      0.407710     0.400067     0.392424     0.384780     0.377137     0.369494     0.361851     0.354208     0.346565     0.338922
      0.331278     0.323635     0.315992     0.308349     0.300706     0.293063     0.285420     0.277777     0.270133     0.262490
      0.254847     0.247204     0.239561     0.231918     0.224275     0.216631     0.208988     0.201345
 NY phased data points follow
   4.07158E+01  4.37859E+01  4.84845E+01  4.98625E+01  5.24014E+01  5.54451E+01  6.09829E+01  6.36924E+01  7.29617E+01  7.65317E+01
   8.47847E+01  7.55515E+01  7.24377E+01  6.03113E+01  5.84992E+01  5.76809E+01  4.52965E+01  4.23822E+01  4.28044E+01  3.90800E+01
   3.86251E+01  4.11389E+01  3.83358E+01  4.11740E+01  4.45971E+01  3.95711E+01  3.78538E+01  3.65795E+01  4.20181E+01  4.42433E+01
   3.99313E+01  4.72692E+01  4.34825E+01  4.22108E+01  3.76911E+01  3.50961E+01  3.29526E+01  3.65016E+01  3.57185E+01  3.52970E+01
   3.97489E+01  3.51945E+01  3.75071E+01  3.31265E+01  3.67687E+01  3.50890E+01  4.06191E+01  3.93292E+01  4.07798E+01  3.96874E+01
   3.57592E+01  3.02380E+01  2.95850E+01  2.92333E+01  3.20190E+01  3.30500E+01  2.95257E+01  3.10753E+01  2.50062E+01  2.86002E+01
   1.94746E+01  2.32797E+01  1.79609E+01  1.56977E+01  1.61276E+01  1.59198E+01  1.41924E+01  1.10031E+01  1.84351E+01  1.47022E+01
   1.63753E+01  1.45428E+01  2.05225E+01  1.63246E+01  1.95340E+01  1.54051E+01  1.90804E+01  1.94284E+01  1.51899E+01  1.64168E+01
   1.74730E+01  1.93310E+01  2.03620E+01  1.94269E+01  1.72238E+01  2.00729E+01  1.64309E+01  1.54852E+01  2.31192E+01  2.11409E+01
   2.44651E+01  2.31102E+01  2.05300E+01  2.63202E+01  2.74603E+01  2.75483E+01  2.89037E+01  3.65350E+01  3.35093E+01  3.71117E+01
   4.82174E+01  5.80170E+01  6.47870E+01  6.94648E+01  6.19357E+01  5.66749E+01  4.53704E+01  4.02039E+01  2.89000E+01  2.96305E+01
   2.53026E+01  2.48324E+01  2.26427E+01  2.43972E+01  2.41812E+01  2.76826E+01  2.72983E+01  3.04024E+01  2.55542E+01  3.56022E+01
   4.02305E+01  4.02029E+01  4.54727E+01  5.32687E+01  5.95953E+01  7.64840E+01  8.20605E+01  9.12128E+01  8.46507E+01  6.86100E+01
   5.82571E+01  5.15698E+01  4.49785E+01  3.66971E+01  3.55470E+01  3.10027E+01  3.01815E+01  2.44092E+01  2.69581E+01  3.11487E+01
   2.67889E+01  3.19922E+01  2.90384E+01  2.79408E+01  2.53692E+01  3.06520E+01  2.77056E+01  3.19530E+01  2.50702E+01  2.40312E+01
   3.13074E+01  2.87682E+01  2.47277E+01  3.00503E+01  2.96679E+01  2.82088E+01  2.25145E+01  2.74804E+01  2.94444E+01  3.08373E+01
   2.30353E+01  2.31753E+01  1.97266E+01  2.07690E+01  2.21388E+01  2.46705E+01  2.38897E+01  2.09567E+01  2.04081E+01  2.12679E+01
   1.62750E+01  2.27874E+01  2.13276E+01  1.77874E+01  1.54427E+01  1.51228E+01  1.45203E+01  1.88671E+01  1.96504E+01  2.19651E+01
   2.44504E+01  2.06512E+01  2.13773E+01  1.97229E+01  2.50460E+01  2.30932E+01  2.44864E+01  2.58577E+01  2.33842E+01  3.46166E+01
   3.41911E+01  3.47706E+01  3.60551E+01  3.19629E+01  4.25153E+01  3.89906E+01  3.55477E+01  3.16312E+01  3.54925E+01  3.40572E+01
   3.44713E+01  3.46529E+01  3.44105E+01  3.88046E+01  3.51555E+01  3.27412E+01  3.21124E+01  3.26294E+01  2.92893E+01  3.19554E+01
   3.16451E+01  3.25985E+01  3.82927E+01  3.54369E+01  4.20305E+01  4.59239E+01  4.27076E+01  4.70954E+01  4.42696E+01  3.69558E+01
   3.12080E+01  3.02593E+01  2.97251E+01  3.50961E+01  3.09978E+01  4.09894E+01  4.02342E+01  4.39462E+01  4.14122E+01  4.24487E+01
   4.01698E+01  3.74342E+01  4.17756E+01  3.84027E+01  3.69658E+01  3.56428E+01  3.91540E+01  3.58450E+01  3.35160E+01  3.69666E+01
   3.25530E+01  3.40313E+01  3.47584E+01  3.43890E+01  4.04038E+01  4.15439E+01  4.19841E+01  4.26803E+01  4.82902E+01  4.96533E+01
   5.18719E+01  5.21030E+01  5.03105E+01  6.67553E+01  7.21856E+01  7.95186E+01  8.43216E+01  8.89822E+01  1.10249E+02  1.28824E+02
   1.33156E+02  1.21773E+02  1.05666E+02  8.53402E+01  6.90243E+01  5.58532E+01  5.23695E+01  4.30720E+01  4.35008E+01  3.73504E+01
   3.70633E+01  3.31001E+01  3.28308E+01  3.30600E+01  3.70364E+01  2.86551E+01  3.08620E+01  2.98837E+01  3.23531E+01  3.14085E+01
   2.93704E+01  3.06348E+01  2.58711E+01  2.94260E+01  2.81705E+01  2.32147E+01  2.54013E+01  2.60004E+01  2.67502E+01  2.62706E+01
   2.91996E+01  2.37878E+01  2.94911E+01  2.28029E+01  2.64447E+01  1.74231E+01  1.99480E+01  2.54303E+01  2.61543E+01  2.15912E+01
   2.61631E+01  1.91994E+01  2.02761E+01  1.96454E+01  2.27336E+01  1.30730E+01  2.06255E+01  2.08129E+01  1.85611E+01  1.96434E+01
   1.94764E+01  1.72286E+01  1.54429E+01  1.67590E+01  1.06753E+01  1.42903E+01  1.18905E+01  1.37841E+01  1.04997E+01  8.61208E+00
   7.84517E+00  1.02096E+01  8.17312E+00  7.36140E+00  1.22289E+01  8.41737E+00  1.47036E+01  8.10718E+00  1.09911E+01  1.35407E+01
   1.14187E+01  1.46133E+01  1.43938E+01  1.53505E+01  9.69933E+00  1.77403E+01  1.82987E+01  1.71471E+01  2.00747E+01  2.09044E+01
   1.71121E+01  1.58641E+01  1.61857E+01  1.71549E+01  1.72201E+01  1.81382E+01  1.64536E+01  1.50245E+01  1.24864E+01  9.33449E+00
   1.21332E+01  1.05050E+01  9.85713E+00  1.09634E+01  1.22443E+01  1.11785E+01  1.24208E+01  9.61747E+00  1.32057E+01  7.28389E+00
   7.47232E+00  4.31866E+00  9.57776E+00  3.29737E+00  7.01964E+00  4.42362E+00  7.35124E+00  7.31620E+00  4.45322E+00  5.60427E+00
   1.79677E+00  3.64988E+00  2.01738E+00  4.44810E+00  2.59381E+00  1.36613E+00  2.37821E-01  3.45057E+00  1.35609E+00  2.05771E+00
  -7.60399E-01 -1.56470E+00 -3.06291E+00 -1.30233E-01  1.70928E+00 -3.36140E-01 -3.00744E-01  1.77972E+00  2.44399E+00  4.39563E+00
   4.01073E+00  5.64995E+00  6.00229E+00  3.97623E+00  3.89216E+00  1.01329E+01  7.68013E+00  7.68551E+00  7.01505E+00  6.80308E+00
   7.49680E+00  4.14253E+00  4.13534E+00  8.05715E+00  9.45096E+00  1.00175E+01  7.54608E+00  1.01281E+01  7.64944E+00  9.61738E+00
   7.45612E+00  5.78043E+00  7.38715E+00  8.35645E+00  6.51489E+00  4.08617E+00  6.02969E+00  9.28747E+00  4.89804E+00  2.62664E+00
   9.18397E+00  5.06501E+00  6.68035E+00  4.66717E+00  6.50079E+00  2.45355E+00  2.65075E+00  5.93358E+00  2.50836E+00  2.76765E+00
   8.30610E+00  3.14371E+00  2.06502E+00  6.32752E-01  8.90614E+00  4.71537E+00 -9.69063E-02  3.75746E+00 -1.11009E+00  5.13682E+00
   1.69196E+00 -1.01270E+00  9.67785E-01 -1.70443E-02  1.80505E+00  9.65564E-01  6.01061E+00  3.21855E+00  3.17135E-01  2.11915E+00
   7.24946E-01 -3.67219E-01  1.67151E+00  6.61152E+00  6.13663E+00 -1.53033E+00  5.75366E-01 -3.68142E+00  1.32120E+00  5.50872E-01
  -2.81010E+00  4.92046E+00 -9.54930E-01 -1.23761E+00 -4.21040E+00  7.50703E-01  1.53803E+00  2.75484E+00  3.01467E+00  2.78282E+00
  -4.65226E-02 -1.55751E+00 -2.07330E+00  1.92814E+00  4.58028E+00  1.51381E-01  3.10548E+00 -3.90171E+00  6.13598E-01  1.49760E+00
  -1.25060E-01 -1.47312E+00  1.81636E+00 -1.29793E+00 -1.43154E+00 -1.82765E+00 -7.81892E-01 -4.57984E+00 -2.23499E+00  1.46960E+00
  -2.05096E+00 -3.45670E+00 -2.15935E-01 -3.47403E+00  2.21571E+00 -1.41875E+00 -6.13920E-01 -4.37708E+00
 NY points of the fit to the data follow
   4.23389E+01  4.31429E+01  4.54877E+01  4.83834E+01  5.20530E+01  5.60925E+01  6.06297E+01  6.63534E+01  7.28089E+01  7.81104E+01
   8.00189E+01  7.75142E+01  7.15067E+01  6.40793E+01  5.72065E+01  5.18175E+01  4.77245E+01  4.44866E+01  4.20336E+01  4.00673E+01
   3.88402E+01  3.78856E+01  3.72889E+01  3.76771E+01  3.81781E+01  3.82202E+01  3.83279E+01  3.94290E+01  4.16983E+01  4.42890E+01
   4.61778E+01  4.66203E+01  4.54600E+01  4.30739E+01  3.99026E+01  3.67237E+01  3.42682E+01  3.25212E+01  3.15077E+01  3.15402E+01
   3.21881E+01  3.28027E+01  3.30721E+01  3.31871E+01  3.33103E+01  3.34442E+01  3.34753E+01  3.32242E+01  3.26384E+01  3.18001E+01
   3.07578E+01  2.96751E+01  2.87916E+01  2.81127E+01  2.75276E+01  2.70320E+01  2.66382E+01  2.63488E+01  2.61368E+01  2.59599E+01
   2.57289E+01  2.53717E+01  2.48883E+01  2.43463E+01  2.38682E+01  2.35528E+01  2.33671E+01  2.32442E+01  2.31620E+01  2.31156E+01
   2.30838E+01  2.30290E+01  2.29115E+01  2.27248E+01  2.24927E+01  2.22502E+01  2.20285E+01  2.18391E+01  2.16784E+01  2.15116E+01
   2.13056E+01  2.10878E+01  2.08795E+01  2.06843E+01  2.04683E+01  2.02071E+01  1.99327E+01  1.97244E+01  1.96465E+01  1.97378E+01
   1.99646E+01  2.02630E+01  2.06111E+01  2.10447E+01  2.17633E+01  2.39867E+01  2.92813E+01  3.39498E+01  3.67687E+01  4.06208E+01
   4.80639E+01  5.80467E+01  6.62051E+01  6.85002E+01  6.41001E+01  5.54339E+01  4.60375E+01  3.83444E+01  3.30813E+01  2.95972E+01
   2.66332E+01  2.40911E+01  2.31194E+01  2.30081E+01  2.31166E+01  2.33511E+01  2.37004E+01  2.42187E+01  2.52174E+01  2.84175E+01
   3.56000E+01  4.19074E+01  4.60554E+01  5.17623E+01  6.20888E+01  7.53998E+01  8.60431E+01  8.89216E+01  8.29607E+01  7.14870E+01
   5.93156E+01  4.95447E+01  4.28505E+01  3.80282E+01  3.33192E+01  2.89266E+01  2.65881E+01  2.57340E+01  2.57763E+01  2.64484E+01
   2.73341E+01  2.80196E+01  2.83512E+01  2.83602E+01  2.81184E+01  2.77814E+01  2.74694E+01  2.71720E+01  2.68878E+01  2.66492E+01
   2.64530E+01  2.63077E+01  2.61804E+01  2.59845E+01  2.56800E+01  2.55580E+01  2.56834E+01  2.58772E+01  2.58876E+01  2.54188E+01
   2.47955E+01  2.45560E+01  2.48773E+01  2.54410E+01  2.57943E+01  2.56872E+01  2.51581E+01  2.44616E+01  2.38364E+01  2.33219E+01
   2.30944E+01  2.31696E+01  2.31327E+01  2.27395E+01  2.21305E+01  2.18470E+01  2.21852E+01  2.29160E+01  2.34677E+01  2.35219E+01
   2.32658E+01  2.33443E+01  2.39033E+01  2.46686E+01  2.53714E+01  2.60007E+01  2.68337E+01  2.81352E+01  2.99158E+01  3.18155E+01
   3.32288E+01  3.36725E+01  3.34544E+01  3.29966E+01  3.24783E+01  3.19052E+01  3.14569E+01  3.15263E+01  3.21641E+01  3.32582E+01
   3.45576E+01  3.58654E+01  3.68039E+01  3.69791E+01  3.65943E+01  3.55421E+01  3.36706E+01  3.15060E+01  2.98346E+01  2.94411E+01
   2.98693E+01  3.07793E+01  3.25138E+01  3.51982E+01  3.80936E+01  3.98230E+01  3.97159E+01  3.82792E+01  3.59724E+01  3.28989E+01
   2.98244E+01  2.76880E+01  2.72247E+01  2.85950E+01  3.10995E+01  3.40325E+01  3.67064E+01  3.85925E+01  3.94516E+01  3.95171E+01
   3.94011E+01  3.93108E+01  3.91910E+01  3.92430E+01  3.96979E+01  4.03492E+01  4.08867E+01  4.11864E+01  4.11210E+01  4.05747E+01
   3.95125E+01  3.83873E+01  3.78189E+01  3.81160E+01  3.91175E+01  4.04399E+01  4.18168E+01  4.29688E+01  4.40171E+01  4.54397E+01
   4.67184E+01  4.79009E+01  5.13090E+01  6.17936E+01  7.36625E+01  8.08227E+01  8.64481E+01  9.62960E+01  1.11132E+02  1.24839E+02
   1.29780E+02  1.22811E+02  1.06906E+02  8.81051E+01  7.15618E+01  5.96700E+01  5.16898E+01  4.51159E+01  3.88796E+01  3.52169E+01
   3.36812E+01  3.27298E+01  3.20795E+01  3.16157E+01  3.11665E+01  3.06369E+01  3.00554E+01  2.94475E+01  2.88425E+01  2.82803E+01
   2.77880E+01  2.73617E+01  2.69971E+01  2.66866E+01  2.64130E+01  2.61607E+01  2.59117E+01  2.56657E+01  2.54362E+01  2.52319E+01
   2.50509E+01  2.48851E+01  2.47168E+01  2.45327E+01  2.43176E+01  2.40610E+01  2.37577E+01  2.34089E+01  2.30224E+01  2.26055E+01
   2.21631E+01  2.16994E+01  2.12122E+01  2.06998E+01  2.01639E+01  1.96104E+01  1.90476E+01  1.84818E+01  1.79169E+01  1.73606E+01
   1.68195E+01  1.62984E+01  1.58011E+01  1.53308E+01  1.48903E+01  1.44831E+01  1.41121E+01  1.37800E+01  1.34885E+01  1.32393E+01
   1.30349E+01  1.28780E+01  1.27711E+01  1.27156E+01  1.27123E+01  1.27617E+01  1.28640E+01  1.30181E+01  1.32213E+01  1.34690E+01
   1.37549E+01  1.40715E+01  1.44106E+01  1.47626E+01  1.51166E+01  1.54617E+01  1.57889E+01  1.60934E+01  1.63807E+01  1.66869E+01
   1.70566E+01  1.72223E+01  1.70912E+01  1.69158E+01  1.68139E+01  1.66013E+01  1.59422E+01  1.47323E+01  1.33820E+01  1.21173E+01
   1.09976E+01  1.01721E+01  9.82708E+00  1.00083E+01  1.04886E+01  1.09313E+01  1.11111E+01  1.08688E+01  1.02399E+01  9.42317E+00
   8.59030E+00  7.82544E+00  7.10013E+00  6.37765E+00  5.75761E+00  5.26063E+00  4.84914E+00  4.50235E+00  4.20601E+00  3.94886E+00
   3.72227E+00  3.52005E+00  3.33808E+00  3.17367E+00  3.02529E+00  2.89243E+00  2.77561E+00  2.67601E+00  2.59506E+00  2.53412E+00
   2.49461E+00  2.47819E+00  2.48682E+00  2.52254E+00  2.58710E+00  2.68199E+00  2.80862E+00  2.96841E+00  3.16265E+00  3.39219E+00
   3.65708E+00  3.95662E+00  4.28945E+00  4.65355E+00  5.04590E+00  5.46222E+00  5.89684E+00  6.34297E+00  6.79297E+00  7.23845E+00
   7.67030E+00  8.07876E+00  8.45386E+00  8.78607E+00  9.06674E+00  9.28845E+00  9.44501E+00  9.53178E+00  9.54601E+00  9.48719E+00
   9.35705E+00  9.15931E+00  8.89931E+00  8.58374E+00  8.22059E+00  7.81889E+00  7.38817E+00  6.93790E+00  6.47702E+00  6.01378E+00
   5.55575E+00  5.10966E+00  4.68110E+00  4.27433E+00  3.89229E+00  3.53692E+00  3.20939E+00  2.91014E+00  2.63886E+00  2.39449E+00
   2.17547E+00  1.98011E+00  1.80673E+00  1.65360E+00  1.51879E+00  1.40028E+00  1.29614E+00  1.20472E+00  1.12466E+00  1.05466E+00
   9.93323E-01  9.39329E-01  8.91560E-01  8.49202E-01  8.11588E-01  7.77999E-01  7.47619E-01  7.19701E-01  6.93726E-01  6.69373E-01
   6.46330E-01  6.24138E-01  6.02262E-01  5.80326E-01  5.58267E-01  5.36129E-01  5.13853E-01  4.91220E-01  4.67996E-01  4.44112E-01
   4.19670E-01  3.94766E-01  3.69335E-01  3.43193E-01  3.16223E-01  2.88492E-01  2.60159E-01  2.31294E-01  2.01796E-01  1.71516E-01
   1.40445E-01  1.08737E-01  7.65552E-02  4.39122E-02  1.06812E-02 -2.32263E-02 -5.77269E-02 -9.26277E-02 -1.27812E-01 -1.63334E-01
  -1.99317E-01 -2.35768E-01 -2.72527E-01 -3.09402E-01 -3.46346E-01 -3.83459E-01 -4.20825E-01 -4.58367E-01 -4.95878E-01 -5.33212E-01
  -5.70395E-01 -6.07544E-01 -6.44672E-01 -6.81621E-01 -7.18178E-01 -7.54264E-01 -7.89965E-01 -8.25370E-01
 NY background values follow
     3.939E+01    3.910E+01    3.881E+01    3.852E+01    3.823E+01    3.794E+01    3.765E+01    3.736E+01    3.707E+01    3.677E+01
     3.648E+01    3.618E+01    3.589E+01    3.560E+01    3.530E+01    3.501E+01    3.471E+01    3.442E+01    3.413E+01    3.383E+01
     3.354E+01    3.325E+01    3.296E+01    3.267E+01    3.238E+01    3.209E+01    3.180E+01    3.152E+01    3.123E+01    3.095E+01
     3.067E+01    3.039E+01    3.011E+01    2.983E+01    2.956E+01    2.929E+01    2.901E+01    2.875E+01    2.848E+01    2.821E+01
     2.795E+01    2.769E+01    2.744E+01    2.718E+01    2.693E+01    2.668E+01    2.643E+01    2.619E+01    2.595E+01    2.571E+01
     2.548E+01    2.525E+01    2.502E+01    2.480E+01    2.458E+01    2.437E+01    2.415E+01    2.395E+01    2.374E+01    2.354E+01
     2.334E+01    2.315E+01    2.296E+01    2.278E+01    2.260E+01    2.243E+01    2.226E+01    2.209E+01    2.193E+01    2.177E+01
     2.162E+01    2.148E+01    2.134E+01    2.120E+01    2.107E+01    2.095E+01    2.083E+01    2.071E+01    2.061E+01    2.050E+01
     2.041E+01    2.032E+01    2.023E+01    2.015E+01    2.008E+01    2.001E+01    1.995E+01    1.990E+01    1.985E+01    1.981E+01
     1.978E+01    1.975E+01    1.973E+01    1.971E+01    1.971E+01    1.970E+01    1.971E+01    1.972E+01    1.973E+01    1.976E+01
     1.978E+01    1.981E+01    1.985E+01    1.989E+01    1.994E+01    1.999E+01    2.005E+01    2.011E+01    2.017E+01    2.024E+01
     2.031E+01    2.039E+01    2.047E+01    2.055E+01    2.063E+01    2.072E+01    2.081E+01    2.091E+01    2.101E+01    2.111E+01
     2.121E+01    2.131E+01    2.142E+01    2.152E+01    2.163E+01    2.174E+01    2.185E+01    2.197E+01    2.208E+01    2.220E+01
     2.231E+01    2.243E+01    2.254E+01    2.266E+01    2.278E+01    2.289E+01    2.301E+01    2.312E+01    2.324E+01    2.335E+01
     2.347E+01    2.358E+01    2.370E+01    2.381E+01    2.393E+01    2.404E+01    2.415E+01    2.427E+01    2.438E+01    2.449E+01
     2.460E+01    2.472E+01    2.483E+01    2.494E+01    2.506E+01    2.517E+01    2.528E+01    2.539E+01    2.551E+01    2.562E+01
     2.573E+01    2.584E+01    2.596E+01    2.607E+01    2.618E+01    2.630E+01    2.641E+01    2.653E+01    2.664E+01    2.675E+01
     2.687E+01    2.698E+01    2.710E+01    2.721E+01    2.733E+01    2.745E+01    2.756E+01    2.768E+01    2.780E+01    2.792E+01
     2.803E+01    2.815E+01    2.827E+01    2.839E+01    2.851E+01    2.863E+01    2.875E+01    2.887E+01    2.899E+01    2.910E+01
     2.922E+01    2.934E+01    2.945E+01    2.957E+01    2.968E+01    2.979E+01    2.990E+01    3.000E+01    3.011E+01    3.021E+01
     3.031E+01    3.040E+01    3.050E+01    3.059E+01    3.068E+01    3.076E+01    3.084E+01    3.092E+01    3.099E+01    3.106E+01
     3.113E+01    3.119E+01    3.124E+01    3.130E+01    3.134E+01    3.138E+01    3.142E+01    3.145E+01    3.148E+01    3.150E+01
     3.152E+01    3.152E+01    3.153E+01    3.152E+01    3.151E+01    3.150E+01    3.148E+01    3.145E+01    3.141E+01    3.137E+01
     3.132E+01    3.126E+01    3.120E+01    3.113E+01    3.105E+01    3.097E+01    3.088E+01    3.079E+01    3.069E+01    3.058E+01
     3.047E+01    3.035E+01    3.022E+01    3.010E+01    2.996E+01    2.982E+01    2.967E+01    2.952E+01    2.937E+01    2.920E+01
     2.904E+01    2.887E+01    2.869E+01    2.851E+01    2.832E+01    2.813E+01    2.793E+01    2.773E+01    2.753E+01    2.732E+01
     2.711E+01    2.689E+01    2.667E+01    2.644E+01    2.621E+01    2.598E+01    2.574E+01    2.550E+01    2.525E+01    2.500E+01
     2.475E+01    2.449E+01    2.423E+01    2.397E+01    2.370E+01    2.344E+01    2.316E+01    2.289E+01    2.261E+01    2.233E+01
     2.205E+01    2.176E+01    2.148E+01    2.119E+01    2.090E+01    2.061E+01    2.031E+01    2.002E+01    1.972E+01    1.942E+01
     1.912E+01    1.882E+01    1.852E+01    1.821E+01    1.791E+01    1.761E+01    1.730E+01    1.700E+01    1.669E+01    1.639E+01
     1.608E+01    1.578E+01    1.548E+01    1.517E+01    1.487E+01    1.457E+01    1.426E+01    1.396E+01    1.366E+01    1.336E+01
     1.307E+01    1.277E+01    1.247E+01    1.218E+01    1.189E+01    1.160E+01    1.131E+01    1.103E+01    1.075E+01    1.047E+01
     1.019E+01    9.911E+00    9.637E+00    9.366E+00    9.098E+00    8.831E+00    8.568E+00    8.307E+00    8.048E+00    7.792E+00
     7.540E+00    7.289E+00    7.042E+00    6.797E+00    6.556E+00    6.317E+00    6.082E+00    5.849E+00    5.619E+00    5.393E+00
     5.170E+00    4.950E+00    4.733E+00    4.520E+00    4.309E+00    4.103E+00    3.899E+00    3.700E+00    3.503E+00    3.311E+00
     3.122E+00    2.936E+00    2.754E+00    2.576E+00    2.402E+00    2.232E+00    2.065E+00    1.902E+00    1.744E+00    1.589E+00
     1.438E+00    1.292E+00    1.150E+00    1.011E+00    8.770E-01    7.469E-01    6.208E-01    4.987E-01    3.805E-01    2.662E-01
     1.557E-01    4.915E-02   -5.366E-02   -1.527E-01   -2.480E-01   -3.397E-01   -4.277E-01   -5.121E-01   -5.930E-01   -6.703E-01
    -7.442E-01   -8.146E-01   -8.815E-01   -9.452E-01   -1.005E+00   -1.062E+00   -1.116E+00   -1.167E+00   -1.214E+00   -1.258E+00
    -1.299E+00   -1.337E+00   -1.372E+00   -1.404E+00   -1.433E+00   -1.459E+00   -1.482E+00   -1.502E+00   -1.520E+00   -1.535E+00
    -1.547E+00   -1.556E+00   -1.563E+00   -1.567E+00   -1.568E+00   -1.567E+00   -1.564E+00   -1.558E+00   -1.549E+00   -1.538E+00
    -1.526E+00   -1.510E+00   -1.493E+00   -1.475E+00   -1.454E+00   -1.431E+00   -1.407E+00   -1.382E+00   -1.355E+00   -1.327E+00
    -1.298E+00   -1.267E+00   -1.236E+00   -1.204E+00   -1.171E+00   -1.137E+00   -1.103E+00   -1.068E+00   -1.033E+00   -9.979E-01
    -9.625E-01   -9.270E-01   -8.916E-01   -8.563E-01   -8.213E-01   -7.867E-01   -7.525E-01   -7.189E-01   -6.860E-01   -6.538E-01
    -6.226E-01   -5.923E-01   -5.630E-01   -5.350E-01   -5.082E-01   -4.829E-01   -4.590E-01   -4.367E-01   -4.161E-01   -3.973E-01
    -3.804E-01   -3.655E-01   -3.527E-01   -3.421E-01   -3.336E-01   -3.272E-01   -3.228E-01   -3.203E-01   -3.198E-01   -3.210E-01
    -3.241E-01   -3.289E-01   -3.354E-01   -3.436E-01   -3.533E-01   -3.645E-01   -3.771E-01   -3.912E-01   -4.066E-01   -4.234E-01
    -4.413E-01   -4.604E-01   -4.807E-01   -5.020E-01   -5.244E-01   -5.477E-01   -5.719E-01   -5.970E-01   -6.229E-01   -6.495E-01
    -6.768E-01   -7.047E-01   -7.332E-01   -7.622E-01   -7.917E-01   -8.215E-01   -8.518E-01   -8.823E-01   -9.131E-01   -9.440E-01
    -9.751E-01   -1.006E+00   -1.037E+00   -1.069E+00   -1.100E+00   -1.131E+00   -1.161E+00   -1.192E+00
 Cr       Conc. = 1.02E+03
