 LCModel (Version 6.3-1L) Copyright: S.W. Provencher.          Ref.: Magn. Reson. Med. 30:672-679 (1993).                
 Slice#3 Row#1 Col#12  K_02_press_1_raw_act
 36 lines in following concentration table = NCONC+1
    Conc.  %SD /Cr+PCr  Metabolite                                         
 4.02E+03  24%  40.045 Ala                                                 
    5.631 100% 5.6E-02 Asp                                                 
    0.000 999%   0.000 Cr                                                  
  100.394  60%   1.000 PCr                                                 
    3.392  99% 3.4E-02 GABA                                                
    3.401  99% 3.4E-02 Glc                                                 
 1.58E+03  36%  15.745 Gln                                                 
 1.62E+03  42%  16.172 Glu                                                 
    0.000 999%   0.000 GPC                                                 
    4.239 544% 4.2E-02 PCh                                                 
    0.000 999%   0.000 GSH                                                 
   98.028 281%   0.976 Ins                                                 
 5.70E+03  25%  56.791 Lac                                                 
    0.000 999%   0.000 NAA                                                 
    0.000 999%   0.000 NAAG                                                
    1.142  98% 1.1E-02 Scyllo                                              
    5.689  99% 5.7E-02 Tau                                                 
   10.015  64%   0.100 -CrCH2                                              
    4.239 544% 4.2E-02 GPC+PCh                                             
    0.000 999%   0.000 NAA+NAAG                                            
  100.394  60%   1.000 Cr+PCr                                              
 3.20E+03  33%  31.917 Glu+Gln                                             
 1.27E+04   4% 126.747 Lip13a                                              
    0.000 999%   0.000 Lip13b                                              
 2.20E+03  13%  21.879 Lip09                                               
    0.000 999%   0.000 MM09                                                
    0.000 999%   0.000 Lip20                                               
    0.000 999%   0.000 MM20                                                
 5.75E+03  13%  57.253 MM12                                                
 1.78E+04   8% 177.736 MM14                                                
 1.04E+03  30%  10.353 MM17                                                
 1.27E+04   4% 126.747 Lip13a+Lip13b                                       
 3.63E+04   4% 361.737 MM14+Lip13a+Lip13b+MM12                             
 2.20E+03  13%  21.879 MM09+Lip09                                          
    0.000 999%   0.000 MM20+Lip20                                          
   6 lines in following misc. output table
  FWHM = 0.138 ppm    S/N =  36                                            
  Data shift =-0.092 ppm                                                   
  Ph: -25 deg      85.5 deg/ppm                                            
  alphaB,S = 1.0E+01,   1.9E+02                                            
    7 spline knots.   Ns = 9(2)                                            
  ( 4) 2 infls.   ( 1) 1 extrs.                                            
  498 points on ppm-axis = NY
      4.000000     3.992357     3.984714     3.977070     3.969427     3.961784     3.954141     3.946497     3.938854     3.931211
      3.923568     3.915925     3.908281     3.900638     3.892995     3.885352     3.877708     3.870065     3.862422     3.854779
      3.847136     3.839492     3.831849     3.824206     3.816563     3.808919     3.801276     3.793633     3.785990     3.778347
      3.770703     3.763060     3.755417     3.747774     3.740130     3.732487     3.724844     3.717201     3.709558     3.701914
      3.694271     3.686628     3.678985     3.671341     3.663698     3.656055     3.648412     3.640769     3.633125     3.625482
      3.617839     3.610196     3.602552     3.594909     3.587266     3.579623     3.571980     3.564336     3.556693     3.549050
      3.541407     3.533763     3.526120     3.518477     3.510834     3.503191     3.495547     3.487904     3.480261     3.472618
      3.464974     3.457331     3.449688     3.442045     3.434402     3.426758     3.419115     3.411472     3.403829     3.396185
      3.388542     3.380899     3.373256     3.365613     3.357969     3.350326     3.342683     3.335040     3.327396     3.319753
      3.312110     3.304467     3.296824     3.289180     3.281537     3.273894     3.266251     3.258607     3.250964     3.243321
      3.235678     3.228034     3.220391     3.212748     3.205105     3.197462     3.189818     3.182175     3.174532     3.166889
      3.159245     3.151602     3.143959     3.136316     3.128673     3.121029     3.113386     3.105743     3.098100     3.090456
      3.082813     3.075170     3.067527     3.059884     3.052240     3.044597     3.036954     3.029311     3.021667     3.014024
      3.006381     2.998738     2.991095     2.983451     2.975808     2.968165     2.960522     2.952878     2.945235     2.937592
      2.929949     2.922306     2.914662     2.907019     2.899376     2.891733     2.884089     2.876446     2.868803     2.861160
      2.853517     2.845873     2.838230     2.830587     2.822944     2.815300     2.807657     2.800014     2.792371     2.784728
      2.777084     2.769441     2.761798     2.754155     2.746511     2.738868     2.731225     2.723582     2.715939     2.708295
      2.700652     2.693009     2.685366     2.677722     2.670079     2.662436     2.654793     2.647150     2.639506     2.631863
      2.624220     2.616577     2.608933     2.601290     2.593647     2.586004     2.578361     2.570717     2.563074     2.555431
      2.547788     2.540144     2.532501     2.524858     2.517215     2.509572     2.501928     2.494285     2.486642     2.478999
      2.471355     2.463712     2.456069     2.448426     2.440783     2.433139     2.425496     2.417853     2.410210     2.402566
      2.394923     2.387280     2.379637     2.371994     2.364350     2.356707     2.349064     2.341421     2.333777     2.326134
      2.318491     2.310848     2.303205     2.295561     2.287918     2.280275     2.272632     2.264988     2.257345     2.249702
      2.242059     2.234416     2.226772     2.219129     2.211486     2.203843     2.196199     2.188556     2.180913     2.173270
      2.165627     2.157983     2.150340     2.142697     2.135054     2.127410     2.119767     2.112124     2.104481     2.096838
      2.089194     2.081551     2.073908     2.066265     2.058621     2.050978     2.043335     2.035692     2.028049     2.020405
      2.012762     2.005119     1.997476     1.989833     1.982190     1.974546     1.966903     1.959260     1.951617     1.943974
      1.936331     1.928688     1.921045     1.913402     1.905759     1.898115     1.890472     1.882829     1.875186     1.867543
      1.859900     1.852257     1.844614     1.836971     1.829327     1.821684     1.814041     1.806398     1.798755     1.791112
      1.783469     1.775826     1.768183     1.760540     1.752896     1.745253     1.737610     1.729967     1.722324     1.714681
      1.707038     1.699395     1.691752     1.684108     1.676465     1.668822     1.661179     1.653536     1.645893     1.638250
      1.630607     1.622964     1.615321     1.607677     1.600034     1.592391     1.584748     1.577105     1.569462     1.561819
      1.554176     1.546533     1.538890     1.531246     1.523603     1.515960     1.508317     1.500674     1.493031     1.485388
      1.477745     1.470102     1.462458     1.454815     1.447172     1.439529     1.431886     1.424243     1.416600     1.408957
      1.401314     1.393671     1.386027     1.378384     1.370741     1.363098     1.355455     1.347812     1.340169     1.332526
      1.324883     1.317240     1.309596     1.301953     1.294310     1.286667     1.279024     1.271381     1.263738     1.256095
      1.248452     1.240808     1.233165     1.225522     1.217879     1.210236     1.202593     1.194950     1.187307     1.179664
      1.172021     1.164377     1.156734     1.149091     1.141448     1.133805     1.126162     1.118519     1.110876     1.103233
      1.095590     1.087946     1.080303     1.072660     1.065017     1.057374     1.049731     1.042088     1.034445     1.026802
      1.019158     1.011515     1.003872     0.996229     0.988586     0.980943     0.973300     0.965657     0.958014     0.950371
      0.942727     0.935084     0.927441     0.919798     0.912155     0.904512     0.896869     0.889226     0.881583     0.873940
      0.866296     0.858653     0.851010     0.843367     0.835724     0.828081     0.820438     0.812795     0.805152     0.797508
      0.789865     0.782222     0.774579     0.766936     0.759293     0.751650     0.744007     0.736364     0.728721     0.721077
      0.713434     0.705791     0.698148     0.690505     0.682862     0.675219     0.667576     0.659933     0.652290     0.644646
      0.637003     0.629360     0.621717     0.614074     0.606431     0.598788     0.591145     0.583502     0.575858     0.568215
      0.560572     0.552929     0.545286     0.537643     0.530000     0.522357     0.514714     0.507071     0.499427     0.491784
      0.484141     0.476498     0.468855     0.461212     0.453569     0.445925     0.438282     0.430639     0.422996     0.415353
      0.407710     0.400067     0.392424     0.384780     0.377137     0.369494     0.361851     0.354208     0.346565     0.338922
      0.331278     0.323635     0.315992     0.308349     0.300706     0.293063     0.285420     0.277777     0.270133     0.262490
      0.254847     0.247204     0.239561     0.231918     0.224275     0.216631     0.208988     0.201345
 NY phased data points follow
   1.64712E+01  1.60498E+01  1.49404E+01  1.43173E+01  1.52197E+01  1.35568E+01  1.25414E+01  1.27146E+01  1.35981E+01  1.24042E+01
   1.38660E+01  1.36852E+01  1.12143E+01  1.65636E+01  1.37425E+01  1.37416E+01  1.16555E+01  1.20064E+01  1.75177E+01  8.16222E+00
   8.99875E+00  1.62944E+01  1.15679E+01  1.25118E+01  8.22306E+00  8.02530E+00  1.20816E+01  1.10139E+01  7.05992E+00  6.21937E+00
   1.17650E+01  9.40917E+00  7.82840E+00  7.80308E+00  1.33129E+01  1.42024E+01  7.54871E+00  9.65914E+00  9.51485E+00  5.98011E+00
   7.06030E+00  3.47202E+00  8.84564E+00  5.55017E+00  6.79176E+00  5.56663E+00  5.18638E+00  7.17280E-01  6.69100E+00  3.86674E+00
   6.65145E+00  2.85709E+00  5.26358E+00  3.74643E+00  8.15750E+00  3.86439E+00  5.08706E+00  5.07466E+00  5.88362E+00  5.67393E+00
   1.31334E+00  3.30752E+00  3.97442E+00  4.66567E+00  3.54453E+00  2.97162E+00  3.44607E+00  4.00984E+00  3.52249E+00  8.82086E-01
   2.58820E+00  2.83333E+00  2.69694E+00  6.53505E-01  1.05881E+00 -1.22736E+00  7.16534E-01  1.51364E+00  7.92762E-01  2.86690E+00
  -2.83138E-01 -3.85850E-01  1.28846E+00  5.53058E-02  8.57203E+00 -1.04190E-01  2.08189E+00 -3.16662E+00  2.16328E+00 -3.73674E+00
   7.83842E-01  7.17845E-01 -4.16822E+00 -1.64392E+00 -2.28775E-01 -3.96741E+00 -6.30066E-01 -4.01373E+00 -7.02062E+00 -4.68529E+00
  -3.45116E+00 -4.92871E+00 -7.05496E+00 -1.87682E+00 -2.64679E+00 -3.81035E+00 -7.21687E+00 -2.62310E+00 -4.58164E+00 -5.79227E+00
  -3.28358E+00 -6.65756E+00 -3.29214E+00 -8.00907E+00 -6.33451E+00 -7.85042E+00 -7.94109E+00 -3.71626E+00 -1.05960E+01 -5.81861E+00
  -4.82308E+00 -7.28142E+00 -8.31075E+00 -4.38720E+00 -8.99166E+00 -6.61949E+00 -6.44897E+00 -6.82902E+00 -7.73183E+00 -7.38974E+00
  -9.25374E+00 -3.81759E+00 -1.01981E+01 -8.50812E+00 -8.52359E+00 -7.31912E+00 -8.47905E+00 -1.01319E+01 -1.12818E+01 -8.38662E+00
  -9.98799E+00 -9.07263E+00 -9.36876E+00 -1.14906E+01 -1.11457E+01 -1.16358E+01 -4.12952E+00 -1.07715E+01 -6.61001E+00 -1.02602E+01
  -8.91698E+00 -9.91725E+00 -1.07971E+01 -1.17796E+01 -1.12621E+01 -1.36595E+01 -1.13210E+01 -1.42191E+01 -1.26638E+01 -1.50316E+01
  -8.27573E+00 -1.33997E+01 -1.34264E+01 -1.24885E+01 -1.30858E+01 -1.08904E+01 -1.14815E+01 -1.02121E+01 -1.38472E+01 -1.59901E+01
  -1.47897E+01 -1.32760E+01 -1.34189E+01 -1.52324E+01 -1.42189E+01 -1.50546E+01 -1.05065E+01 -1.62293E+01 -1.63886E+01 -1.95637E+01
  -1.79723E+01 -1.71605E+01 -1.25504E+01 -1.64665E+01 -1.70040E+01 -1.60240E+01 -1.63696E+01 -1.61654E+01 -1.85768E+01 -1.97361E+01
  -1.51545E+01 -2.13351E+01 -2.04059E+01 -2.38753E+01 -1.90323E+01 -2.03385E+01 -1.74348E+01 -2.14633E+01 -1.99201E+01 -2.23240E+01
  -1.96821E+01 -1.95081E+01 -1.97913E+01 -2.06231E+01 -2.15591E+01 -1.91459E+01 -2.64412E+01 -2.10644E+01 -2.26067E+01 -2.48657E+01
  -2.22986E+01 -2.38462E+01 -2.16946E+01 -2.21892E+01 -2.30723E+01 -2.06414E+01 -1.65815E+01 -2.03518E+01 -2.04979E+01 -2.18766E+01
  -2.59406E+01 -2.13979E+01 -2.45708E+01 -1.90683E+01 -2.45030E+01 -2.09845E+01 -2.45366E+01 -2.59920E+01 -2.51270E+01 -2.53812E+01
  -1.93850E+01 -2.41912E+01 -2.10816E+01 -1.89959E+01 -2.42181E+01 -2.45300E+01 -2.15919E+01 -2.34154E+01 -2.43085E+01 -2.07825E+01
  -2.35550E+01 -2.42951E+01 -2.30043E+01 -2.17593E+01 -2.27762E+01 -2.46644E+01 -2.20193E+01 -2.27901E+01 -2.45472E+01 -2.46646E+01
  -2.28150E+01 -2.63763E+01 -2.84020E+01 -2.62019E+01 -2.56276E+01 -2.00533E+01 -2.61949E+01 -2.68110E+01 -2.49059E+01 -2.46109E+01
  -2.23303E+01 -2.47850E+01 -2.36756E+01 -2.74554E+01 -2.24296E+01 -2.55691E+01 -2.12979E+01 -2.30120E+01 -2.13962E+01 -2.26228E+01
  -2.02192E+01 -1.72404E+01 -1.70482E+01 -1.97176E+01 -1.62040E+01 -1.89893E+01 -1.94001E+01 -1.64752E+01 -1.47967E+01 -2.22699E+01
  -2.10991E+01 -2.01274E+01 -1.97892E+01 -1.90014E+01 -2.02803E+01 -1.89397E+01 -2.14550E+01 -2.16671E+01 -1.84497E+01 -1.81202E+01
  -1.75754E+01 -1.76664E+01 -2.13219E+01 -1.90178E+01 -1.93001E+01 -1.67192E+01 -1.52161E+01 -1.42737E+01 -1.85489E+01 -1.13620E+01
  -1.59733E+01 -1.29858E+01 -1.30629E+01 -9.63244E+00 -1.10858E+01 -8.65545E+00 -9.69882E+00 -5.18125E+00 -4.59222E+00  6.18820E-01
  -3.58229E+00 -2.46361E-02 -1.50922E+00  2.98058E+00  4.96732E+00  9.38826E+00  7.74305E+00  9.91176E+00  1.64581E+01  1.61437E+01
   2.28664E+01  2.64839E+01  2.63244E+01  3.19786E+01  3.22711E+01  3.75215E+01  4.55244E+01  4.97239E+01  5.31831E+01  5.81913E+01
   6.53523E+01  7.02888E+01  7.60127E+01  8.20678E+01  9.03442E+01  9.58272E+01  1.01079E+02  1.12606E+02  1.19805E+02  1.29512E+02
   1.33868E+02  1.42819E+02  1.53020E+02  1.54196E+02  1.62357E+02  1.66848E+02  1.64617E+02  1.68356E+02  1.64608E+02  1.65441E+02
   1.60199E+02  1.53272E+02  1.41912E+02  1.38581E+02  1.28590E+02  1.22921E+02  1.13545E+02  1.12058E+02  1.01181E+02  9.21347E+01
   8.53157E+01  7.66983E+01  7.05867E+01  6.27186E+01  5.32654E+01  5.02803E+01  4.11574E+01  3.25038E+01  2.99023E+01  2.33374E+01
   2.05562E+01  1.46140E+01  1.46989E+01  1.24383E+01  9.32337E+00  1.06690E+01  6.17697E+00  7.28907E+00  3.47786E+00  4.51154E+00
   1.29664E+00  4.94274E+00  2.96858E+00  2.30584E+00 -3.18507E+00  2.37799E+00 -5.72992E-01 -1.90483E+00 -1.98529E+00  1.34670E+00
  -2.35421E+00 -2.88256E+00 -1.92300E+00 -2.74417E+00 -6.99306E+00 -4.52847E+00 -6.02245E+00 -5.85315E+00 -6.81590E+00 -3.73220E+00
  -7.88256E+00 -6.46802E+00 -7.91323E+00 -9.55390E+00 -8.29541E+00 -1.14657E+01 -8.77114E+00 -1.24891E+01 -1.04449E+01 -1.49167E+01
  -1.67782E+01 -1.39616E+01 -2.10514E+01 -1.64104E+01 -1.75870E+01 -2.06374E+01 -1.56667E+01 -1.60359E+01 -2.14559E+01 -1.93405E+01
  -1.89982E+01 -2.19646E+01 -2.30332E+01 -1.82124E+01 -2.02188E+01 -2.20738E+01 -2.27937E+01 -2.07730E+01 -2.20146E+01 -2.48649E+01
  -2.31660E+01 -2.00410E+01 -2.15572E+01 -2.24980E+01 -2.52548E+01 -2.10079E+01 -2.62401E+01 -2.19907E+01 -2.79469E+01 -2.19663E+01
  -2.64664E+01 -2.24948E+01 -2.16366E+01 -2.11457E+01 -2.34561E+01 -2.16307E+01 -2.53959E+01 -2.29072E+01 -2.41172E+01 -1.95429E+01
  -2.49198E+01 -2.62371E+01 -2.45465E+01 -1.97466E+01 -2.26209E+01 -2.32622E+01 -2.52965E+01 -1.93321E+01 -2.27151E+01 -2.34047E+01
  -1.91122E+01 -2.32286E+01 -2.20822E+01 -2.52237E+01 -1.91157E+01 -2.11604E+01 -2.19487E+01 -2.16134E+01 -1.98643E+01 -2.40811E+01
  -2.16708E+01 -2.20784E+01 -1.91930E+01 -2.30804E+01 -2.02608E+01 -2.27694E+01 -1.98024E+01 -2.01475E+01 -2.08872E+01 -1.92261E+01
  -1.74660E+01 -1.80234E+01 -2.00886E+01 -1.80332E+01 -2.47357E+01 -2.11205E+01 -1.49391E+01 -1.79198E+01 -1.85081E+01 -1.45480E+01
  -1.70920E+01 -2.07179E+01 -1.75980E+01 -1.90682E+01 -1.59875E+01 -2.10270E+01 -1.44822E+01 -1.73704E+01
 NY points of the fit to the data follow
   1.38047E+01  1.49351E+01  1.34009E+01  1.41888E+01  1.31045E+01  1.38734E+01  1.31487E+01  1.39884E+01  1.33278E+01  1.40906E+01
   1.33539E+01  1.38152E+01  1.29151E+01  1.33612E+01  1.24075E+01  1.30228E+01  1.20766E+01  1.28030E+01  1.18421E+01  1.25486E+01
   1.15025E+01  1.22684E+01  1.12841E+01  1.20025E+01  1.10261E+01  1.15250E+01  1.05181E+01  1.06919E+01  9.73394E+00  9.61356E+00
   9.05329E+00  8.93650E+00  8.90174E+00  8.79427E+00  9.16167E+00  8.94157E+00  9.39150E+00  8.87091E+00  9.28013E+00  8.54443E+00
   8.85610E+00  8.02035E+00  8.27681E+00  7.41854E+00  7.57677E+00  6.70493E+00  6.87029E+00  6.23227E+00  6.34441E+00  5.84875E+00
   5.90420E+00  5.51122E+00  5.45852E+00  5.05484E+00  4.89447E+00  4.60921E+00  4.45479E+00  4.21954E+00  4.05493E+00  3.81032E+00
   3.63303E+00  3.42463E+00  3.23467E+00  3.02175E+00  2.83837E+00  2.63024E+00  2.45097E+00  2.24460E+00  2.06670E+00  1.86480E+00
   1.69190E+00  1.49039E+00  1.31787E+00  1.11514E+00  9.42752E-01  7.38602E-01  5.64842E-01  3.59271E-01  1.85320E-01 -2.27052E-02
  -1.98900E-01 -4.07238E-01 -5.83082E-01 -7.89392E-01 -9.62713E-01 -1.16243E+00 -1.33049E+00 -1.52791E+00 -1.69115E+00 -1.88499E+00
  -2.04228E+00 -2.22945E+00 -2.38088E+00 -2.56131E+00 -2.70718E+00 -2.88352E+00 -3.02732E+00 -3.20286E+00 -3.34682E+00 -3.52376E+00
  -3.66796E+00 -3.84654E+00 -3.98993E+00 -4.17301E+00 -4.31576E+00 -4.50563E+00 -4.64882E+00 -4.84065E+00 -4.96134E+00 -5.10131E+00
  -5.23056E+00 -5.33598E+00 -5.48303E+00 -5.54997E+00 -5.71537E+00 -5.73646E+00 -5.92539E+00 -5.89785E+00 -6.11433E+00 -6.04127E+00
  -6.29187E+00 -6.18262E+00 -6.47323E+00 -6.34285E+00 -6.67019E+00 -6.51750E+00 -6.89139E+00 -6.75055E+00 -7.17927E+00 -7.09307E+00
  -7.57100E+00 -7.58001E+00 -8.06353E+00 -8.15482E+00 -8.60715E+00 -8.75894E+00 -9.15427E+00 -9.33663E+00 -9.67482E+00 -9.87782E+00
  -1.01545E+01 -1.03522E+01 -1.05785E+01 -1.07609E+01 -1.09549E+01 -1.11243E+01 -1.13107E+01 -1.14899E+01 -1.16544E+01 -1.18145E+01
  -1.19749E+01 -1.21327E+01 -1.22921E+01 -1.24486E+01 -1.26070E+01 -1.27619E+01 -1.29192E+01 -1.30721E+01 -1.32283E+01 -1.33795E+01
  -1.35348E+01 -1.36841E+01 -1.38378E+01 -1.39854E+01 -1.41370E+01 -1.42827E+01 -1.44314E+01 -1.45749E+01 -1.47214E+01 -1.48624E+01
  -1.50053E+01 -1.51453E+01 -1.52846E+01 -1.54233E+01 -1.55586E+01 -1.57007E+01 -1.58552E+01 -1.60030E+01 -1.61967E+01 -1.63637E+01
  -1.65786E+01 -1.67547E+01 -1.69790E+01 -1.71147E+01 -1.72973E+01 -1.73879E+01 -1.75563E+01 -1.75745E+01 -1.77348E+01 -1.77393E+01
  -1.79269E+01 -1.79833E+01 -1.83687E+01 -1.83870E+01 -1.88047E+01 -1.87449E+01 -1.91357E+01 -1.89468E+01 -1.91952E+01 -1.89437E+01
  -1.91177E+01 -1.88566E+01 -1.90248E+01 -1.88443E+01 -1.91298E+01 -1.91315E+01 -1.94572E+01 -1.96120E+01 -1.99710E+01 -2.02142E+01
  -2.04740E+01 -2.06941E+01 -2.06879E+01 -2.08317E+01 -2.04714E+01 -2.06144E+01 -2.01005E+01 -2.03633E+01 -2.00160E+01 -2.03925E+01
  -2.03332E+01 -2.06792E+01 -2.07819E+01 -2.09169E+01 -2.11148E+01 -2.10816E+01 -2.12530E+01 -2.10355E+01 -2.12173E+01 -2.09392E+01
  -2.10258E+01 -2.08849E+01 -2.10355E+01 -2.10777E+01 -2.11830E+01 -2.14115E+01 -2.14797E+01 -2.18459E+01 -2.17429E+01 -2.22481E+01
  -2.19887E+01 -2.26725E+01 -2.22394E+01 -2.30720E+01 -2.25970E+01 -2.35298E+01 -2.29923E+01 -2.38162E+01 -2.32725E+01 -2.38816E+01
  -2.33826E+01 -2.37296E+01 -2.33125E+01 -2.34555E+01 -2.31398E+01 -2.31047E+01 -2.28758E+01 -2.27954E+01 -2.26977E+01 -2.26130E+01
  -2.25793E+01 -2.24956E+01 -2.24699E+01 -2.23267E+01 -2.23420E+01 -2.22197E+01 -2.22579E+01 -2.21324E+01 -2.22094E+01 -2.20729E+01
  -2.21382E+01 -2.20009E+01 -2.20572E+01 -2.19268E+01 -2.19482E+01 -2.18163E+01 -2.17866E+01 -2.16465E+01 -2.15622E+01 -2.14196E+01
  -2.13052E+01 -2.11639E+01 -2.10053E+01 -2.08364E+01 -2.06330E+01 -2.04175E+01 -2.01580E+01 -1.98943E+01 -1.95788E+01 -1.92492E+01
  -1.88719E+01 -1.84725E+01 -1.80292E+01 -1.75640E+01 -1.70633E+01 -1.65340E+01 -1.59733E+01 -1.53848E+01 -1.47687E+01 -1.41239E+01
  -1.34493E+01 -1.27409E+01 -1.19952E+01 -1.11999E+01 -1.03418E+01 -9.39712E+00 -8.32996E+00 -7.07256E+00 -5.46348E+00 -3.38352E+00
  -1.93607E+00  2.23016E-01  1.54778E+00  3.85553E+00  5.11404E+00  7.57359E+00  8.59799E+00  1.19918E+01  1.36348E+01  1.76678E+01
   1.97733E+01  2.42280E+01  2.67493E+01  3.15900E+01  3.47386E+01  4.00091E+01  4.36982E+01  4.91019E+01  5.37737E+01  5.97639E+01
   6.47847E+01  7.00088E+01  7.60732E+01  8.15093E+01  8.91450E+01  9.49138E+01  1.03826E+02  1.11119E+02  1.20786E+02  1.28084E+02
   1.36902E+02  1.43759E+02  1.50553E+02  1.56519E+02  1.60541E+02  1.65307E+02  1.65716E+02  1.67844E+02  1.64542E+02  1.63995E+02
   1.57070E+02  1.53451E+02  1.44424E+02  1.39780E+02  1.30011E+02  1.24768E+02  1.14669E+02  1.09460E+02  9.97056E+01  9.33839E+01
   8.41177E+01  7.73863E+01  6.88684E+01  6.20935E+01  5.44927E+01  4.81968E+01  4.15916E+01  3.54580E+01  3.03361E+01  2.57476E+01
   2.16868E+01  1.81288E+01  1.51064E+01  1.26445E+01  1.04475E+01  8.10098E+00  6.26442E+00  4.76348E+00  3.49365E+00  2.40869E+00
   1.48092E+00  6.92827E-01  3.01470E-02 -5.18350E-01 -9.64849E-01 -1.32124E+00 -1.60200E+00 -1.82199E+00 -1.99851E+00 -2.14874E+00
  -2.29135E+00 -2.44380E+00 -2.62378E+00 -2.84623E+00 -3.12487E+00 -3.46946E+00 -3.88761E+00 -4.38248E+00 -4.95477E+00 -5.60081E+00
  -6.31486E+00 -7.08758E+00 -7.90868E+00 -8.76550E+00 -9.64571E+00 -1.05358E+01 -1.14238E+01 -1.22975E+01 -1.31474E+01 -1.39643E+01
  -1.47417E+01 -1.54741E+01 -1.61584E+01 -1.67921E+01 -1.73754E+01 -1.79083E+01 -1.83930E+01 -1.88311E+01 -1.92259E+01 -1.95800E+01
  -1.98972E+01 -2.01802E+01 -2.04326E+01 -2.06570E+01 -2.08567E+01 -2.10338E+01 -2.11912E+01 -2.13305E+01 -2.14541E+01 -2.15632E+01
  -2.16598E+01 -2.17446E+01 -2.18195E+01 -2.18848E+01 -2.19420E+01 -2.19913E+01 -2.20339E+01 -2.20699E+01 -2.21004E+01 -2.21254E+01
  -2.21457E+01 -2.21612E+01 -2.21729E+01 -2.21803E+01 -2.21845E+01 -2.21850E+01 -2.21827E+01 -2.21771E+01 -2.21691E+01 -2.21582E+01
  -2.21451E+01 -2.21295E+01 -2.21119E+01 -2.20921E+01 -2.20706E+01 -2.20469E+01 -2.20218E+01 -2.19947E+01 -2.19664E+01 -2.19362E+01
  -2.19049E+01 -2.18719E+01 -2.18379E+01 -2.18023E+01 -2.17658E+01 -2.17279E+01 -2.16891E+01 -2.16491E+01 -2.16082E+01 -2.15661E+01
  -2.15233E+01 -2.14793E+01 -2.14347E+01 -2.13891E+01 -2.13428E+01 -2.12955E+01 -2.12477E+01 -2.11988E+01 -2.11496E+01 -2.10993E+01
  -2.10487E+01 -2.09971E+01 -2.09452E+01 -2.08924E+01 -2.08393E+01 -2.07853E+01 -2.07310E+01 -2.06758E+01 -2.06204E+01 -2.05642E+01
  -2.05077E+01 -2.04504E+01 -2.03929E+01 -2.03345E+01 -2.02759E+01 -2.02164E+01 -2.01566E+01 -2.00959E+01
 NY background values follow
     1.307E+01    1.290E+01    1.273E+01    1.256E+01    1.239E+01    1.222E+01    1.205E+01    1.188E+01    1.170E+01    1.153E+01
     1.136E+01    1.119E+01    1.102E+01    1.085E+01    1.068E+01    1.050E+01    1.033E+01    1.016E+01    9.989E+00    9.817E+00
     9.646E+00    9.474E+00    9.302E+00    9.131E+00    8.959E+00    8.788E+00    8.616E+00    8.444E+00    8.273E+00    8.101E+00
     7.930E+00    7.758E+00    7.586E+00    7.415E+00    7.243E+00    7.072E+00    6.900E+00    6.729E+00    6.557E+00    6.386E+00
     6.215E+00    6.043E+00    5.872E+00    5.701E+00    5.529E+00    5.358E+00    5.187E+00    5.016E+00    4.845E+00    4.673E+00
     4.502E+00    4.331E+00    4.160E+00    3.990E+00    3.819E+00    3.648E+00    3.477E+00    3.307E+00    3.136E+00    2.965E+00
     2.795E+00    2.624E+00    2.454E+00    2.284E+00    2.113E+00    1.943E+00    1.773E+00    1.603E+00    1.433E+00    1.263E+00
     1.093E+00    9.237E-01    7.541E-01    5.845E-01    4.150E-01    2.456E-01    7.630E-02   -9.292E-02   -2.621E-01   -4.311E-01
    -6.000E-01   -7.689E-01   -9.376E-01   -1.106E+00   -1.275E+00   -1.443E+00   -1.612E+00   -1.780E+00   -1.948E+00   -2.116E+00
    -2.284E+00   -2.452E+00   -2.619E+00   -2.787E+00   -2.954E+00   -3.122E+00   -3.289E+00   -3.456E+00   -3.623E+00   -3.790E+00
    -3.957E+00   -4.123E+00   -4.290E+00   -4.456E+00   -4.622E+00   -4.788E+00   -4.954E+00   -5.120E+00   -5.285E+00   -5.451E+00
    -5.616E+00   -5.781E+00   -5.946E+00   -6.111E+00   -6.276E+00   -6.441E+00   -6.605E+00   -6.769E+00   -6.933E+00   -7.097E+00
    -7.261E+00   -7.425E+00   -7.588E+00   -7.752E+00   -7.915E+00   -8.078E+00   -8.240E+00   -8.403E+00   -8.565E+00   -8.728E+00
    -8.890E+00   -9.051E+00   -9.213E+00   -9.374E+00   -9.535E+00   -9.696E+00   -9.857E+00   -1.002E+01   -1.018E+01   -1.034E+01
    -1.050E+01   -1.066E+01   -1.081E+01   -1.097E+01   -1.113E+01   -1.129E+01   -1.145E+01   -1.160E+01   -1.176E+01   -1.192E+01
    -1.207E+01   -1.223E+01   -1.239E+01   -1.254E+01   -1.270E+01   -1.285E+01   -1.300E+01   -1.316E+01   -1.331E+01   -1.346E+01
    -1.362E+01   -1.377E+01   -1.392E+01   -1.407E+01   -1.422E+01   -1.437E+01   -1.452E+01   -1.467E+01   -1.482E+01   -1.496E+01
    -1.511E+01   -1.526E+01   -1.540E+01   -1.555E+01   -1.570E+01   -1.584E+01   -1.598E+01   -1.613E+01   -1.627E+01   -1.641E+01
    -1.656E+01   -1.670E+01   -1.684E+01   -1.698E+01   -1.712E+01   -1.725E+01   -1.739E+01   -1.753E+01   -1.767E+01   -1.780E+01
    -1.794E+01   -1.807E+01   -1.821E+01   -1.834E+01   -1.847E+01   -1.861E+01   -1.874E+01   -1.887E+01   -1.900E+01   -1.913E+01
    -1.925E+01   -1.938E+01   -1.951E+01   -1.964E+01   -1.976E+01   -1.988E+01   -2.001E+01   -2.013E+01   -2.025E+01   -2.037E+01
    -2.049E+01   -2.061E+01   -2.073E+01   -2.085E+01   -2.097E+01   -2.108E+01   -2.120E+01   -2.131E+01   -2.143E+01   -2.154E+01
    -2.165E+01   -2.176E+01   -2.187E+01   -2.198E+01   -2.209E+01   -2.220E+01   -2.230E+01   -2.241E+01   -2.251E+01   -2.262E+01
    -2.272E+01   -2.282E+01   -2.292E+01   -2.302E+01   -2.312E+01   -2.321E+01   -2.331E+01   -2.341E+01   -2.350E+01   -2.359E+01
    -2.369E+01   -2.378E+01   -2.387E+01   -2.396E+01   -2.404E+01   -2.413E+01   -2.422E+01   -2.430E+01   -2.438E+01   -2.447E+01
    -2.455E+01   -2.463E+01   -2.471E+01   -2.478E+01   -2.486E+01   -2.493E+01   -2.501E+01   -2.508E+01   -2.515E+01   -2.523E+01
    -2.530E+01   -2.537E+01   -2.543E+01   -2.550E+01   -2.557E+01   -2.563E+01   -2.569E+01   -2.576E+01   -2.582E+01   -2.588E+01
    -2.594E+01   -2.600E+01   -2.605E+01   -2.611E+01   -2.617E+01   -2.622E+01   -2.627E+01   -2.632E+01   -2.638E+01   -2.643E+01
    -2.648E+01   -2.652E+01   -2.657E+01   -2.662E+01   -2.666E+01   -2.671E+01   -2.675E+01   -2.679E+01   -2.683E+01   -2.687E+01
    -2.691E+01   -2.695E+01   -2.699E+01   -2.703E+01   -2.706E+01   -2.710E+01   -2.713E+01   -2.716E+01   -2.720E+01   -2.723E+01
    -2.726E+01   -2.729E+01   -2.732E+01   -2.734E+01   -2.737E+01   -2.739E+01   -2.742E+01   -2.744E+01   -2.747E+01   -2.749E+01
    -2.751E+01   -2.753E+01   -2.755E+01   -2.757E+01   -2.759E+01   -2.760E+01   -2.762E+01   -2.763E+01   -2.765E+01   -2.766E+01
    -2.768E+01   -2.769E+01   -2.770E+01   -2.771E+01   -2.772E+01   -2.773E+01   -2.774E+01   -2.774E+01   -2.775E+01   -2.775E+01
    -2.776E+01   -2.776E+01   -2.777E+01   -2.777E+01   -2.777E+01   -2.777E+01   -2.777E+01   -2.777E+01   -2.777E+01   -2.777E+01
    -2.776E+01   -2.776E+01   -2.776E+01   -2.775E+01   -2.775E+01   -2.774E+01   -2.773E+01   -2.772E+01   -2.772E+01   -2.771E+01
    -2.770E+01   -2.769E+01   -2.767E+01   -2.766E+01   -2.765E+01   -2.764E+01   -2.762E+01   -2.761E+01   -2.759E+01   -2.758E+01
    -2.756E+01   -2.754E+01   -2.752E+01   -2.751E+01   -2.749E+01   -2.747E+01   -2.745E+01   -2.742E+01   -2.740E+01   -2.738E+01
    -2.736E+01   -2.733E+01   -2.731E+01   -2.728E+01   -2.726E+01   -2.723E+01   -2.721E+01   -2.718E+01   -2.715E+01   -2.712E+01
    -2.709E+01   -2.706E+01   -2.703E+01   -2.700E+01   -2.697E+01   -2.694E+01   -2.691E+01   -2.688E+01   -2.684E+01   -2.681E+01
    -2.677E+01   -2.674E+01   -2.670E+01   -2.667E+01   -2.663E+01   -2.659E+01   -2.656E+01   -2.652E+01   -2.648E+01   -2.644E+01
    -2.640E+01   -2.636E+01   -2.632E+01   -2.628E+01   -2.624E+01   -2.620E+01   -2.615E+01   -2.611E+01   -2.607E+01   -2.602E+01
    -2.598E+01   -2.593E+01   -2.589E+01   -2.584E+01   -2.580E+01   -2.575E+01   -2.570E+01   -2.566E+01   -2.561E+01   -2.556E+01
    -2.551E+01   -2.546E+01   -2.541E+01   -2.536E+01   -2.531E+01   -2.526E+01   -2.521E+01   -2.516E+01   -2.511E+01   -2.505E+01
    -2.500E+01   -2.495E+01   -2.489E+01   -2.484E+01   -2.479E+01   -2.473E+01   -2.468E+01   -2.462E+01   -2.457E+01   -2.451E+01
    -2.445E+01   -2.440E+01   -2.434E+01   -2.428E+01   -2.423E+01   -2.417E+01   -2.411E+01   -2.405E+01   -2.399E+01   -2.393E+01
    -2.387E+01   -2.381E+01   -2.375E+01   -2.369E+01   -2.363E+01   -2.357E+01   -2.351E+01   -2.345E+01   -2.339E+01   -2.332E+01
    -2.326E+01   -2.320E+01   -2.314E+01   -2.307E+01   -2.301E+01   -2.295E+01   -2.288E+01   -2.282E+01   -2.275E+01   -2.269E+01
    -2.262E+01   -2.256E+01   -2.249E+01   -2.243E+01   -2.236E+01   -2.230E+01   -2.223E+01   -2.216E+01   -2.210E+01   -2.203E+01
    -2.196E+01   -2.190E+01   -2.183E+01   -2.176E+01   -2.169E+01   -2.163E+01   -2.156E+01   -2.149E+01   -2.142E+01   -2.135E+01
    -2.128E+01   -2.122E+01   -2.115E+01   -2.108E+01   -2.101E+01   -2.094E+01   -2.087E+01   -2.080E+01
 Ala      Conc. = 4.02E+03
