 LCModel (Version 6.3-1L) Copyright: S.W. Provencher.          Ref.: Magn. Reson. Med. 30:672-679 (1993).                
 Slice#1 Row#4 Col#6  K_02_press_1_raw_act
 36 lines in following concentration table = NCONC+1
    Conc.  %SD /Cr+PCr  Metabolite                                         
    0.000 999%   0.000 Ala                                                 
    0.000 999%   0.000 Asp                                                 
 1.03E+03  28%   0.732 Cr                                                  
  377.976  78%   0.268 PCr                                                 
   29.306 597% 2.1E-02 GABA                                                
  185.096  92%   0.131 Glc                                                 
  457.288  68%   0.324 Gln                                                 
 1.45E+03  25%   1.027 Glu                                                 
  572.825   5%   0.406 GPC                                                 
    0.000 999%   0.000 PCh                                                 
  509.228  19%   0.361 GSH                                                 
 2.27E+03  14%   1.611 Ins                                                 
  504.577  34%   0.358 Lac                                                 
 1.84E+03   9%   1.305 NAA                                                 
  545.007  32%   0.386 NAAG                                                
  120.390  28% 8.5E-02 Scyllo                                              
  322.833  72%   0.229 Tau                                                 
  316.963  41%   0.225 -CrCH2                                              
  572.825   5%   0.406 GPC+PCh                                             
 2.39E+03   4%   1.692 NAA+NAAG                                            
 1.41E+03   5%   1.000 Cr+PCr                                              
 1.91E+03  27%   1.351 Glu+Gln                                             
 2.97E+03  16%   2.105 Lip13a                                              
    0.000 999%   0.000 Lip13b                                              
  847.718  40%   0.601 Lip09                                               
 1.40E+03  24%   0.990 MM09                                                
  523.665  50%   0.371 Lip20                                               
 2.38E+03  17%   1.686 MM20                                                
  403.681  64%   0.286 MM12                                                
    0.000 999%   0.000 MM14                                                
   87.867 224% 6.2E-02 MM17                                                
 2.97E+03  16%   2.105 Lip13a+Lip13b                                       
 3.37E+03  12%   2.391 MM14+Lip13a+Lip13b+MM12                             
 2.24E+03  10%   1.592 MM09+Lip09                                          
 2.90E+03  14%   2.057 MM20+Lip20                                          
   6 lines in following misc. output table
  FWHM = 0.054 ppm    S/N =   9                                            
  Data shift = 0.000 ppm                                                   
  Ph:  -8 deg      -1.3 deg/ppm                                            
  alphaB,S = 4.3E+01,   1.1E+02                                            
   14 spline knots.   Ns = 7(1)                                            
  ( 5) 4 infls.   ( 1) 1 extrs.                                            
  498 points on ppm-axis = NY
      4.000000     3.992357     3.984714     3.977070     3.969427     3.961784     3.954141     3.946497     3.938854     3.931211
      3.923568     3.915925     3.908281     3.900638     3.892995     3.885352     3.877708     3.870065     3.862422     3.854779
      3.847136     3.839492     3.831849     3.824206     3.816563     3.808919     3.801276     3.793633     3.785990     3.778347
      3.770703     3.763060     3.755417     3.747774     3.740130     3.732487     3.724844     3.717201     3.709558     3.701914
      3.694271     3.686628     3.678985     3.671341     3.663698     3.656055     3.648412     3.640769     3.633125     3.625482
      3.617839     3.610196     3.602552     3.594909     3.587266     3.579623     3.571980     3.564336     3.556693     3.549050
      3.541407     3.533763     3.526120     3.518477     3.510834     3.503191     3.495547     3.487904     3.480261     3.472618
      3.464974     3.457331     3.449688     3.442045     3.434402     3.426758     3.419115     3.411472     3.403829     3.396185
      3.388542     3.380899     3.373256     3.365613     3.357969     3.350326     3.342683     3.335040     3.327396     3.319753
      3.312110     3.304467     3.296824     3.289180     3.281537     3.273894     3.266251     3.258607     3.250964     3.243321
      3.235678     3.228034     3.220391     3.212748     3.205105     3.197462     3.189818     3.182175     3.174532     3.166889
      3.159245     3.151602     3.143959     3.136316     3.128673     3.121029     3.113386     3.105743     3.098100     3.090456
      3.082813     3.075170     3.067527     3.059884     3.052240     3.044597     3.036954     3.029311     3.021667     3.014024
      3.006381     2.998738     2.991095     2.983451     2.975808     2.968165     2.960522     2.952878     2.945235     2.937592
      2.929949     2.922306     2.914662     2.907019     2.899376     2.891733     2.884089     2.876446     2.868803     2.861160
      2.853517     2.845873     2.838230     2.830587     2.822944     2.815300     2.807657     2.800014     2.792371     2.784728
      2.777084     2.769441     2.761798     2.754155     2.746511     2.738868     2.731225     2.723582     2.715939     2.708295
      2.700652     2.693009     2.685366     2.677722     2.670079     2.662436     2.654793     2.647150     2.639506     2.631863
      2.624220     2.616577     2.608933     2.601290     2.593647     2.586004     2.578361     2.570717     2.563074     2.555431
      2.547788     2.540144     2.532501     2.524858     2.517215     2.509572     2.501928     2.494285     2.486642     2.478999
      2.471355     2.463712     2.456069     2.448426     2.440783     2.433139     2.425496     2.417853     2.410210     2.402566
      2.394923     2.387280     2.379637     2.371994     2.364350     2.356707     2.349064     2.341421     2.333777     2.326134
      2.318491     2.310848     2.303205     2.295561     2.287918     2.280275     2.272632     2.264988     2.257345     2.249702
      2.242059     2.234416     2.226772     2.219129     2.211486     2.203843     2.196199     2.188556     2.180913     2.173270
      2.165627     2.157983     2.150340     2.142697     2.135054     2.127410     2.119767     2.112124     2.104481     2.096838
      2.089194     2.081551     2.073908     2.066265     2.058621     2.050978     2.043335     2.035692     2.028049     2.020405
      2.012762     2.005119     1.997476     1.989833     1.982190     1.974546     1.966903     1.959260     1.951617     1.943974
      1.936331     1.928688     1.921045     1.913402     1.905759     1.898115     1.890472     1.882829     1.875186     1.867543
      1.859900     1.852257     1.844614     1.836971     1.829327     1.821684     1.814041     1.806398     1.798755     1.791112
      1.783469     1.775826     1.768183     1.760540     1.752896     1.745253     1.737610     1.729967     1.722324     1.714681
      1.707038     1.699395     1.691752     1.684108     1.676465     1.668822     1.661179     1.653536     1.645893     1.638250
      1.630607     1.622964     1.615321     1.607677     1.600034     1.592391     1.584748     1.577105     1.569462     1.561819
      1.554176     1.546533     1.538890     1.531246     1.523603     1.515960     1.508317     1.500674     1.493031     1.485388
      1.477745     1.470102     1.462458     1.454815     1.447172     1.439529     1.431886     1.424243     1.416600     1.408957
      1.401314     1.393671     1.386027     1.378384     1.370741     1.363098     1.355455     1.347812     1.340169     1.332526
      1.324883     1.317240     1.309596     1.301953     1.294310     1.286667     1.279024     1.271381     1.263738     1.256095
      1.248452     1.240808     1.233165     1.225522     1.217879     1.210236     1.202593     1.194950     1.187307     1.179664
      1.172021     1.164377     1.156734     1.149091     1.141448     1.133805     1.126162     1.118519     1.110876     1.103233
      1.095590     1.087946     1.080303     1.072660     1.065017     1.057374     1.049731     1.042088     1.034445     1.026802
      1.019158     1.011515     1.003872     0.996229     0.988586     0.980943     0.973300     0.965657     0.958014     0.950371
      0.942727     0.935084     0.927441     0.919798     0.912155     0.904512     0.896869     0.889226     0.881583     0.873940
      0.866296     0.858653     0.851010     0.843367     0.835724     0.828081     0.820438     0.812795     0.805152     0.797508
      0.789865     0.782222     0.774579     0.766936     0.759293     0.751650     0.744007     0.736364     0.728721     0.721077
      0.713434     0.705791     0.698148     0.690505     0.682862     0.675219     0.667576     0.659933     0.652290     0.644646
      0.637003     0.629360     0.621717     0.614074     0.606431     0.598788     0.591145     0.583502     0.575858     0.568215
      0.560572     0.552929     0.545286     0.537643     0.530000     0.522357     0.514714     0.507071     0.499427     0.491784
      0.484141     0.476498     0.468855     0.461212     0.453569     0.445925     0.438282     0.430639     0.422996     0.415353
      0.407710     0.400067     0.392424     0.384780     0.377137     0.369494     0.361851     0.354208     0.346565     0.338922
      0.331278     0.323635     0.315992     0.308349     0.300706     0.293063     0.285420     0.277777     0.270133     0.262490
      0.254847     0.247204     0.239561     0.231918     0.224275     0.216631     0.208988     0.201345
 NY phased data points follow
  -1.09035E+00  9.75534E-01 -3.64013E+00 -7.53536E+00  1.09504E+00  2.78753E+00  9.60579E+00  1.19786E+01  1.54208E+01  1.56354E+01
   2.01656E+01  2.23789E+01  2.52427E+01  1.79657E+01  1.46827E+01  1.24430E+01  7.92650E+00  2.06530E+00 -8.36328E-01  1.62100E+00
  -6.76959E-01 -1.58662E+00  4.09661E-01 -1.55305E+00  4.96749E+00  1.85712E+00  9.68219E+00  6.97489E-02  4.92810E+00  1.01348E+01
   1.13778E+01  9.72946E+00  7.70875E+00  9.37230E+00  7.97191E+00  7.07462E+00  7.88850E+00  5.17440E+00  1.14281E+01  1.15589E+01
   1.19463E+01  5.05547E+00  8.38591E+00  1.12384E+01  1.20644E+01  1.34766E+01  1.44054E+01  1.14838E+01  1.16437E+01  1.08148E+01
   1.19115E+01  5.28920E+00  4.97983E+00  4.24137E+00  8.26101E+00  7.17686E+00  5.43064E+00  4.97050E+00  7.52302E-01  9.24736E-01
   8.77915E+00  1.32171E+00  2.79029E+00  3.74373E+00 -3.20717E+00  1.52411E+00  1.66966E+00 -4.32233E+00 -4.54963E+00  1.41235E+00
   2.81759E+00  1.20282E-01 -1.23124E+00  3.66348E-01  6.65142E+00 -2.30909E+00  3.95223E+00  8.55613E+00  3.78442E+00 -1.23300E+00
   2.77158E+00  1.41868E+00 -4.41772E-01 -4.48284E+00  1.24014E-01 -1.92057E+00  1.12187E+00  4.64592E+00  1.33608E+00  5.67500E+00
   1.31930E+00 -4.06927E+00  8.10406E-02  1.24634E+00  6.87947E+00  5.05233E+00  2.74032E+00  1.24683E+01  1.54290E+01  1.61283E+01
   2.71955E+01  3.32132E+01  4.33925E+01  4.86938E+01  4.82684E+01  3.97858E+01  2.50950E+01  2.42468E+01  1.24369E+01  9.38063E+00
   3.20320E+00  8.44750E+00  9.36135E+00  3.32329E+00 -1.20991E+00  3.65570E+00  1.46635E+00  2.12603E+00  5.00437E+00  7.26258E+00
   9.99474E+00  1.01892E+01  1.20189E+01  1.51411E+01  2.17534E+01  3.19792E+01  3.64843E+01  4.33348E+01  4.46302E+01  4.16482E+01
   2.59152E+01  2.37507E+01  1.28658E+01  1.13509E+01  1.15520E+01  2.11469E+00  1.83961E+00  3.16027E+00  5.88312E-01  9.59930E-02
   3.16628E+00  9.02520E+00 -3.00574E+00  1.85980E+00  1.11105E+00  1.51428E+00  2.36484E+00 -3.04224E+00 -1.86569E+00  8.12854E-01
   4.89281E+00  2.21346E+00 -2.07945E+00  2.20975E+00 -3.42768E+00  4.63889E+00  5.18400E-01  4.83702E-02  4.76127E-01 -3.12690E+00
   4.02491E+00  2.89493E+00 -6.74355E+00 -2.60217E+00  9.43171E-01 -2.38679E+00  1.95755E-04  1.69203E+00 -7.23705E+00 -5.96970E+00
  -8.23001E+00 -7.53465E+00 -1.04675E+01 -4.35606E+00 -1.41212E+01 -9.66953E+00 -1.99882E+01 -1.03659E+01 -1.21249E+01 -7.70644E+00
  -1.62550E+01 -1.34516E+01 -1.73350E+01 -3.90512E+00 -4.61452E+00 -7.00631E+00 -6.87921E+00 -1.06174E+01 -6.56806E+00 -8.27057E+00
  -5.38405E+00 -3.33566E+00 -9.62249E+00 -5.89412E+00 -8.31721E+00 -2.51652E+00 -9.98081E+00 -4.10091E+00 -1.19986E+01 -9.00885E+00
  -3.07598E+00 -3.04483E-02 -1.93216E+00  2.28274E+00 -3.54491E+00  3.46882E+00  1.94417E+00  3.21721E+00 -2.12212E+00 -5.43500E+00
   2.95467E+00  3.73604E+00 -2.12124E+00  7.76408E-01  9.10892E+00  8.98313E+00  9.99996E+00  2.04406E+00  4.93002E+00  4.13956E+00
  -3.75311E+00 -7.82389E+00 -3.86736E+00 -7.17582E+00  3.75728E+00 -3.35583E+00  1.06181E+00  1.32206E+01  3.21249E+00  5.25687E+00
   5.34382E+00  3.28587E+00  1.04821E+01  4.00234E+00  4.78357E+00  1.09649E+00  6.77854E+00  1.27425E+00  6.56328E+00  6.02514E+00
   4.56352E+00  1.69381E+00  1.35233E+00  1.87344E+00  7.90998E+00  9.35490E+00  2.72348E+00  2.68341E+00  1.50787E+01  1.52903E+01
   1.76209E+01  2.00705E+01  2.50033E+01  3.12919E+01  3.52682E+01  3.81544E+01  4.33015E+01  5.78240E+01  6.34622E+01  7.64418E+01
   7.30907E+01  7.29669E+01  6.71090E+01  5.58197E+01  3.19274E+01  3.55338E+01  2.39503E+01  1.02475E+01  1.31514E+01  1.08712E+01
   7.40292E+00 -3.50136E+00  9.33961E+00  9.38825E+00  2.21439E+00  9.73124E-01  4.32191E+00  3.39339E+00 -6.85538E-01  2.03232E+00
  -2.61448E+00 -2.79642E+00 -2.68307E-01 -4.09019E+00  2.12294E+00 -4.21989E+00 -1.65723E+00 -4.06403E+00 -2.07685E+00  1.53111E-01
  -1.13588E+00  5.21641E+00 -1.90426E+00 -1.94874E+00  5.18091E+00  4.52992E+00  8.95069E-01  1.16778E+00  1.45363E+00 -6.97031E+00
   4.92339E+00  3.38720E+00  4.48809E+00  3.88281E+00 -5.00291E-01  8.38187E+00  1.26628E+00  3.36555E+00  5.27183E+00  4.96674E+00
   4.65622E+00 -5.11508E+00 -7.26444E-03 -2.73228E+00 -1.16350E-01  2.78448E+00 -4.35715E-01 -3.90735E+00  1.96928E+00  3.55215E+00
  -2.39823E+00  4.26357E-01 -1.07320E+00 -4.85822E+00  9.04703E-02  8.00275E-01  2.47208E+00 -1.13013E+00 -1.90739E-01 -9.27298E-01
   1.53441E+00  6.04302E+00  1.34524E+00  3.47515E+00  3.21479E+00 -1.90036E+00  6.54090E+00 -2.91916E+00  8.42813E+00  3.99289E+00
   1.15328E+01  8.67050E+00  1.48502E+01  1.67174E+01  2.16105E+01  2.12225E+01  2.14808E+01  2.29437E+01  2.31941E+01  2.66241E+01
   1.62683E+01  8.37250E+00  1.49455E+01  1.82376E+01  1.50896E+01  1.27936E+01  1.70009E+01  1.82322E+01  1.80911E+01  1.20842E+01
   1.23186E+01  1.55569E+01  1.84211E+01  1.84806E+01  1.34975E+01  1.45642E+01  1.76242E+01  1.35420E+01  1.13243E+01  1.11780E+01
   7.53987E+00  5.29980E+00  1.57603E+01  1.01852E+01  5.43932E+00  5.23061E+00  8.82763E+00  8.68240E+00  7.91634E+00  1.30793E+01
   5.09249E+00  6.75422E+00  8.69328E+00  9.69731E+00  1.53525E+01  7.03830E+00  6.66911E+00  1.63953E+01  1.46900E+01  1.11610E+01
   1.39486E+01  4.13444E+00  1.70425E+01  1.23361E+01  1.36062E+01  1.41971E+01  1.22945E+01  1.17388E+01  1.00131E+01  2.03130E+01
   1.50571E+01  1.84990E+01  1.57318E+01  1.26863E+01  1.53737E+01  1.78902E+01  1.49377E+01  1.23322E+01  1.56528E+01  1.76174E+01
   1.33696E+01  1.27399E+01  1.49269E+01  1.12259E+01  1.51919E+01  1.20671E+01  7.23472E+00  6.67351E+00  1.20676E+01  9.86162E+00
   1.24601E+01  3.95120E+00  9.60116E+00  3.78185E+00  1.78776E+00 -4.16729E-01  6.04067E+00  7.33015E+00  9.70910E+00  4.45657E+00
   8.64924E+00  6.45329E+00  1.25101E+00  3.23380E+00  8.83006E+00  7.03820E+00  1.26262E+00  5.78670E-01  2.88902E+00  6.16679E+00
   1.44078E+00  4.87033E-01  7.74807E+00  4.29064E+00  5.89945E+00  3.70876E+00  1.32867E+00  4.42015E+00  4.14249E+00 -2.71674E+00
   2.96342E+00  3.44553E+00  6.42169E+00  6.80336E+00  5.68378E+00  6.19903E+00  2.95871E+00 -1.37478E+00 -5.83384E-01  4.84619E+00
   3.84668E+00  8.53625E+00  2.45255E+00  1.75199E+00  3.86662E+00  1.79819E+00  1.31427E+00  3.38095E+00  7.81813E+00  3.27047E+00
   2.30857E+00  2.25135E+00  2.15358E-01  3.23328E+00 -2.97282E+00  9.43592E+00  6.69223E+00  2.06981E+00  2.73848E+00  4.58576E+00
   5.17314E+00  8.17657E+00  2.68323E+00  3.01484E+00  2.72411E+00  2.30677E-01  8.13448E+00 -1.92814E+00  1.93646E+00  4.97075E+00
   3.58663E+00  3.20784E+00  3.08153E-01  5.03527E+00  2.79433E+00  5.79120E+00  2.62457E+00  4.37024E+00
 NY points of the fit to the data follow
   6.64815E-02 -5.89196E-01 -6.47849E-01  7.89280E-03  2.04065E+00  4.81495E+00  7.52188E+00  1.03702E+01  1.37235E+01  1.73864E+01
   2.05874E+01  2.23434E+01  2.19643E+01  1.94507E+01  1.56600E+01  1.18336E+01  8.64697E+00  5.98173E+00  3.65789E+00  1.82222E+00
   8.57809E-01  3.67492E-01  1.40057E-01  5.78383E-01  1.35465E+00  2.18218E+00  3.29306E+00  4.93565E+00  7.05199E+00  9.33962E+00
   1.14400E+01  1.27312E+01  1.26626E+01  1.13823E+01  9.39528E+00  7.19619E+00  5.06112E+00  2.99447E+00  1.29618E+00  7.59128E-01
   1.55179E+00  3.10650E+00  4.87223E+00  6.86112E+00  9.18883E+00  1.16044E+01  1.35756E+01  1.44126E+01  1.36226E+01  1.13038E+01
   8.06587E+00  4.96329E+00  2.79221E+00  1.47810E+00  7.57714E-01  6.23545E-01  1.16648E+00  2.15135E+00  3.15604E+00  3.92389E+00
   4.26997E+00  3.98625E+00  3.15842E+00  2.07088E+00  1.19490E+00  8.06935E-01  8.15177E-01  1.08533E+00  1.62924E+00  2.38145E+00
   3.14036E+00  3.72005E+00  4.05606E+00  4.13737E+00  3.96949E+00  3.64920E+00  3.25259E+00  2.72589E+00  2.09452E+00  1.50635E+00
   1.29235E+00  1.20916E+00  1.12918E+00  1.12639E+00  1.23365E+00  1.37177E+00  1.34612E+00  1.01676E+00  4.14520E-01 -2.56254E-01
  -8.22597E-01 -1.09104E+00 -1.04395E+00 -8.97412E-01 -6.58358E-01  7.23009E-01  4.98754E+00  1.00981E+01  1.49123E+01  2.04988E+01
   2.77117E+01  3.58792E+01  4.30137E+01  4.68321E+01  4.57781E+01  3.99058E+01  3.12710E+01  2.27256E+01  1.56621E+01  9.85710E+00
   4.84129E+00  1.02715E+00 -6.00578E-01 -1.11253E+00 -1.34768E+00 -1.46684E+00 -1.51612E+00 -1.45635E+00 -1.15895E+00  9.13565E-02
   3.79141E+00  8.50150E+00  1.30223E+01  1.81307E+01  2.46077E+01  3.19611E+01  3.85925E+01  4.25407E+01  4.22367E+01  3.75366E+01
   3.02247E+01  2.28033E+01  1.65328E+01  1.12281E+01  6.39342E+00  2.33677E+00  1.03736E-01 -8.41014E-01 -1.10532E+00 -8.60728E-01
  -3.39724E-01  2.12844E-01  6.47821E-01  8.86070E-01  8.62566E-01  6.35823E-01  3.15942E-01 -6.78702E-02 -4.79652E-01 -8.49535E-01
  -1.15980E+00 -1.39355E+00 -1.58113E+00 -1.77458E+00 -2.02043E+00 -2.21652E+00 -2.30248E+00 -2.31827E+00 -2.34209E+00 -2.53623E+00
  -2.87347E+00 -3.17961E+00 -3.33296E+00 -3.36104E+00 -3.37047E+00 -3.48916E+00 -3.79577E+00 -4.24394E+00 -4.72732E+00 -5.20187E+00
  -5.59513E+00 -5.83222E+00 -6.02136E+00 -6.27075E+00 -6.60604E+00 -6.92029E+00 -7.06221E+00 -6.96834E+00 -6.78268E+00 -6.70216E+00
  -6.80019E+00 -6.86988E+00 -6.72215E+00 -6.32528E+00 -5.75993E+00 -5.11452E+00 -4.36764E+00 -3.43612E+00 -2.26377E+00 -9.77097E-01
   8.27872E-02  5.77023E-01  5.65413E-01  2.24020E-01 -3.69578E-01 -1.08498E+00 -1.68452E+00 -1.90175E+00 -1.65813E+00 -9.72072E-01
   2.00377E-02  1.12446E+00  2.00882E+00  2.32077E+00  2.13777E+00  1.51246E+00  3.48012E-01 -1.16959E+00 -2.55457E+00 -3.24909E+00
  -3.29778E+00 -2.75649E+00 -1.49637E+00  3.65433E-01  2.30134E+00  3.62192E+00  3.92726E+00  3.27495E+00  1.77843E+00 -4.01676E-01
  -2.59065E+00 -4.19570E+00 -4.89751E+00 -4.48423E+00 -3.07252E+00 -9.54653E-01  1.24210E+00  2.99440E+00  4.14429E+00  4.74866E+00
   5.02300E+00  5.09560E+00  5.06725E+00  5.18441E+00  5.61244E+00  6.15907E+00  6.52116E+00  6.66112E+00  6.61174E+00  6.33764E+00
   5.78488E+00  5.19583E+00  4.91719E+00  5.10767E+00  5.75831E+00  6.74891E+00  7.93523E+00  9.09222E+00  1.03121E+01  1.21721E+01
   1.42602E+01  1.62901E+01  1.92238E+01  2.56599E+01  3.45347E+01  4.27351E+01  5.00314E+01  5.73405E+01  6.45590E+01  7.05160E+01
   7.36009E+01  7.20470E+01  6.49734E+01  5.37761E+01  4.18913E+01  3.20421E+01  2.41752E+01  1.73970E+01  1.16767E+01  8.32444E+00
   6.95453E+00  6.17916E+00  5.67427E+00  5.33670E+00  5.04483E+00  4.72367E+00  4.36863E+00  3.97911E+00  3.57865E+00  3.20533E+00
   2.87869E+00  2.59518E+00  2.36006E+00  2.17774E+00  2.03262E+00  1.90496E+00  1.77530E+00  1.64432E+00  1.52433E+00  1.42303E+00
   1.34540E+00  1.29616E+00  1.27112E+00  1.26308E+00  1.25694E+00  1.24262E+00  1.21854E+00  1.18799E+00  1.15655E+00  1.12861E+00
   1.10961E+00  1.10813E+00  1.12164E+00  1.14104E+00  1.16021E+00  1.17707E+00  1.19152E+00  1.20225E+00  1.20656E+00  1.20702E+00
   1.20637E+00  1.20573E+00  1.20655E+00  1.20958E+00  1.21565E+00  1.22587E+00  1.24172E+00  1.26448E+00  1.29530E+00  1.33517E+00
   1.38550E+00  1.44796E+00  1.52452E+00  1.61695E+00  1.72739E+00  1.85830E+00  2.01289E+00  2.19485E+00  2.40845E+00  2.65816E+00
   2.94907E+00  3.28677E+00  3.67772E+00  4.12883E+00  4.64749E+00  5.24140E+00  5.91942E+00  6.69267E+00  7.57809E+00  8.60808E+00
   9.86873E+00  1.14665E+01  1.30255E+01  1.43326E+01  1.55701E+01  1.67742E+01  1.76955E+01  1.79686E+01  1.74443E+01  1.65397E+01
   1.54771E+01  1.44956E+01  1.40372E+01  1.43506E+01  1.53659E+01  1.68544E+01  1.85423E+01  2.01023E+01  2.09584E+01  2.08919E+01
   2.02086E+01  1.92360E+01  1.81081E+01  1.68214E+01  1.54247E+01  1.41899E+01  1.31459E+01  1.22169E+01  1.13766E+01  1.06164E+01
   9.93373E+00  9.32717E+00  8.79598E+00  8.33907E+00  7.95534E+00  7.64341E+00  7.40197E+00  7.22959E+00  7.12508E+00  7.08730E+00
   7.11549E+00  7.20895E+00  7.36713E+00  7.58918E+00  7.87405E+00  8.21996E+00  8.62464E+00  9.08465E+00  9.59548E+00  1.01510E+01
   1.07439E+01  1.13648E+01  1.20034E+01  1.26479E+01  1.32852E+01  1.39016E+01  1.44831E+01  1.50158E+01  1.54867E+01  1.58837E+01
   1.61969E+01  1.64181E+01  1.65419E+01  1.65652E+01  1.64883E+01  1.63138E+01  1.60470E+01  1.56951E+01  1.52677E+01  1.47752E+01
   1.42294E+01  1.36423E+01  1.30258E+01  1.23913E+01  1.17496E+01  1.11102E+01  1.04818E+01  9.87121E+00  9.28426E+00  8.72517E+00
   8.19713E+00  7.70210E+00  7.24116E+00  6.81432E+00  6.42108E+00  6.06026E+00  5.73050E+00  5.42998E+00  5.15686E+00  4.90900E+00
   4.68439E+00  4.48096E+00  4.29694E+00  4.13044E+00  3.97983E+00  3.84342E+00  3.71983E+00  3.60772E+00  3.50606E+00  3.41370E+00
   3.32976E+00  3.25327E+00  3.18358E+00  3.11997E+00  3.06198E+00  3.00898E+00  2.96055E+00  2.91615E+00  2.87553E+00  2.83831E+00
   2.80431E+00  2.77314E+00  2.74461E+00  2.71842E+00  2.69450E+00  2.67263E+00  2.65275E+00  2.63457E+00  2.61803E+00  2.60293E+00
   2.58930E+00  2.57698E+00  2.56595E+00  2.55599E+00  2.54709E+00  2.53915E+00  2.53222E+00  2.52617E+00  2.52098E+00  2.51648E+00
   2.51273E+00  2.50963E+00  2.50727E+00  2.50550E+00  2.50434E+00  2.50364E+00  2.50349E+00  2.50380E+00  2.50467E+00  2.50594E+00
   2.50762E+00  2.50962E+00  2.51203E+00  2.51480E+00  2.51797E+00  2.52140E+00  2.52513E+00  2.52907E+00  2.53336E+00  2.53789E+00
   2.54272E+00  2.54769E+00  2.55288E+00  2.55822E+00  2.56384E+00  2.56962E+00  2.57560E+00  2.58164E+00
 NY background values follow
    -5.885E+00   -5.869E+00   -5.854E+00   -5.838E+00   -5.823E+00   -5.808E+00   -5.792E+00   -5.777E+00   -5.762E+00   -5.746E+00
    -5.731E+00   -5.715E+00   -5.700E+00   -5.685E+00   -5.669E+00   -5.654E+00   -5.638E+00   -5.623E+00   -5.608E+00   -5.592E+00
    -5.577E+00   -5.561E+00   -5.546E+00   -5.531E+00   -5.515E+00   -5.500E+00   -5.485E+00   -5.469E+00   -5.454E+00   -5.438E+00
    -5.423E+00   -5.408E+00   -5.392E+00   -5.377E+00   -5.361E+00   -5.346E+00   -5.331E+00   -5.315E+00   -5.300E+00   -5.284E+00
    -5.269E+00   -5.254E+00   -5.238E+00   -5.223E+00   -5.208E+00   -5.192E+00   -5.177E+00   -5.161E+00   -5.146E+00   -5.131E+00
    -5.115E+00   -5.100E+00   -5.084E+00   -5.069E+00   -5.054E+00   -5.038E+00   -5.023E+00   -5.007E+00   -4.992E+00   -4.977E+00
    -4.961E+00   -4.946E+00   -4.930E+00   -4.915E+00   -4.900E+00   -4.884E+00   -4.869E+00   -4.854E+00   -4.838E+00   -4.823E+00
    -4.807E+00   -4.792E+00   -4.777E+00   -4.761E+00   -4.746E+00   -4.730E+00   -4.715E+00   -4.700E+00   -4.684E+00   -4.669E+00
    -4.653E+00   -4.638E+00   -4.623E+00   -4.607E+00   -4.592E+00   -4.576E+00   -4.561E+00   -4.546E+00   -4.530E+00   -4.515E+00
    -4.499E+00   -4.484E+00   -4.469E+00   -4.453E+00   -4.438E+00   -4.422E+00   -4.407E+00   -4.392E+00   -4.376E+00   -4.361E+00
    -4.346E+00   -4.330E+00   -4.315E+00   -4.299E+00   -4.284E+00   -4.269E+00   -4.253E+00   -4.238E+00   -4.222E+00   -4.207E+00
    -4.192E+00   -4.176E+00   -4.161E+00   -4.145E+00   -4.130E+00   -4.115E+00   -4.099E+00   -4.084E+00   -4.068E+00   -4.053E+00
    -4.038E+00   -4.022E+00   -4.007E+00   -3.991E+00   -3.976E+00   -3.961E+00   -3.945E+00   -3.930E+00   -3.914E+00   -3.899E+00
    -3.884E+00   -3.868E+00   -3.853E+00   -3.837E+00   -3.822E+00   -3.806E+00   -3.791E+00   -3.776E+00   -3.760E+00   -3.745E+00
    -3.729E+00   -3.714E+00   -3.699E+00   -3.683E+00   -3.668E+00   -3.652E+00   -3.637E+00   -3.622E+00   -3.606E+00   -3.591E+00
    -3.575E+00   -3.560E+00   -3.545E+00   -3.529E+00   -3.514E+00   -3.498E+00   -3.483E+00   -3.467E+00   -3.452E+00   -3.437E+00
    -3.421E+00   -3.406E+00   -3.390E+00   -3.375E+00   -3.360E+00   -3.344E+00   -3.329E+00   -3.313E+00   -3.298E+00   -3.282E+00
    -3.267E+00   -3.252E+00   -3.236E+00   -3.221E+00   -3.205E+00   -3.190E+00   -3.174E+00   -3.159E+00   -3.144E+00   -3.128E+00
    -3.113E+00   -3.097E+00   -3.082E+00   -3.066E+00   -3.051E+00   -3.035E+00   -3.020E+00   -3.005E+00   -2.989E+00   -2.974E+00
    -2.958E+00   -2.943E+00   -2.927E+00   -2.912E+00   -2.896E+00   -2.881E+00   -2.866E+00   -2.850E+00   -2.835E+00   -2.819E+00
    -2.804E+00   -2.788E+00   -2.773E+00   -2.757E+00   -2.742E+00   -2.726E+00   -2.711E+00   -2.696E+00   -2.680E+00   -2.665E+00
    -2.649E+00   -2.634E+00   -2.618E+00   -2.603E+00   -2.587E+00   -2.572E+00   -2.556E+00   -2.541E+00   -2.525E+00   -2.510E+00
    -2.494E+00   -2.479E+00   -2.463E+00   -2.448E+00   -2.432E+00   -2.417E+00   -2.401E+00   -2.386E+00   -2.371E+00   -2.355E+00
    -2.340E+00   -2.324E+00   -2.309E+00   -2.293E+00   -2.278E+00   -2.262E+00   -2.247E+00   -2.231E+00   -2.216E+00   -2.200E+00
    -2.185E+00   -2.169E+00   -2.154E+00   -2.138E+00   -2.123E+00   -2.107E+00   -2.092E+00   -2.076E+00   -2.061E+00   -2.045E+00
    -2.030E+00   -2.014E+00   -1.999E+00   -1.983E+00   -1.968E+00   -1.952E+00   -1.936E+00   -1.921E+00   -1.905E+00   -1.890E+00
    -1.874E+00   -1.859E+00   -1.843E+00   -1.828E+00   -1.812E+00   -1.797E+00   -1.781E+00   -1.766E+00   -1.750E+00   -1.735E+00
    -1.719E+00   -1.704E+00   -1.688E+00   -1.673E+00   -1.657E+00   -1.641E+00   -1.626E+00   -1.610E+00   -1.595E+00   -1.579E+00
    -1.564E+00   -1.548E+00   -1.533E+00   -1.517E+00   -1.502E+00   -1.486E+00   -1.470E+00   -1.455E+00   -1.439E+00   -1.424E+00
    -1.408E+00   -1.393E+00   -1.377E+00   -1.362E+00   -1.346E+00   -1.330E+00   -1.315E+00   -1.299E+00   -1.284E+00   -1.268E+00
    -1.253E+00   -1.237E+00   -1.222E+00   -1.206E+00   -1.190E+00   -1.175E+00   -1.159E+00   -1.144E+00   -1.128E+00   -1.113E+00
    -1.097E+00   -1.081E+00   -1.066E+00   -1.050E+00   -1.035E+00   -1.019E+00   -1.004E+00   -9.880E-01   -9.724E-01   -9.568E-01
    -9.412E-01   -9.256E-01   -9.100E-01   -8.945E-01   -8.789E-01   -8.633E-01   -8.477E-01   -8.321E-01   -8.165E-01   -8.009E-01
    -7.853E-01   -7.698E-01   -7.542E-01   -7.386E-01   -7.230E-01   -7.074E-01   -6.918E-01   -6.762E-01   -6.606E-01   -6.450E-01
    -6.294E-01   -6.138E-01   -5.982E-01   -5.826E-01   -5.670E-01   -5.514E-01   -5.358E-01   -5.202E-01   -5.046E-01   -4.890E-01
    -4.734E-01   -4.578E-01   -4.422E-01   -4.266E-01   -4.110E-01   -3.954E-01   -3.797E-01   -3.641E-01   -3.485E-01   -3.329E-01
    -3.173E-01   -3.017E-01   -2.861E-01   -2.705E-01   -2.549E-01   -2.392E-01   -2.236E-01   -2.080E-01   -1.924E-01   -1.768E-01
    -1.612E-01   -1.456E-01   -1.299E-01   -1.143E-01   -9.872E-02   -8.310E-02   -6.748E-02   -5.186E-02   -3.625E-02   -2.063E-02
    -5.010E-03    1.061E-02    2.623E-02    4.185E-02    5.747E-02    7.309E-02    8.871E-02    1.043E-01    1.199E-01    1.356E-01
     1.512E-01    1.668E-01    1.824E-01    1.981E-01    2.137E-01    2.293E-01    2.449E-01    2.605E-01    2.762E-01    2.918E-01
     3.074E-01    3.230E-01    3.387E-01    3.543E-01    3.699E-01    3.855E-01    4.012E-01    4.168E-01    4.324E-01    4.480E-01
     4.637E-01    4.793E-01    4.949E-01    5.105E-01    5.262E-01    5.418E-01    5.574E-01    5.730E-01    5.887E-01    6.043E-01
     6.199E-01    6.355E-01    6.512E-01    6.668E-01    6.824E-01    6.980E-01    7.137E-01    7.293E-01    7.449E-01    7.605E-01
     7.762E-01    7.918E-01    8.074E-01    8.230E-01    8.386E-01    8.543E-01    8.699E-01    8.855E-01    9.011E-01    9.168E-01
     9.324E-01    9.480E-01    9.636E-01    9.793E-01    9.949E-01    1.011E+00    1.026E+00    1.042E+00    1.057E+00    1.073E+00
     1.089E+00    1.104E+00    1.120E+00    1.135E+00    1.151E+00    1.167E+00    1.182E+00    1.198E+00    1.214E+00    1.229E+00
     1.245E+00    1.260E+00    1.276E+00    1.292E+00    1.307E+00    1.323E+00    1.339E+00    1.354E+00    1.370E+00    1.385E+00
     1.401E+00    1.417E+00    1.432E+00    1.448E+00    1.463E+00    1.479E+00    1.495E+00    1.510E+00    1.526E+00    1.541E+00
     1.557E+00    1.573E+00    1.588E+00    1.604E+00    1.620E+00    1.635E+00    1.651E+00    1.666E+00    1.682E+00    1.698E+00
     1.713E+00    1.729E+00    1.744E+00    1.760E+00    1.776E+00    1.791E+00    1.807E+00    1.822E+00
 Cr       Conc. = 1.03E+03
