 LCModel (Version 6.3-1L) Copyright: S.W. Provencher.          Ref.: Magn. Reson. Med. 30:672-679 (1993).                
 Slice#3 Row#12 Col#5  K_02_press_1_raw_act
 36 lines in following concentration table = NCONC+1
    Conc.  %SD /Cr+PCr  Metabolite                                         
 1.12E+03  27%   0.776 Ala                                                 
    0.000 999%   0.000 Asp                                                 
 1.45E+03   6%   1.000 Cr                                                  
    0.000 999%   0.000 PCr                                                 
  148.777 128%   0.103 GABA                                                
    0.000 999%   0.000 Glc                                                 
 6.70E+03  14%   4.631 Gln                                                 
 6.82E+03  17%   4.714 Glu                                                 
  650.940   5%   0.450 GPC                                                 
    0.000 999%   0.000 PCh                                                 
  455.483  30%   0.315 GSH                                                 
 4.45E+03  12%   3.076 Ins                                                 
    0.000 999%   0.000 Lac                                                 
 2.08E+03   4%   1.439 NAA                                                 
    0.000 999%   0.000 NAAG                                                
  249.581  16%   0.172 Scyllo                                              
    0.000 999%   0.000 Tau                                                 
    0.000 999%   0.000 -CrCH2                                              
  650.940   5%   0.450 GPC+PCh                                             
 2.08E+03   4%   1.439 NAA+NAAG                                            
 1.45E+03   6%   1.000 Cr+PCr                                              
 1.35E+04  15%   9.346 Glu+Gln                                             
 4.42E+03  16%   3.054 Lip13a                                              
    0.000 999%   0.000 Lip13b                                              
  620.330  50%   0.429 Lip09                                               
  503.460  44%   0.348 MM09                                                
  790.751  32%   0.546 Lip20                                               
  629.160  66%   0.435 MM20                                                
  146.742  85%   0.101 MM12                                                
 2.67E+03   5%   1.845+MM14                                                
    0.000 999%   0.000 MM17                                                
 4.42E+03  16%   3.054 Lip13a+Lip13b                                       
 7.24E+03   9%   5.001 MM14+Lip13a+Lip13b+MM12                             
 1.12E+03  22%   0.777 MM09+Lip09                                          
 1.42E+03  29%   0.981 MM20+Lip20                                          
   6 lines in following misc. output table
  FWHM = 0.122 ppm    S/N =   9                                            
  Data shift = 0.084 ppm                                                   
  Ph: -27 deg     -16.1 deg/ppm                                            
  alphaB,S = 5.0E-01,   1.1E+02                                            
   14 spline knots.   Ns = 8(2)                                            
  ( 5) 2 infls.   ( 1) 1 extrs.                                            
  498 points on ppm-axis = NY
      4.000000     3.992357     3.984714     3.977070     3.969427     3.961784     3.954141     3.946497     3.938854     3.931211
      3.923568     3.915925     3.908281     3.900638     3.892995     3.885352     3.877708     3.870065     3.862422     3.854779
      3.847136     3.839492     3.831849     3.824206     3.816563     3.808919     3.801276     3.793633     3.785990     3.778347
      3.770703     3.763060     3.755417     3.747774     3.740130     3.732487     3.724844     3.717201     3.709558     3.701914
      3.694271     3.686628     3.678985     3.671341     3.663698     3.656055     3.648412     3.640769     3.633125     3.625482
      3.617839     3.610196     3.602552     3.594909     3.587266     3.579623     3.571980     3.564336     3.556693     3.549050
      3.541407     3.533763     3.526120     3.518477     3.510834     3.503191     3.495547     3.487904     3.480261     3.472618
      3.464974     3.457331     3.449688     3.442045     3.434402     3.426758     3.419115     3.411472     3.403829     3.396185
      3.388542     3.380899     3.373256     3.365613     3.357969     3.350326     3.342683     3.335040     3.327396     3.319753
      3.312110     3.304467     3.296824     3.289180     3.281537     3.273894     3.266251     3.258607     3.250964     3.243321
      3.235678     3.228034     3.220391     3.212748     3.205105     3.197462     3.189818     3.182175     3.174532     3.166889
      3.159245     3.151602     3.143959     3.136316     3.128673     3.121029     3.113386     3.105743     3.098100     3.090456
      3.082813     3.075170     3.067527     3.059884     3.052240     3.044597     3.036954     3.029311     3.021667     3.014024
      3.006381     2.998738     2.991095     2.983451     2.975808     2.968165     2.960522     2.952878     2.945235     2.937592
      2.929949     2.922306     2.914662     2.907019     2.899376     2.891733     2.884089     2.876446     2.868803     2.861160
      2.853517     2.845873     2.838230     2.830587     2.822944     2.815300     2.807657     2.800014     2.792371     2.784728
      2.777084     2.769441     2.761798     2.754155     2.746511     2.738868     2.731225     2.723582     2.715939     2.708295
      2.700652     2.693009     2.685366     2.677722     2.670079     2.662436     2.654793     2.647150     2.639506     2.631863
      2.624220     2.616577     2.608933     2.601290     2.593647     2.586004     2.578361     2.570717     2.563074     2.555431
      2.547788     2.540144     2.532501     2.524858     2.517215     2.509572     2.501928     2.494285     2.486642     2.478999
      2.471355     2.463712     2.456069     2.448426     2.440783     2.433139     2.425496     2.417853     2.410210     2.402566
      2.394923     2.387280     2.379637     2.371994     2.364350     2.356707     2.349064     2.341421     2.333777     2.326134
      2.318491     2.310848     2.303205     2.295561     2.287918     2.280275     2.272632     2.264988     2.257345     2.249702
      2.242059     2.234416     2.226772     2.219129     2.211486     2.203843     2.196199     2.188556     2.180913     2.173270
      2.165627     2.157983     2.150340     2.142697     2.135054     2.127410     2.119767     2.112124     2.104481     2.096838
      2.089194     2.081551     2.073908     2.066265     2.058621     2.050978     2.043335     2.035692     2.028049     2.020405
      2.012762     2.005119     1.997476     1.989833     1.982190     1.974546     1.966903     1.959260     1.951617     1.943974
      1.936331     1.928688     1.921045     1.913402     1.905759     1.898115     1.890472     1.882829     1.875186     1.867543
      1.859900     1.852257     1.844614     1.836971     1.829327     1.821684     1.814041     1.806398     1.798755     1.791112
      1.783469     1.775826     1.768183     1.760540     1.752896     1.745253     1.737610     1.729967     1.722324     1.714681
      1.707038     1.699395     1.691752     1.684108     1.676465     1.668822     1.661179     1.653536     1.645893     1.638250
      1.630607     1.622964     1.615321     1.607677     1.600034     1.592391     1.584748     1.577105     1.569462     1.561819
      1.554176     1.546533     1.538890     1.531246     1.523603     1.515960     1.508317     1.500674     1.493031     1.485388
      1.477745     1.470102     1.462458     1.454815     1.447172     1.439529     1.431886     1.424243     1.416600     1.408957
      1.401314     1.393671     1.386027     1.378384     1.370741     1.363098     1.355455     1.347812     1.340169     1.332526
      1.324883     1.317240     1.309596     1.301953     1.294310     1.286667     1.279024     1.271381     1.263738     1.256095
      1.248452     1.240808     1.233165     1.225522     1.217879     1.210236     1.202593     1.194950     1.187307     1.179664
      1.172021     1.164377     1.156734     1.149091     1.141448     1.133805     1.126162     1.118519     1.110876     1.103233
      1.095590     1.087946     1.080303     1.072660     1.065017     1.057374     1.049731     1.042088     1.034445     1.026802
      1.019158     1.011515     1.003872     0.996229     0.988586     0.980943     0.973300     0.965657     0.958014     0.950371
      0.942727     0.935084     0.927441     0.919798     0.912155     0.904512     0.896869     0.889226     0.881583     0.873940
      0.866296     0.858653     0.851010     0.843367     0.835724     0.828081     0.820438     0.812795     0.805152     0.797508
      0.789865     0.782222     0.774579     0.766936     0.759293     0.751650     0.744007     0.736364     0.728721     0.721077
      0.713434     0.705791     0.698148     0.690505     0.682862     0.675219     0.667576     0.659933     0.652290     0.644646
      0.637003     0.629360     0.621717     0.614074     0.606431     0.598788     0.591145     0.583502     0.575858     0.568215
      0.560572     0.552929     0.545286     0.537643     0.530000     0.522357     0.514714     0.507071     0.499427     0.491784
      0.484141     0.476498     0.468855     0.461212     0.453569     0.445925     0.438282     0.430639     0.422996     0.415353
      0.407710     0.400067     0.392424     0.384780     0.377137     0.369494     0.361851     0.354208     0.346565     0.338922
      0.331278     0.323635     0.315992     0.308349     0.300706     0.293063     0.285420     0.277777     0.270133     0.262490
      0.254847     0.247204     0.239561     0.231918     0.224275     0.216631     0.208988     0.201345
 NY phased data points follow
  -2.70452E+02 -2.62691E+02 -2.60538E+02 -2.50487E+02 -2.47023E+02 -2.42944E+02 -2.35167E+02 -2.31386E+02 -2.29744E+02 -2.30259E+02
  -2.26974E+02 -2.22077E+02 -2.18719E+02 -2.18865E+02 -2.15810E+02 -2.15653E+02 -2.13358E+02 -2.12199E+02 -2.11903E+02 -2.11751E+02
  -2.07920E+02 -2.04226E+02 -2.03954E+02 -2.01241E+02 -1.98592E+02 -1.96828E+02 -1.93408E+02 -1.91648E+02 -1.85639E+02 -1.86079E+02
  -1.83150E+02 -1.78445E+02 -1.75682E+02 -1.74245E+02 -1.69986E+02 -1.66581E+02 -1.63663E+02 -1.62392E+02 -1.60000E+02 -1.57775E+02
  -1.56222E+02 -1.50599E+02 -1.52288E+02 -1.52779E+02 -1.48851E+02 -1.47622E+02 -1.41981E+02 -1.42498E+02 -1.38942E+02 -1.39611E+02
  -1.38388E+02 -1.38299E+02 -1.38703E+02 -1.37073E+02 -1.34827E+02 -1.37405E+02 -1.33915E+02 -1.33001E+02 -1.34192E+02 -1.34607E+02
  -1.30158E+02 -1.29174E+02 -1.31994E+02 -1.29898E+02 -1.28342E+02 -1.29781E+02 -1.26412E+02 -1.26295E+02 -1.23294E+02 -1.19653E+02
  -1.22756E+02 -1.17664E+02 -1.19324E+02 -1.17949E+02 -1.17308E+02 -1.15872E+02 -1.13642E+02 -1.11297E+02 -1.13752E+02 -1.07434E+02
  -1.11618E+02 -1.09145E+02 -1.09029E+02 -1.01759E+02 -1.05272E+02 -1.01701E+02 -1.00197E+02 -1.02508E+02 -1.00713E+02 -9.60985E+01
  -9.45965E+01 -9.57984E+01 -9.10380E+01 -8.69712E+01 -8.31063E+01 -8.26784E+01 -7.80533E+01 -7.44857E+01 -7.47060E+01 -7.23208E+01
  -6.82423E+01 -6.69138E+01 -6.90174E+01 -6.75038E+01 -6.63349E+01 -6.57916E+01 -6.73900E+01 -6.63558E+01 -7.31529E+01 -7.08462E+01
  -7.07633E+01 -7.20073E+01 -7.16168E+01 -7.25893E+01 -7.42296E+01 -7.25549E+01 -6.93971E+01 -6.77510E+01 -6.34210E+01 -6.23850E+01
  -6.18664E+01 -5.87618E+01 -5.58360E+01 -5.60167E+01 -5.15939E+01 -5.25055E+01 -4.92900E+01 -4.94821E+01 -4.75456E+01 -5.01927E+01
  -5.06626E+01 -4.86441E+01 -4.76005E+01 -5.12830E+01 -5.41798E+01 -5.32573E+01 -5.63580E+01 -5.38049E+01 -5.69515E+01 -5.74224E+01
  -6.24734E+01 -6.06479E+01 -5.74343E+01 -6.08455E+01 -5.55223E+01 -5.62654E+01 -5.35255E+01 -5.60956E+01 -5.70919E+01 -5.55201E+01
  -5.47778E+01 -5.64944E+01 -5.32129E+01 -5.43492E+01 -5.22064E+01 -5.65110E+01 -5.20768E+01 -5.29367E+01 -5.16839E+01 -5.20520E+01
  -5.00390E+01 -5.00909E+01 -4.98020E+01 -5.09329E+01 -5.00042E+01 -5.12182E+01 -5.12788E+01 -5.06351E+01 -5.09219E+01 -5.21844E+01
  -5.04260E+01 -5.09516E+01 -5.15195E+01 -5.03728E+01 -5.41591E+01 -5.04235E+01 -5.25016E+01 -5.74263E+01 -5.27898E+01 -5.13901E+01
  -5.35502E+01 -5.38720E+01 -5.07074E+01 -4.75180E+01 -5.16128E+01 -4.97592E+01 -4.64745E+01 -4.64068E+01 -4.35395E+01 -4.41827E+01
  -4.30537E+01 -4.21370E+01 -4.11767E+01 -4.00266E+01 -3.94580E+01 -3.83935E+01 -4.01861E+01 -3.66673E+01 -3.71102E+01 -3.82631E+01
  -4.10783E+01 -3.65720E+01 -3.81011E+01 -3.78912E+01 -3.82956E+01 -3.90123E+01 -3.51719E+01 -3.59758E+01 -3.68895E+01 -3.51235E+01
  -3.39565E+01 -3.46910E+01 -3.46346E+01 -3.44168E+01 -3.18023E+01 -3.19427E+01 -3.02271E+01 -2.87696E+01 -2.96037E+01 -3.04585E+01
  -3.07884E+01 -2.97354E+01 -3.04821E+01 -2.92936E+01 -2.94578E+01 -2.86902E+01 -2.86579E+01 -2.91984E+01 -2.81233E+01 -2.57022E+01
  -2.60381E+01 -2.55977E+01 -2.62438E+01 -2.70979E+01 -2.67691E+01 -2.77217E+01 -2.68288E+01 -2.52914E+01 -2.39903E+01 -2.68690E+01
  -2.57631E+01 -2.65830E+01 -2.68309E+01 -2.71927E+01 -2.37128E+01 -2.31590E+01 -1.91715E+01 -1.95669E+01 -1.86847E+01 -1.41469E+01
  -9.07203E+00 -5.36745E+00 -2.82347E+00  2.21900E+00  2.40172E+00  2.83393E+00  5.55108E+00  8.74953E+00  1.08134E+01  1.62883E+01
   1.38452E+01  1.13552E+01  8.89463E+00  8.02113E+00  6.49673E+00  2.15967E+00 -1.74298E+00 -5.38099E+00 -6.81933E+00 -9.12163E+00
  -1.53403E+01 -1.54074E+01 -1.52868E+01 -1.52766E+01 -1.35252E+01 -1.66845E+01 -1.69032E+01 -1.57476E+01 -1.64161E+01 -1.67893E+01
  -1.56430E+01 -1.55428E+01 -1.51590E+01 -1.61784E+01 -1.61806E+01 -1.66116E+01 -1.82582E+01 -1.50497E+01 -1.70861E+01 -1.92998E+01
  -1.64334E+01 -1.73716E+01 -1.78201E+01 -1.79531E+01 -1.62086E+01 -1.90285E+01 -1.83168E+01 -1.54806E+01 -1.49651E+01 -1.18630E+01
  -1.15070E+01 -1.05356E+01 -8.59074E+00 -1.06104E+01 -6.11285E+00 -8.96447E+00 -5.31665E+00 -7.56611E+00 -8.48322E+00 -6.89124E+00
  -2.64078E+00 -6.89928E+00 -3.59232E+00 -5.50434E+00 -1.58460E+00  6.37727E-01  3.79530E-01  1.17615E+00  5.97005E+00  3.01311E+00
   1.17012E+01  9.27790E+00  1.44150E+01  1.27299E+01  1.61780E+01  1.67000E+01  1.75613E+01  1.68363E+01  2.14449E+01  2.22089E+01
   2.38427E+01  2.20666E+01  2.13394E+01  2.32088E+01  2.15601E+01  2.27692E+01  2.45384E+01  2.26177E+01  2.55764E+01  2.66122E+01
   2.44304E+01  2.48821E+01  2.48434E+01  2.46373E+01  2.24510E+01  2.41011E+01  2.00545E+01  2.15406E+01  2.41606E+01  2.18159E+01
   1.75380E+01  2.05503E+01  1.93720E+01  1.67293E+01  1.77949E+01  1.66060E+01  1.51480E+01  1.58780E+01  1.60506E+01  1.46346E+01
   1.59695E+01  1.39591E+01  1.59290E+01  1.38315E+01  1.48476E+01  1.42739E+01  1.18528E+01  1.45274E+01  1.54470E+01  1.21568E+01
   1.06523E+01  1.42315E+01  9.94482E+00  1.19351E+01  1.15789E+01  1.06302E+01  9.44001E+00  1.46886E+01  1.01746E+01  1.05486E+01
   1.28496E+01  1.02590E+01  8.47357E+00  8.21362E+00  8.56852E+00  9.08753E+00  6.49843E+00  6.57090E+00  7.44526E+00  1.09920E+01
   1.02826E+01  1.09067E+01  8.67325E+00  1.06508E+01  1.12595E+01  1.23842E+01  1.31073E+01  1.15671E+01  1.08570E+01  1.37037E+01
   9.91167E+00  7.08682E+00  8.29809E+00  8.00323E+00  1.08764E+01  1.00130E+01  1.01569E+01  1.18794E+01  7.80681E+00  9.94928E+00
   9.80630E+00  1.01499E+01  7.85697E+00  8.97301E+00  1.00186E+01  7.49348E+00  8.54608E+00  9.30466E+00  7.29305E+00  1.06503E+01
   5.01722E+00  7.79618E+00  7.07243E+00  7.47752E+00  1.13538E+01  7.20983E+00  7.74731E+00  5.01416E+00  2.03255E+00  5.95434E+00
   6.98456E+00  6.93221E+00  4.58887E+00  7.15909E+00  6.94484E+00  3.63592E+00  6.07489E+00  3.64518E+00  6.15008E+00  5.04711E+00
   3.06892E+00  3.25011E+00  3.54054E+00  4.07029E+00  5.64119E+00  5.93066E+00  5.90135E+00  6.03524E+00  4.93672E+00  5.40581E+00
   5.85391E+00  8.43976E+00  9.02509E+00  7.62101E+00  8.07343E+00  7.13168E+00  8.69105E+00  8.84876E+00  6.98393E+00  7.62046E+00
   9.01626E+00  8.55191E+00  5.34048E+00  6.84596E+00  8.67555E+00  8.22153E+00  9.76604E+00  6.51545E+00  7.22858E+00  6.03924E+00
   6.62411E+00  5.20530E+00  7.35866E+00  5.55688E+00  4.73380E+00  5.70965E+00  8.04533E+00  8.24545E+00  5.81376E+00  2.52226E+00
   6.17552E+00  4.36375E+00  6.69823E+00  1.13939E+00  6.99683E+00  5.75157E+00  7.24992E+00  4.82062E+00  5.42028E+00  5.15485E+00
   7.18546E+00  6.84692E+00  6.50530E+00  8.99827E+00  6.57425E+00  9.82811E+00  6.83594E+00  1.03467E+01
 NY points of the fit to the data follow
  -2.60890E+02 -2.57656E+02 -2.54143E+02 -2.51151E+02 -2.47188E+02 -2.44559E+02 -2.40203E+02 -2.37584E+02 -2.32975E+02 -2.30791E+02
  -2.26214E+02 -2.24829E+02 -2.21096E+02 -2.20288E+02 -2.16739E+02 -2.15627E+02 -2.12578E+02 -2.11701E+02 -2.09804E+02 -2.08504E+02
  -2.06979E+02 -2.04228E+02 -2.02512E+02 -1.99153E+02 -1.97284E+02 -1.93743E+02 -1.92541E+02 -1.89196E+02 -1.87974E+02 -1.84646E+02
  -1.82276E+02 -1.78765E+02 -1.76044E+02 -1.73459E+02 -1.70813E+02 -1.68969E+02 -1.65908E+02 -1.64065E+02 -1.60803E+02 -1.59383E+02
  -1.56607E+02 -1.55375E+02 -1.52696E+02 -1.51057E+02 -1.48387E+02 -1.46435E+02 -1.44603E+02 -1.43247E+02 -1.42260E+02 -1.41075E+02
  -1.40564E+02 -1.39295E+02 -1.39107E+02 -1.38094E+02 -1.38186E+02 -1.36922E+02 -1.36893E+02 -1.35231E+02 -1.34957E+02 -1.32942E+02
  -1.32574E+02 -1.30312E+02 -1.30019E+02 -1.27930E+02 -1.27621E+02 -1.25508E+02 -1.25093E+02 -1.23071E+02 -1.22560E+02 -1.20654E+02
  -1.20036E+02 -1.18006E+02 -1.17525E+02 -1.15707E+02 -1.15359E+02 -1.13715E+02 -1.13460E+02 -1.11482E+02 -1.11523E+02 -1.09489E+02
  -1.09698E+02 -1.07726E+02 -1.08075E+02 -1.06033E+02 -1.06402E+02 -1.04263E+02 -1.04100E+02 -1.00750E+02 -1.00321E+02 -9.72589E+01
  -9.66592E+01 -9.35797E+01 -9.22029E+01 -8.73718E+01 -8.56408E+01 -8.10447E+01 -7.97009E+01 -7.57445E+01 -7.48221E+01 -7.10781E+01
  -7.05772E+01 -6.71740E+01 -6.73927E+01 -6.52417E+01 -6.62362E+01 -6.55206E+01 -6.70227E+01 -6.72477E+01 -6.90233E+01 -7.03142E+01
  -7.16872E+01 -7.18898E+01 -7.23945E+01 -7.22812E+01 -7.20621E+01 -7.12303E+01 -7.00071E+01 -6.70671E+01 -6.50940E+01 -6.25724E+01
  -6.04596E+01 -5.81338E+01 -5.60148E+01 -5.38944E+01 -5.18592E+01 -5.03836E+01 -4.87424E+01 -4.85849E+01 -4.76212E+01 -4.87919E+01
  -4.83561E+01 -5.02156E+01 -5.01400E+01 -5.27516E+01 -5.29293E+01 -5.53990E+01 -5.55018E+01 -5.74052E+01 -5.72528E+01 -5.84427E+01
  -5.80112E+01 -5.85582E+01 -5.80060E+01 -5.84394E+01 -5.78599E+01 -5.78197E+01 -5.71556E+01 -5.69430E+01 -5.63006E+01 -5.60478E+01
  -5.55558E+01 -5.53570E+01 -5.49096E+01 -5.47046E+01 -5.42407E+01 -5.39929E+01 -5.36268E+01 -5.34047E+01 -5.31307E+01 -5.29484E+01
  -5.27563E+01 -5.25395E+01 -5.23566E+01 -5.21102E+01 -5.20194E+01 -5.18618E+01 -5.18485E+01 -5.16624E+01 -5.15804E+01 -5.14200E+01
  -5.13278E+01 -5.13045E+01 -5.10553E+01 -5.10209E+01 -5.05705E+01 -5.05224E+01 -4.99288E+01 -5.00418E+01 -4.93067E+01 -4.95820E+01
  -4.88219E+01 -4.90565E+01 -4.83234E+01 -4.85974E+01 -4.77196E+01 -4.77604E+01 -4.69041E+01 -4.66551E+01 -4.56563E+01 -4.49860E+01
  -4.37541E+01 -4.27335E+01 -4.18793E+01 -4.16065E+01 -4.08319E+01 -4.00847E+01 -3.95475E+01 -3.89994E+01 -3.90183E+01 -3.92373E+01
  -3.87745E+01 -3.84924E+01 -3.81712E+01 -3.78242E+01 -3.75057E+01 -3.73185E+01 -3.68870E+01 -3.72844E+01 -3.67507E+01 -3.64361E+01
  -3.58933E+01 -3.51052E+01 -3.48104E+01 -3.41008E+01 -3.31014E+01 -3.17950E+01 -3.11157E+01 -3.00538E+01 -3.03281E+01 -3.00983E+01
  -3.08717E+01 -3.07218E+01 -3.14802E+01 -3.04075E+01 -3.04853E+01 -2.92580E+01 -2.92593E+01 -2.79576E+01 -2.72832E+01 -2.55726E+01
  -2.47607E+01 -2.38959E+01 -2.42364E+01 -2.42249E+01 -2.48021E+01 -2.50775E+01 -2.55800E+01 -2.56177E+01 -2.59314E+01 -2.60069E+01
  -2.66137E+01 -2.67106E+01 -2.74577E+01 -2.66808E+01 -2.51906E+01 -2.36780E+01 -2.19532E+01 -1.99296E+01 -1.77765E+01 -1.47452E+01
  -1.01263E+01 -6.30778E+00 -2.15310E+00  1.09651E+00  4.00751E+00  6.45671E+00  8.24042E+00  1.02285E+01  1.12859E+01  1.23660E+01
   1.16884E+01  1.15404E+01  8.93699E+00  7.96478E+00  4.52835E+00  3.01214E+00 -1.39651E+00 -3.02043E+00 -7.15580E+00 -8.53194E+00
  -1.19281E+01 -1.28028E+01 -1.50651E+01 -1.54814E+01 -1.66420E+01 -1.68844E+01 -1.78693E+01 -1.79303E+01 -1.80875E+01 -1.79952E+01
  -1.78809E+01 -1.77618E+01 -1.75563E+01 -1.74601E+01 -1.72267E+01 -1.70954E+01 -1.68325E+01 -1.66373E+01 -1.63413E+01 -1.61033E+01
  -1.58085E+01 -1.55287E+01 -1.52134E+01 -1.48897E+01 -1.45461E+01 -1.41863E+01 -1.38124E+01 -1.34143E+01 -1.30136E+01 -1.25849E+01
  -1.21475E+01 -1.16805E+01 -1.11962E+01 -1.06773E+01 -1.01283E+01 -9.53672E+00 -8.89940E+00 -8.20163E+00 -7.43229E+00 -6.57012E+00
  -5.57935E+00 -4.37896E+00 -2.98601E+00 -1.96568E+00 -4.58330E-01  5.80646E-01  2.36372E+00  3.56024E+00  5.70961E+00  6.28734E+00
   8.82023E+00  9.19436E+00  1.17900E+01  1.19276E+01  1.44950E+01  1.42770E+01  1.72906E+01  1.69648E+01  1.97768E+01  1.92862E+01
   2.16173E+01  2.10992E+01  2.30547E+01  2.25539E+01  2.40981E+01  2.38699E+01  2.49397E+01  2.48076E+01  2.52572E+01  2.50482E+01
   2.50367E+01  2.47102E+01  2.41676E+01  2.35777E+01  2.27441E+01  2.21982E+01  2.14121E+01  2.08628E+01  2.01944E+01  1.97200E+01
   1.92453E+01  1.88947E+01  1.84349E+01  1.81022E+01  1.77945E+01  1.75341E+01  1.72911E+01  1.70463E+01  1.67885E+01  1.65112E+01
   1.62103E+01  1.58845E+01  1.55342E+01  1.51613E+01  1.47691E+01  1.43620E+01  1.39444E+01  1.35213E+01  1.30978E+01  1.26787E+01
   1.22686E+01  1.18716E+01  1.14917E+01  1.11320E+01  1.07957E+01  1.04850E+01  1.02020E+01  9.94839E+00  9.72545E+00  9.53423E+00
   9.37542E+00  9.24947E+00  9.15656E+00  9.09663E+00  9.06935E+00  9.07402E+00  9.10958E+00  9.17448E+00  9.26672E+00  9.38377E+00
   9.52253E+00  9.67926E+00  9.84962E+00  1.00287E+01  1.02113E+01  1.03915E+01  1.05636E+01  1.07216E+01  1.08598E+01  1.09729E+01
   1.10561E+01  1.11055E+01  1.11183E+01  1.10925E+01  1.10276E+01  1.09241E+01  1.07837E+01  1.06094E+01  1.04045E+01  1.01732E+01
   9.92022E+00  9.65042E+00  9.36904E+00  9.08118E+00  8.79174E+00  8.50520E+00  8.22563E+00  7.95654E+00  7.70083E+00  7.46079E+00
   7.23806E+00  7.03380E+00  6.84858E+00  6.68261E+00  6.53566E+00  6.40722E+00  6.29646E+00  6.20246E+00  6.12412E+00  6.06033E+00
   6.00984E+00  5.97148E+00  5.94402E+00  5.92635E+00  5.91735E+00  5.91605E+00  5.92142E+00  5.93258E+00  5.94867E+00  5.96895E+00
   5.99270E+00  6.01930E+00  6.04810E+00  6.07856E+00  6.11016E+00  6.14244E+00  6.17497E+00  6.20736E+00  6.23918E+00  6.27009E+00
   6.29975E+00  6.32787E+00  6.35414E+00  6.37837E+00  6.40054E+00  6.42076E+00  6.43905E+00  6.45558E+00  6.47036E+00  6.48353E+00
   6.49513E+00  6.50535E+00  6.51423E+00  6.52196E+00  6.52860E+00  6.53432E+00  6.53919E+00  6.54340E+00  6.54705E+00  6.55032E+00
   6.55330E+00  6.55615E+00  6.55900E+00  6.56203E+00  6.56538E+00  6.56920E+00  6.57363E+00  6.57883E+00  6.58497E+00  6.59221E+00
   6.60072E+00  6.61065E+00  6.62217E+00  6.63546E+00  6.65070E+00  6.66809E+00  6.68780E+00  6.71003E+00  6.73497E+00  6.76285E+00
   6.79389E+00  6.82834E+00  6.86644E+00  6.90845E+00  6.95470E+00  7.00553E+00  7.06134E+00  7.12257E+00
 NY background values follow
    -2.771E+02   -2.745E+02   -2.719E+02   -2.693E+02   -2.667E+02   -2.641E+02   -2.615E+02   -2.589E+02   -2.563E+02   -2.537E+02
    -2.511E+02   -2.486E+02   -2.460E+02   -2.435E+02   -2.409E+02   -2.384E+02   -2.359E+02   -2.334E+02   -2.309E+02   -2.284E+02
    -2.259E+02   -2.235E+02   -2.210E+02   -2.186E+02   -2.162E+02   -2.138E+02   -2.114E+02   -2.091E+02   -2.068E+02   -2.044E+02
    -2.021E+02   -1.999E+02   -1.976E+02   -1.954E+02   -1.931E+02   -1.910E+02   -1.888E+02   -1.866E+02   -1.845E+02   -1.824E+02
    -1.804E+02   -1.783E+02   -1.763E+02   -1.743E+02   -1.724E+02   -1.704E+02   -1.685E+02   -1.667E+02   -1.648E+02   -1.630E+02
    -1.612E+02   -1.595E+02   -1.577E+02   -1.560E+02   -1.543E+02   -1.527E+02   -1.511E+02   -1.495E+02   -1.479E+02   -1.463E+02
    -1.448E+02   -1.433E+02   -1.418E+02   -1.403E+02   -1.388E+02   -1.374E+02   -1.360E+02   -1.346E+02   -1.332E+02   -1.318E+02
    -1.305E+02   -1.292E+02   -1.279E+02   -1.266E+02   -1.253E+02   -1.240E+02   -1.228E+02   -1.215E+02   -1.203E+02   -1.191E+02
    -1.179E+02   -1.167E+02   -1.155E+02   -1.143E+02   -1.132E+02   -1.120E+02   -1.109E+02   -1.098E+02   -1.086E+02   -1.075E+02
    -1.064E+02   -1.053E+02   -1.042E+02   -1.031E+02   -1.020E+02   -1.009E+02   -9.984E+01   -9.877E+01   -9.770E+01   -9.665E+01
    -9.560E+01   -9.455E+01   -9.352E+01   -9.249E+01   -9.147E+01   -9.046E+01   -8.946E+01   -8.847E+01   -8.748E+01   -8.650E+01
    -8.554E+01   -8.458E+01   -8.363E+01   -8.269E+01   -8.176E+01   -8.084E+01   -7.993E+01   -7.903E+01   -7.814E+01   -7.726E+01
    -7.640E+01   -7.554E+01   -7.470E+01   -7.386E+01   -7.304E+01   -7.223E+01   -7.143E+01   -7.064E+01   -6.987E+01   -6.911E+01
    -6.836E+01   -6.762E+01   -6.690E+01   -6.619E+01   -6.549E+01   -6.481E+01   -6.414E+01   -6.348E+01   -6.284E+01   -6.221E+01
    -6.159E+01   -6.099E+01   -6.040E+01   -5.982E+01   -5.925E+01   -5.870E+01   -5.815E+01   -5.762E+01   -5.709E+01   -5.658E+01
    -5.608E+01   -5.559E+01   -5.510E+01   -5.463E+01   -5.416E+01   -5.371E+01   -5.326E+01   -5.282E+01   -5.239E+01   -5.197E+01
    -5.155E+01   -5.115E+01   -5.074E+01   -5.035E+01   -4.996E+01   -4.958E+01   -4.920E+01   -4.883E+01   -4.847E+01   -4.811E+01
    -4.775E+01   -4.740E+01   -4.705E+01   -4.671E+01   -4.637E+01   -4.604E+01   -4.571E+01   -4.538E+01   -4.505E+01   -4.473E+01
    -4.440E+01   -4.408E+01   -4.377E+01   -4.345E+01   -4.313E+01   -4.282E+01   -4.251E+01   -4.220E+01   -4.189E+01   -4.159E+01
    -4.129E+01   -4.099E+01   -4.069E+01   -4.039E+01   -4.010E+01   -3.981E+01   -3.952E+01   -3.924E+01   -3.895E+01   -3.868E+01
    -3.840E+01   -3.813E+01   -3.785E+01   -3.759E+01   -3.732E+01   -3.706E+01   -3.681E+01   -3.655E+01   -3.630E+01   -3.605E+01
    -3.581E+01   -3.557E+01   -3.533E+01   -3.510E+01   -3.487E+01   -3.465E+01   -3.443E+01   -3.421E+01   -3.400E+01   -3.379E+01
    -3.359E+01   -3.339E+01   -3.320E+01   -3.301E+01   -3.282E+01   -3.264E+01   -3.247E+01   -3.229E+01   -3.213E+01   -3.197E+01
    -3.181E+01   -3.165E+01   -3.150E+01   -3.135E+01   -3.121E+01   -3.106E+01   -3.092E+01   -3.079E+01   -3.065E+01   -3.051E+01
    -3.038E+01   -3.025E+01   -3.012E+01   -2.998E+01   -2.985E+01   -2.972E+01   -2.959E+01   -2.946E+01   -2.932E+01   -2.919E+01
    -2.905E+01   -2.892E+01   -2.878E+01   -2.864E+01   -2.849E+01   -2.835E+01   -2.820E+01   -2.804E+01   -2.789E+01   -2.773E+01
    -2.756E+01   -2.739E+01   -2.722E+01   -2.704E+01   -2.686E+01   -2.667E+01   -2.648E+01   -2.628E+01   -2.607E+01   -2.586E+01
    -2.564E+01   -2.541E+01   -2.517E+01   -2.493E+01   -2.469E+01   -2.443E+01   -2.417E+01   -2.390E+01   -2.363E+01   -2.335E+01
    -2.306E+01   -2.277E+01   -2.247E+01   -2.217E+01   -2.186E+01   -2.155E+01   -2.124E+01   -2.091E+01   -2.059E+01   -2.026E+01
    -1.993E+01   -1.959E+01   -1.925E+01   -1.891E+01   -1.856E+01   -1.821E+01   -1.786E+01   -1.750E+01   -1.714E+01   -1.679E+01
    -1.642E+01   -1.606E+01   -1.570E+01   -1.533E+01   -1.496E+01   -1.459E+01   -1.423E+01   -1.386E+01   -1.349E+01   -1.312E+01
    -1.274E+01   -1.237E+01   -1.200E+01   -1.164E+01   -1.127E+01   -1.090E+01   -1.053E+01   -1.017E+01   -9.803E+00   -9.441E+00
    -9.080E+00   -8.722E+00   -8.366E+00   -8.012E+00   -7.660E+00   -7.311E+00   -6.965E+00   -6.622E+00   -6.282E+00   -5.945E+00
    -5.612E+00   -5.282E+00   -4.956E+00   -4.635E+00   -4.317E+00   -4.003E+00   -3.694E+00   -3.390E+00   -3.091E+00   -2.796E+00
    -2.507E+00   -2.222E+00   -1.944E+00   -1.671E+00   -1.403E+00   -1.142E+00   -8.868E-01   -6.378E-01   -3.954E-01   -1.595E-01
     6.960E-02    2.918E-01    5.068E-01    7.146E-01    9.149E-01    1.108E+00    1.293E+00    1.470E+00    1.638E+00    1.799E+00
     1.951E+00    2.095E+00    2.230E+00    2.356E+00    2.474E+00    2.584E+00    2.686E+00    2.780E+00    2.867E+00    2.948E+00
     3.021E+00    3.088E+00    3.149E+00    3.205E+00    3.255E+00    3.299E+00    3.339E+00    3.374E+00    3.405E+00    3.431E+00
     3.454E+00    3.474E+00    3.490E+00    3.503E+00    3.514E+00    3.522E+00    3.528E+00    3.532E+00    3.535E+00    3.537E+00
     3.538E+00    3.538E+00    3.538E+00    3.538E+00    3.538E+00    3.538E+00    3.540E+00    3.542E+00    3.546E+00    3.552E+00
     3.559E+00    3.569E+00    3.581E+00    3.596E+00    3.614E+00    3.635E+00    3.660E+00    3.689E+00    3.722E+00    3.759E+00
     3.800E+00    3.844E+00    3.892E+00    3.943E+00    3.997E+00    4.053E+00    4.113E+00    4.175E+00    4.239E+00    4.306E+00
     4.374E+00    4.445E+00    4.517E+00    4.591E+00    4.666E+00    4.742E+00    4.819E+00    4.897E+00    4.976E+00    5.055E+00
     5.135E+00    5.215E+00    5.295E+00    5.375E+00    5.454E+00    5.533E+00    5.611E+00    5.689E+00    5.765E+00    5.840E+00
     5.914E+00    5.987E+00    6.058E+00    6.127E+00    6.194E+00    6.259E+00    6.321E+00    6.381E+00    6.439E+00    6.493E+00
     6.545E+00    6.593E+00    6.638E+00    6.680E+00    6.718E+00    6.754E+00    6.786E+00    6.816E+00    6.842E+00    6.867E+00
     6.889E+00    6.909E+00    6.927E+00    6.943E+00    6.957E+00    6.970E+00    6.981E+00    6.992E+00    7.001E+00    7.009E+00
     7.016E+00    7.023E+00    7.029E+00    7.036E+00    7.041E+00    7.047E+00    7.054E+00    7.060E+00    7.067E+00    7.075E+00
     7.083E+00    7.092E+00    7.103E+00    7.115E+00    7.128E+00    7.142E+00    7.159E+00    7.177E+00    7.198E+00    7.220E+00
     7.245E+00    7.273E+00    7.303E+00    7.336E+00    7.372E+00    7.411E+00    7.453E+00    7.499E+00
 Ala      Conc. = 1.12E+03
