 LCModel (Version 6.3-1L) Copyright: S.W. Provencher.          Ref.: Magn. Reson. Med. 30:672-679 (1993).                
 Slice#3 Row#10 Col#14  K_02_press_1_raw_act
 36 lines in following concentration table = NCONC+1
    Conc.  %SD /Cr+PCr  Metabolite                                         
    0.715 839% 6.3E-02 Ala                                                 
    2.661  56%   0.234 Asp                                                 
    3.808 179%   0.335 Cr                                                  
    7.543  95%   0.665 PCr                                                 
    1.598  56%   0.141 GABA                                                
    1.606  56%   0.141 Glc                                                 
    8.400 132%   0.740 Gln                                                 
    0.000 999%   0.000 Glu                                                 
    4.290  50%   0.378 GPC                                                 
    0.000 999%   0.000 PCh                                                 
    5.094  99%   0.449 GSH                                                 
    0.000 999%   0.000 Ins                                                 
    7.044  95%   0.621 Lac                                                 
   20.940  41%   1.845 NAA                                                 
    8.658  60%   0.763 NAAG                                                
    0.507  59% 4.5E-02 Scyllo                                              
    2.608  57%   0.230 Tau                                                 
    1.159  99%   0.102 -CrCH2                                              
    4.290  50%   0.378 GPC+PCh                                             
   29.598  39%   2.608 NAA+NAAG                                            
   11.351  51%   1.000 Cr+PCr                                              
    8.400 132%   0.740 Glu+Gln                                             
 2.49E+04  10% 2.2E+03 Lip13a                                              
    0.000 999%   0.000 Lip13b                                              
 5.45E+03  16% 479.845 Lip09                                               
 2.46E+03  23% 216.525 MM09                                                
    0.000 999%   0.000 Lip20                                               
    0.000 999%   0.000 MM20                                                
 2.53E+03  22% 222.972 MM12                                                
 1.99E+03  35% 175.122 MM14                                                
 1.03E+03  26%  90.966 MM17                                                
 2.49E+04  10% 2.2E+03 Lip13a+Lip13b                                       
 2.94E+04   7% 2.6E+03 MM14+Lip13a+Lip13b+MM12                             
 7.90E+03  12% 696.370 MM09+Lip09                                          
    0.000 999%   0.000 MM20+Lip20                                          
   6 lines in following misc. output table
  FWHM = 0.023 ppm    S/N =  33                                            
  Data shift = 0.000 ppm                                                   
  Ph:  41 deg      -1.6 deg/ppm                                            
  alphaB,S = 4.3E+01,   3.8E+00                                            
   14 spline knots.   Ns = 5(1)                                            
  ( 5) 3 infls.   ( 3) 2 extrs.                                            
  498 points on ppm-axis = NY
      4.000000     3.992357     3.984714     3.977070     3.969427     3.961784     3.954141     3.946497     3.938854     3.931211
      3.923568     3.915925     3.908281     3.900638     3.892995     3.885352     3.877708     3.870065     3.862422     3.854779
      3.847136     3.839492     3.831849     3.824206     3.816563     3.808919     3.801276     3.793633     3.785990     3.778347
      3.770703     3.763060     3.755417     3.747774     3.740130     3.732487     3.724844     3.717201     3.709558     3.701914
      3.694271     3.686628     3.678985     3.671341     3.663698     3.656055     3.648412     3.640769     3.633125     3.625482
      3.617839     3.610196     3.602552     3.594909     3.587266     3.579623     3.571980     3.564336     3.556693     3.549050
      3.541407     3.533763     3.526120     3.518477     3.510834     3.503191     3.495547     3.487904     3.480261     3.472618
      3.464974     3.457331     3.449688     3.442045     3.434402     3.426758     3.419115     3.411472     3.403829     3.396185
      3.388542     3.380899     3.373256     3.365613     3.357969     3.350326     3.342683     3.335040     3.327396     3.319753
      3.312110     3.304467     3.296824     3.289180     3.281537     3.273894     3.266251     3.258607     3.250964     3.243321
      3.235678     3.228034     3.220391     3.212748     3.205105     3.197462     3.189818     3.182175     3.174532     3.166889
      3.159245     3.151602     3.143959     3.136316     3.128673     3.121029     3.113386     3.105743     3.098100     3.090456
      3.082813     3.075170     3.067527     3.059884     3.052240     3.044597     3.036954     3.029311     3.021667     3.014024
      3.006381     2.998738     2.991095     2.983451     2.975808     2.968165     2.960522     2.952878     2.945235     2.937592
      2.929949     2.922306     2.914662     2.907019     2.899376     2.891733     2.884089     2.876446     2.868803     2.861160
      2.853517     2.845873     2.838230     2.830587     2.822944     2.815300     2.807657     2.800014     2.792371     2.784728
      2.777084     2.769441     2.761798     2.754155     2.746511     2.738868     2.731225     2.723582     2.715939     2.708295
      2.700652     2.693009     2.685366     2.677722     2.670079     2.662436     2.654793     2.647150     2.639506     2.631863
      2.624220     2.616577     2.608933     2.601290     2.593647     2.586004     2.578361     2.570717     2.563074     2.555431
      2.547788     2.540144     2.532501     2.524858     2.517215     2.509572     2.501928     2.494285     2.486642     2.478999
      2.471355     2.463712     2.456069     2.448426     2.440783     2.433139     2.425496     2.417853     2.410210     2.402566
      2.394923     2.387280     2.379637     2.371994     2.364350     2.356707     2.349064     2.341421     2.333777     2.326134
      2.318491     2.310848     2.303205     2.295561     2.287918     2.280275     2.272632     2.264988     2.257345     2.249702
      2.242059     2.234416     2.226772     2.219129     2.211486     2.203843     2.196199     2.188556     2.180913     2.173270
      2.165627     2.157983     2.150340     2.142697     2.135054     2.127410     2.119767     2.112124     2.104481     2.096838
      2.089194     2.081551     2.073908     2.066265     2.058621     2.050978     2.043335     2.035692     2.028049     2.020405
      2.012762     2.005119     1.997476     1.989833     1.982190     1.974546     1.966903     1.959260     1.951617     1.943974
      1.936331     1.928688     1.921045     1.913402     1.905759     1.898115     1.890472     1.882829     1.875186     1.867543
      1.859900     1.852257     1.844614     1.836971     1.829327     1.821684     1.814041     1.806398     1.798755     1.791112
      1.783469     1.775826     1.768183     1.760540     1.752896     1.745253     1.737610     1.729967     1.722324     1.714681
      1.707038     1.699395     1.691752     1.684108     1.676465     1.668822     1.661179     1.653536     1.645893     1.638250
      1.630607     1.622964     1.615321     1.607677     1.600034     1.592391     1.584748     1.577105     1.569462     1.561819
      1.554176     1.546533     1.538890     1.531246     1.523603     1.515960     1.508317     1.500674     1.493031     1.485388
      1.477745     1.470102     1.462458     1.454815     1.447172     1.439529     1.431886     1.424243     1.416600     1.408957
      1.401314     1.393671     1.386027     1.378384     1.370741     1.363098     1.355455     1.347812     1.340169     1.332526
      1.324883     1.317240     1.309596     1.301953     1.294310     1.286667     1.279024     1.271381     1.263738     1.256095
      1.248452     1.240808     1.233165     1.225522     1.217879     1.210236     1.202593     1.194950     1.187307     1.179664
      1.172021     1.164377     1.156734     1.149091     1.141448     1.133805     1.126162     1.118519     1.110876     1.103233
      1.095590     1.087946     1.080303     1.072660     1.065017     1.057374     1.049731     1.042088     1.034445     1.026802
      1.019158     1.011515     1.003872     0.996229     0.988586     0.980943     0.973300     0.965657     0.958014     0.950371
      0.942727     0.935084     0.927441     0.919798     0.912155     0.904512     0.896869     0.889226     0.881583     0.873940
      0.866296     0.858653     0.851010     0.843367     0.835724     0.828081     0.820438     0.812795     0.805152     0.797508
      0.789865     0.782222     0.774579     0.766936     0.759293     0.751650     0.744007     0.736364     0.728721     0.721077
      0.713434     0.705791     0.698148     0.690505     0.682862     0.675219     0.667576     0.659933     0.652290     0.644646
      0.637003     0.629360     0.621717     0.614074     0.606431     0.598788     0.591145     0.583502     0.575858     0.568215
      0.560572     0.552929     0.545286     0.537643     0.530000     0.522357     0.514714     0.507071     0.499427     0.491784
      0.484141     0.476498     0.468855     0.461212     0.453569     0.445925     0.438282     0.430639     0.422996     0.415353
      0.407710     0.400067     0.392424     0.384780     0.377137     0.369494     0.361851     0.354208     0.346565     0.338922
      0.331278     0.323635     0.315992     0.308349     0.300706     0.293063     0.285420     0.277777     0.270133     0.262490
      0.254847     0.247204     0.239561     0.231918     0.224275     0.216631     0.208988     0.201345
 NY phased data points follow
   1.72562E+00  1.38580E+00  1.18981E+00  2.73852E+00  1.12126E+00 -5.77542E-02 -6.06778E-02  1.91113E-01  8.74123E-01  4.55473E-01
   6.26606E-02  6.20319E-01  1.97311E+00  5.43825E-01  1.04443E+00  2.40364E+00  3.42701E-01  1.99582E+00  4.11449E-01  2.30169E-01
  -4.15991E-01  4.32454E-01  3.04901E-01  2.30910E-01 -3.45256E-01  2.84086E+00  1.12388E+00  2.10173E+00  1.59482E-01 -5.86330E-01
   1.77140E-01  5.52932E-01  2.57490E+00  4.60825E-01  9.14825E-01  1.46742E+00  2.72807E+00  1.42175E+00  9.82639E-01  2.31969E-01
   7.17537E-01  6.12951E-01 -1.08478E-01 -5.22585E-01  2.94547E+00  6.61685E-01  7.31647E-01  1.69703E+00  2.89838E+00  5.84039E-01
   7.47437E-01  4.25032E-01  7.07674E-01  2.56124E+00  3.65524E-01 -5.17075E-01  7.81087E-01 -6.86405E-01  1.57466E+00 -1.50322E-01
   1.61589E+00  2.14509E+00  3.17800E+00  7.87076E-01  4.61925E-01  1.38883E+00 -4.32855E-01  1.90035E+00 -7.19871E-01  2.28105E+00
   1.59181E+00  1.15572E+00  1.59257E+00  1.14289E+00  2.01594E+00  8.52597E-01  1.82971E+00  8.73187E-01  1.26510E+00  1.91591E+00
   1.32742E+00  4.48722E-01  3.26486E+00  7.51268E-01  1.06510E+00  1.31976E-01  4.37148E-01  3.16815E-02  1.69708E+00 -4.81596E-01
  -1.47875E+00  1.50560E+00  6.61882E-01 -6.03648E-01  1.25870E+00  6.09204E-01 -3.79973E-01 -1.22633E+00  8.55854E-01 -1.69547E-01
  -1.12615E+00 -1.06246E+00 -1.70184E+00 -1.81396E+00  1.06254E+00  2.36110E+00  1.72175E+00  8.73670E-01  9.35845E-02 -2.06295E-01
   4.29871E-01  2.26610E-01  2.27811E-01 -6.84377E-01 -2.39104E-01  1.42126E-01 -8.26203E-02  2.48903E-01  1.26014E+00  1.04982E+00
   5.51543E-01  2.98186E-01  2.66637E-01 -6.35260E-01  4.46616E-01  2.64781E-01 -1.52585E+00 -5.51123E-01  2.69435E-01  1.54781E+00
   2.33066E+00  1.15408E+00  1.05316E+00  1.90256E+00  6.90035E-01  6.39555E-02  9.57389E-01  9.30218E-02 -3.65572E-01 -9.29755E-02
   2.62640E-01  9.68454E-01  1.50506E+00 -5.61190E-01  1.12219E+00  9.61696E-01  6.13327E-01  1.12341E+00  1.47213E+00  3.40492E-01
   8.38345E-01 -6.63351E-01  2.43212E-01  1.24096E+00  7.56328E-01  1.45288E-01  6.25122E-01  2.20825E+00  5.48377E-01  3.78007E-01
   3.54020E-01  1.00012E+00  9.20371E-01  1.47064E+00  4.17390E-01  1.05962E+00  1.32337E+00  1.12041E+00  2.22018E+00  8.29131E-01
   7.42144E-01  6.73021E-01  1.75036E+00  1.60995E+00  1.14508E+00  4.99753E-01  1.78896E+00 -7.36229E-01 -5.55825E-01  1.49700E+00
   4.10108E-01  6.21179E-01  1.33771E+00  9.41846E-01 -1.86046E-01  7.38214E-01  6.68174E-01  2.40150E+00  1.03649E+00 -7.95113E-01
   1.15741E+00  8.54860E-01  1.91769E+00  2.27616E-01  1.25951E+00  1.32981E+00  1.66985E-02  9.40388E-01  3.51643E-01  1.03867E+00
   7.14544E-01  8.51680E-01  4.60653E-01 -3.13560E-01 -5.07954E-01 -2.24493E-01  1.53765E+00  8.89248E-01 -6.97680E-01  2.18800E+00
   8.39584E-01  1.51630E+00  8.75622E-01  6.23166E-01  1.67644E+00 -8.65154E-02  1.52871E-01  2.53036E-01  6.74803E-01  5.34714E-01
  -5.72645E-01 -4.33353E-02  7.88912E-01  1.34104E-01 -6.91301E-01  2.03827E+00  5.19076E-02 -1.34939E+00  1.56066E+00  3.66445E-01
  -5.16416E-01  8.56622E-01  1.80399E+00  1.06281E+00 -3.83784E-01  1.23732E+00 -8.43498E-01  1.47851E+00 -1.37239E-01  6.25017E-01
   6.99225E-01  1.09996E+00  1.46707E-01  8.83863E-01  1.36554E+00  1.03654E-01 -1.64936E-01 -9.59791E-01 -6.78797E-01  1.49861E-01
   1.36747E-01 -1.08751E+00 -8.44755E-02  6.60207E-01 -1.63605E+00 -1.00292E+00 -2.21616E-01  1.12443E+00  1.10273E+00 -1.36305E+00
   1.97174E-01  2.36855E+00  5.01567E+00  4.00542E+00  2.97394E+00  1.44592E+00  6.99800E-01 -3.02116E-01  2.40018E+00  3.41242E+00
   1.22205E+00  1.58043E+00  3.04684E+00  1.31237E+00  2.34148E+00  3.67924E+00  3.82434E+00  5.66011E+00  2.66922E+00  4.74716E+00
   4.85950E+00  5.45314E+00  6.35735E+00  4.90407E+00  6.20030E+00  5.82801E+00  5.78680E+00  6.44670E+00  7.41856E+00  6.23061E+00
   8.60110E+00  6.90165E+00  8.61910E+00  8.65437E+00  8.24658E+00  1.00629E+01  1.03683E+01  1.11965E+01  1.22303E+01  1.12976E+01
   1.05362E+01  1.13641E+01  1.11748E+01  1.35032E+01  1.32191E+01  1.31603E+01  1.34424E+01  1.38989E+01  1.39377E+01  1.50304E+01
   1.61156E+01  1.75917E+01  1.78944E+01  1.84529E+01  1.94809E+01  1.87617E+01  1.95706E+01  2.05054E+01  2.03295E+01  2.31193E+01
   2.18684E+01  2.34287E+01  2.54731E+01  2.51815E+01  2.93278E+01  2.76693E+01  3.01823E+01  3.13552E+01  3.35259E+01  3.38008E+01
   3.51350E+01  3.80600E+01  3.82757E+01  3.72144E+01  4.17901E+01  4.21762E+01  4.55270E+01  4.39096E+01  4.73312E+01  4.62190E+01
   4.82837E+01  5.03717E+01  5.31536E+01  5.54448E+01  5.51617E+01  5.84190E+01  5.91168E+01  6.01222E+01  6.18148E+01  6.33253E+01
   6.62271E+01  6.54356E+01  6.58180E+01  6.81501E+01  6.83778E+01  7.03148E+01  7.13987E+01  7.22144E+01  7.28912E+01  7.44576E+01
   7.61176E+01  7.65973E+01  7.79772E+01  7.61185E+01  7.89844E+01  7.81968E+01  7.77977E+01  7.70799E+01  7.68238E+01  7.73545E+01
   7.68265E+01  7.37982E+01  7.28298E+01  7.43994E+01  7.17683E+01  7.07001E+01  6.97525E+01  6.73285E+01  6.72363E+01  6.28202E+01
   6.46093E+01  6.22563E+01  6.01990E+01  6.07841E+01  5.78080E+01  5.71774E+01  5.63933E+01  5.31214E+01  5.24207E+01  4.95160E+01
   4.90465E+01  4.72199E+01  4.66177E+01  4.60383E+01  4.38453E+01  4.23182E+01  4.12375E+01  3.97873E+01  3.95827E+01  3.92351E+01
   3.60082E+01  3.64801E+01  3.43549E+01  3.11942E+01  3.22605E+01  2.90442E+01  2.99456E+01  2.77982E+01  2.69922E+01  2.50196E+01
   2.50869E+01  2.46313E+01  2.32991E+01  2.20360E+01  2.16555E+01  1.92811E+01  2.07253E+01  1.85032E+01  1.65119E+01  1.48930E+01
   1.37109E+01  1.33824E+01  1.18495E+01  1.15734E+01  1.17492E+01  1.05472E+01  8.99210E+00  8.94812E+00  7.84458E+00  8.24612E+00
   7.53394E+00  7.63338E+00  5.45597E+00  5.95633E+00  4.73670E+00  4.46263E+00  5.61238E+00  2.43310E+00  2.69874E+00  2.44651E+00
   2.11197E+00  1.15557E+00  7.70262E-01  1.78208E-01  5.05496E-01  1.31634E+00 -3.42549E-01 -1.92866E+00 -1.05560E+00 -1.74992E+00
  -2.92589E+00 -2.06954E+00 -3.79664E+00 -1.88146E+00 -3.88324E+00 -3.46218E+00 -4.25443E+00 -5.75743E+00 -5.75220E+00 -4.27231E+00
  -3.68434E+00 -4.67475E+00 -5.78657E+00 -5.72119E+00 -5.60218E+00 -5.44643E+00 -6.92690E+00 -6.80673E+00 -6.70897E+00 -7.37663E+00
  -5.47182E+00 -5.75163E+00 -7.83245E+00 -9.38342E+00 -6.23015E+00 -7.34514E+00 -7.29411E+00 -8.97331E+00 -7.99628E+00 -8.97005E+00
  -6.81995E+00 -7.51147E+00 -7.12806E+00 -7.82052E+00 -8.54077E+00 -9.37843E+00 -9.28340E+00 -7.49099E+00 -8.97371E+00 -7.89669E+00
  -7.72992E+00 -9.41014E+00 -1.01974E+01 -1.11047E+01 -1.08967E+01 -8.97342E+00 -9.34909E+00 -7.88274E+00
 NY points of the fit to the data follow
   4.65473E-01  4.58628E-01  4.68227E-01  4.88151E-01  4.95282E-01  4.61159E-01  3.70435E-01  1.96486E-01  9.26886E-03 -3.60116E-02
   1.51346E-01  5.17350E-01  8.95224E-01  1.13127E+00  1.17460E+00  1.08627E+00  9.75304E-01  9.12176E-01  9.01393E-01  8.89351E-01
   8.50357E-01  8.07237E-01  8.00543E-01  8.41785E-01  9.09481E-01  9.53864E-01  9.20487E-01  7.75976E-01  5.25233E-01  3.05089E-01
   3.13139E-01  5.99535E-01  9.99382E-01  1.28720E+00  1.36960E+00  1.29559E+00  1.15892E+00  1.01518E+00  9.02514E-01  8.63980E-01
   8.91603E-01  9.33361E-01  9.52716E-01  9.59979E-01  9.72823E-01  9.89146E-01  1.00244E+00  1.00553E+00  9.90175E-01  9.58812E-01
   9.35241E-01  9.44388E-01  9.79836E-01  1.01003E+00  1.01892E+00  1.01815E+00  1.02124E+00  1.02583E+00  1.02402E+00  1.01476E+00
   1.00456E+00  9.98940E-01  9.96089E-01  9.92501E-01  9.86081E-01  9.80753E-01  9.83504E-01  9.94369E-01  1.00738E+00  1.01666E+00
   1.01574E+00  1.00014E+00  9.73589E-01  9.42377E-01  9.17570E-01  9.20262E-01  9.60865E-01  1.01970E+00  1.05944E+00  1.05696E+00
   1.01969E+00  9.70916E-01  9.28490E-01  8.96472E-01  8.67446E-01  8.51244E-01  8.77889E-01  9.51400E-01  1.02814E+00  1.05732E+00
   1.03497E+00  1.00233E+00  9.94829E-01  1.00572E+00  1.00389E+00  9.77823E-01  9.40531E-01  9.02675E-01  7.95729E-01  5.62740E-01
   1.50684E-01 -3.51376E-01 -4.86643E-01  1.50754E-01  1.31436E+00  2.23621E+00  2.39994E+00  1.98869E+00  1.51086E+00  1.24905E+00
   1.13829E+00  1.07282E+00  1.02521E+00  9.88216E-01  9.59244E-01  9.36414E-01  9.19331E-01  9.09111E-01  9.06828E-01  9.08351E-01
   9.07240E-01  8.95332E-01  8.08734E-01  5.83821E-01  2.02673E-01 -2.63708E-01 -4.62429E-01 -4.20320E-03  9.87635E-01  1.86931E+00
   2.10981E+00  1.77823E+00  1.33226E+00  1.10773E+00  1.08673E+00  1.10162E+00  1.05686E+00  9.28979E-01  7.64440E-01  6.32804E-01
   5.77075E-01  5.96987E-01  6.58127E-01  7.13761E-01  7.33601E-01  7.23094E-01  7.04919E-01  6.89861E-01  6.76275E-01  6.60227E-01
   6.46369E-01  6.37985E-01  6.33375E-01  6.22921E-01  5.92672E-01  5.43826E-01  4.99904E-01  4.90272E-01  5.27040E-01  5.87401E-01
   6.14648E-01  5.68251E-01  4.66352E-01  3.73401E-01  3.50992E-01  4.02474E-01  4.72160E-01  5.03551E-01  4.83564E-01  4.30252E-01
   3.70362E-01  3.33775E-01  3.39232E-01  3.80505E-01  4.23449E-01  4.15317E-01  3.37476E-01  2.41017E-01  2.04229E-01  2.50192E-01
   3.17575E-01  3.23852E-01  2.56120E-01  1.81523E-01  1.65775E-01  1.99043E-01  2.08664E-01  1.44996E-01  4.64960E-02 -2.39314E-03
   4.37662E-02  1.64656E-01  3.01707E-01  3.97788E-01  4.21946E-01  3.84799E-01  3.18621E-01  2.31598E-01  1.18121E-01  2.22169E-03
  -6.40407E-02 -5.30408E-02  1.56076E-02  1.11178E-01  2.20196E-01  3.38435E-01  4.41591E-01  4.95187E-01  4.80046E-01  3.73740E-01
   1.88062E-01  7.38096E-03 -7.82464E-02 -5.99863E-02  6.19267E-04  5.19084E-02  9.00647E-02  1.26512E-01  1.55759E-01  1.66387E-01
   1.64495E-01  1.59623E-01  1.58122E-01  1.69543E-01  1.98442E-01  2.37800E-01  2.77114E-01  3.09832E-01  3.36335E-01  3.57281E-01
   3.55420E-01  3.11703E-01  2.36864E-01  1.80065E-01  1.86764E-01  2.38651E-01  2.85186E-01  3.20886E-01  3.79575E-01  4.65804E-01
   5.53172E-01  6.14654E-01  6.27507E-01  5.83485E-01  5.07651E-01  4.55501E-01  4.68035E-01  5.30905E-01  5.95291E-01  6.32673E-01
   6.43225E-01  5.95778E-01  4.83597E-01  3.04901E-01  1.52279E-01  2.13290E-01  5.11140E-01  7.61277E-01  5.90145E-01  3.79742E-01
   1.04466E+00  2.66743E+00  4.15754E+00  4.44711E+00  3.66226E+00  2.71890E+00  2.23007E+00  2.13874E+00  2.16233E+00  2.21553E+00
   2.28489E+00  2.37528E+00  2.49421E+00  2.64093E+00  2.80882E+00  2.99114E+00  3.18180E+00  3.37622E+00  3.57515E+00  3.78692E+00
   4.02076E+00  4.27855E+00  4.55918E+00  4.86316E+00  5.19092E+00  5.54041E+00  5.90840E+00  6.29179E+00  6.68867E+00  7.09650E+00
   7.51277E+00  7.93873E+00  8.37764E+00  8.82808E+00  9.28278E+00  9.73287E+00  1.01737E+01  1.06045E+01  1.10237E+01  1.14294E+01
   1.18231E+01  1.22091E+01  1.25906E+01  1.29686E+01  1.33438E+01  1.37194E+01  1.41004E+01  1.44925E+01  1.49015E+01  1.53336E+01
   1.57948E+01  1.62910E+01  1.68277E+01  1.74098E+01  1.80416E+01  1.87268E+01  1.94682E+01  2.02679E+01  2.11267E+01  2.20448E+01
   2.30212E+01  2.40537E+01  2.51389E+01  2.62753E+01  2.74622E+01  2.86999E+01  2.99890E+01  3.13188E+01  3.26664E+01  3.40152E+01
   3.53674E+01  3.67362E+01  3.81273E+01  3.95329E+01  4.09504E+01  4.23908E+01  4.38588E+01  4.53392E+01  4.68108E+01  4.82659E+01
   4.97117E+01  5.11546E+01  5.25877E+01  5.40140E+01  5.54623E+01  5.69699E+01  5.85910E+01  6.03000E+01  6.19277E+01  6.33089E+01
   6.44465E+01  6.55018E+01  6.66030E+01  6.77393E+01  6.89095E+01  7.01993E+01  7.16272E+01  7.30300E+01  7.42120E+01  7.51257E+01
   7.58598E+01  7.65017E+01  7.70553E+01  7.74855E+01  7.77713E+01  7.78991E+01  7.78594E+01  7.76463E+01  7.72580E+01  7.66971E+01
   7.59702E+01  7.50885E+01  7.40670E+01  7.29239E+01  7.16799E+01  7.03568E+01  6.89764E+01  6.75597E+01  6.61255E+01  6.46897E+01
   6.32644E+01  6.18579E+01  6.04746E+01  5.91150E+01  5.77769E+01  5.64555E+01  5.51444E+01  5.38368E+01  5.25261E+01  5.12068E+01
   4.98749E+01  4.85284E+01  4.71673E+01  4.57937E+01  4.44115E+01  4.30258E+01  4.16430E+01  4.02695E+01  3.89117E+01  3.75755E+01
   3.62659E+01  3.49869E+01  3.37407E+01  3.25288E+01  3.13509E+01  3.02059E+01  2.90918E+01  2.80059E+01  2.69450E+01  2.59058E+01
   2.48853E+01  2.38804E+01  2.28885E+01  2.19078E+01  2.09366E+01  1.99741E+01  1.90199E+01  1.80742E+01  1.71377E+01  1.62112E+01
   1.52961E+01  1.43939E+01  1.35061E+01  1.26345E+01  1.17806E+01  1.09459E+01  1.01319E+01  9.33982E+00  8.57072E+00  7.82548E+00
   7.10471E+00  6.40886E+00  5.73816E+00  5.09269E+00  4.47235E+00  3.87687E+00  3.30583E+00  2.75870E+00  2.23490E+00  1.73375E+00
   1.25450E+00  7.96360E-01  3.58488E-01 -5.99519E-02 -4.59793E-01 -8.41861E-01 -1.20699E+00 -1.55602E+00 -1.88975E+00 -2.20895E+00
  -2.51435E+00 -2.80665E+00 -3.08654E+00 -3.35470E+00 -3.61174E+00 -3.85825E+00 -4.09477E+00 -4.32183E+00 -4.53994E+00 -4.74958E+00
  -4.95120E+00 -5.14520E+00 -5.33196E+00 -5.51187E+00 -5.68529E+00 -5.85255E+00 -6.01395E+00 -6.16977E+00 -6.32028E+00 -6.46576E+00
  -6.60645E+00 -6.74259E+00 -6.87438E+00 -7.00200E+00 -7.12565E+00 -7.24554E+00 -7.36184E+00 -7.47469E+00 -7.58423E+00 -7.69061E+00
  -7.79396E+00 -7.89444E+00 -7.99216E+00 -8.08722E+00 -8.17972E+00 -8.26975E+00 -8.35744E+00 -8.44289E+00 -8.52617E+00 -8.60735E+00
  -8.68650E+00 -8.76370E+00 -8.83905E+00 -8.91262E+00 -8.98444E+00 -9.05457E+00 -9.12307E+00 -9.19000E+00
 NY background values follow
     7.978E+00    7.994E+00    8.009E+00    8.025E+00    8.040E+00    8.055E+00    8.069E+00    8.084E+00    8.098E+00    8.111E+00
     8.125E+00    8.138E+00    8.151E+00    8.163E+00    8.176E+00    8.188E+00    8.199E+00    8.211E+00    8.222E+00    8.233E+00
     8.244E+00    8.254E+00    8.264E+00    8.274E+00    8.283E+00    8.292E+00    8.301E+00    8.310E+00    8.318E+00    8.326E+00
     8.334E+00    8.342E+00    8.349E+00    8.356E+00    8.363E+00    8.369E+00    8.376E+00    8.381E+00    8.387E+00    8.392E+00
     8.397E+00    8.402E+00    8.407E+00    8.411E+00    8.415E+00    8.419E+00    8.422E+00    8.425E+00    8.428E+00    8.431E+00
     8.433E+00    8.435E+00    8.437E+00    8.439E+00    8.440E+00    8.441E+00    8.442E+00    8.443E+00    8.443E+00    8.443E+00
     8.442E+00    8.442E+00    8.441E+00    8.440E+00    8.439E+00    8.437E+00    8.435E+00    8.433E+00    8.431E+00    8.428E+00
     8.425E+00    8.422E+00    8.419E+00    8.415E+00    8.411E+00    8.407E+00    8.402E+00    8.398E+00    8.393E+00    8.388E+00
     8.382E+00    8.377E+00    8.371E+00    8.364E+00    8.358E+00    8.351E+00    8.344E+00    8.337E+00    8.330E+00    8.322E+00
     8.314E+00    8.306E+00    8.297E+00    8.289E+00    8.280E+00    8.271E+00    8.261E+00    8.251E+00    8.242E+00    8.231E+00
     8.221E+00    8.210E+00    8.200E+00    8.188E+00    8.177E+00    8.165E+00    8.154E+00    8.142E+00    8.129E+00    8.117E+00
     8.104E+00    8.091E+00    8.078E+00    8.064E+00    8.051E+00    8.037E+00    8.023E+00    8.008E+00    7.994E+00    7.979E+00
     7.964E+00    7.948E+00    7.933E+00    7.917E+00    7.901E+00    7.885E+00    7.868E+00    7.852E+00    7.835E+00    7.818E+00
     7.801E+00    7.783E+00    7.765E+00    7.747E+00    7.729E+00    7.711E+00    7.692E+00    7.673E+00    7.654E+00    7.635E+00
     7.615E+00    7.596E+00    7.576E+00    7.556E+00    7.535E+00    7.515E+00    7.494E+00    7.473E+00    7.452E+00    7.431E+00
     7.409E+00    7.387E+00    7.365E+00    7.343E+00    7.321E+00    7.298E+00    7.275E+00    7.252E+00    7.229E+00    7.206E+00
     7.182E+00    7.158E+00    7.134E+00    7.110E+00    7.086E+00    7.061E+00    7.037E+00    7.012E+00    6.986E+00    6.961E+00
     6.936E+00    6.910E+00    6.884E+00    6.858E+00    6.832E+00    6.805E+00    6.778E+00    6.752E+00    6.725E+00    6.697E+00
     6.670E+00    6.642E+00    6.615E+00    6.587E+00    6.559E+00    6.530E+00    6.502E+00    6.473E+00    6.444E+00    6.415E+00
     6.386E+00    6.357E+00    6.327E+00    6.298E+00    6.268E+00    6.238E+00    6.208E+00    6.177E+00    6.147E+00    6.116E+00
     6.085E+00    6.054E+00    6.023E+00    5.992E+00    5.960E+00    5.929E+00    5.897E+00    5.865E+00    5.833E+00    5.801E+00
     5.768E+00    5.736E+00    5.703E+00    5.670E+00    5.637E+00    5.604E+00    5.571E+00    5.537E+00    5.503E+00    5.470E+00
     5.436E+00    5.402E+00    5.367E+00    5.333E+00    5.299E+00    5.264E+00    5.229E+00    5.194E+00    5.159E+00    5.124E+00
     5.089E+00    5.053E+00    5.018E+00    4.982E+00    4.946E+00    4.910E+00    4.874E+00    4.838E+00    4.802E+00    4.765E+00
     4.729E+00    4.692E+00    4.655E+00    4.618E+00    4.581E+00    4.544E+00    4.506E+00    4.469E+00    4.431E+00    4.394E+00
     4.356E+00    4.318E+00    4.280E+00    4.242E+00    4.204E+00    4.165E+00    4.127E+00    4.088E+00    4.049E+00    4.011E+00
     3.972E+00    3.933E+00    3.894E+00    3.855E+00    3.815E+00    3.776E+00    3.736E+00    3.697E+00    3.657E+00    3.617E+00
     3.577E+00    3.538E+00    3.497E+00    3.457E+00    3.417E+00    3.377E+00    3.336E+00    3.296E+00    3.255E+00    3.215E+00
     3.174E+00    3.133E+00    3.092E+00    3.051E+00    3.010E+00    2.969E+00    2.928E+00    2.887E+00    2.845E+00    2.804E+00
     2.762E+00    2.721E+00    2.679E+00    2.637E+00    2.595E+00    2.554E+00    2.512E+00    2.470E+00    2.428E+00    2.386E+00
     2.343E+00    2.301E+00    2.259E+00    2.217E+00    2.174E+00    2.132E+00    2.089E+00    2.047E+00    2.004E+00    1.961E+00
     1.919E+00    1.876E+00    1.833E+00    1.790E+00    1.747E+00    1.704E+00    1.661E+00    1.618E+00    1.575E+00    1.532E+00
     1.489E+00    1.446E+00    1.402E+00    1.359E+00    1.316E+00    1.272E+00    1.229E+00    1.186E+00    1.142E+00    1.099E+00
     1.055E+00    1.012E+00    9.682E-01    9.246E-01    8.810E-01    8.374E-01    7.938E-01    7.501E-01    7.064E-01    6.627E-01
     6.190E-01    5.753E-01    5.315E-01    4.878E-01    4.440E-01    4.002E-01    3.564E-01    3.126E-01    2.688E-01    2.250E-01
     1.812E-01    1.374E-01    9.354E-02    4.970E-02    5.869E-03   -3.797E-02   -8.180E-02   -1.256E-01   -1.695E-01   -2.133E-01
    -2.571E-01   -3.009E-01   -3.447E-01   -3.885E-01   -4.323E-01   -4.761E-01   -5.198E-01   -5.636E-01   -6.073E-01   -6.510E-01
    -6.947E-01   -7.384E-01   -7.821E-01   -8.257E-01   -8.694E-01   -9.130E-01   -9.565E-01   -1.000E+00   -1.044E+00   -1.087E+00
    -1.131E+00   -1.174E+00   -1.217E+00   -1.261E+00   -1.304E+00   -1.348E+00   -1.391E+00   -1.434E+00   -1.477E+00   -1.520E+00
    -1.564E+00   -1.607E+00   -1.650E+00   -1.693E+00   -1.736E+00   -1.779E+00   -1.821E+00   -1.864E+00   -1.907E+00   -1.950E+00
    -1.993E+00   -2.035E+00   -2.078E+00   -2.120E+00   -2.163E+00   -2.205E+00   -2.248E+00   -2.290E+00   -2.332E+00   -2.374E+00
    -2.416E+00   -2.458E+00   -2.500E+00   -2.542E+00   -2.584E+00   -2.626E+00   -2.668E+00   -2.709E+00   -2.751E+00   -2.793E+00
    -2.834E+00   -2.875E+00   -2.917E+00   -2.958E+00   -2.999E+00   -3.040E+00   -3.081E+00   -3.122E+00   -3.163E+00   -3.204E+00
    -3.244E+00   -3.285E+00   -3.325E+00   -3.366E+00   -3.406E+00   -3.446E+00   -3.487E+00   -3.527E+00   -3.567E+00   -3.607E+00
    -3.646E+00   -3.686E+00   -3.726E+00   -3.765E+00   -3.804E+00   -3.844E+00   -3.883E+00   -3.922E+00   -3.961E+00   -4.000E+00
    -4.039E+00   -4.077E+00   -4.116E+00   -4.155E+00   -4.193E+00   -4.231E+00   -4.269E+00   -4.307E+00   -4.345E+00   -4.383E+00
    -4.421E+00   -4.458E+00   -4.496E+00   -4.533E+00   -4.570E+00   -4.608E+00   -4.645E+00   -4.681E+00   -4.718E+00   -4.755E+00
    -4.791E+00   -4.828E+00   -4.864E+00   -4.900E+00   -4.936E+00   -4.972E+00   -5.008E+00   -5.043E+00   -5.079E+00   -5.114E+00
    -5.149E+00   -5.184E+00   -5.219E+00   -5.254E+00   -5.288E+00   -5.323E+00   -5.357E+00   -5.392E+00   -5.426E+00   -5.460E+00
    -5.493E+00   -5.527E+00   -5.560E+00   -5.594E+00   -5.627E+00   -5.660E+00   -5.693E+00   -5.726E+00
 Ala      Conc. = 7.15E-01
