 LCModel (Version 6.3-1L) Copyright: S.W. Provencher.          Ref.: Magn. Reson. Med. 30:672-679 (1993).                
 Slice#2 Row#10 Col#12  K_02_press_1_raw_act
 36 lines in following concentration table = NCONC+1
    Conc.  %SD /Cr+PCr  Metabolite                                         
   72.107  96%   0.109 Ala                                                 
    0.000 999%   0.000 Asp                                                 
    0.000 999%   0.000 Cr                                                  
  660.919   6%   1.000 PCr                                                 
   11.727 784% 1.8E-02 GABA                                                
  120.585  77%   0.182 Glc                                                 
  273.759  51%   0.414 Gln                                                 
 1.18E+03  15%   1.786 Glu                                                 
  128.266  11%   0.194 GPC                                                 
    0.000 999%   0.000 PCh                                                 
   77.781  61%   0.118 GSH                                                 
  350.430  44%   0.530 Ins                                                 
    0.000 999%   0.000 Lac                                                 
 1.81E+03   6%   2.740 NAA                                                 
  447.832  24%   0.678 NAAG                                                
   22.226  76% 3.4E-02 Scyllo                                              
  253.350  49%   0.383 Tau                                                 
  500.026  12%   0.757 -CrCH2                                              
  128.266  11%   0.194 GPC+PCh                                             
 2.26E+03   3%   3.418 NAA+NAAG                                            
  660.919   6%   1.000 Cr+PCr                                              
 1.45E+03  16%   2.200 Glu+Gln                                             
 6.62E+03  11%  10.011 Lip13a                                              
   67.961 188%   0.103 Lip13b                                              
 1.78E+03  21%   2.698 Lip09                                               
  550.175  51%   0.832 MM09                                                
 1.79E+03  10%   2.704 Lip20                                               
 1.37E+03  22%   2.078 MM20                                                
    8.130 999% 1.2E-02 MM12                                                
 1.85E+03  15%   2.799 MM14                                                
  187.183  76%   0.283 MM17                                                
 6.68E+03  10%  10.113 Lip13a+Lip13b                                       
 8.54E+03   4%  12.925 MM14+Lip13a+Lip13b+MM12                             
 2.33E+03   7%   3.530 MM09+Lip09                                          
 3.16E+03   8%   4.783 MM20+Lip20                                          
   6 lines in following misc. output table
  FWHM = 0.046 ppm    S/N =  17                                            
  Data shift = 0.000 ppm                                                   
  Ph:  60 deg      18.5 deg/ppm                                            
  alphaB,S = 2.6E+00,   8.2E+01                                            
   14 spline knots.   Ns = 7(1)                                            
  ( 6) 2 infls.   ( 1) 1 extrs.                                            
  498 points on ppm-axis = NY
      4.000000     3.992357     3.984714     3.977070     3.969427     3.961784     3.954141     3.946497     3.938854     3.931211
      3.923568     3.915925     3.908281     3.900638     3.892995     3.885352     3.877708     3.870065     3.862422     3.854779
      3.847136     3.839492     3.831849     3.824206     3.816563     3.808919     3.801276     3.793633     3.785990     3.778347
      3.770703     3.763060     3.755417     3.747774     3.740130     3.732487     3.724844     3.717201     3.709558     3.701914
      3.694271     3.686628     3.678985     3.671341     3.663698     3.656055     3.648412     3.640769     3.633125     3.625482
      3.617839     3.610196     3.602552     3.594909     3.587266     3.579623     3.571980     3.564336     3.556693     3.549050
      3.541407     3.533763     3.526120     3.518477     3.510834     3.503191     3.495547     3.487904     3.480261     3.472618
      3.464974     3.457331     3.449688     3.442045     3.434402     3.426758     3.419115     3.411472     3.403829     3.396185
      3.388542     3.380899     3.373256     3.365613     3.357969     3.350326     3.342683     3.335040     3.327396     3.319753
      3.312110     3.304467     3.296824     3.289180     3.281537     3.273894     3.266251     3.258607     3.250964     3.243321
      3.235678     3.228034     3.220391     3.212748     3.205105     3.197462     3.189818     3.182175     3.174532     3.166889
      3.159245     3.151602     3.143959     3.136316     3.128673     3.121029     3.113386     3.105743     3.098100     3.090456
      3.082813     3.075170     3.067527     3.059884     3.052240     3.044597     3.036954     3.029311     3.021667     3.014024
      3.006381     2.998738     2.991095     2.983451     2.975808     2.968165     2.960522     2.952878     2.945235     2.937592
      2.929949     2.922306     2.914662     2.907019     2.899376     2.891733     2.884089     2.876446     2.868803     2.861160
      2.853517     2.845873     2.838230     2.830587     2.822944     2.815300     2.807657     2.800014     2.792371     2.784728
      2.777084     2.769441     2.761798     2.754155     2.746511     2.738868     2.731225     2.723582     2.715939     2.708295
      2.700652     2.693009     2.685366     2.677722     2.670079     2.662436     2.654793     2.647150     2.639506     2.631863
      2.624220     2.616577     2.608933     2.601290     2.593647     2.586004     2.578361     2.570717     2.563074     2.555431
      2.547788     2.540144     2.532501     2.524858     2.517215     2.509572     2.501928     2.494285     2.486642     2.478999
      2.471355     2.463712     2.456069     2.448426     2.440783     2.433139     2.425496     2.417853     2.410210     2.402566
      2.394923     2.387280     2.379637     2.371994     2.364350     2.356707     2.349064     2.341421     2.333777     2.326134
      2.318491     2.310848     2.303205     2.295561     2.287918     2.280275     2.272632     2.264988     2.257345     2.249702
      2.242059     2.234416     2.226772     2.219129     2.211486     2.203843     2.196199     2.188556     2.180913     2.173270
      2.165627     2.157983     2.150340     2.142697     2.135054     2.127410     2.119767     2.112124     2.104481     2.096838
      2.089194     2.081551     2.073908     2.066265     2.058621     2.050978     2.043335     2.035692     2.028049     2.020405
      2.012762     2.005119     1.997476     1.989833     1.982190     1.974546     1.966903     1.959260     1.951617     1.943974
      1.936331     1.928688     1.921045     1.913402     1.905759     1.898115     1.890472     1.882829     1.875186     1.867543
      1.859900     1.852257     1.844614     1.836971     1.829327     1.821684     1.814041     1.806398     1.798755     1.791112
      1.783469     1.775826     1.768183     1.760540     1.752896     1.745253     1.737610     1.729967     1.722324     1.714681
      1.707038     1.699395     1.691752     1.684108     1.676465     1.668822     1.661179     1.653536     1.645893     1.638250
      1.630607     1.622964     1.615321     1.607677     1.600034     1.592391     1.584748     1.577105     1.569462     1.561819
      1.554176     1.546533     1.538890     1.531246     1.523603     1.515960     1.508317     1.500674     1.493031     1.485388
      1.477745     1.470102     1.462458     1.454815     1.447172     1.439529     1.431886     1.424243     1.416600     1.408957
      1.401314     1.393671     1.386027     1.378384     1.370741     1.363098     1.355455     1.347812     1.340169     1.332526
      1.324883     1.317240     1.309596     1.301953     1.294310     1.286667     1.279024     1.271381     1.263738     1.256095
      1.248452     1.240808     1.233165     1.225522     1.217879     1.210236     1.202593     1.194950     1.187307     1.179664
      1.172021     1.164377     1.156734     1.149091     1.141448     1.133805     1.126162     1.118519     1.110876     1.103233
      1.095590     1.087946     1.080303     1.072660     1.065017     1.057374     1.049731     1.042088     1.034445     1.026802
      1.019158     1.011515     1.003872     0.996229     0.988586     0.980943     0.973300     0.965657     0.958014     0.950371
      0.942727     0.935084     0.927441     0.919798     0.912155     0.904512     0.896869     0.889226     0.881583     0.873940
      0.866296     0.858653     0.851010     0.843367     0.835724     0.828081     0.820438     0.812795     0.805152     0.797508
      0.789865     0.782222     0.774579     0.766936     0.759293     0.751650     0.744007     0.736364     0.728721     0.721077
      0.713434     0.705791     0.698148     0.690505     0.682862     0.675219     0.667576     0.659933     0.652290     0.644646
      0.637003     0.629360     0.621717     0.614074     0.606431     0.598788     0.591145     0.583502     0.575858     0.568215
      0.560572     0.552929     0.545286     0.537643     0.530000     0.522357     0.514714     0.507071     0.499427     0.491784
      0.484141     0.476498     0.468855     0.461212     0.453569     0.445925     0.438282     0.430639     0.422996     0.415353
      0.407710     0.400067     0.392424     0.384780     0.377137     0.369494     0.361851     0.354208     0.346565     0.338922
      0.331278     0.323635     0.315992     0.308349     0.300706     0.293063     0.285420     0.277777     0.270133     0.262490
      0.254847     0.247204     0.239561     0.231918     0.224275     0.216631     0.208988     0.201345
 NY phased data points follow
   4.63730E+00  5.42198E+00  8.11034E+00  4.59984E+00  6.03688E+00  8.57100E+00  4.85498E+00  7.13213E+00  5.68247E+00  4.60273E+00
   7.30042E+00  5.96209E+00  6.64967E+00  5.76731E+00  8.71740E+00  7.82731E+00  6.45389E+00  7.08297E+00  8.01930E+00  7.35654E+00
   3.09090E+00  6.51009E+00  3.48587E+00  5.41828E+00  6.35406E+00  6.81488E+00  3.52959E+00  6.11616E+00  6.36051E+00  4.97335E+00
   5.84058E+00  5.57849E+00  4.60518E+00  3.63326E+00  3.70462E+00  6.02059E+00  4.84137E+00  5.22481E+00  1.17855E+00  5.35344E+00
   3.61184E-01  7.06408E+00  3.06777E+00  5.70388E+00  4.09097E+00  3.50780E+00  3.26668E+00  8.11049E+00  6.84964E+00  6.52881E+00
   5.33923E+00  4.60045E+00  7.56461E+00  7.53629E+00  5.19327E+00  6.39648E+00  1.00174E+01  3.07331E+00  9.22669E+00  8.66261E+00
   3.90859E+00  6.66442E+00  4.30824E+00  4.05517E+00  4.21048E+00  5.58282E+00  3.95388E+00  2.94953E+00  5.04721E+00  2.13418E-01
   3.98506E+00  4.10087E+00  5.65282E+00  2.82559E+00  3.10137E+00  1.71772E+00  4.43787E+00  2.19835E+00  2.50438E+00  6.44973E+00
   2.16822E+00  3.27878E+00  5.46731E+00  3.81384E+00  4.47375E+00  5.05442E+00  4.05719E+00  2.87847E+00  1.83008E+00  8.64736E-01
   4.42452E+00  3.88278E+00  2.57983E+00  2.42402E+00  4.79052E-01  7.59165E-01  3.42981E+00  5.45102E+00  3.42282E+00  5.68148E+00
   4.51319E+00  9.50408E+00  8.09365E+00  1.33357E+01  1.45784E+01  1.52826E+01  1.29891E+01  1.22267E+01  1.07922E+01  7.00259E+00
   7.86785E+00  1.00638E+01  4.14796E+00  4.87863E+00  5.32040E+00  3.55794E+00  1.99282E+00  2.58942E+00  2.22636E+00  4.00223E+00
   2.54970E+00  2.39334E+00  5.79832E+00  2.79034E+00  6.60905E+00  7.51090E+00  1.32773E+01  2.18150E+01  2.58162E+01  2.41684E+01
   2.42702E+01  2.12899E+01  1.64171E+01  1.50904E+01  1.21866E+01  1.25114E+01  7.54696E+00  7.52819E+00  4.98810E+00  9.71041E+00
   7.06957E+00  6.38090E+00  4.74228E+00  6.65057E+00  7.04345E+00  7.90477E+00  3.33780E+00  4.92931E+00  4.97665E+00  4.52754E+00
   4.24914E+00  5.55111E+00  5.65637E+00  3.54427E+00  5.77299E+00  5.22642E+00  3.60147E+00  5.85174E+00  5.25263E+00  6.14955E+00
   6.51904E+00  5.90066E+00  3.42631E+00  3.92243E+00  2.98787E+00  1.15568E+00  1.40825E+00  2.86108E+00  2.03720E-01  1.14267E+00
  -3.02050E+00 -2.22956E+00 -5.42999E+00 -2.00796E+00 -3.59325E+00 -8.08793E+00 -5.54892E+00 -5.93127E+00 -6.58420E+00 -3.43075E+00
  -6.00922E+00 -5.24278E+00 -6.21371E+00 -4.01852E+00 -1.46824E+00 -3.39331E+00 -3.85575E+00 -3.90493E+00 -3.71406E+00 -4.23590E+00
  -4.03993E+00 -2.63634E+00 -7.44500E-02  5.09661E-01  2.67287E+00  5.25071E-02 -1.22665E+00  2.62245E+00 -5.52755E+00 -1.01065E+01
  -4.94490E+00 -2.19174E+00  1.02531E+00  1.10701E+00  5.02349E+00  5.42055E+00  2.05572E+00  1.80833E+00  3.04708E+00 -1.55142E+00
   3.64805E-01  4.03109E-01  1.22651E+00  5.97190E+00  9.73226E+00  1.54610E+01  1.63013E+01  1.50394E+01  1.06899E+01  6.22550E+00
   3.89260E+00  3.19181E+00  1.82840E+00 -3.12695E-02  1.94514E+00  4.02468E+00  8.35369E+00  7.78570E+00  9.13234E+00  7.30936E+00
   7.33549E+00  8.79003E+00  7.80086E+00  6.43950E+00  6.34137E+00  9.23511E+00  1.05119E+01  6.96680E+00  1.08436E+01  9.41195E+00
   6.82291E+00  8.42637E+00  5.90258E+00  8.66066E+00  6.93356E+00  9.74202E+00  1.34995E+01  1.23659E+01  1.40463E+01  1.50774E+01
   1.68030E+01  1.81962E+01  2.38264E+01  2.85315E+01  3.25535E+01  3.50886E+01  4.42908E+01  5.63448E+01  6.80453E+01  7.81436E+01
   8.84580E+01  8.87572E+01  7.65451E+01  5.88566E+01  4.40914E+01  3.06343E+01  2.40576E+01  1.44407E+01  7.09968E+00  7.10078E+00
   6.08830E+00  1.28391E+00  4.96408E+00  3.37936E+00  2.18281E+00  3.68624E+00  2.32587E+00  4.16274E+00  3.90274E+00  1.63343E+00
   9.91252E-01  1.95188E+00  3.52284E+00  3.87493E+00  1.80223E-01  2.78954E+00  5.63647E+00  1.75990E+00  2.49774E+00  3.18790E+00
   3.69686E+00  1.61978E+00  3.62476E+00  1.17409E+00  4.80469E-01 -4.64998E-01  7.81446E-01  2.55895E+00 -1.07169E+00  3.31628E+00
   3.65269E+00  1.74735E+00  5.76517E-01  5.87981E+00  4.43415E+00  2.30890E+00  2.65649E+00  5.27135E+00  4.41398E+00  7.42073E+00
   9.33038E+00  7.88575E+00  5.72005E+00  4.88268E+00  5.24959E+00  7.31629E+00  5.03447E+00  8.12725E+00  3.98189E+00  6.04247E+00
   6.55087E+00  5.23324E+00  9.10844E+00  9.25610E+00  7.58902E+00  8.85568E+00  1.25288E+01  1.08083E+01  1.40571E+01  1.31385E+01
   1.50825E+01  1.47269E+01  1.81643E+01  1.67546E+01  2.02900E+01  2.06927E+01  2.19848E+01  2.72515E+01  2.71292E+01  2.88892E+01
   2.71857E+01  2.66596E+01  2.79828E+01  2.89675E+01  2.76923E+01  2.89104E+01  3.00149E+01  2.95753E+01  3.01786E+01  2.99112E+01
   2.84734E+01  2.81037E+01  3.16949E+01  2.69487E+01  3.09058E+01  2.74370E+01  2.83680E+01  3.02666E+01  2.72721E+01  2.59283E+01
   2.16340E+01  2.48947E+01  2.03189E+01  2.22331E+01  2.15917E+01  1.82976E+01  1.94654E+01  2.19812E+01  1.88309E+01  1.57783E+01
   1.74243E+01  1.62831E+01  1.71471E+01  1.71977E+01  1.17830E+01  1.31139E+01  1.39528E+01  1.32415E+01  1.11774E+01  1.50166E+01
   1.18554E+01  1.41138E+01  1.22075E+01  1.39623E+01  1.10468E+01  1.27145E+01  1.18186E+01  1.17424E+01  1.38192E+01  1.58050E+01
   1.39298E+01  1.42999E+01  1.74524E+01  1.55956E+01  1.07244E+01  1.45613E+01  1.80485E+01  1.66686E+01  1.54758E+01  1.59894E+01
   1.47439E+01  1.30571E+01  1.74096E+01  1.73246E+01  1.59920E+01  1.28302E+01  1.38056E+01  1.47475E+01  1.59679E+01  1.59595E+01
   1.17321E+01  1.27102E+01  1.23334E+01  1.23892E+01  1.11119E+01  9.88998E+00  8.77860E+00  9.78450E+00  8.94162E+00  6.18000E+00
   9.15680E+00  4.66152E+00  4.56561E+00  7.14606E+00  6.63429E+00  5.47598E+00  6.80161E+00  4.89843E+00  5.21915E+00  5.88719E+00
   3.71962E+00  7.40110E+00  4.10914E+00  4.43050E+00  5.50434E+00  3.91098E+00  4.82834E+00  5.94964E+00  2.14099E+00  5.24717E+00
   5.26058E+00  4.33635E+00  3.54472E+00  6.38153E+00  5.54452E+00  4.27984E+00  4.02983E+00  3.75549E+00  5.95738E+00  3.16811E+00
   3.47778E+00  4.47480E+00  3.74938E+00  3.85042E+00  1.89950E+00  4.19249E+00  7.66540E-02  1.39704E+00  5.20860E+00  1.90985E+00
   4.66091E+00  1.38174E+00  4.13441E+00  2.59371E+00  3.38345E+00  6.75541E-01  8.35615E-01  2.98281E+00  2.73053E+00  4.06368E+00
   3.14073E+00  2.44960E+00  3.58874E+00  3.87425E+00  1.98313E+00  2.41615E+00  2.24804E+00  1.52617E-01 -6.67549E-01  1.03573E+00
   2.76330E+00  3.68613E+00  2.34183E+00  2.25379E+00  2.92852E+00  1.15471E+00  5.77443E+00  1.65136E+00  2.49867E+00  3.56751E-01
   6.19543E-02  2.54903E+00 -9.96725E-01  2.83600E+00  5.06786E-01  3.03164E+00  1.37080E+00  1.00261E+00
 NY points of the fit to the data follow
   4.82388E+00  4.60073E+00  4.43960E+00  4.38331E+00  4.57841E+00  4.65809E+00  4.58860E+00  4.68147E+00  5.09077E+00  5.83485E+00
   6.89528E+00  8.01371E+00  8.67451E+00  8.54082E+00  7.81637E+00  6.98266E+00  6.35457E+00  5.94171E+00  5.50370E+00  5.11810E+00
   5.07335E+00  5.16027E+00  5.35385E+00  5.57679E+00  5.61315E+00  5.39226E+00  4.96752E+00  4.48022E+00  4.20002E+00  4.46972E+00
   5.42774E+00  6.76551E+00  7.94499E+00  8.54648E+00  8.33031E+00  7.35863E+00  5.98575E+00  4.63199E+00  3.70476E+00  3.37665E+00
   3.53150E+00  3.91325E+00  4.28240E+00  4.64218E+00  5.09796E+00  5.65479E+00  6.22461E+00  6.65274E+00  6.79858E+00  6.59853E+00
   6.05549E+00  5.33630E+00  4.69439E+00  4.23912E+00  3.90256E+00  3.64501E+00  3.52968E+00  3.59596E+00  3.78362E+00  4.01550E+00
   4.23020E+00  4.33933E+00  4.31063E+00  4.15447E+00  3.95675E+00  3.83058E+00  3.77251E+00  3.72368E+00  3.70774E+00  3.72640E+00
   3.75221E+00  3.85440E+00  4.09438E+00  4.42884E+00  4.76282E+00  4.99859E+00  5.00337E+00  4.70477E+00  4.21416E+00  3.72413E+00
   3.37039E+00  3.23933E+00  3.32529E+00  3.52951E+00  3.76577E+00  3.94537E+00  3.95229E+00  3.74811E+00  3.39387E+00  3.00886E+00
   2.71057E+00  2.53942E+00  2.41468E+00  2.22209E+00  2.05154E+00  2.10340E+00  2.47590E+00  3.17883E+00  3.82494E+00  4.50144E+00
   5.76872E+00  7.87984E+00  1.06013E+01  1.33867E+01  1.53749E+01  1.57054E+01  1.42255E+01  1.17487E+01  9.30022E+00  7.31877E+00
   5.71876E+00  4.28613E+00  3.17588E+00  2.68340E+00  2.52364E+00  2.44332E+00  2.39497E+00  2.38398E+00  2.40496E+00  2.47227E+00
   2.68132E+00  3.27657E+00  3.98053E+00  4.75554E+00  6.55400E+00  1.00047E+01  1.48016E+01  2.00395E+01  2.43224E+01  2.60941E+01
   2.46491E+01  2.08643E+01  1.64991E+01  1.27596E+01  9.78688E+00  7.18825E+00  4.99976E+00  3.83900E+00  3.59854E+00  3.70932E+00
   3.96257E+00  4.26062E+00  4.55075E+00  4.80130E+00  4.99830E+00  5.16009E+00  5.30439E+00  5.42952E+00  5.54519E+00  5.65421E+00
   5.73394E+00  5.76797E+00  5.75045E+00  5.66324E+00  5.55229E+00  5.52827E+00  5.53679E+00  5.44189E+00  5.12921E+00  4.54066E+00
   3.86154E+00  3.36060E+00  3.17863E+00  3.23498E+00  3.27830E+00  3.01595E+00  2.33469E+00  1.43228E+00  5.95732E-01 -8.96291E-02
  -5.96508E-01 -1.02370E+00 -1.54355E+00 -2.13176E+00 -2.68951E+00 -3.09005E+00 -3.21233E+00 -3.04661E+00 -2.77760E+00 -2.67967E+00
  -2.80732E+00 -2.91320E+00 -2.84720E+00 -2.60949E+00 -2.32725E+00 -2.08941E+00 -1.74276E+00 -1.08325E+00 -4.23591E-02  1.14181E+00
   2.08228E+00  2.61064E+00  2.83321E+00  2.89115E+00  2.80574E+00  2.56239E+00  2.24533E+00  1.95088E+00  1.71427E+00  1.70715E+00
   2.06965E+00  2.78852E+00  3.63008E+00  4.28578E+00  4.58238E+00  4.30174E+00  3.32279E+00  1.86163E+00  2.52472E-01 -1.13644E+00
  -2.08341E+00 -2.17268E+00 -1.01029E+00  1.25456E+00  4.07372E+00  6.72355E+00  8.48271E+00  8.84987E+00  7.61060E+00  5.17598E+00
   2.51910E+00  3.35298E-01 -9.12391E-01 -8.02554E-01  7.58093E-01  3.36590E+00  6.04201E+00  8.06986E+00  9.29858E+00  9.88194E+00
   9.96242E+00  9.57199E+00  8.94585E+00  8.46102E+00  8.27437E+00  8.28245E+00  8.39838E+00  8.59867E+00  8.77163E+00  8.76539E+00
   8.56672E+00  8.37180E+00  8.40660E+00  8.85379E+00  9.79171E+00  1.10915E+01  1.24673E+01  1.36534E+01  1.46878E+01  1.57800E+01
   1.67407E+01  1.79520E+01  2.06653E+01  2.58451E+01  3.11485E+01  3.67177E+01  4.49469E+01  5.60059E+01  6.82458E+01  7.96903E+01
   8.69872E+01  8.60296E+01  7.57813E+01  6.02126E+01  4.51155E+01  3.35188E+01  2.45512E+01  1.64613E+01  1.00188E+01  7.04562E+00
   5.83424E+00  5.09695E+00  4.65139E+00  4.41337E+00  4.24962E+00  4.06514E+00  3.82504E+00  3.52627E+00  3.21779E+00  2.95469E+00
   2.75233E+00  2.60192E+00  2.51027E+00  2.47992E+00  2.48518E+00  2.48838E+00  2.46356E+00  2.41923E+00  2.37884E+00  2.35657E+00
   2.36184E+00  2.40574E+00  2.48981E+00  2.59978E+00  2.71038E+00  2.80714E+00  2.88920E+00  2.96218E+00  3.03252E+00  3.10599E+00
   3.19329E+00  3.30500E+00  3.43599E+00  3.57459E+00  3.71275E+00  3.84835E+00  3.98267E+00  4.11496E+00  4.24374E+00  4.37344E+00
   4.50848E+00  4.65307E+00  4.81218E+00  4.99047E+00  5.19288E+00  5.42549E+00  5.69551E+00  6.01090E+00  6.38016E+00  6.81386E+00
   7.32391E+00  7.89657E+00  8.54537E+00  9.31730E+00  1.02004E+01  1.11304E+01  1.20386E+01  1.28665E+01  1.36050E+01  1.42979E+01
   1.50169E+01  1.58729E+01  1.69339E+01  1.81889E+01  1.95977E+01  2.11210E+01  2.26741E+01  2.40913E+01  2.52605E+01  2.62030E+01
   2.69864E+01  2.76555E+01  2.82088E+01  2.86344E+01  2.89685E+01  2.92478E+01  2.94627E+01  2.96099E+01  2.96914E+01  2.97104E+01
   2.96679E+01  2.95625E+01  2.93898E+01  2.91431E+01  2.88157E+01  2.84024E+01  2.79013E+01  2.73145E+01  2.66491E+01  2.59164E+01
   2.51305E+01  2.43073E+01  2.34619E+01  2.26075E+01  2.17551E+01  2.09129E+01  2.00874E+01  1.92838E+01  1.85060E+01  1.77577E+01
   1.70421E+01  1.63631E+01  1.57245E+01  1.51301E+01  1.45833E+01  1.40870E+01  1.36440E+01  1.32566E+01  1.29267E+01  1.26558E+01
   1.24445E+01  1.22931E+01  1.22015E+01  1.21689E+01  1.21942E+01  1.22752E+01  1.24091E+01  1.25919E+01  1.28191E+01  1.30851E+01
   1.33833E+01  1.37057E+01  1.40436E+01  1.43875E+01  1.47272E+01  1.50523E+01  1.53524E+01  1.56170E+01  1.58364E+01  1.60020E+01
   1.61067E+01  1.61450E+01  1.61131E+01  1.60091E+01  1.58331E+01  1.55875E+01  1.52764E+01  1.49055E+01  1.44816E+01  1.40125E+01
   1.35068E+01  1.29731E+01  1.24205E+01  1.18570E+01  1.12905E+01  1.07277E+01  1.01748E+01  9.63700E+00  9.11844E+00  8.62222E+00
   8.15044E+00  7.70462E+00  7.28555E+00  6.89353E+00  6.52816E+00  6.18868E+00  5.87397E+00  5.58291E+00  5.31423E+00  5.06662E+00
   4.83850E+00  4.62842E+00  4.43491E+00  4.25678E+00  4.09282E+00  3.94190E+00  3.80275E+00  3.67437E+00  3.55578E+00  3.44631E+00
   3.34518E+00  3.25168E+00  3.16502E+00  3.08465E+00  3.01005E+00  2.94090E+00  2.87670E+00  2.81705E+00  2.76144E+00  2.70964E+00
   2.66138E+00  2.61651E+00  2.57471E+00  2.53570E+00  2.49920E+00  2.46514E+00  2.43339E+00  2.40387E+00  2.37629E+00  2.35052E+00
   2.32638E+00  2.30391E+00  2.28300E+00  2.26361E+00  2.24550E+00  2.22860E+00  2.21283E+00  2.19826E+00  2.18480E+00  2.17239E+00
   2.16083E+00  2.15013E+00  2.14025E+00  2.13129E+00  2.12313E+00  2.11570E+00  2.10886E+00  2.10267E+00  2.09711E+00  2.09227E+00
   2.08799E+00  2.08422E+00  2.08088E+00  2.07806E+00  2.07575E+00  2.07399E+00  2.07263E+00  2.07165E+00  2.07100E+00  2.07079E+00
   2.07101E+00  2.07166E+00  2.07258E+00  2.07380E+00  2.07530E+00  2.07722E+00  2.07949E+00  2.08209E+00
 NY background values follow
     3.283E+00    3.263E+00    3.242E+00    3.222E+00    3.201E+00    3.181E+00    3.161E+00    3.140E+00    3.120E+00    3.099E+00
     3.079E+00    3.058E+00    3.038E+00    3.018E+00    2.997E+00    2.977E+00    2.956E+00    2.936E+00    2.916E+00    2.895E+00
     2.875E+00    2.855E+00    2.834E+00    2.814E+00    2.794E+00    2.773E+00    2.753E+00    2.732E+00    2.712E+00    2.692E+00
     2.672E+00    2.651E+00    2.631E+00    2.611E+00    2.590E+00    2.570E+00    2.550E+00    2.530E+00    2.509E+00    2.489E+00
     2.469E+00    2.449E+00    2.428E+00    2.408E+00    2.388E+00    2.368E+00    2.348E+00    2.328E+00    2.307E+00    2.287E+00
     2.267E+00    2.247E+00    2.227E+00    2.207E+00    2.187E+00    2.167E+00    2.147E+00    2.127E+00    2.107E+00    2.087E+00
     2.067E+00    2.047E+00    2.027E+00    2.007E+00    1.987E+00    1.967E+00    1.947E+00    1.927E+00    1.907E+00    1.887E+00
     1.868E+00    1.848E+00    1.828E+00    1.808E+00    1.789E+00    1.769E+00    1.749E+00    1.729E+00    1.710E+00    1.690E+00
     1.671E+00    1.651E+00    1.632E+00    1.612E+00    1.593E+00    1.573E+00    1.554E+00    1.534E+00    1.515E+00    1.495E+00
     1.476E+00    1.457E+00    1.438E+00    1.418E+00    1.399E+00    1.380E+00    1.361E+00    1.342E+00    1.323E+00    1.304E+00
     1.285E+00    1.266E+00    1.247E+00    1.228E+00    1.209E+00    1.190E+00    1.171E+00    1.152E+00    1.134E+00    1.115E+00
     1.096E+00    1.078E+00    1.059E+00    1.041E+00    1.022E+00    1.004E+00    9.857E-01    9.674E-01    9.491E-01    9.309E-01
     9.128E-01    8.946E-01    8.766E-01    8.586E-01    8.406E-01    8.227E-01    8.049E-01    7.871E-01    7.694E-01    7.517E-01
     7.341E-01    7.165E-01    6.991E-01    6.816E-01    6.642E-01    6.469E-01    6.297E-01    6.125E-01    5.953E-01    5.783E-01
     5.613E-01    5.444E-01    5.275E-01    5.108E-01    4.941E-01    4.775E-01    4.609E-01    4.445E-01    4.281E-01    4.119E-01
     3.957E-01    3.796E-01    3.636E-01    3.477E-01    3.319E-01    3.162E-01    3.006E-01    2.851E-01    2.697E-01    2.544E-01
     2.393E-01    2.242E-01    2.093E-01    1.945E-01    1.798E-01    1.652E-01    1.507E-01    1.364E-01    1.222E-01    1.081E-01
     9.414E-02    8.033E-02    6.665E-02    5.311E-02    3.970E-02    2.644E-02    1.333E-02    3.545E-04   -1.247E-02   -2.514E-02
    -3.767E-02   -5.004E-02   -6.225E-02   -7.431E-02   -8.621E-02   -9.796E-02   -1.096E-01   -1.210E-01   -1.323E-01   -1.434E-01
    -1.544E-01   -1.653E-01   -1.760E-01   -1.865E-01   -1.969E-01   -2.071E-01   -2.172E-01   -2.272E-01   -2.370E-01   -2.466E-01
    -2.561E-01   -2.655E-01   -2.747E-01   -2.838E-01   -2.927E-01   -3.015E-01   -3.101E-01   -3.186E-01   -3.270E-01   -3.352E-01
    -3.433E-01   -3.512E-01   -3.590E-01   -3.666E-01   -3.741E-01   -3.815E-01   -3.887E-01   -3.958E-01   -4.028E-01   -4.096E-01
    -4.163E-01   -4.229E-01   -4.293E-01   -4.356E-01   -4.417E-01   -4.477E-01   -4.536E-01   -4.593E-01   -4.650E-01   -4.704E-01
    -4.758E-01   -4.810E-01   -4.861E-01   -4.910E-01   -4.959E-01   -5.006E-01   -5.051E-01   -5.095E-01   -5.138E-01   -5.180E-01
    -5.220E-01   -5.259E-01   -5.296E-01   -5.332E-01   -5.367E-01   -5.401E-01   -5.433E-01   -5.464E-01   -5.493E-01   -5.521E-01
    -5.548E-01   -5.574E-01   -5.598E-01   -5.621E-01   -5.642E-01   -5.662E-01   -5.681E-01   -5.699E-01   -5.715E-01   -5.729E-01
    -5.743E-01   -5.755E-01   -5.766E-01   -5.775E-01   -5.783E-01   -5.790E-01   -5.795E-01   -5.799E-01   -5.802E-01   -5.803E-01
    -5.803E-01   -5.802E-01   -5.799E-01   -5.795E-01   -5.790E-01   -5.783E-01   -5.775E-01   -5.765E-01   -5.755E-01   -5.743E-01
    -5.730E-01   -5.715E-01   -5.699E-01   -5.682E-01   -5.664E-01   -5.644E-01   -5.623E-01   -5.601E-01   -5.577E-01   -5.553E-01
    -5.527E-01   -5.500E-01   -5.472E-01   -5.442E-01   -5.411E-01   -5.379E-01   -5.346E-01   -5.312E-01   -5.277E-01   -5.240E-01
    -5.202E-01   -5.163E-01   -5.123E-01   -5.082E-01   -5.040E-01   -4.996E-01   -4.951E-01   -4.906E-01   -4.859E-01   -4.811E-01
    -4.762E-01   -4.712E-01   -4.660E-01   -4.608E-01   -4.555E-01   -4.500E-01   -4.445E-01   -4.388E-01   -4.331E-01   -4.272E-01
    -4.213E-01   -4.152E-01   -4.090E-01   -4.028E-01   -3.964E-01   -3.899E-01   -3.834E-01   -3.767E-01   -3.700E-01   -3.631E-01
    -3.562E-01   -3.491E-01   -3.420E-01   -3.348E-01   -3.275E-01   -3.201E-01   -3.126E-01   -3.050E-01   -2.973E-01   -2.896E-01
    -2.817E-01   -2.738E-01   -2.658E-01   -2.577E-01   -2.495E-01   -2.412E-01   -2.329E-01   -2.245E-01   -2.160E-01   -2.074E-01
    -1.987E-01   -1.900E-01   -1.812E-01   -1.723E-01   -1.633E-01   -1.543E-01   -1.451E-01   -1.360E-01   -1.267E-01   -1.174E-01
    -1.080E-01   -9.849E-02   -8.895E-02   -7.935E-02   -6.968E-02   -5.994E-02   -5.013E-02   -4.026E-02   -3.033E-02   -2.034E-02
    -1.028E-02   -1.612E-04    1.002E-02    2.026E-02    3.055E-02    4.091E-02    5.132E-02    6.179E-02    7.232E-02    8.289E-02
     9.353E-02    1.042E-01    1.150E-01    1.257E-01    1.366E-01    1.475E-01    1.584E-01    1.694E-01    1.804E-01    1.915E-01
     2.027E-01    2.138E-01    2.250E-01    2.363E-01    2.476E-01    2.590E-01    2.703E-01    2.818E-01    2.932E-01    3.047E-01
     3.163E-01    3.279E-01    3.395E-01    3.511E-01    3.628E-01    3.745E-01    3.863E-01    3.981E-01    4.099E-01    4.218E-01
     4.336E-01    4.455E-01    4.575E-01    4.694E-01    4.814E-01    4.934E-01    5.055E-01    5.175E-01    5.296E-01    5.417E-01
     5.539E-01    5.660E-01    5.782E-01    5.904E-01    6.026E-01    6.148E-01    6.270E-01    6.393E-01    6.515E-01    6.638E-01
     6.761E-01    6.884E-01    7.008E-01    7.131E-01    7.254E-01    7.378E-01    7.501E-01    7.625E-01    7.749E-01    7.872E-01
     7.996E-01    8.120E-01    8.244E-01    8.368E-01    8.492E-01    8.616E-01    8.740E-01    8.863E-01    8.987E-01    9.111E-01
     9.235E-01    9.359E-01    9.483E-01    9.606E-01    9.730E-01    9.853E-01    9.977E-01    1.010E+00    1.022E+00    1.035E+00
     1.047E+00    1.059E+00    1.072E+00    1.084E+00    1.096E+00    1.109E+00    1.121E+00    1.133E+00    1.145E+00    1.158E+00
     1.170E+00    1.182E+00    1.195E+00    1.207E+00    1.219E+00    1.231E+00    1.244E+00    1.256E+00    1.268E+00    1.280E+00
     1.293E+00    1.305E+00    1.317E+00    1.329E+00    1.342E+00    1.354E+00    1.366E+00    1.378E+00    1.391E+00    1.403E+00
     1.415E+00    1.427E+00    1.440E+00    1.452E+00    1.464E+00    1.476E+00    1.489E+00    1.501E+00
 Ala      Conc. = 7.21E+01
