 LCModel (Version 6.3-1L) Copyright: S.W. Provencher.          Ref.: Magn. Reson. Med. 30:672-679 (1993).                
 Slice#3 Row#2 Col#12  K_02_press_1_raw_act
 36 lines in following concentration table = NCONC+1
    Conc.  %SD /Cr+PCr  Metabolite                                         
 5.36E+04  20%   0.000 Ala                                                 
   39.340  22%   0.000 Asp                                                 
    0.000 999%   0.000 Cr                                                  
    0.000 999%   0.000 PCr                                                 
   23.599  22%   0.000 GABA                                                
   23.613  22%   0.000 Glc                                                 
 3.05E+03  59%   0.000 Gln                                                 
    0.000 999%   0.000 Glu                                                 
    0.000 999%   0.000 GPC                                                 
  262.219  21%   0.000 PCh                                                 
    0.000 999%   0.000 GSH                                                 
    0.000 999%   0.000 Ins                                                 
 1.24E+04  97%   0.000 Lac                                                 
    0.000 999%   0.000 NAA                                                 
    0.000 999%   0.000 NAAG                                                
    7.887  22%   0.000 Scyllo                                              
   39.372  22%   0.000 Tau                                                 
 6.98E-03 999%   0.000 -CrCH2                                              
  262.219  21%   0.000 GPC+PCh                                             
    0.000 999%   0.000 NAA+NAAG                                            
    0.000 999%   0.000 Cr+PCr                                              
 3.05E+03  59%   0.000 Glu+Gln                                             
 1.54E+05  24%   0.000 Lip13a                                              
    0.000 999%   0.000 Lip13b                                              
 8.24E+04  19%   0.000 Lip09                                               
 4.69E+04  21%   0.000 MM09                                                
 1.59E+04  15%   0.000 Lip20                                               
 1.85E+04  11%   0.000 MM20                                                
 4.20E+04  22%   0.000 MM12                                                
 1.60E+05  19%   0.000 MM14                                                
 1.73E+05  12%   0.000+MM17                                                
 1.54E+05  24%   0.000 Lip13a+Lip13b                                       
 3.56E+05   9%   0.000 MM14+Lip13a+Lip13b+MM12                             
 1.29E+05  13%   0.000 MM09+Lip09                                          
 3.44E+04   9%   0.000 MM20+Lip20                                          
   6 lines in following misc. output table
  FWHM = 0.153 ppm    S/N = 149                                            
  Data shift = 0.222 ppm                                                   
  Ph: 148 deg     132.8 deg/ppm                                            
  alphaB,S = 1.2E+00,   4.1E+02                                            
    8 spline knots.   Ns = 9(2)                                            
  ( 9) 4 infls.   ( 4) 1 extrs.                                            
  498 points on ppm-axis = NY
      4.000000     3.992357     3.984714     3.977070     3.969427     3.961784     3.954141     3.946497     3.938854     3.931211
      3.923568     3.915925     3.908281     3.900638     3.892995     3.885352     3.877708     3.870065     3.862422     3.854779
      3.847136     3.839492     3.831849     3.824206     3.816563     3.808919     3.801276     3.793633     3.785990     3.778347
      3.770703     3.763060     3.755417     3.747774     3.740130     3.732487     3.724844     3.717201     3.709558     3.701914
      3.694271     3.686628     3.678985     3.671341     3.663698     3.656055     3.648412     3.640769     3.633125     3.625482
      3.617839     3.610196     3.602552     3.594909     3.587266     3.579623     3.571980     3.564336     3.556693     3.549050
      3.541407     3.533763     3.526120     3.518477     3.510834     3.503191     3.495547     3.487904     3.480261     3.472618
      3.464974     3.457331     3.449688     3.442045     3.434402     3.426758     3.419115     3.411472     3.403829     3.396185
      3.388542     3.380899     3.373256     3.365613     3.357969     3.350326     3.342683     3.335040     3.327396     3.319753
      3.312110     3.304467     3.296824     3.289180     3.281537     3.273894     3.266251     3.258607     3.250964     3.243321
      3.235678     3.228034     3.220391     3.212748     3.205105     3.197462     3.189818     3.182175     3.174532     3.166889
      3.159245     3.151602     3.143959     3.136316     3.128673     3.121029     3.113386     3.105743     3.098100     3.090456
      3.082813     3.075170     3.067527     3.059884     3.052240     3.044597     3.036954     3.029311     3.021667     3.014024
      3.006381     2.998738     2.991095     2.983451     2.975808     2.968165     2.960522     2.952878     2.945235     2.937592
      2.929949     2.922306     2.914662     2.907019     2.899376     2.891733     2.884089     2.876446     2.868803     2.861160
      2.853517     2.845873     2.838230     2.830587     2.822944     2.815300     2.807657     2.800014     2.792371     2.784728
      2.777084     2.769441     2.761798     2.754155     2.746511     2.738868     2.731225     2.723582     2.715939     2.708295
      2.700652     2.693009     2.685366     2.677722     2.670079     2.662436     2.654793     2.647150     2.639506     2.631863
      2.624220     2.616577     2.608933     2.601290     2.593647     2.586004     2.578361     2.570717     2.563074     2.555431
      2.547788     2.540144     2.532501     2.524858     2.517215     2.509572     2.501928     2.494285     2.486642     2.478999
      2.471355     2.463712     2.456069     2.448426     2.440783     2.433139     2.425496     2.417853     2.410210     2.402566
      2.394923     2.387280     2.379637     2.371994     2.364350     2.356707     2.349064     2.341421     2.333777     2.326134
      2.318491     2.310848     2.303205     2.295561     2.287918     2.280275     2.272632     2.264988     2.257345     2.249702
      2.242059     2.234416     2.226772     2.219129     2.211486     2.203843     2.196199     2.188556     2.180913     2.173270
      2.165627     2.157983     2.150340     2.142697     2.135054     2.127410     2.119767     2.112124     2.104481     2.096838
      2.089194     2.081551     2.073908     2.066265     2.058621     2.050978     2.043335     2.035692     2.028049     2.020405
      2.012762     2.005119     1.997476     1.989833     1.982190     1.974546     1.966903     1.959260     1.951617     1.943974
      1.936331     1.928688     1.921045     1.913402     1.905759     1.898115     1.890472     1.882829     1.875186     1.867543
      1.859900     1.852257     1.844614     1.836971     1.829327     1.821684     1.814041     1.806398     1.798755     1.791112
      1.783469     1.775826     1.768183     1.760540     1.752896     1.745253     1.737610     1.729967     1.722324     1.714681
      1.707038     1.699395     1.691752     1.684108     1.676465     1.668822     1.661179     1.653536     1.645893     1.638250
      1.630607     1.622964     1.615321     1.607677     1.600034     1.592391     1.584748     1.577105     1.569462     1.561819
      1.554176     1.546533     1.538890     1.531246     1.523603     1.515960     1.508317     1.500674     1.493031     1.485388
      1.477745     1.470102     1.462458     1.454815     1.447172     1.439529     1.431886     1.424243     1.416600     1.408957
      1.401314     1.393671     1.386027     1.378384     1.370741     1.363098     1.355455     1.347812     1.340169     1.332526
      1.324883     1.317240     1.309596     1.301953     1.294310     1.286667     1.279024     1.271381     1.263738     1.256095
      1.248452     1.240808     1.233165     1.225522     1.217879     1.210236     1.202593     1.194950     1.187307     1.179664
      1.172021     1.164377     1.156734     1.149091     1.141448     1.133805     1.126162     1.118519     1.110876     1.103233
      1.095590     1.087946     1.080303     1.072660     1.065017     1.057374     1.049731     1.042088     1.034445     1.026802
      1.019158     1.011515     1.003872     0.996229     0.988586     0.980943     0.973300     0.965657     0.958014     0.950371
      0.942727     0.935084     0.927441     0.919798     0.912155     0.904512     0.896869     0.889226     0.881583     0.873940
      0.866296     0.858653     0.851010     0.843367     0.835724     0.828081     0.820438     0.812795     0.805152     0.797508
      0.789865     0.782222     0.774579     0.766936     0.759293     0.751650     0.744007     0.736364     0.728721     0.721077
      0.713434     0.705791     0.698148     0.690505     0.682862     0.675219     0.667576     0.659933     0.652290     0.644646
      0.637003     0.629360     0.621717     0.614074     0.606431     0.598788     0.591145     0.583502     0.575858     0.568215
      0.560572     0.552929     0.545286     0.537643     0.530000     0.522357     0.514714     0.507071     0.499427     0.491784
      0.484141     0.476498     0.468855     0.461212     0.453569     0.445925     0.438282     0.430639     0.422996     0.415353
      0.407710     0.400067     0.392424     0.384780     0.377137     0.369494     0.361851     0.354208     0.346565     0.338922
      0.331278     0.323635     0.315992     0.308349     0.300706     0.293063     0.285420     0.277777     0.270133     0.262490
      0.254847     0.247204     0.239561     0.231918     0.224275     0.216631     0.208988     0.201345
 NY phased data points follow
  -2.55420E+01 -2.61747E+01 -2.26498E+01 -1.76315E+01 -2.00687E+01 -2.24944E+01 -1.52684E+01 -1.47044E+01 -1.63646E+01 -1.39155E+01
  -1.62315E+01 -1.11744E+01 -8.33698E+00 -1.04561E+01 -7.92399E+00 -4.42676E+00 -3.78467E+00 -6.42838E+00 -1.74054E+00 -2.50087E+00
   5.24662E-01  1.12319E-01  2.40782E+00  2.97713E+00  4.48627E+00  5.25534E+00  8.50786E+00  9.77689E+00  1.40476E+01  1.05943E+01
   1.26040E+01  1.62759E+01  1.98417E+01  2.15910E+01  2.48058E+01  2.33702E+01  2.18132E+01  2.43813E+01  2.38622E+01  2.78966E+01
   2.64441E+01  3.39559E+01  3.19935E+01  3.06653E+01  3.36522E+01  4.09302E+01  3.44795E+01  4.05587E+01  4.24077E+01  4.27176E+01
   4.34904E+01  4.94562E+01  4.83635E+01  4.99386E+01  5.28138E+01  5.32890E+01  5.42050E+01  5.67187E+01  5.86300E+01  5.85796E+01
   6.27719E+01  6.44471E+01  6.67853E+01  6.45154E+01  6.90071E+01  6.75961E+01  7.14401E+01  7.33874E+01  7.61575E+01  7.49562E+01
   7.52495E+01  8.06475E+01  8.09269E+01  8.11430E+01  8.61450E+01  8.80291E+01  8.75605E+01  8.88573E+01  8.79998E+01  9.00133E+01
   9.25926E+01  9.38132E+01  9.59972E+01  9.80650E+01  1.00443E+02  9.73216E+01  9.82922E+01  1.01725E+02  1.04631E+02  1.05659E+02
   1.02911E+02  1.05194E+02  1.07430E+02  1.11131E+02  1.11195E+02  1.11366E+02  1.17220E+02  1.16072E+02  1.14384E+02  1.16829E+02
   1.15034E+02  1.17276E+02  1.16026E+02  1.18379E+02  1.14415E+02  1.19492E+02  1.18643E+02  1.24569E+02  1.22410E+02  1.24360E+02
   1.20757E+02  1.20651E+02  1.18759E+02  1.21861E+02  1.23753E+02  1.21738E+02  1.22768E+02  1.26145E+02  1.23435E+02  1.22144E+02
   1.19744E+02  1.22459E+02  1.23175E+02  1.21456E+02  1.25443E+02  1.23408E+02  1.25632E+02  1.24651E+02  1.25120E+02  1.25427E+02
   1.24753E+02  1.23444E+02  1.24053E+02  1.21225E+02  1.21690E+02  1.23458E+02  1.24994E+02  1.22731E+02  1.22529E+02  1.25214E+02
   1.19443E+02  1.17888E+02  1.18134E+02  1.21793E+02  1.17750E+02  1.20064E+02  1.22314E+02  1.17327E+02  1.15726E+02  1.16945E+02
   1.15247E+02  1.18007E+02  1.11410E+02  1.11932E+02  1.09782E+02  1.09608E+02  1.04912E+02  1.07135E+02  1.00156E+02  1.00826E+02
   9.53437E+01  9.70736E+01  9.26526E+01  8.99192E+01  9.08319E+01  8.21488E+01  8.05548E+01  7.48823E+01  6.97062E+01  6.77496E+01
   6.32674E+01  6.06080E+01  5.83539E+01  5.37149E+01  4.77147E+01  4.36313E+01  4.07275E+01  3.90576E+01  2.95779E+01  2.72794E+01
   2.03672E+01  1.43087E+01  1.15266E+01  3.79582E+00  3.06473E+00 -5.13338E+00 -5.07874E+00 -1.36852E+01 -2.02495E+01 -2.52555E+01
  -3.09904E+01 -3.91499E+01 -3.99216E+01 -4.44775E+01 -4.90243E+01 -5.60683E+01 -6.01301E+01 -6.78856E+01 -7.34237E+01 -7.67167E+01
  -8.47384E+01 -9.15288E+01 -9.55690E+01 -9.83773E+01 -1.03168E+02 -1.08693E+02 -1.13698E+02 -1.17471E+02 -1.24754E+02 -1.26386E+02
  -1.33164E+02 -1.39709E+02 -1.41188E+02 -1.49147E+02 -1.54146E+02 -1.54430E+02 -1.61817E+02 -1.64245E+02 -1.70906E+02 -1.75511E+02
  -1.76850E+02 -1.82488E+02 -1.86679E+02 -1.91537E+02 -1.99062E+02 -1.98626E+02 -2.02567E+02 -2.07978E+02 -2.09244E+02 -2.15997E+02
  -2.20976E+02 -2.24775E+02 -2.29618E+02 -2.35220E+02 -2.35159E+02 -2.43576E+02 -2.43507E+02 -2.44381E+02 -2.52368E+02 -2.58333E+02
  -2.68908E+02 -2.71785E+02 -2.79155E+02 -2.87252E+02 -2.93729E+02 -2.98789E+02 -3.08709E+02 -3.13522E+02 -3.20004E+02 -3.31633E+02
  -3.38405E+02 -3.44099E+02 -3.54395E+02 -3.61834E+02 -3.69934E+02 -3.78791E+02 -3.86415E+02 -3.93090E+02 -4.02979E+02 -4.11685E+02
  -4.21257E+02 -4.29175E+02 -4.43367E+02 -4.51510E+02 -4.62638E+02 -4.69702E+02 -4.78398E+02 -4.86443E+02 -4.95275E+02 -5.07331E+02
  -5.13940E+02 -5.22303E+02 -5.30487E+02 -5.42470E+02 -5.48630E+02 -5.58983E+02 -5.62687E+02 -5.70460E+02 -5.73705E+02 -5.74803E+02
  -5.76757E+02 -5.79310E+02 -5.79073E+02 -5.77407E+02 -5.71727E+02 -5.65278E+02 -5.54605E+02 -5.46207E+02 -5.32051E+02 -5.13089E+02
  -4.93689E+02 -4.68999E+02 -4.42703E+02 -4.06470E+02 -3.74235E+02 -3.33583E+02 -2.88701E+02 -2.40713E+02 -1.85329E+02 -1.27470E+02
  -6.21877E+01  4.77504E+00  8.27485E+01  1.58044E+02  2.43998E+02  3.26786E+02  4.07684E+02  4.90630E+02  5.70095E+02  6.38333E+02
   7.03187E+02  7.50835E+02  7.93930E+02  8.22019E+02  8.47790E+02  8.60929E+02  8.74981E+02  8.76140E+02  8.75031E+02  8.65501E+02
   8.56212E+02  8.37828E+02  8.21503E+02  7.97819E+02  7.74488E+02  7.52302E+02  7.24792E+02  6.92877E+02  6.71392E+02  6.45835E+02
   6.20815E+02  5.98254E+02  5.75758E+02  5.57177E+02  5.35576E+02  5.24362E+02  5.06916E+02  4.85723E+02  4.71033E+02  4.55185E+02
   4.40507E+02  4.29429E+02  4.15191E+02  4.01001E+02  3.86958E+02  3.79616E+02  3.64358E+02  3.52031E+02  3.43116E+02  3.30978E+02
   3.20620E+02  3.10035E+02  2.99105E+02  2.88235E+02  2.82200E+02  2.70429E+02  2.63949E+02  2.55349E+02  2.51020E+02  2.41201E+02
   2.34866E+02  2.27375E+02  2.18591E+02  2.09995E+02  2.04327E+02  1.91591E+02  1.84242E+02  1.80173E+02  1.69932E+02  1.60777E+02
   1.52213E+02  1.43175E+02  1.37191E+02  1.30511E+02  1.20824E+02  1.10158E+02  1.04976E+02  9.65251E+01  8.73553E+01  7.96052E+01
   6.97067E+01  6.62238E+01  5.95601E+01  5.41766E+01  4.72720E+01  3.88333E+01  3.00961E+01  2.51350E+01  1.67835E+01  1.24858E+01
   7.59840E+00  1.06404E+00 -6.13359E+00 -9.77562E+00 -1.74396E+01 -2.25156E+01 -2.51275E+01 -2.92853E+01 -3.30783E+01 -3.99018E+01
  -4.56603E+01 -4.95566E+01 -4.86147E+01 -6.00972E+01 -6.05238E+01 -6.76230E+01 -6.80746E+01 -7.05131E+01 -7.06298E+01 -8.00004E+01
  -8.23956E+01 -8.80493E+01 -8.70219E+01 -9.01531E+01 -9.17942E+01 -9.93702E+01 -9.99144E+01 -1.01313E+02 -1.00651E+02 -1.04371E+02
  -1.04613E+02 -1.11157E+02 -1.12689E+02 -1.13574E+02 -1.11731E+02 -1.19061E+02 -1.16383E+02 -1.18448E+02 -1.21044E+02 -1.26959E+02
  -1.23096E+02 -1.24280E+02 -1.26030E+02 -1.25204E+02 -1.25391E+02 -1.26974E+02 -1.30886E+02 -1.29833E+02 -1.30413E+02 -1.29281E+02
  -1.31445E+02 -1.34213E+02 -1.31583E+02 -1.33525E+02 -1.36331E+02 -1.32558E+02 -1.29048E+02 -1.34800E+02 -1.31418E+02 -1.31731E+02
  -1.31736E+02 -1.32852E+02 -1.30271E+02 -1.33527E+02 -1.35697E+02 -1.31317E+02 -1.33473E+02 -1.31195E+02 -1.33700E+02 -1.30489E+02
  -1.32320E+02 -1.31226E+02 -1.30776E+02 -1.29070E+02 -1.28265E+02 -1.27970E+02 -1.28489E+02 -1.27000E+02 -1.26254E+02 -1.26020E+02
  -1.21792E+02 -1.22508E+02 -1.20727E+02 -1.23032E+02 -1.20333E+02 -1.17959E+02 -1.17724E+02 -1.17973E+02 -1.17042E+02 -1.15493E+02
  -1.15782E+02 -1.10632E+02 -1.12078E+02 -1.09606E+02 -1.13678E+02 -1.09610E+02 -1.08913E+02 -1.07063E+02 -1.03238E+02 -1.01009E+02
  -1.00629E+02 -1.03594E+02 -1.02667E+02 -9.83397E+01 -9.39677E+01 -9.61064E+01 -9.53039E+01 -9.19377E+01
 NY points of the fit to the data follow
  -3.01864E+01 -2.67106E+01 -2.77971E+01 -2.43168E+01 -2.44013E+01 -2.04075E+01 -1.89129E+01 -1.37860E+01 -1.35881E+01 -9.77800E+00
  -1.06771E+01 -7.57386E+00 -9.16011E+00 -6.37824E+00 -8.69221E+00 -4.08062E+00 -5.56615E+00 -5.09114E-01 -1.92935E+00  2.73253E+00
   9.62266E-01  5.29611E+00  2.74959E+00  6.02638E+00  3.59147E+00  5.83405E+00  4.26636E+00  6.20696E+00  6.24297E+00  8.33360E+00
   1.01140E+01  1.23187E+01  1.56968E+01  1.74694E+01  2.14715E+01  2.22313E+01  2.63080E+01  2.63472E+01  3.03966E+01  2.99953E+01
   3.39434E+01  3.35035E+01  3.73730E+01  3.69651E+01  4.03710E+01  4.00410E+01  4.29296E+01  4.28713E+01  4.51682E+01  4.52596E+01
   4.73070E+01  4.78631E+01  4.98423E+01  5.09061E+01  5.28952E+01  5.44869E+01  5.65579E+01  5.82780E+01  6.01425E+01  6.17731E+01
   6.33665E+01  6.48364E+01  6.61628E+01  6.74564E+01  6.86924E+01  6.99372E+01  7.11350E+01  7.23534E+01  7.35364E+01  7.47316E+01
   7.58943E+01  7.70652E+01  7.82095E+01  7.93561E+01  8.04875E+01  8.16050E+01  8.27190E+01  8.38074E+01  8.49034E+01  8.59682E+01
   8.70558E+01  8.81113E+01  8.92055E+01  9.03472E+01  9.19086E+01  9.33968E+01  9.48555E+01  9.64909E+01  9.77990E+01  9.95944E+01
   1.00893E+02  1.02943E+02  1.04181E+02  1.06481E+02  1.07484E+02  1.09949E+02  1.10691E+02  1.13276E+02  1.13726E+02  1.16356E+02
   1.16470E+02  1.19029E+02  1.18720E+02  1.21052E+02  1.20416E+02  1.22453E+02  1.21698E+02  1.23449E+02  1.22711E+02  1.24187E+02
   1.23571E+02  1.24792E+02  1.24339E+02  1.25320E+02  1.25081E+02  1.25864E+02  1.25846E+02  1.26467E+02  1.26592E+02  1.27054E+02
   1.27244E+02  1.27551E+02  1.27725E+02  1.27877E+02  1.27976E+02  1.27972E+02  1.27884E+02  1.27696E+02  1.27435E+02  1.27089E+02
   1.26687E+02  1.26220E+02  1.25718E+02  1.25176E+02  1.24620E+02  1.24046E+02  1.23477E+02  1.22906E+02  1.22352E+02  1.21808E+02
   1.21283E+02  1.20770E+02  1.20271E+02  1.19775E+02  1.19276E+02  1.18763E+02  1.18221E+02  1.17637E+02  1.16992E+02  1.16275E+02
   1.15458E+02  1.14536E+02  1.13474E+02  1.12277E+02  1.10904E+02  1.09370E+02  1.07632E+02  1.05716E+02  1.03576E+02  1.01252E+02
   9.86954E+01  9.59578E+01  9.29936E+01  8.98607E+01  8.65175E+01  8.30257E+01  7.93501E+01  7.55503E+01  7.15936E+01  6.75422E+01
   6.33655E+01  5.91143E+01  5.47715E+01  5.03744E+01  4.59130E+01  4.14019E+01  3.67987E+01  3.21901E+01  2.74433E+01  2.27022E+01
   1.78918E+01  1.30642E+01  8.21696E+00  3.42276E+00 -1.32416E+00 -6.10898E+00 -1.08726E+01 -1.56316E+01 -2.04148E+01 -2.52541E+01
  -3.01153E+01 -3.51773E+01 -4.04537E+01 -4.55613E+01 -5.07012E+01 -5.57911E+01 -6.08547E+01 -6.59999E+01 -7.11559E+01 -7.63802E+01
  -8.16141E+01 -8.69036E+01 -9.21303E+01 -9.74886E+01 -1.02708E+02 -1.08110E+02 -1.13233E+02 -1.18603E+02 -1.23531E+02 -1.28746E+02
  -1.33340E+02 -1.38366E+02 -1.42676E+02 -1.47545E+02 -1.51706E+02 -1.56448E+02 -1.60502E+02 -1.65207E+02 -1.69464E+02 -1.74071E+02
  -1.78287E+02 -1.82740E+02 -1.86915E+02 -1.91172E+02 -1.95480E+02 -1.99954E+02 -2.04417E+02 -2.09081E+02 -2.13627E+02 -2.18398E+02
  -2.22911E+02 -2.27828E+02 -2.32246E+02 -2.37257E+02 -2.41476E+02 -2.46629E+02 -2.50700E+02 -2.56101E+02 -2.60169E+02 -2.65963E+02
  -2.70204E+02 -2.76517E+02 -2.81065E+02 -2.87847E+02 -2.92809E+02 -2.99989E+02 -3.05415E+02 -3.12978E+02 -3.18927E+02 -3.26871E+02
  -3.33405E+02 -3.41754E+02 -3.48898E+02 -3.57654E+02 -3.65413E+02 -3.74571E+02 -3.82923E+02 -3.92483E+02 -4.01395E+02 -4.11290E+02
  -4.20649E+02 -4.30791E+02 -4.40467E+02 -4.50710E+02 -4.60512E+02 -4.70668E+02 -4.80340E+02 -4.90123E+02 -4.99386E+02 -5.08519E+02
  -5.17091E+02 -5.25327E+02 -5.32962E+02 -5.40092E+02 -5.46576E+02 -5.52429E+02 -5.57572E+02 -5.61966E+02 -5.65555E+02 -5.68263E+02
  -5.70014E+02 -5.70704E+02 -5.70209E+02 -5.68380E+02 -5.65038E+02 -5.59967E+02 -5.52917E+02 -5.43593E+02 -5.31669E+02 -5.16776E+02
  -4.98524E+02 -4.76495E+02 -4.50277E+02 -4.19463E+02 -3.83693E+02 -3.42663E+02 -2.96171E+02 -2.44128E+02 -1.86603E+02 -1.23830E+02
  -5.62370E+01  1.55621E+01  9.07732E+01  1.68457E+02  2.47581E+02  3.27104E+02  4.06134E+02  4.84211E+02  5.61714E+02  6.36373E+02
   6.97099E+02  7.52612E+02  7.92811E+02  8.28742E+02  8.49311E+02  8.66779E+02  8.67866E+02  8.77923E+02  8.70337E+02  8.70174E+02
   8.52885E+02  8.42666E+02  8.16981E+02  8.00674E+02  7.71328E+02  7.51513E+02  7.21444E+02  6.97362E+02  6.69895E+02  6.46477E+02
   6.22378E+02  5.98030E+02  5.79227E+02  5.55496E+02  5.42347E+02  5.17797E+02  5.06428E+02  4.84013E+02  4.74296E+02  4.52866E+02
   4.44107E+02  4.24427E+02  4.15515E+02  3.98857E+02  3.89732E+02  3.75939E+02  3.65602E+02  3.53226E+02  3.41787E+02  3.31495E+02
   3.19269E+02  3.10566E+02  2.98471E+02  2.91718E+02  2.80414E+02  2.74377E+02  2.63781E+02  2.57938E+02  2.48559E+02  2.42164E+02
   2.33154E+02  2.26115E+02  2.17338E+02  2.09821E+02  2.01466E+02  1.93555E+02  1.85568E+02  1.77530E+02  1.69834E+02  1.61940E+02
   1.54154E+02  1.45809E+02  1.37869E+02  1.29332E+02  1.21180E+02  1.12606E+02  1.04313E+02  9.61218E+01  8.79647E+01  7.98679E+01
   7.18903E+01  6.41010E+01  5.65653E+01  4.93364E+01  4.24486E+01  3.59149E+01  2.97264E+01  2.38553E+01  1.82577E+01  1.28797E+01
   7.66222E+00  2.54696E+00 -2.51856E+00 -7.57714E+00 -1.26589E+01 -1.77802E+01 -2.29434E+01 -2.81377E+01 -3.33413E+01 -3.85236E+01
  -4.36470E+01 -4.86721E+01 -5.35595E+01 -5.82730E+01 -6.27814E+01 -6.70598E+01 -7.10902E+01 -7.48627E+01 -7.83746E+01 -8.16301E+01
  -8.46393E+01 -8.74172E+01 -8.99826E+01 -9.23568E+01 -9.45628E+01 -9.66237E+01 -9.85623E+01 -1.00400E+02 -1.02156E+02 -1.03849E+02
  -1.05492E+02 -1.07099E+02 -1.08679E+02 -1.10239E+02 -1.11783E+02 -1.13313E+02 -1.14831E+02 -1.16334E+02 -1.17820E+02 -1.19285E+02
  -1.20723E+02 -1.22130E+02 -1.23500E+02 -1.24826E+02 -1.26103E+02 -1.27325E+02 -1.28485E+02 -1.29580E+02 -1.30605E+02 -1.31555E+02
  -1.32426E+02 -1.33217E+02 -1.33924E+02 -1.34546E+02 -1.35081E+02 -1.35530E+02 -1.35892E+02 -1.36167E+02 -1.36357E+02 -1.36462E+02
  -1.36485E+02 -1.36427E+02 -1.36290E+02 -1.36077E+02 -1.35791E+02 -1.35434E+02 -1.35009E+02 -1.34520E+02 -1.33969E+02 -1.33360E+02
  -1.32696E+02 -1.31979E+02 -1.31214E+02 -1.30404E+02 -1.29551E+02 -1.28660E+02 -1.27732E+02 -1.26770E+02 -1.25779E+02 -1.24761E+02
  -1.23718E+02 -1.22653E+02 -1.21569E+02 -1.20469E+02 -1.19355E+02 -1.18230E+02 -1.17095E+02 -1.15954E+02 -1.14808E+02 -1.13659E+02
  -1.12510E+02 -1.11362E+02 -1.10218E+02 -1.09079E+02 -1.07948E+02 -1.06825E+02 -1.05712E+02 -1.04612E+02 -1.03525E+02 -1.02453E+02
  -1.01397E+02 -1.00359E+02 -9.93404E+01 -9.83415E+01 -9.73636E+01 -9.64076E+01 -9.54743E+01 -9.45641E+01
 NY background values follow
    -3.479E+01   -3.315E+01   -3.152E+01   -2.989E+01   -2.825E+01   -2.662E+01   -2.499E+01   -2.335E+01   -2.172E+01   -2.009E+01
    -1.846E+01   -1.684E+01   -1.521E+01   -1.359E+01   -1.197E+01   -1.035E+01   -8.735E+00   -7.123E+00   -5.514E+00   -3.909E+00
    -2.307E+00   -7.090E-01    8.848E-01    2.474E+00    4.059E+00    5.639E+00    7.214E+00    8.784E+00    1.035E+01    1.191E+01
     1.346E+01    1.501E+01    1.655E+01    1.808E+01    1.961E+01    2.113E+01    2.264E+01    2.414E+01    2.564E+01    2.713E+01
     2.861E+01    3.008E+01    3.155E+01    3.300E+01    3.445E+01    3.589E+01    3.731E+01    3.873E+01    4.014E+01    4.154E+01
     4.292E+01    4.430E+01    4.566E+01    4.702E+01    4.836E+01    4.969E+01    5.101E+01    5.232E+01    5.361E+01    5.490E+01
     5.617E+01    5.743E+01    5.867E+01    5.990E+01    6.112E+01    6.232E+01    6.351E+01    6.469E+01    6.585E+01    6.699E+01
     6.812E+01    6.924E+01    7.034E+01    7.143E+01    7.249E+01    7.355E+01    7.458E+01    7.560E+01    7.661E+01    7.760E+01
     7.856E+01    7.952E+01    8.045E+01    8.137E+01    8.227E+01    8.315E+01    8.401E+01    8.485E+01    8.567E+01    8.648E+01
     8.727E+01    8.803E+01    8.878E+01    8.950E+01    9.021E+01    9.089E+01    9.156E+01    9.220E+01    9.282E+01    9.342E+01
     9.400E+01    9.456E+01    9.509E+01    9.560E+01    9.608E+01    9.654E+01    9.697E+01    9.738E+01    9.775E+01    9.810E+01
     9.841E+01    9.870E+01    9.895E+01    9.917E+01    9.935E+01    9.950E+01    9.962E+01    9.969E+01    9.973E+01    9.974E+01
     9.970E+01    9.962E+01    9.950E+01    9.934E+01    9.914E+01    9.889E+01    9.860E+01    9.826E+01    9.788E+01    9.744E+01
     9.696E+01    9.643E+01    9.585E+01    9.522E+01    9.454E+01    9.381E+01    9.302E+01    9.218E+01    9.128E+01    9.032E+01
     8.931E+01    8.824E+01    8.711E+01    8.592E+01    8.467E+01    8.336E+01    8.198E+01    8.055E+01    7.904E+01    7.748E+01
     7.584E+01    7.414E+01    7.237E+01    7.053E+01    6.863E+01    6.665E+01    6.460E+01    6.248E+01    6.028E+01    5.801E+01
     5.566E+01    5.324E+01    5.075E+01    4.817E+01    4.551E+01    4.278E+01    3.997E+01    3.707E+01    3.409E+01    3.103E+01
     2.788E+01    2.465E+01    2.133E+01    1.793E+01    1.444E+01    1.086E+01    7.189E+00    3.429E+00   -4.221E-01   -4.366E+00
    -8.402E+00   -1.253E+01   -1.676E+01   -2.108E+01   -2.550E+01   -3.001E+01   -3.463E+01   -3.934E+01   -4.415E+01   -4.907E+01
    -5.408E+01   -5.920E+01   -6.443E+01   -6.976E+01   -7.519E+01   -8.073E+01   -8.638E+01   -9.213E+01   -9.800E+01   -1.040E+02
    -1.101E+02   -1.163E+02   -1.225E+02   -1.289E+02   -1.354E+02   -1.420E+02   -1.487E+02   -1.555E+02   -1.624E+02   -1.693E+02
    -1.763E+02   -1.834E+02   -1.906E+02   -1.979E+02   -2.052E+02   -2.126E+02   -2.201E+02   -2.276E+02   -2.352E+02   -2.428E+02
    -2.505E+02   -2.582E+02   -2.660E+02   -2.738E+02   -2.817E+02   -2.896E+02   -2.975E+02   -3.055E+02   -3.135E+02   -3.215E+02
    -3.296E+02   -3.376E+02   -3.457E+02   -3.538E+02   -3.619E+02   -3.701E+02   -3.782E+02   -3.863E+02   -3.945E+02   -4.026E+02
    -4.107E+02   -4.188E+02   -4.269E+02   -4.350E+02   -4.431E+02   -4.512E+02   -4.592E+02   -4.672E+02   -4.752E+02   -4.831E+02
    -4.910E+02   -4.989E+02   -5.068E+02   -5.146E+02   -5.223E+02   -5.300E+02   -5.377E+02   -5.452E+02   -5.528E+02   -5.603E+02
    -5.677E+02   -5.750E+02   -5.823E+02   -5.895E+02   -5.966E+02   -6.037E+02   -6.107E+02   -6.176E+02   -6.244E+02   -6.311E+02
    -6.377E+02   -6.442E+02   -6.507E+02   -6.570E+02   -6.632E+02   -6.693E+02   -6.754E+02   -6.812E+02   -6.870E+02   -6.927E+02
    -6.982E+02   -7.037E+02   -7.090E+02   -7.141E+02   -7.192E+02   -7.241E+02   -7.288E+02   -7.334E+02   -7.379E+02   -7.422E+02
    -7.464E+02   -7.504E+02   -7.543E+02   -7.580E+02   -7.616E+02   -7.650E+02   -7.682E+02   -7.712E+02   -7.741E+02   -7.768E+02
    -7.793E+02   -7.817E+02   -7.839E+02   -7.859E+02   -7.877E+02   -7.894E+02   -7.909E+02   -7.923E+02   -7.935E+02   -7.945E+02
    -7.954E+02   -7.961E+02   -7.967E+02   -7.971E+02   -7.974E+02   -7.976E+02   -7.976E+02   -7.974E+02   -7.971E+02   -7.967E+02
    -7.962E+02   -7.955E+02   -7.946E+02   -7.937E+02   -7.926E+02   -7.914E+02   -7.901E+02   -7.886E+02   -7.870E+02   -7.854E+02
    -7.836E+02   -7.816E+02   -7.796E+02   -7.775E+02   -7.752E+02   -7.729E+02   -7.704E+02   -7.678E+02   -7.652E+02   -7.624E+02
    -7.596E+02   -7.566E+02   -7.536E+02   -7.504E+02   -7.472E+02   -7.439E+02   -7.405E+02   -7.370E+02   -7.335E+02   -7.298E+02
    -7.261E+02   -7.223E+02   -7.185E+02   -7.146E+02   -7.106E+02   -7.065E+02   -7.024E+02   -6.982E+02   -6.939E+02   -6.896E+02
    -6.852E+02   -6.808E+02   -6.763E+02   -6.718E+02   -6.672E+02   -6.626E+02   -6.579E+02   -6.532E+02   -6.484E+02   -6.437E+02
    -6.388E+02   -6.339E+02   -6.290E+02   -6.241E+02   -6.192E+02   -6.142E+02   -6.091E+02   -6.041E+02   -5.990E+02   -5.940E+02
    -5.889E+02   -5.837E+02   -5.786E+02   -5.735E+02   -5.683E+02   -5.632E+02   -5.580E+02   -5.528E+02   -5.477E+02   -5.425E+02
    -5.373E+02   -5.322E+02   -5.270E+02   -5.218E+02   -5.167E+02   -5.116E+02   -5.065E+02   -5.013E+02   -4.963E+02   -4.912E+02
    -4.862E+02   -4.811E+02   -4.761E+02   -4.711E+02   -4.662E+02   -4.612E+02   -4.563E+02   -4.514E+02   -4.465E+02   -4.416E+02
    -4.368E+02   -4.320E+02   -4.272E+02   -4.224E+02   -4.177E+02   -4.130E+02   -4.083E+02   -4.036E+02   -3.989E+02   -3.943E+02
    -3.897E+02   -3.851E+02   -3.806E+02   -3.761E+02   -3.716E+02   -3.671E+02   -3.627E+02   -3.583E+02   -3.539E+02   -3.495E+02
    -3.452E+02   -3.409E+02   -3.366E+02   -3.324E+02   -3.282E+02   -3.240E+02   -3.198E+02   -3.157E+02   -3.116E+02   -3.076E+02
    -3.036E+02   -2.996E+02   -2.956E+02   -2.917E+02   -2.878E+02   -2.839E+02   -2.801E+02   -2.763E+02   -2.725E+02   -2.688E+02
    -2.651E+02   -2.615E+02   -2.578E+02   -2.542E+02   -2.507E+02   -2.472E+02   -2.437E+02   -2.403E+02   -2.369E+02   -2.335E+02
    -2.302E+02   -2.269E+02   -2.236E+02   -2.204E+02   -2.173E+02   -2.141E+02   -2.110E+02   -2.080E+02   -2.050E+02   -2.020E+02
    -1.991E+02   -1.962E+02   -1.933E+02   -1.905E+02   -1.878E+02   -1.851E+02   -1.824E+02   -1.797E+02   -1.771E+02   -1.746E+02
    -1.721E+02   -1.696E+02   -1.672E+02   -1.649E+02   -1.625E+02   -1.603E+02   -1.580E+02   -1.559E+02   -1.537E+02   -1.516E+02
    -1.496E+02   -1.476E+02   -1.456E+02   -1.437E+02   -1.419E+02   -1.401E+02   -1.383E+02   -1.366E+02
 Ala      Conc. = 5.36E+04
