 LCModel (Version 6.3-1L) Copyright: S.W. Provencher.          Ref.: Magn. Reson. Med. 30:672-679 (1993).                
 Slice#1 Row#7 Col#8  K_02_press_1_raw_act
 36 lines in following concentration table = NCONC+1
    Conc.  %SD /Cr+PCr  Metabolite                                         
    0.000 999%   0.000 Ala                                                 
   80.715 234% 9.0E-02 Asp                                                 
  894.058  28%   0.992 Cr                                                  
    7.290 999% 8.1E-03 PCr                                                 
  100.169 115%   0.111 GABA                                                
  118.241  98%   0.131 Glc                                                 
  452.525  74%   0.502 Gln                                                 
 1.65E+03  24%   1.830 Glu                                                 
  325.935  10%   0.362 GPC                                                 
    0.000 999%   0.000 PCh                                                 
  380.957  30%   0.423 GSH                                                 
 1.80E+03  21%   1.998 Ins                                                 
    0.000 999%   0.000 Lac                                                 
 1.20E+03  10%   1.326 NAA                                                 
  419.135  30%   0.465 NAAG                                                
   24.078 126% 2.7E-02 Scyllo                                              
    0.000 999%   0.000 Tau                                                 
    0.000 999%   0.000 -CrCH2                                              
  325.935  10%   0.362 GPC+PCh                                             
 1.61E+03   8%   1.791 NAA+NAAG                                            
  901.348   9%   1.000 Cr+PCr                                              
 2.10E+03  25%   2.333 Glu+Gln                                             
    0.000 999%   0.000 Lip13a                                              
 1.33E+03  18%   1.477 Lip13b                                              
    3.626 999% 4.0E-03 Lip09                                               
 1.76E+03  17%   1.953 MM09                                                
  210.449  70%   0.233 Lip20                                               
 2.82E+03  18%   3.132 MM20                                                
  551.947  30%   0.612 MM12                                                
 3.58E+03  11%   3.967 MM14                                                
 1.86E+03  17%   2.059 MM17                                                
 1.33E+03  18%   1.477 Lip13a+Lip13b                                       
 5.46E+03   8%   6.057 MM14+Lip13a+Lip13b+MM12                             
 1.76E+03  15%   1.957 MM09+Lip09                                          
 3.03E+03  17%   3.366 MM20+Lip20                                          
   6 lines in following misc. output table
  FWHM = 0.038 ppm    S/N =   5                                            
  Data shift = 0.000 ppm                                                   
  Ph:  11 deg      16.5 deg/ppm                                            
  alphaB,S = 2.4E+00,   4.8E+01                                            
   14 spline knots.   Ns = 6(1)                                            
  (10) 4 infls.   (13) 1 extrs.                                            
  498 points on ppm-axis = NY
      4.000000     3.992357     3.984714     3.977070     3.969427     3.961784     3.954141     3.946497     3.938854     3.931211
      3.923568     3.915925     3.908281     3.900638     3.892995     3.885352     3.877708     3.870065     3.862422     3.854779
      3.847136     3.839492     3.831849     3.824206     3.816563     3.808919     3.801276     3.793633     3.785990     3.778347
      3.770703     3.763060     3.755417     3.747774     3.740130     3.732487     3.724844     3.717201     3.709558     3.701914
      3.694271     3.686628     3.678985     3.671341     3.663698     3.656055     3.648412     3.640769     3.633125     3.625482
      3.617839     3.610196     3.602552     3.594909     3.587266     3.579623     3.571980     3.564336     3.556693     3.549050
      3.541407     3.533763     3.526120     3.518477     3.510834     3.503191     3.495547     3.487904     3.480261     3.472618
      3.464974     3.457331     3.449688     3.442045     3.434402     3.426758     3.419115     3.411472     3.403829     3.396185
      3.388542     3.380899     3.373256     3.365613     3.357969     3.350326     3.342683     3.335040     3.327396     3.319753
      3.312110     3.304467     3.296824     3.289180     3.281537     3.273894     3.266251     3.258607     3.250964     3.243321
      3.235678     3.228034     3.220391     3.212748     3.205105     3.197462     3.189818     3.182175     3.174532     3.166889
      3.159245     3.151602     3.143959     3.136316     3.128673     3.121029     3.113386     3.105743     3.098100     3.090456
      3.082813     3.075170     3.067527     3.059884     3.052240     3.044597     3.036954     3.029311     3.021667     3.014024
      3.006381     2.998738     2.991095     2.983451     2.975808     2.968165     2.960522     2.952878     2.945235     2.937592
      2.929949     2.922306     2.914662     2.907019     2.899376     2.891733     2.884089     2.876446     2.868803     2.861160
      2.853517     2.845873     2.838230     2.830587     2.822944     2.815300     2.807657     2.800014     2.792371     2.784728
      2.777084     2.769441     2.761798     2.754155     2.746511     2.738868     2.731225     2.723582     2.715939     2.708295
      2.700652     2.693009     2.685366     2.677722     2.670079     2.662436     2.654793     2.647150     2.639506     2.631863
      2.624220     2.616577     2.608933     2.601290     2.593647     2.586004     2.578361     2.570717     2.563074     2.555431
      2.547788     2.540144     2.532501     2.524858     2.517215     2.509572     2.501928     2.494285     2.486642     2.478999
      2.471355     2.463712     2.456069     2.448426     2.440783     2.433139     2.425496     2.417853     2.410210     2.402566
      2.394923     2.387280     2.379637     2.371994     2.364350     2.356707     2.349064     2.341421     2.333777     2.326134
      2.318491     2.310848     2.303205     2.295561     2.287918     2.280275     2.272632     2.264988     2.257345     2.249702
      2.242059     2.234416     2.226772     2.219129     2.211486     2.203843     2.196199     2.188556     2.180913     2.173270
      2.165627     2.157983     2.150340     2.142697     2.135054     2.127410     2.119767     2.112124     2.104481     2.096838
      2.089194     2.081551     2.073908     2.066265     2.058621     2.050978     2.043335     2.035692     2.028049     2.020405
      2.012762     2.005119     1.997476     1.989833     1.982190     1.974546     1.966903     1.959260     1.951617     1.943974
      1.936331     1.928688     1.921045     1.913402     1.905759     1.898115     1.890472     1.882829     1.875186     1.867543
      1.859900     1.852257     1.844614     1.836971     1.829327     1.821684     1.814041     1.806398     1.798755     1.791112
      1.783469     1.775826     1.768183     1.760540     1.752896     1.745253     1.737610     1.729967     1.722324     1.714681
      1.707038     1.699395     1.691752     1.684108     1.676465     1.668822     1.661179     1.653536     1.645893     1.638250
      1.630607     1.622964     1.615321     1.607677     1.600034     1.592391     1.584748     1.577105     1.569462     1.561819
      1.554176     1.546533     1.538890     1.531246     1.523603     1.515960     1.508317     1.500674     1.493031     1.485388
      1.477745     1.470102     1.462458     1.454815     1.447172     1.439529     1.431886     1.424243     1.416600     1.408957
      1.401314     1.393671     1.386027     1.378384     1.370741     1.363098     1.355455     1.347812     1.340169     1.332526
      1.324883     1.317240     1.309596     1.301953     1.294310     1.286667     1.279024     1.271381     1.263738     1.256095
      1.248452     1.240808     1.233165     1.225522     1.217879     1.210236     1.202593     1.194950     1.187307     1.179664
      1.172021     1.164377     1.156734     1.149091     1.141448     1.133805     1.126162     1.118519     1.110876     1.103233
      1.095590     1.087946     1.080303     1.072660     1.065017     1.057374     1.049731     1.042088     1.034445     1.026802
      1.019158     1.011515     1.003872     0.996229     0.988586     0.980943     0.973300     0.965657     0.958014     0.950371
      0.942727     0.935084     0.927441     0.919798     0.912155     0.904512     0.896869     0.889226     0.881583     0.873940
      0.866296     0.858653     0.851010     0.843367     0.835724     0.828081     0.820438     0.812795     0.805152     0.797508
      0.789865     0.782222     0.774579     0.766936     0.759293     0.751650     0.744007     0.736364     0.728721     0.721077
      0.713434     0.705791     0.698148     0.690505     0.682862     0.675219     0.667576     0.659933     0.652290     0.644646
      0.637003     0.629360     0.621717     0.614074     0.606431     0.598788     0.591145     0.583502     0.575858     0.568215
      0.560572     0.552929     0.545286     0.537643     0.530000     0.522357     0.514714     0.507071     0.499427     0.491784
      0.484141     0.476498     0.468855     0.461212     0.453569     0.445925     0.438282     0.430639     0.422996     0.415353
      0.407710     0.400067     0.392424     0.384780     0.377137     0.369494     0.361851     0.354208     0.346565     0.338922
      0.331278     0.323635     0.315992     0.308349     0.300706     0.293063     0.285420     0.277777     0.270133     0.262490
      0.254847     0.247204     0.239561     0.231918     0.224275     0.216631     0.208988     0.201345
 NY phased data points follow
   2.67220E+01  3.26876E+01  2.91131E+01  2.40261E+01  2.28961E+01  2.23718E+01  2.62756E+01  2.40832E+01  3.93580E+01  4.48967E+01
   4.68258E+01  4.02165E+01  3.37873E+01  3.02177E+01  3.23601E+01  2.77011E+01  3.31458E+01  2.29450E+01  1.12836E+01  1.86946E+01
   2.30392E+01  3.30948E+01  2.06392E+01  2.04156E+01  3.15217E+01  2.22240E+01  2.73915E+01  1.99966E+01  2.75944E+01  1.95109E+01
   3.25324E+01  2.25713E+01  2.35877E+01  1.99138E+01  2.19633E+01  1.18645E+01  1.87495E+01  2.18681E+01  1.78791E+01  1.60382E+01
   1.77180E+01  1.82528E+01  2.85820E+01  1.49151E+01  2.28492E+01  1.74580E+01  3.64059E+01  2.58018E+01  2.61009E+01  1.67643E+01
   2.16538E+01  1.75910E+01  2.48905E+01  1.68574E+01  1.69347E+01  1.90964E+01  2.43358E+01  2.16774E+01  1.66578E+01  9.06545E+00
   1.61963E+01  8.12938E+00  1.27924E+01  1.98497E+00  1.34025E+01  1.52043E+01  1.71050E+01  9.55197E+00  1.02342E+01  1.12926E+01
   1.32774E+01  1.26679E+01  1.45678E+01  1.35645E+01  1.16025E+01  4.39151E+00  7.42502E+00  7.00534E+00  8.25248E+00  5.79100E+00
   1.71793E+00  8.60929E+00  6.80388E+00  1.26733E+01  1.23541E+01  8.64465E+00 -1.95081E+00  8.81767E+00  1.97000E+00  5.29772E+00
   1.63289E+00  3.06687E-01  1.05337E+00  1.08949E+01  6.42473E+00  3.63498E+00  1.01463E+01  1.46892E+01  1.09371E+01  2.26186E+01
   2.64195E+01  3.56335E+01  3.69321E+01  4.67172E+01  2.56612E+01  2.62195E+01  1.38444E+01  1.02244E+01  6.23593E+00  2.69036E+00
   7.00654E+00  4.82354E+00 -2.53053E-02  3.97661E+00  7.34905E+00  3.84048E+00 -1.78824E+00  2.50094E+00 -2.68004E+00  9.65853E+00
   1.08258E+01  1.63990E+00  1.39053E+01  1.48520E+01  2.45879E+01  3.39131E+01  3.02722E+01  4.28327E+01  3.48569E+01  3.11292E+01
   1.41174E+01  8.20813E+00  1.50941E+01  9.57695E+00  5.94927E+00  7.22302E+00  1.22429E+01  5.68326E+00  5.48753E+00 -4.61333E+00
   9.18667E+00  7.51669E+00  1.01912E+01  1.01700E+01  2.27998E+00 -3.01029E+00  4.84695E+00 -2.15675E+00 -2.02460E+00 -1.79963E+00
   1.01831E+01  7.68759E+00  5.95361E+00  9.01642E+00  2.82806E+00 -3.59840E+00  4.87638E+00  5.33448E+00  6.33966E+00  2.68649E-01
   2.57203E+00  2.45162E+00 -6.31871E+00  2.66079E+00  5.51373E+00  2.27828E-01  5.13426E+00  8.03808E-01  5.00540E-01 -6.43675E+00
  -5.88715E+00 -1.20435E+01 -7.71000E+00 -8.61376E+00 -9.17173E+00 -3.24983E+00 -1.00964E+01 -1.06605E+01 -7.84350E+00 -1.54968E+01
  -4.68087E+00 -1.14914E+01 -7.65852E+00 -1.73046E+01  5.41113E-01 -6.02529E+00 -3.03038E+00 -7.77636E+00 -8.10786E+00 -3.00127E+00
  -9.90362E+00 -2.40681E+00 -5.88175E+00 -6.52255E+00 -4.65819E+00 -3.77242E+00 -1.10020E+01 -5.21429E+00 -6.45829E+00 -5.83045E+00
  -7.68183E+00 -7.64903E+00 -5.49315E+00 -5.86465E+00 -1.38031E-01 -6.06688E+00  3.26665E+00  1.92149E+00 -4.66509E+00 -7.47696E+00
  -4.05460E+00 -2.29395E+00  6.60035E+00 -4.39890E-01  8.31217E+00  8.51885E+00  1.60886E+01  4.72296E+00  4.42864E+00 -7.91240E+00
  -9.88954E+00 -5.42937E+00 -3.63321E+00  4.30836E+00 -5.68757E+00  6.64364E+00  8.27934E-01  7.76956E+00  1.14075E+01  2.09580E-02
  -6.05954E+00  9.90118E+00  8.45440E+00  6.43435E+00  9.72758E-01 -8.29992E-01 -4.65690E+00  7.85394E+00  9.45671E+00 -1.49122E+00
   4.06546E+00 -4.64733E+00 -2.36980E+00  7.74025E+00  4.86082E+00  1.55429E+01  9.45376E+00  4.37912E+00  7.81030E+00  1.22918E+01
   9.22167E+00  8.28229E+00  1.44914E+01  2.79399E+01  3.41245E+01  3.09433E+01  2.95050E+01  3.35414E+01  3.83697E+01  6.73460E+01
   5.92534E+01  5.64450E+01  3.62050E+01  2.11867E+01  2.25746E+01  1.26367E+01  1.36836E+01  6.88262E+00 -2.83529E+00  6.26930E+00
   3.71541E+00  2.78717E+00  1.05511E+01  1.11261E+01  7.82055E+00 -2.33093E+00  5.71343E-01  1.15814E+01 -1.16993E-01 -2.04765E+00
   6.04310E+00  3.40632E+00 -2.20328E-01 -2.57584E+00 -2.93217E+00 -2.97559E+00 -6.27520E+00 -8.53412E+00  6.54387E-01  4.59996E+00
  -1.09070E+00  5.95482E+00  2.39214E+00  1.71120E+01  4.72538E+00 -2.57108E+00 -4.43839E+00  7.05047E+00  2.22821E+00  5.84122E+00
   1.07383E+01  8.18090E-01  4.22904E+00  6.61764E+00  1.40816E+01 -1.77596E+00  1.72150E+01  2.62966E+00  1.25126E+01  1.99616E+01
   1.16451E+01  1.11758E+01  1.81110E+01  1.44102E+01  2.27676E+01  2.43037E+01  1.64934E+01  1.52682E+01  2.00164E+01  2.02944E+01
   2.32398E+01  2.02528E+01  1.86487E+01  1.78438E+01  1.58603E+01  1.68963E+01  2.39576E+01  2.22450E+01  2.14074E+01  2.53380E+01
   3.69400E+01  2.82676E+01  2.81598E+01  3.45688E+01  1.45919E+01  1.38793E+01  1.15255E+01  1.16483E+01 -2.34364E+00  1.30777E+00
  -1.01469E+01 -8.55100E+00 -3.45805E+00  2.14124E+00 -4.81555E+00  5.68341E+00  3.19616E+00  1.67543E+01  6.70356E+00  1.06145E+01
   1.17381E+01  5.10912E-01 -4.33398E-01  1.60214E+01 -4.17474E+00  5.45160E+00  1.34956E+01 -3.66372E+00  1.49194E+01  1.53817E+01
   4.38047E+00  1.55662E+01  8.91318E+00  8.44382E+00  6.71949E+00  2.95375E+00 -4.53943E-01  4.06269E+00 -9.26084E+00  1.91064E+00
  -5.86158E+00 -3.79336E+00 -5.58918E+00 -6.80291E+00 -3.95112E-01 -2.79268E+00  1.60617E+00 -1.02636E+00 -3.63887E+00  4.87975E+00
   7.93740E-01 -1.35068E+01 -3.55743E+00 -7.02537E-02 -1.99803E+00  1.61586E+00 -8.70875E+00 -1.00548E+01 -5.81411E+00  5.81240E-01
  -3.44594E+00  1.20380E+01 -3.19733E+00 -2.85277E+00  2.04614E+00  7.31400E-01 -3.53532E+00  6.84172E+00  2.94028E+00 -2.65724E-01
   6.71417E+00 -3.82807E+00 -1.01893E+00  6.34130E-01  3.39424E+00  5.66220E+00  5.15298E+00  5.73410E+00  7.73300E+00 -2.35057E+00
   2.81127E+00  2.73296E+00 -1.04031E+01 -9.53063E-01 -3.89940E+00 -9.04871E+00 -3.50555E+00 -1.57341E+01 -3.95056E+00 -7.41610E+00
  -7.14875E+00 -4.29970E+00 -5.81604E+00 -7.76304E+00 -6.09341E-01 -6.50900E+00 -1.12714E+01 -3.69154E+00 -9.83811E+00 -1.14556E+01
  -2.95437E+00 -1.07579E+01 -1.32686E+01 -1.44841E+01 -5.47416E+00 -1.00915E+01 -9.17657E+00 -1.28425E+01  1.31270E+00 -3.40890E+00
  -6.24222E+00 -6.59242E+00 -1.05723E+01 -1.45450E+01 -1.06244E+00 -5.50024E+00 -2.16138E+00 -1.49302E+01 -1.47571E+01 -7.53588E+00
  -1.13619E+01 -1.20053E+01 -3.36721E+00 -9.15266E+00 -8.69448E+00 -1.13677E+01 -1.17376E+01 -1.36019E+01 -9.62328E+00 -6.72272E+00
  -1.00201E+01 -7.96322E+00 -6.56530E+00 -8.20889E+00 -1.68037E+00 -1.11234E+01 -2.08652E+00 -2.88446E+00 -1.13929E+01 -1.08128E+01
  -1.03176E+01 -9.40649E+00 -1.27536E+01 -9.93324E+00 -1.07408E+01 -4.52045E+00 -7.78069E+00 -5.96957E+00 -1.36139E+01 -1.44730E+01
  -1.06179E+01  1.67585E+00 -9.32336E+00 -1.76958E+01 -2.44396E+00 -6.56911E+00 -3.90733E-01 -1.26647E+00 -6.98842E+00 -6.32130E+00
  -1.49664E+01 -1.33302E+01 -4.81875E+00 -9.24534E+00 -9.69356E+00 -5.14338E+00 -1.27647E+01 -6.26585E+00
 NY points of the fit to the data follow
   1.98991E+01  1.95261E+01  1.94200E+01  1.95666E+01  2.01557E+01  2.17549E+01  2.44845E+01  2.79654E+01  3.24314E+01  3.72025E+01
   4.03157E+01  4.00591E+01  3.64899E+01  3.14780E+01  2.72273E+01  2.45189E+01  2.26751E+01  2.08110E+01  1.89462E+01  1.79027E+01
   1.77537E+01  1.77588E+01  1.76112E+01  1.76418E+01  1.80791E+01  1.86771E+01  1.98554E+01  2.19137E+01  2.44023E+01  2.64429E+01
   2.73367E+01  2.69657E+01  2.56177E+01  2.36146E+01  2.12820E+01  1.88292E+01  1.66340E+01  1.52650E+01  1.47142E+01  1.45341E+01
   1.48175E+01  1.58277E+01  1.76154E+01  2.00367E+01  2.30263E+01  2.61787E+01  2.82840E+01  2.80459E+01  2.52916E+01  2.11614E+01
   1.73472E+01  1.48241E+01  1.34241E+01  1.26541E+01  1.23181E+01  1.25692E+01  1.35434E+01  1.49168E+01  1.61980E+01  1.68712E+01
   1.65681E+01  1.53461E+01  1.36927E+01  1.22524E+01  1.14303E+01  1.12488E+01  1.15478E+01  1.20851E+01  1.27106E+01  1.33506E+01
   1.39201E+01  1.42270E+01  1.41508E+01  1.37295E+01  1.31538E+01  1.26261E+01  1.21997E+01  1.18150E+01  1.14033E+01  1.09983E+01
   1.06962E+01  1.03613E+01  9.89590E+00  9.23051E+00  8.26952E+00  6.96184E+00  5.52642E+00  4.43000E+00  4.10095E+00  4.57401E+00
   5.56434E+00  6.64825E+00  7.52382E+00  8.15125E+00  8.54541E+00  8.67794E+00  9.11645E+00  1.13990E+01  1.53990E+01  2.14073E+01
   2.94008E+01  3.69397E+01  4.03524E+01  3.78636E+01  3.09873E+01  2.33855E+01  1.78158E+01  1.44312E+01  1.18039E+01  9.01249E+00
   6.65872E+00  5.76817E+00  5.66485E+00  5.67254E+00  5.68629E+00  5.69277E+00  5.68795E+00  5.67295E+00  5.71784E+00  5.95113E+00
   6.71651E+00  9.15621E+00  1.34264E+01  1.91520E+01  2.66222E+01  3.44495E+01  3.94665E+01  3.92682E+01  3.41844E+01  2.70966E+01
   2.11410E+01  1.71139E+01  1.37675E+01  9.97374E+00  6.12368E+00  3.76960E+00  3.17755E+00  3.48047E+00  4.17674E+00  4.85639E+00
   5.25534E+00  5.33463E+00  5.16202E+00  4.85636E+00  4.53535E+00  4.20390E+00  3.82534E+00  3.41369E+00  2.97326E+00  2.55732E+00
   2.18226E+00  1.82852E+00  1.53178E+00  1.35404E+00  1.30010E+00  1.28822E+00  1.21425E+00  9.78788E-01  5.29966E-01  8.55112E-03
  -3.84033E-01 -5.00829E-01 -3.54680E-01 -1.70152E-01 -2.13938E-01 -5.48297E-01 -1.02531E+00 -1.43093E+00 -1.65324E+00 -1.75560E+00
  -1.87794E+00 -2.12594E+00 -2.49800E+00 -2.95390E+00 -3.36548E+00 -3.57098E+00 -3.50359E+00 -3.30128E+00 -3.22831E+00 -3.41403E+00
  -3.67702E+00 -3.77312E+00 -3.60108E+00 -3.26439E+00 -2.95173E+00 -2.58128E+00 -1.84923E+00 -6.96728E-01  6.04608E-01  1.58555E+00
   1.84416E+00  1.33804E+00  3.55900E-01 -7.00901E-01 -1.56800E+00 -2.10115E+00 -2.15429E+00 -1.65201E+00 -6.76275E-01  5.62617E-01
   1.81702E+00  2.83373E+00  3.49291E+00  3.62391E+00  2.85359E+00  1.20650E+00 -1.01557E+00 -3.40736E+00 -5.28083E+00 -5.90976E+00
  -4.80145E+00 -2.33451E+00  9.25709E-01  4.37019E+00  7.02530E+00  7.77439E+00  6.06242E+00  2.38546E+00 -1.99621E+00 -5.88339E+00
  -8.63279E+00 -9.66131E+00 -8.58132E+00 -5.65831E+00 -1.94449E+00  1.04245E+00  2.67627E+00  3.31857E+00  3.44235E+00  3.31669E+00
   3.07271E+00  3.09034E+00  3.63259E+00  4.47996E+00  5.20772E+00  5.63429E+00  5.68261E+00  5.23445E+00  4.45910E+00  3.55238E+00
   2.78138E+00  2.49997E+00  3.01223E+00  4.20158E+00  5.59666E+00  6.73369E+00  7.34224E+00  7.48051E+00  7.47791E+00  7.95756E+00
   9.62574E+00  1.22381E+01  1.58105E+01  2.02532E+01  2.54391E+01  3.10198E+01  3.58140E+01  4.14149E+01  4.88286E+01  5.53755E+01
   5.65709E+01  5.05412E+01  3.96904E+01  2.90444E+01  2.17278E+01  1.69012E+01  1.24651E+01  7.83130E+00  4.30098E+00  2.72281E+00
   1.99268E+00  1.64852E+00  1.55557E+00  1.50626E+00  1.32595E+00  9.84256E-01  5.35187E-01  6.52190E-02 -3.75446E-01 -7.68267E-01
  -1.10181E+00 -1.35420E+00 -1.51411E+00 -1.60449E+00 -1.66089E+00 -1.69780E+00 -1.69859E+00 -1.64755E+00 -1.53583E+00 -1.35118E+00
  -1.07967E+00 -7.27645E-01 -3.19884E-01  1.24372E-01  6.11058E-01  1.14637E+00  1.73047E+00  2.36270E+00  3.04056E+00  3.76051E+00
   4.51636E+00  5.28822E+00  6.05279E+00  6.79562E+00  7.51101E+00  8.19742E+00  8.85393E+00  9.48188E+00  1.00902E+01  1.06897E+01
   1.12928E+01  1.19138E+01  1.25665E+01  1.32626E+01  1.40109E+01  1.48149E+01  1.56725E+01  1.65751E+01  1.75072E+01  1.84468E+01
   1.93661E+01  2.02325E+01  2.10112E+01  2.16668E+01  2.21653E+01  2.24762E+01  2.25744E+01  2.24421E+01  2.20700E+01  2.14579E+01
   2.06148E+01  1.95579E+01  1.83122E+01  1.69092E+01  1.53851E+01  1.37795E+01  1.21333E+01  1.04869E+01  8.87955E+00  7.34874E+00
   5.92961E+00  4.65497E+00  3.55549E+00  2.65998E+00  1.99557E+00  1.58686E+00  1.45391E+00  1.60880E+00  2.05113E+00  2.76328E+00
   3.70640E+00  4.81814E+00  6.01377E+00  7.19140E+00  8.24162E+00  9.06032E+00  9.56238E+00  9.69344E+00  9.43710E+00  8.81626E+00
   7.88823E+00  6.73473E+00  5.44904E+00  4.12272E+00  2.83472E+00  1.64447E+00  5.89394E-01 -3.13586E-01 -1.06419E+00 -1.67368E+00
  -2.15983E+00 -2.54248E+00 -2.84036E+00 -3.06921E+00 -3.24110E+00 -3.36456E+00 -3.44506E+00 -3.48553E+00 -3.48692E+00 -3.44872E+00
  -3.36963E+00 -3.24803E+00 -3.08232E+00 -2.87110E+00 -2.61334E+00 -2.30867E+00 -1.95774E+00 -1.56248E+00 -1.12621E+00 -6.53696E-01
  -1.51172E-01  3.73526E-01  9.10918E-01  1.45005E+00  1.97884E+00  2.48453E+00  2.95410E+00  3.37467E+00  3.73395E+00  4.02088E+00
   4.22618E+00  4.34291E+00  4.36669E+00  4.29583E+00  4.13138E+00  3.87711E+00  3.53939E+00  3.12686E+00  2.64985E+00  2.11980E+00
   1.54878E+00  9.49036E-01  3.32539E-01 -2.89448E-01 -9.06830E-01 -1.51096E+00 -2.09470E+00 -2.65238E+00 -3.17979E+00 -3.67409E+00
  -4.13382E+00 -4.55867E+00 -4.94918E+00 -5.30653E+00 -5.63235E+00 -5.92867E+00 -6.19778E+00 -6.44212E+00 -6.66406E+00 -6.86580E+00
  -7.04940E+00 -7.21682E+00 -7.36995E+00 -7.51048E+00 -7.63986E+00 -7.75930E+00 -7.86988E+00 -7.97263E+00 -8.06850E+00 -8.15829E+00
  -8.24261E+00 -8.32196E+00 -8.39684E+00 -8.46775E+00 -8.53514E+00 -8.59936E+00 -8.66064E+00 -8.71919E+00 -8.77526E+00 -8.82914E+00
  -8.88106E+00 -8.93115E+00 -8.97947E+00 -9.02614E+00 -9.07131E+00 -9.11517E+00 -9.15783E+00 -9.19933E+00 -9.23969E+00 -9.27898E+00
  -9.31733E+00 -9.35487E+00 -9.39162E+00 -9.42757E+00 -9.46272E+00 -9.49716E+00 -9.53100E+00 -9.56431E+00 -9.59707E+00 -9.62925E+00
  -9.66086E+00 -9.69199E+00 -9.72273E+00 -9.75310E+00 -9.78305E+00 -9.81256E+00 -9.84166E+00 -9.87047E+00 -9.89902E+00 -9.92731E+00
  -9.95526E+00 -9.98288E+00 -1.00102E+01 -1.00374E+01 -1.00644E+01 -1.00912E+01 -1.01178E+01 -1.01441E+01 -1.01703E+01 -1.01963E+01
  -1.02223E+01 -1.02481E+01 -1.02737E+01 -1.02992E+01 -1.03246E+01 -1.03500E+01 -1.03754E+01 -1.04006E+01
 NY background values follow
     1.478E+01    1.468E+01    1.458E+01    1.448E+01    1.438E+01    1.428E+01    1.418E+01    1.407E+01    1.397E+01    1.387E+01
     1.377E+01    1.367E+01    1.357E+01    1.347E+01    1.337E+01    1.327E+01    1.317E+01    1.306E+01    1.296E+01    1.286E+01
     1.276E+01    1.266E+01    1.256E+01    1.246E+01    1.236E+01    1.226E+01    1.216E+01    1.206E+01    1.196E+01    1.185E+01
     1.175E+01    1.165E+01    1.155E+01    1.145E+01    1.135E+01    1.125E+01    1.115E+01    1.105E+01    1.095E+01    1.085E+01
     1.075E+01    1.065E+01    1.055E+01    1.045E+01    1.035E+01    1.025E+01    1.015E+01    1.005E+01    9.954E+00    9.855E+00
     9.756E+00    9.657E+00    9.558E+00    9.459E+00    9.360E+00    9.262E+00    9.163E+00    9.065E+00    8.967E+00    8.869E+00
     8.771E+00    8.673E+00    8.575E+00    8.478E+00    8.380E+00    8.283E+00    8.186E+00    8.089E+00    7.993E+00    7.896E+00
     7.800E+00    7.704E+00    7.608E+00    7.512E+00    7.417E+00    7.321E+00    7.226E+00    7.131E+00    7.036E+00    6.942E+00
     6.848E+00    6.754E+00    6.660E+00    6.566E+00    6.473E+00    6.380E+00    6.287E+00    6.194E+00    6.102E+00    6.010E+00
     5.918E+00    5.826E+00    5.735E+00    5.644E+00    5.553E+00    5.463E+00    5.372E+00    5.282E+00    5.193E+00    5.103E+00
     5.014E+00    4.925E+00    4.837E+00    4.748E+00    4.660E+00    4.573E+00    4.485E+00    4.398E+00    4.311E+00    4.225E+00
     4.138E+00    4.052E+00    3.967E+00    3.881E+00    3.796E+00    3.711E+00    3.627E+00    3.543E+00    3.459E+00    3.375E+00
     3.292E+00    3.209E+00    3.126E+00    3.044E+00    2.962E+00    2.880E+00    2.799E+00    2.718E+00    2.637E+00    2.557E+00
     2.477E+00    2.397E+00    2.317E+00    2.238E+00    2.159E+00    2.081E+00    2.003E+00    1.925E+00    1.847E+00    1.770E+00
     1.693E+00    1.617E+00    1.541E+00    1.465E+00    1.390E+00    1.314E+00    1.240E+00    1.165E+00    1.091E+00    1.017E+00
     9.439E-01    8.709E-01    7.982E-01    7.258E-01    6.538E-01    5.822E-01    5.109E-01    4.400E-01    3.694E-01    2.992E-01
     2.294E-01    1.599E-01    9.082E-02    2.207E-02   -4.630E-02   -1.143E-01   -1.819E-01   -2.492E-01   -3.161E-01   -3.826E-01
    -4.487E-01   -5.145E-01   -5.799E-01   -6.449E-01   -7.095E-01   -7.737E-01   -8.376E-01   -9.011E-01   -9.642E-01   -1.027E+00
    -1.089E+00   -1.151E+00   -1.213E+00   -1.274E+00   -1.334E+00   -1.395E+00   -1.455E+00   -1.514E+00   -1.574E+00   -1.633E+00
    -1.691E+00   -1.749E+00   -1.807E+00   -1.864E+00   -1.921E+00   -1.978E+00   -2.034E+00   -2.090E+00   -2.146E+00   -2.201E+00
    -2.256E+00   -2.310E+00   -2.365E+00   -2.419E+00   -2.472E+00   -2.525E+00   -2.578E+00   -2.631E+00   -2.683E+00   -2.735E+00
    -2.786E+00   -2.837E+00   -2.888E+00   -2.939E+00   -2.989E+00   -3.039E+00   -3.089E+00   -3.138E+00   -3.187E+00   -3.236E+00
    -3.284E+00   -3.333E+00   -3.380E+00   -3.428E+00   -3.475E+00   -3.522E+00   -3.569E+00   -3.615E+00   -3.661E+00   -3.707E+00
    -3.753E+00   -3.798E+00   -3.843E+00   -3.888E+00   -3.933E+00   -3.977E+00   -4.021E+00   -4.065E+00   -4.108E+00   -4.151E+00
    -4.194E+00   -4.237E+00   -4.280E+00   -4.322E+00   -4.364E+00   -4.406E+00   -4.447E+00   -4.489E+00   -4.530E+00   -4.571E+00
    -4.611E+00   -4.652E+00   -4.692E+00   -4.732E+00   -4.772E+00   -4.812E+00   -4.851E+00   -4.891E+00   -4.930E+00   -4.969E+00
    -5.007E+00   -5.046E+00   -5.084E+00   -5.123E+00   -5.161E+00   -5.198E+00   -5.236E+00   -5.274E+00   -5.311E+00   -5.348E+00
    -5.385E+00   -5.422E+00   -5.459E+00   -5.495E+00   -5.532E+00   -5.568E+00   -5.604E+00   -5.640E+00   -5.676E+00   -5.712E+00
    -5.747E+00   -5.783E+00   -5.818E+00   -5.853E+00   -5.888E+00   -5.923E+00   -5.958E+00   -5.992E+00   -6.027E+00   -6.061E+00
    -6.095E+00   -6.130E+00   -6.164E+00   -6.198E+00   -6.231E+00   -6.265E+00   -6.298E+00   -6.332E+00   -6.365E+00   -6.398E+00
    -6.431E+00   -6.464E+00   -6.497E+00   -6.530E+00   -6.563E+00   -6.595E+00   -6.628E+00   -6.660E+00   -6.692E+00   -6.725E+00
    -6.757E+00   -6.789E+00   -6.820E+00   -6.852E+00   -6.884E+00   -6.916E+00   -6.947E+00   -6.979E+00   -7.010E+00   -7.041E+00
    -7.072E+00   -7.103E+00   -7.134E+00   -7.165E+00   -7.196E+00   -7.227E+00   -7.258E+00   -7.288E+00   -7.319E+00   -7.349E+00
    -7.379E+00   -7.410E+00   -7.440E+00   -7.470E+00   -7.500E+00   -7.530E+00   -7.559E+00   -7.589E+00   -7.619E+00   -7.648E+00
    -7.678E+00   -7.707E+00   -7.736E+00   -7.765E+00   -7.794E+00   -7.823E+00   -7.852E+00   -7.881E+00   -7.910E+00   -7.938E+00
    -7.967E+00   -7.995E+00   -8.023E+00   -8.052E+00   -8.080E+00   -8.108E+00   -8.136E+00   -8.164E+00   -8.191E+00   -8.219E+00
    -8.247E+00   -8.274E+00   -8.302E+00   -8.329E+00   -8.356E+00   -8.383E+00   -8.410E+00   -8.437E+00   -8.464E+00   -8.490E+00
    -8.517E+00   -8.544E+00   -8.570E+00   -8.596E+00   -8.623E+00   -8.649E+00   -8.675E+00   -8.701E+00   -8.726E+00   -8.752E+00
    -8.778E+00   -8.803E+00   -8.829E+00   -8.854E+00   -8.879E+00   -8.904E+00   -8.929E+00   -8.954E+00   -8.979E+00   -9.003E+00
    -9.028E+00   -9.052E+00   -9.077E+00   -9.101E+00   -9.125E+00   -9.149E+00   -9.173E+00   -9.196E+00   -9.220E+00   -9.244E+00
    -9.267E+00   -9.290E+00   -9.314E+00   -9.337E+00   -9.360E+00   -9.382E+00   -9.405E+00   -9.428E+00   -9.450E+00   -9.473E+00
    -9.495E+00   -9.517E+00   -9.539E+00   -9.561E+00   -9.583E+00   -9.605E+00   -9.626E+00   -9.648E+00   -9.669E+00   -9.691E+00
    -9.712E+00   -9.733E+00   -9.754E+00   -9.775E+00   -9.796E+00   -9.816E+00   -9.837E+00   -9.858E+00   -9.878E+00   -9.899E+00
    -9.919E+00   -9.939E+00   -9.959E+00   -9.979E+00   -9.999E+00   -1.002E+01   -1.004E+01   -1.006E+01   -1.008E+01   -1.010E+01
    -1.012E+01   -1.014E+01   -1.016E+01   -1.018E+01   -1.020E+01   -1.021E+01   -1.023E+01   -1.025E+01   -1.027E+01   -1.029E+01
    -1.031E+01   -1.033E+01   -1.035E+01   -1.037E+01   -1.038E+01   -1.040E+01   -1.042E+01   -1.044E+01   -1.046E+01   -1.048E+01
    -1.050E+01   -1.051E+01   -1.053E+01   -1.055E+01   -1.057E+01   -1.059E+01   -1.061E+01   -1.062E+01   -1.064E+01   -1.066E+01
    -1.068E+01   -1.070E+01   -1.071E+01   -1.073E+01   -1.075E+01   -1.077E+01   -1.079E+01   -1.080E+01   -1.082E+01   -1.084E+01
    -1.086E+01   -1.088E+01   -1.089E+01   -1.091E+01   -1.093E+01   -1.095E+01   -1.096E+01   -1.098E+01   -1.100E+01   -1.102E+01
    -1.104E+01   -1.105E+01   -1.107E+01   -1.109E+01   -1.111E+01   -1.112E+01   -1.114E+01   -1.116E+01
 Asp      Conc. = 8.07E+01
