 LCModel (Version 6.3-1L) Copyright: S.W. Provencher.          Ref.: Magn. Reson. Med. 30:672-679 (1993).                
 Slice#1 Row#9 Col#4  K_02_press_1_raw_act
 36 lines in following concentration table = NCONC+1
    Conc.  %SD /Cr+PCr  Metabolite                                         
   27.847 332% 2.1E-02 Ala                                                 
    0.000 999%   0.000 Asp                                                 
  477.996  38%   0.362 Cr                                                  
  842.962  23%   0.638 PCr                                                 
   89.767 168% 6.8E-02 GABA                                                
   36.149 432% 2.7E-02 Glc                                                 
  396.014  48%   0.300 Gln                                                 
 1.73E+03  14%   1.306 Glu                                                 
  531.889   4%   0.403 GPC                                                 
    0.000 999%   0.000 PCh                                                 
  389.283  18%   0.295 GSH                                                 
 1.33E+03  16%   1.006 Ins                                                 
    0.000 999%   0.000 Lac                                                 
 2.61E+03   5%   1.977 NAA                                                 
  572.238  20%   0.433 NAAG                                                
   68.927  39% 5.2E-02 Scyllo                                              
  265.709  75%   0.201 Tau                                                 
  234.795  44%   0.178 -CrCH2                                              
  531.889   4%   0.403 GPC+PCh                                             
 3.18E+03   3%   2.410 NAA+NAAG                                            
 1.32E+03   4%   1.000 Cr+PCr                                              
 2.12E+03  14%   1.606 Glu+Gln                                             
 2.58E+03  16%   1.952 Lip13a                                              
    0.000 999%   0.000 Lip13b                                              
  321.361  89%   0.243 Lip09                                               
 1.08E+03  25%   0.817 MM09                                                
  587.872  40%   0.445 Lip20                                               
 2.35E+03  15%   1.779 MM20                                                
  369.825  44%   0.280 MM12                                                
    0.000 999%   0.000 MM14                                                
  775.004  25%   0.587 MM17                                                
 2.58E+03  16%   1.952 Lip13a+Lip13b                                       
 2.95E+03  12%   2.232 MM14+Lip13a+Lip13b+MM12                             
 1.40E+03  13%   1.060 MM09+Lip09                                          
 2.94E+03  12%   2.224 MM20+Lip20                                          
   6 lines in following misc. output table
  FWHM = 0.038 ppm    S/N =  16                                            
  Data shift = 0.000 ppm                                                   
  Ph: -17 deg      -8.3 deg/ppm                                            
  alphaB,S = 8.5E+01,   9.3E+01                                            
   14 spline knots.   Ns = 6(1)                                            
   4 inflections.     1 extrema                                            
  498 points on ppm-axis = NY
      4.000000     3.992357     3.984714     3.977070     3.969427     3.961784     3.954141     3.946497     3.938854     3.931211
      3.923568     3.915925     3.908281     3.900638     3.892995     3.885352     3.877708     3.870065     3.862422     3.854779
      3.847136     3.839492     3.831849     3.824206     3.816563     3.808919     3.801276     3.793633     3.785990     3.778347
      3.770703     3.763060     3.755417     3.747774     3.740130     3.732487     3.724844     3.717201     3.709558     3.701914
      3.694271     3.686628     3.678985     3.671341     3.663698     3.656055     3.648412     3.640769     3.633125     3.625482
      3.617839     3.610196     3.602552     3.594909     3.587266     3.579623     3.571980     3.564336     3.556693     3.549050
      3.541407     3.533763     3.526120     3.518477     3.510834     3.503191     3.495547     3.487904     3.480261     3.472618
      3.464974     3.457331     3.449688     3.442045     3.434402     3.426758     3.419115     3.411472     3.403829     3.396185
      3.388542     3.380899     3.373256     3.365613     3.357969     3.350326     3.342683     3.335040     3.327396     3.319753
      3.312110     3.304467     3.296824     3.289180     3.281537     3.273894     3.266251     3.258607     3.250964     3.243321
      3.235678     3.228034     3.220391     3.212748     3.205105     3.197462     3.189818     3.182175     3.174532     3.166889
      3.159245     3.151602     3.143959     3.136316     3.128673     3.121029     3.113386     3.105743     3.098100     3.090456
      3.082813     3.075170     3.067527     3.059884     3.052240     3.044597     3.036954     3.029311     3.021667     3.014024
      3.006381     2.998738     2.991095     2.983451     2.975808     2.968165     2.960522     2.952878     2.945235     2.937592
      2.929949     2.922306     2.914662     2.907019     2.899376     2.891733     2.884089     2.876446     2.868803     2.861160
      2.853517     2.845873     2.838230     2.830587     2.822944     2.815300     2.807657     2.800014     2.792371     2.784728
      2.777084     2.769441     2.761798     2.754155     2.746511     2.738868     2.731225     2.723582     2.715939     2.708295
      2.700652     2.693009     2.685366     2.677722     2.670079     2.662436     2.654793     2.647150     2.639506     2.631863
      2.624220     2.616577     2.608933     2.601290     2.593647     2.586004     2.578361     2.570717     2.563074     2.555431
      2.547788     2.540144     2.532501     2.524858     2.517215     2.509572     2.501928     2.494285     2.486642     2.478999
      2.471355     2.463712     2.456069     2.448426     2.440783     2.433139     2.425496     2.417853     2.410210     2.402566
      2.394923     2.387280     2.379637     2.371994     2.364350     2.356707     2.349064     2.341421     2.333777     2.326134
      2.318491     2.310848     2.303205     2.295561     2.287918     2.280275     2.272632     2.264988     2.257345     2.249702
      2.242059     2.234416     2.226772     2.219129     2.211486     2.203843     2.196199     2.188556     2.180913     2.173270
      2.165627     2.157983     2.150340     2.142697     2.135054     2.127410     2.119767     2.112124     2.104481     2.096838
      2.089194     2.081551     2.073908     2.066265     2.058621     2.050978     2.043335     2.035692     2.028049     2.020405
      2.012762     2.005119     1.997476     1.989833     1.982190     1.974546     1.966903     1.959260     1.951617     1.943974
      1.936331     1.928688     1.921045     1.913402     1.905759     1.898115     1.890472     1.882829     1.875186     1.867543
      1.859900     1.852257     1.844614     1.836971     1.829327     1.821684     1.814041     1.806398     1.798755     1.791112
      1.783469     1.775826     1.768183     1.760540     1.752896     1.745253     1.737610     1.729967     1.722324     1.714681
      1.707038     1.699395     1.691752     1.684108     1.676465     1.668822     1.661179     1.653536     1.645893     1.638250
      1.630607     1.622964     1.615321     1.607677     1.600034     1.592391     1.584748     1.577105     1.569462     1.561819
      1.554176     1.546533     1.538890     1.531246     1.523603     1.515960     1.508317     1.500674     1.493031     1.485388
      1.477745     1.470102     1.462458     1.454815     1.447172     1.439529     1.431886     1.424243     1.416600     1.408957
      1.401314     1.393671     1.386027     1.378384     1.370741     1.363098     1.355455     1.347812     1.340169     1.332526
      1.324883     1.317240     1.309596     1.301953     1.294310     1.286667     1.279024     1.271381     1.263738     1.256095
      1.248452     1.240808     1.233165     1.225522     1.217879     1.210236     1.202593     1.194950     1.187307     1.179664
      1.172021     1.164377     1.156734     1.149091     1.141448     1.133805     1.126162     1.118519     1.110876     1.103233
      1.095590     1.087946     1.080303     1.072660     1.065017     1.057374     1.049731     1.042088     1.034445     1.026802
      1.019158     1.011515     1.003872     0.996229     0.988586     0.980943     0.973300     0.965657     0.958014     0.950371
      0.942727     0.935084     0.927441     0.919798     0.912155     0.904512     0.896869     0.889226     0.881583     0.873940
      0.866296     0.858653     0.851010     0.843367     0.835724     0.828081     0.820438     0.812795     0.805152     0.797508
      0.789865     0.782222     0.774579     0.766936     0.759293     0.751650     0.744007     0.736364     0.728721     0.721077
      0.713434     0.705791     0.698148     0.690505     0.682862     0.675219     0.667576     0.659933     0.652290     0.644646
      0.637003     0.629360     0.621717     0.614074     0.606431     0.598788     0.591145     0.583502     0.575858     0.568215
      0.560572     0.552929     0.545286     0.537643     0.530000     0.522357     0.514714     0.507071     0.499427     0.491784
      0.484141     0.476498     0.468855     0.461212     0.453569     0.445925     0.438282     0.430639     0.422996     0.415353
      0.407710     0.400067     0.392424     0.384780     0.377137     0.369494     0.361851     0.354208     0.346565     0.338922
      0.331278     0.323635     0.315992     0.308349     0.300706     0.293063     0.285420     0.277777     0.270133     0.262490
      0.254847     0.247204     0.239561     0.231918     0.224275     0.216631     0.208988     0.201345
 NY phased data points follow
   2.92228E+00 -1.74195E+00 -2.02004E+00  4.57826E+00  2.10704E+00  5.56166E+00  9.53454E+00  1.85179E+01  1.78006E+01  2.34173E+01
   2.86097E+01  2.50484E+01  2.92330E+01  2.20053E+01  1.23726E+01  1.05114E+01  4.95908E+00 -1.63171E+00  2.51785E+00 -3.23577E-01
   1.78237E+00  2.03178E-02  2.18002E-01  2.53365E+00  2.32015E+00  6.86469E-01  6.58868E+00  4.43907E+00  9.53994E+00  7.69117E+00
   7.98368E+00  8.14493E+00  8.37197E+00  9.28547E+00  9.63826E+00  4.30784E+00  5.65190E+00  1.12457E+00  9.35689E+00 -2.13354E+00
   6.47570E+00  7.41701E+00  3.25721E+00  7.53733E+00  1.04078E+01  8.89373E+00  1.46054E+01  1.44853E+01  1.73530E+01  1.54356E+01
   1.10843E+01  4.06808E+00  4.75571E+00  3.13969E+00  5.66058E+00  3.25075E+00  6.33506E+00  8.45146E+00  7.04065E+00  4.32001E+00
   4.31041E-01  3.43545E+00  4.02668E+00  1.32457E+00 -1.12431E-01 -2.84493E+00 -1.48805E-01  2.06733E+00  1.22462E+00 -2.62786E-01
   2.43846E-01  4.46451E+00  2.65220E+00  3.54131E+00  1.56980E-01  2.56071E+00 -1.81608E-01  5.83751E+00  7.75106E-01  5.30903E-02
   5.42300E+00  2.49693E+00  9.83842E-01  1.34369E+00  3.28724E+00  3.72577E+00 -2.03261E+00 -2.07977E-01  1.80105E+00  5.08131E+00
   5.64081E+00  5.18668E+00  3.83328E+00  5.00645E+00  6.95203E+00  9.02231E+00  5.99496E+00  8.63606E+00  1.24598E+01  1.97251E+01
   2.70795E+01  4.16356E+01  5.08903E+01  6.08406E+01  5.55038E+01  4.62126E+01  3.45615E+01  2.09195E+01  1.41103E+01  8.24149E+00
   5.05008E+00  6.49414E+00  4.51350E+00  3.37937E+00  6.07405E+00  4.90642E-01  3.38682E+00  4.81638E+00  5.15133E+00  2.96627E-01
   7.16651E+00  1.17727E+01  1.00646E+01  1.87283E+01  2.25806E+01  3.24796E+01  4.20445E+01  5.43159E+01  5.72193E+01  4.95690E+01
   3.45614E+01  2.00306E+01  1.67463E+01  8.96707E+00  6.04160E+00  1.61125E+00  1.77724E+00  1.72325E-01  1.83274E+00 -2.68848E-01
   7.43511E+00  5.87095E+00  4.91881E+00  1.09151E+01  7.94120E+00  7.14107E+00  2.35775E+00  7.35084E+00  7.02449E+00  9.27574E-01
   4.25725E+00  4.23456E+00  1.61607E+00  6.80473E+00  5.08104E+00  2.18839E+00  6.10762E+00  4.19778E+00  5.17535E+00  5.79115E+00
   6.04900E+00  6.85125E+00  2.59747E+00 -1.63084E+00 -8.15352E-01  5.04426E+00 -1.19399E+00  6.15170E-01 -3.17338E+00 -5.88027E+00
  -1.02018E+01 -1.08644E+01 -9.70689E+00 -9.83486E+00 -1.23738E+01 -1.38390E+01 -1.79713E+01 -1.56215E+01 -1.17175E+01 -1.15197E+01
  -6.38273E+00 -5.00956E+00 -3.81870E+00 -3.09210E+00 -7.12446E+00  1.53126E+00  1.59396E+00  9.05885E-02  3.02460E+00  3.81374E+00
   4.03117E+00  5.91441E+00  2.86148E+00  3.29122E+00 -3.05655E+00  1.47442E+00 -2.06956E+00 -3.56628E+00 -9.50899E+00 -8.32180E+00
  -3.93075E+00 -1.00423E+00 -2.26617E+00  1.00223E+01  8.61597E+00  4.05005E+00  4.98900E-02 -4.23188E-01  4.35433E-02  4.26868E-02
   9.13763E-01  3.26345E+00  5.97601E+00  1.07265E+01  1.01523E+01  1.46025E+01  1.99672E+01  1.79553E+01  1.46909E+01  9.23774E+00
   4.52135E-01 -2.97191E+00 -2.17159E+00 -4.19760E+00  1.16335E+00  1.51868E+00  8.54683E+00  1.32313E+01  1.25975E+01  1.53074E+01
   1.22625E+01  1.06626E+01  6.94123E+00  1.39620E+01  1.04169E+01  9.87782E+00  1.16851E+01  1.18605E+01  1.17759E+01  7.90070E+00
   1.11445E+01  6.55792E+00  6.04685E+00  1.50413E+00  1.89544E+00  1.38643E+01  1.22975E+01  2.06170E+01  1.87826E+01  2.08163E+01
   1.81516E+01  2.36131E+01  2.74930E+01  2.89752E+01  3.81720E+01  5.73081E+01  6.83727E+01  8.14385E+01  8.18316E+01  9.81801E+01
   1.23537E+02  1.30156E+02  1.11412E+02  7.94415E+01  4.65959E+01  2.31715E+01  1.09219E+01  9.61839E+00  3.73660E+00  7.05911E+00
   7.84075E+00  1.00149E+01  6.36871E+00  1.27773E+01  1.03506E+01  1.17880E+01  1.32671E+01  7.52035E+00  1.11717E+01  1.17644E+01
   1.17751E+01  5.18833E+00  5.06380E+00  1.35893E+01  8.21722E+00  1.38368E+00  5.92977E+00  5.27431E+00  7.51351E+00  1.11499E+01
   6.15455E+00  4.63301E+00  8.19299E+00  8.08329E+00  8.62589E+00  9.25512E+00  1.01329E+01  7.14257E+00  8.76914E+00  6.85115E+00
   5.08871E+00  6.74924E+00  6.30327E+00  9.71319E+00  7.31780E+00  6.82231E+00  1.29006E+01  2.60074E+00  9.24595E+00  7.98181E+00
   1.32571E+01  9.36578E+00  5.09976E+00  9.86988E+00  4.54553E+00  1.02418E+01  8.10830E+00  9.67064E+00  6.64168E+00  1.07810E+01
   8.29097E+00  9.87983E+00  7.50561E+00  7.40879E+00  8.36108E+00 -7.05535E-01  2.21292E+00  9.44704E+00  3.33572E+00  3.40777E+00
   3.20537E+00  1.19387E+00  7.94015E+00  1.09278E+01  6.79264E+00  9.06351E+00  2.19323E+00  3.45334E+00  9.70376E+00  1.04762E+01
   1.00439E+01  2.91741E+00  1.03091E+01  1.28355E+01  1.08527E+01  1.02932E+01  1.56577E+01  1.81516E+01  2.07812E+01  1.73484E+01
   2.18929E+01  1.96565E+01  1.47997E+01  1.38842E+01  1.77157E+01  1.12382E+01  1.02055E+01  1.21330E+01  1.32731E+01  9.61621E+00
   1.14654E+01  1.44697E+01  1.48676E+01  1.25571E+01  2.07384E+01  1.57302E+01  1.93711E+01  1.64238E+01  1.97210E+01  1.34012E+01
   1.52865E+01  1.32269E+01  9.49223E+00  1.10220E+01  1.38475E+01  1.34180E+01  7.99701E+00  1.26554E+01  1.14939E+01  1.52156E+01
   1.20630E+01  7.94598E+00  1.03017E+01  1.40210E+01  1.24372E+01  3.44914E+00  5.28347E+00  6.82513E+00  7.36966E+00  1.14335E+01
   5.65640E+00  1.39068E+01  1.14828E+01  9.24692E+00  1.22476E+01  1.31286E+01  1.48798E+01  1.49339E+01  1.14307E+01  1.19152E+01
   1.36827E+01  1.87667E+01  1.25759E+01  1.32713E+01  1.02916E+01  1.29545E+01  1.54239E+01  1.88153E+01  1.60516E+01  1.29230E+01
   1.59012E+01  1.00931E+01  1.50593E+01  1.55725E+01  1.21606E+01  4.81837E+00  8.30949E+00  6.94194E+00  9.65521E+00  9.22086E+00
   1.03583E+01  7.07159E+00  1.15123E+01  9.98613E+00  7.00955E+00  9.20324E+00  5.03553E+00  8.11151E+00  4.82404E+00  5.84832E+00
   6.14135E+00  8.88453E+00  2.50535E+00  8.16324E+00  4.86762E+00  7.48247E+00  4.94183E+00  5.63623E+00  5.03292E+00  7.85959E+00
   4.45206E+00  4.31140E+00  1.16128E+01  8.86400E+00  8.64044E+00  1.19832E+01  5.79773E+00  7.29840E+00  6.53611E+00  7.54326E+00
   4.18817E+00  5.31666E+00  7.29068E+00  8.95086E+00  3.60995E+00  4.16517E+00  5.58414E+00  7.63238E+00  4.83594E+00  7.37276E+00
   7.47797E+00  9.37594E+00  9.66788E+00  7.57739E+00  6.43624E+00  3.79373E+00  7.96728E+00  3.78474E+00  8.31171E+00  7.45874E+00
   8.29458E+00 -6.65118E-01  6.43264E+00  7.67593E+00  7.15376E-01  9.55147E+00  2.39379E+00  8.12562E+00  8.12374E+00  3.85780E+00
   5.40981E+00  3.60128E+00  3.24789E+00  4.61100E+00  9.49029E+00  2.52163E-01  1.51955E+00 -1.94931E+00  5.76651E+00  4.53059E+00
   1.49377E+00  5.14380E+00  3.88335E+00  3.31249E+00  6.59241E+00  6.07221E+00  4.73839E+00  3.53037E+00
 NY points of the fit to the data follow
   2.64000E-01 -2.62157E-02  2.05289E-01  1.33546E+00  3.50885E+00  6.44113E+00  1.00748E+01  1.42514E+01  1.90853E+01  2.40939E+01
   2.78394E+01  2.87166E+01  2.60246E+01  2.06316E+01  1.45147E+01  9.51003E+00  6.40479E+00  4.84455E+00  4.06417E+00  3.58088E+00
   3.16982E+00  2.89323E+00  2.57566E+00  2.33494E+00  2.65678E+00  3.28393E+00  4.04471E+00  5.07992E+00  6.78681E+00  9.27446E+00
   1.16878E+01  1.30991E+01  1.31815E+01  1.20838E+01  1.02217E+01  7.90022E+00  5.46180E+00  3.29668E+00  1.60458E+00  7.14931E-01
   1.00784E+00  2.58428E+00  4.87000E+00  7.00523E+00  8.75797E+00  1.05094E+01  1.24731E+01  1.39786E+01  1.38729E+01  1.17338E+01
   8.29990E+00  4.80258E+00  2.24731E+00  1.08683E+00  1.08588E+00  1.70080E+00  2.48783E+00  3.27782E+00  4.09195E+00  4.85096E+00
   5.28612E+00  5.12927E+00  4.27684E+00  3.02597E+00  1.83433E+00  1.16823E+00  1.24169E+00  1.83203E+00  2.56200E+00  3.20437E+00
   3.75165E+00  4.17395E+00  4.39076E+00  4.36789E+00  4.18056E+00  3.93013E+00  3.62587E+00  3.17020E+00  2.55072E+00  1.91626E+00
   1.52530E+00  1.62479E+00  2.00564E+00  2.40472E+00  2.72030E+00  2.97796E+00  3.10579E+00  2.85314E+00  2.11309E+00  1.18296E+00
   5.75262E-01  4.97809E-01  8.25934E-01  1.31334E+00  1.72688E+00  2.14534E+00  3.63682E+00  8.16654E+00  1.45048E+01  2.11479E+01
   2.87144E+01  3.87678E+01  5.05935E+01  5.91342E+01  5.87485E+01  4.87123E+01  3.36201E+01  1.94252E+01  9.76027E+00  4.98711E+00
   3.36219E+00  2.76529E+00  2.39663E+00  2.15942E+00  1.99349E+00  1.88825E+00  1.83675E+00  1.82714E+00  1.87832E+00  2.10008E+00
   3.04908E+00  6.55928E+00  1.22445E+01  1.82590E+01  2.47748E+01  3.32988E+01  4.40445E+01  5.33125E+01  5.55009E+01  4.84705E+01
   3.55466E+01  2.23111E+01  1.26563E+01  7.35451E+00  4.90936E+00  3.36802E+00  2.06576E+00  1.33350E+00  1.41560E+00  2.23693E+00
   3.41976E+00  4.45587E+00  4.97472E+00  4.91471E+00  4.44913E+00  3.85680E+00  3.36108E+00  3.02890E+00  2.80112E+00  2.60467E+00
   2.41381E+00  2.22575E+00  2.04851E+00  1.90147E+00  1.79905E+00  1.65556E+00  1.56193E+00  1.56580E+00  1.52652E+00  1.27029E+00
   5.49863E-01 -3.67741E-01 -8.16178E-01 -4.47779E-01  4.04263E-01  9.85316E-01  7.09861E-01 -3.55807E-01 -1.67097E+00 -2.71084E+00
  -3.32944E+00 -3.59262E+00 -3.57750E+00 -3.67508E+00 -4.13773E+00 -4.95994E+00 -5.56463E+00 -5.30009E+00 -4.28118E+00 -3.34471E+00
  -3.16637E+00 -3.71585E+00 -4.15550E+00 -3.84174E+00 -2.94785E+00 -1.97796E+00 -1.14029E+00 -1.10254E-01  1.51886E+00  3.66710E+00
   5.68645E+00  6.88774E+00  6.80833E+00  5.74390E+00  4.35654E+00  3.25689E+00  2.65067E+00  2.52377E+00  2.98781E+00  3.92817E+00
   5.14438E+00  6.41116E+00  7.52197E+00  8.33998E+00  8.44734E+00  7.60290E+00  5.78758E+00  3.10056E+00  2.48846E-01 -1.85232E+00
  -2.39947E+00 -1.29485E+00  7.34965E-01  3.46345E+00  6.90425E+00  1.05722E+01  1.29959E+01  1.25802E+01  9.28462E+00  4.49320E+00
  -3.58651E-01 -4.22954E+00 -6.32310E+00 -5.87936E+00 -2.76130E+00  1.95642E+00  6.63032E+00  9.98225E+00  1.15416E+01  1.15113E+01
   1.05362E+01  9.53275E+00  9.14444E+00  9.51365E+00  1.04507E+01  1.15438E+01  1.23994E+01  1.26582E+01  1.22027E+01  1.12196E+01
   9.99929E+00  8.81044E+00  8.09828E+00  8.37820E+00  9.82059E+00  1.19720E+01  1.40654E+01  1.55731E+01  1.64407E+01  1.73531E+01
   1.90507E+01  2.11588E+01  2.38441E+01  2.83082E+01  3.89652E+01  5.53459E+01  6.94127E+01  7.91995E+01  8.92739E+01  1.04534E+02
   1.20443E+02  1.24539E+02  1.09611E+02  8.08934E+01  5.03158E+01  2.75134E+01  1.52681E+01  1.09931E+01  9.91949E+00  9.14160E+00
   8.57819E+00  8.21597E+00  8.04349E+00  8.05279E+00  8.16790E+00  8.20234E+00  8.03560E+00  7.69436E+00  7.27360E+00  6.86609E+00
   6.53652E+00  6.31978E+00  6.22009E+00  6.20881E+00  6.23864E+00  6.27692E+00  6.31237E+00  6.34231E+00  6.37535E+00  6.43601E+00
   6.55111E+00  6.73140E+00  6.95679E+00  7.18473E+00  7.38693E+00  7.55405E+00  7.69019E+00  7.80441E+00  7.91120E+00  8.02626E+00
   8.15614E+00  8.29280E+00  8.41778E+00  8.51265E+00  8.56591E+00  8.57426E+00  8.54070E+00  8.47095E+00  8.37012E+00  8.24516E+00
   8.10274E+00  7.94773E+00  7.78314E+00  7.61240E+00  7.44067E+00  7.27460E+00  7.12014E+00  6.98138E+00  6.86107E+00  6.76303E+00
   6.69467E+00  6.66571E+00  6.65790E+00  6.65418E+00  6.66272E+00  6.69047E+00  6.71964E+00  6.70786E+00  6.63402E+00  6.55366E+00
   6.55022E+00  6.65706E+00  6.87058E+00  7.17937E+00  7.57926E+00  8.04812E+00  8.53208E+00  8.97272E+00  9.34751E+00  9.67997E+00
   1.00127E+01  1.03789E+01  1.07903E+01  1.12383E+01  1.17083E+01  1.21912E+01  1.26789E+01  1.31637E+01  1.36388E+01  1.40971E+01
   1.45310E+01  1.49319E+01  1.52916E+01  1.56034E+01  1.58621E+01  1.60631E+01  1.62024E+01  1.62765E+01  1.62841E+01  1.62262E+01
   1.61053E+01  1.59252E+01  1.56896E+01  1.54038E+01  1.50741E+01  1.47085E+01  1.43153E+01  1.39022E+01  1.34762E+01  1.30446E+01
   1.26149E+01  1.21945E+01  1.17899E+01  1.14061E+01  1.10471E+01  1.07171E+01  1.04200E+01  1.01593E+01  9.93753E+00  9.75593E+00
   9.61563E+00  9.51818E+00  9.46522E+00  9.45789E+00  9.49630E+00  9.58005E+00  9.70870E+00  9.88209E+00  1.00995E+01  1.03590E+01
   1.06571E+01  1.09895E+01  1.13513E+01  1.17371E+01  1.21398E+01  1.25508E+01  1.29603E+01  1.33578E+01  1.37332E+01  1.40764E+01
   1.43773E+01  1.46260E+01  1.48135E+01  1.49333E+01  1.49808E+01  1.49540E+01  1.48521E+01  1.46766E+01  1.44313E+01  1.41224E+01
   1.37580E+01  1.33475E+01  1.29000E+01  1.24253E+01  1.19333E+01  1.14341E+01  1.09370E+01  1.04497E+01  9.97853E+00  9.52836E+00
   9.10344E+00  8.70714E+00  8.34133E+00  8.00647E+00  7.70185E+00  7.42652E+00  7.17943E+00  6.95931E+00  6.76417E+00  6.59153E+00
   6.43884E+00  6.30419E+00  6.18602E+00  6.08283E+00  5.99269E+00  5.91366E+00  5.84410E+00  5.78317E+00  5.73018E+00  5.68436E+00
   5.64447E+00  5.60946E+00  5.57868E+00  5.55209E+00  5.52949E+00  5.51041E+00  5.49400E+00  5.47978E+00  5.46764E+00  5.45786E+00
   5.45031E+00  5.44458E+00  5.44004E+00  5.43657E+00  5.43437E+00  5.43373E+00  5.43444E+00  5.43607E+00  5.43820E+00  5.44096E+00
   5.44465E+00  5.44946E+00  5.45506E+00  5.46104E+00  5.46721E+00  5.47390E+00  5.48138E+00  5.48969E+00  5.49837E+00  5.50713E+00
   5.51599E+00  5.52539E+00  5.53548E+00  5.54613E+00  5.55687E+00  5.56757E+00  5.57844E+00  5.58989E+00  5.60192E+00  5.61423E+00
   5.62645E+00  5.63864E+00  5.65112E+00  5.66420E+00  5.67770E+00  5.69130E+00  5.70473E+00  5.71826E+00  5.73221E+00  5.74676E+00
   5.76156E+00  5.77634E+00  5.79101E+00  5.80597E+00  5.82149E+00  5.83756E+00  5.85380E+00  5.87002E+00
 NY background values follow
    -2.325E+00   -2.309E+00   -2.292E+00   -2.275E+00   -2.258E+00   -2.242E+00   -2.225E+00   -2.208E+00   -2.191E+00   -2.174E+00
    -2.158E+00   -2.141E+00   -2.124E+00   -2.107E+00   -2.090E+00   -2.074E+00   -2.057E+00   -2.040E+00   -2.023E+00   -2.006E+00
    -1.990E+00   -1.973E+00   -1.956E+00   -1.939E+00   -1.922E+00   -1.906E+00   -1.889E+00   -1.872E+00   -1.855E+00   -1.838E+00
    -1.822E+00   -1.805E+00   -1.788E+00   -1.771E+00   -1.754E+00   -1.738E+00   -1.721E+00   -1.704E+00   -1.687E+00   -1.670E+00
    -1.654E+00   -1.637E+00   -1.620E+00   -1.603E+00   -1.586E+00   -1.569E+00   -1.553E+00   -1.536E+00   -1.519E+00   -1.502E+00
    -1.485E+00   -1.469E+00   -1.452E+00   -1.435E+00   -1.418E+00   -1.401E+00   -1.384E+00   -1.368E+00   -1.351E+00   -1.334E+00
    -1.317E+00   -1.300E+00   -1.283E+00   -1.267E+00   -1.250E+00   -1.233E+00   -1.216E+00   -1.199E+00   -1.182E+00   -1.166E+00
    -1.149E+00   -1.132E+00   -1.115E+00   -1.098E+00   -1.081E+00   -1.065E+00   -1.048E+00   -1.031E+00   -1.014E+00   -9.972E-01
    -9.804E-01   -9.635E-01   -9.467E-01   -9.299E-01   -9.130E-01   -8.962E-01   -8.793E-01   -8.625E-01   -8.457E-01   -8.288E-01
    -8.120E-01   -7.951E-01   -7.783E-01   -7.614E-01   -7.446E-01   -7.277E-01   -7.109E-01   -6.941E-01   -6.772E-01   -6.604E-01
    -6.435E-01   -6.267E-01   -6.098E-01   -5.930E-01   -5.761E-01   -5.593E-01   -5.424E-01   -5.256E-01   -5.087E-01   -4.919E-01
    -4.750E-01   -4.582E-01   -4.413E-01   -4.245E-01   -4.076E-01   -3.908E-01   -3.739E-01   -3.571E-01   -3.402E-01   -3.234E-01
    -3.065E-01   -2.897E-01   -2.728E-01   -2.559E-01   -2.391E-01   -2.222E-01   -2.054E-01   -1.885E-01   -1.717E-01   -1.548E-01
    -1.380E-01   -1.211E-01   -1.043E-01   -8.740E-02   -7.054E-02   -5.369E-02   -3.683E-02   -1.998E-02   -3.121E-03    1.374E-02
     3.059E-02    4.745E-02    6.431E-02    8.116E-02    9.802E-02    1.149E-01    1.317E-01    1.486E-01    1.654E-01    1.823E-01
     1.992E-01    2.160E-01    2.329E-01    2.497E-01    2.666E-01    2.835E-01    3.003E-01    3.172E-01    3.340E-01    3.509E-01
     3.677E-01    3.846E-01    4.015E-01    4.183E-01    4.352E-01    4.520E-01    4.689E-01    4.858E-01    5.026E-01    5.195E-01
     5.363E-01    5.532E-01    5.701E-01    5.869E-01    6.038E-01    6.206E-01    6.375E-01    6.544E-01    6.712E-01    6.881E-01
     7.049E-01    7.218E-01    7.387E-01    7.555E-01    7.724E-01    7.892E-01    8.061E-01    8.230E-01    8.398E-01    8.567E-01
     8.736E-01    8.904E-01    9.073E-01    9.241E-01    9.410E-01    9.579E-01    9.747E-01    9.916E-01    1.008E+00    1.025E+00
     1.042E+00    1.059E+00    1.076E+00    1.093E+00    1.110E+00    1.126E+00    1.143E+00    1.160E+00    1.177E+00    1.194E+00
     1.211E+00    1.228E+00    1.244E+00    1.261E+00    1.278E+00    1.295E+00    1.312E+00    1.329E+00    1.346E+00    1.362E+00
     1.379E+00    1.396E+00    1.413E+00    1.430E+00    1.447E+00    1.464E+00    1.480E+00    1.497E+00    1.514E+00    1.531E+00
     1.548E+00    1.565E+00    1.582E+00    1.598E+00    1.615E+00    1.632E+00    1.649E+00    1.666E+00    1.683E+00    1.700E+00
     1.716E+00    1.733E+00    1.750E+00    1.767E+00    1.784E+00    1.801E+00    1.818E+00    1.834E+00    1.851E+00    1.868E+00
     1.885E+00    1.902E+00    1.919E+00    1.935E+00    1.952E+00    1.969E+00    1.986E+00    2.003E+00    2.020E+00    2.037E+00
     2.053E+00    2.070E+00    2.087E+00    2.104E+00    2.121E+00    2.138E+00    2.154E+00    2.171E+00    2.188E+00    2.205E+00
     2.222E+00    2.239E+00    2.255E+00    2.272E+00    2.289E+00    2.306E+00    2.323E+00    2.340E+00    2.356E+00    2.373E+00
     2.390E+00    2.407E+00    2.424E+00    2.441E+00    2.457E+00    2.474E+00    2.491E+00    2.508E+00    2.525E+00    2.542E+00
     2.558E+00    2.575E+00    2.592E+00    2.609E+00    2.626E+00    2.642E+00    2.659E+00    2.676E+00    2.693E+00    2.710E+00
     2.727E+00    2.743E+00    2.760E+00    2.777E+00    2.794E+00    2.811E+00    2.827E+00    2.844E+00    2.861E+00    2.878E+00
     2.895E+00    2.912E+00    2.928E+00    2.945E+00    2.962E+00    2.979E+00    2.996E+00    3.012E+00    3.029E+00    3.046E+00
     3.063E+00    3.080E+00    3.096E+00    3.113E+00    3.130E+00    3.147E+00    3.164E+00    3.180E+00    3.197E+00    3.214E+00
     3.231E+00    3.247E+00    3.264E+00    3.281E+00    3.298E+00    3.315E+00    3.331E+00    3.348E+00    3.365E+00    3.382E+00
     3.399E+00    3.415E+00    3.432E+00    3.449E+00    3.466E+00    3.482E+00    3.499E+00    3.516E+00    3.533E+00    3.550E+00
     3.566E+00    3.583E+00    3.600E+00    3.617E+00    3.633E+00    3.650E+00    3.667E+00    3.684E+00    3.700E+00    3.717E+00
     3.734E+00    3.751E+00    3.767E+00    3.784E+00    3.801E+00    3.818E+00    3.834E+00    3.851E+00    3.868E+00    3.885E+00
     3.901E+00    3.918E+00    3.935E+00    3.952E+00    3.968E+00    3.985E+00    4.002E+00    4.019E+00    4.035E+00    4.052E+00
     4.069E+00    4.086E+00    4.102E+00    4.119E+00    4.136E+00    4.153E+00    4.169E+00    4.186E+00    4.203E+00    4.219E+00
     4.236E+00    4.253E+00    4.270E+00    4.286E+00    4.303E+00    4.320E+00    4.337E+00    4.353E+00    4.370E+00    4.387E+00
     4.403E+00    4.420E+00    4.437E+00    4.453E+00    4.470E+00    4.487E+00    4.504E+00    4.520E+00    4.537E+00    4.554E+00
     4.570E+00    4.587E+00    4.604E+00    4.620E+00    4.637E+00    4.654E+00    4.671E+00    4.687E+00    4.704E+00    4.721E+00
     4.737E+00    4.754E+00    4.771E+00    4.787E+00    4.804E+00    4.821E+00    4.837E+00    4.854E+00    4.871E+00    4.887E+00
     4.904E+00    4.921E+00    4.937E+00    4.954E+00    4.971E+00    4.987E+00    5.004E+00    5.021E+00    5.037E+00    5.054E+00
     5.071E+00    5.087E+00    5.104E+00    5.120E+00    5.137E+00    5.154E+00    5.170E+00    5.187E+00    5.204E+00    5.220E+00
     5.237E+00    5.254E+00    5.270E+00    5.287E+00    5.303E+00    5.320E+00    5.337E+00    5.353E+00    5.370E+00    5.387E+00
     5.403E+00    5.420E+00    5.436E+00    5.453E+00    5.470E+00    5.486E+00    5.503E+00    5.519E+00    5.536E+00    5.553E+00
     5.569E+00    5.586E+00    5.602E+00    5.619E+00    5.636E+00    5.652E+00    5.669E+00    5.685E+00    5.702E+00    5.719E+00
     5.735E+00    5.752E+00    5.768E+00    5.785E+00    5.801E+00    5.818E+00    5.835E+00    5.851E+00    5.868E+00    5.884E+00
     5.901E+00    5.917E+00    5.934E+00    5.951E+00    5.967E+00    5.984E+00    6.000E+00    6.017E+00
 Ala      Conc. = 2.78E+01
