 LCModel (Version 6.3-1L) Copyright: S.W. Provencher.          Ref.: Magn. Reson. Med. 30:672-679 (1993).                
 Slice#2 Row#2 Col#10  K_02_press_1_raw_act
 36 lines in following concentration table = NCONC+1
    Conc.  %SD /Cr+PCr  Metabolite                                         
 5.48E+03  11%   5.965 Ala                                                 
   36.605 421% 4.0E-02 Asp                                                 
    0.000 999%   0.000 Cr                                                  
  918.227   8%   1.000 PCr                                                 
   85.535 113% 9.3E-02 GABA                                                
  100.246  95%   0.109 Glc                                                 
 4.62E+03  15%   5.034 Gln                                                 
 6.40E+03  14%   6.966 Glu                                                 
  287.994  11%   0.314 GPC                                                 
    0.000 999%   0.000 PCh                                                 
    0.000 999%   0.000 GSH                                                 
 1.04E+03  34%   1.128 Ins                                                 
 1.21E+03  89%   1.322 Lac                                                 
 1.07E+03   9%   1.169 NAA                                                 
    0.000 999%   0.000 NAAG                                                
  103.554  25%   0.113 Scyllo                                              
  252.878  58%   0.275 Tau                                                 
    0.000 999%   0.000 -CrCH2                                              
  287.994  11%   0.314 GPC+PCh                                             
 1.07E+03   9%   1.169 NAA+NAAG                                            
  918.227   8%   1.000 Cr+PCr                                              
 1.10E+04  13%  12.001 Glu+Gln                                             
 9.04E+03  15%   9.841 Lip13a                                              
  386.748  68%   0.421 Lip13b                                              
  676.914  34%   0.737 Lip09                                               
    0.000 999%   0.000 MM09                                                
  527.547  66%   0.575 Lip20                                               
    0.000 999%   0.000 MM20                                                
   47.298 309% 5.2E-02 MM12                                                
 1.61E+03  24%   1.758 MM14                                                
 1.79E+03  15%   1.949+MM17                                                
 9.42E+03  13%  10.263 Lip13a+Lip13b                                       
 1.11E+04  11%  12.072 MM14+Lip13a+Lip13b+MM12                             
  676.914  34%   0.737 MM09+Lip09                                          
  527.547  66%   0.575 MM20+Lip20                                          
   6 lines in following misc. output table
  FWHM = 0.138 ppm    S/N =   7                                            
  Data shift = 0.015 ppm                                                   
  Ph: -60 deg     -33.3 deg/ppm                                            
  alphaB,S = 6.6E-01,   1.8E+02                                            
   14 spline knots.   Ns = 7(2)                                            
  ( 9) 2 infls.   ( 3) 1 extrs.                                            
  498 points on ppm-axis = NY
      4.000000     3.992357     3.984714     3.977070     3.969427     3.961784     3.954141     3.946497     3.938854     3.931211
      3.923568     3.915925     3.908281     3.900638     3.892995     3.885352     3.877708     3.870065     3.862422     3.854779
      3.847136     3.839492     3.831849     3.824206     3.816563     3.808919     3.801276     3.793633     3.785990     3.778347
      3.770703     3.763060     3.755417     3.747774     3.740130     3.732487     3.724844     3.717201     3.709558     3.701914
      3.694271     3.686628     3.678985     3.671341     3.663698     3.656055     3.648412     3.640769     3.633125     3.625482
      3.617839     3.610196     3.602552     3.594909     3.587266     3.579623     3.571980     3.564336     3.556693     3.549050
      3.541407     3.533763     3.526120     3.518477     3.510834     3.503191     3.495547     3.487904     3.480261     3.472618
      3.464974     3.457331     3.449688     3.442045     3.434402     3.426758     3.419115     3.411472     3.403829     3.396185
      3.388542     3.380899     3.373256     3.365613     3.357969     3.350326     3.342683     3.335040     3.327396     3.319753
      3.312110     3.304467     3.296824     3.289180     3.281537     3.273894     3.266251     3.258607     3.250964     3.243321
      3.235678     3.228034     3.220391     3.212748     3.205105     3.197462     3.189818     3.182175     3.174532     3.166889
      3.159245     3.151602     3.143959     3.136316     3.128673     3.121029     3.113386     3.105743     3.098100     3.090456
      3.082813     3.075170     3.067527     3.059884     3.052240     3.044597     3.036954     3.029311     3.021667     3.014024
      3.006381     2.998738     2.991095     2.983451     2.975808     2.968165     2.960522     2.952878     2.945235     2.937592
      2.929949     2.922306     2.914662     2.907019     2.899376     2.891733     2.884089     2.876446     2.868803     2.861160
      2.853517     2.845873     2.838230     2.830587     2.822944     2.815300     2.807657     2.800014     2.792371     2.784728
      2.777084     2.769441     2.761798     2.754155     2.746511     2.738868     2.731225     2.723582     2.715939     2.708295
      2.700652     2.693009     2.685366     2.677722     2.670079     2.662436     2.654793     2.647150     2.639506     2.631863
      2.624220     2.616577     2.608933     2.601290     2.593647     2.586004     2.578361     2.570717     2.563074     2.555431
      2.547788     2.540144     2.532501     2.524858     2.517215     2.509572     2.501928     2.494285     2.486642     2.478999
      2.471355     2.463712     2.456069     2.448426     2.440783     2.433139     2.425496     2.417853     2.410210     2.402566
      2.394923     2.387280     2.379637     2.371994     2.364350     2.356707     2.349064     2.341421     2.333777     2.326134
      2.318491     2.310848     2.303205     2.295561     2.287918     2.280275     2.272632     2.264988     2.257345     2.249702
      2.242059     2.234416     2.226772     2.219129     2.211486     2.203843     2.196199     2.188556     2.180913     2.173270
      2.165627     2.157983     2.150340     2.142697     2.135054     2.127410     2.119767     2.112124     2.104481     2.096838
      2.089194     2.081551     2.073908     2.066265     2.058621     2.050978     2.043335     2.035692     2.028049     2.020405
      2.012762     2.005119     1.997476     1.989833     1.982190     1.974546     1.966903     1.959260     1.951617     1.943974
      1.936331     1.928688     1.921045     1.913402     1.905759     1.898115     1.890472     1.882829     1.875186     1.867543
      1.859900     1.852257     1.844614     1.836971     1.829327     1.821684     1.814041     1.806398     1.798755     1.791112
      1.783469     1.775826     1.768183     1.760540     1.752896     1.745253     1.737610     1.729967     1.722324     1.714681
      1.707038     1.699395     1.691752     1.684108     1.676465     1.668822     1.661179     1.653536     1.645893     1.638250
      1.630607     1.622964     1.615321     1.607677     1.600034     1.592391     1.584748     1.577105     1.569462     1.561819
      1.554176     1.546533     1.538890     1.531246     1.523603     1.515960     1.508317     1.500674     1.493031     1.485388
      1.477745     1.470102     1.462458     1.454815     1.447172     1.439529     1.431886     1.424243     1.416600     1.408957
      1.401314     1.393671     1.386027     1.378384     1.370741     1.363098     1.355455     1.347812     1.340169     1.332526
      1.324883     1.317240     1.309596     1.301953     1.294310     1.286667     1.279024     1.271381     1.263738     1.256095
      1.248452     1.240808     1.233165     1.225522     1.217879     1.210236     1.202593     1.194950     1.187307     1.179664
      1.172021     1.164377     1.156734     1.149091     1.141448     1.133805     1.126162     1.118519     1.110876     1.103233
      1.095590     1.087946     1.080303     1.072660     1.065017     1.057374     1.049731     1.042088     1.034445     1.026802
      1.019158     1.011515     1.003872     0.996229     0.988586     0.980943     0.973300     0.965657     0.958014     0.950371
      0.942727     0.935084     0.927441     0.919798     0.912155     0.904512     0.896869     0.889226     0.881583     0.873940
      0.866296     0.858653     0.851010     0.843367     0.835724     0.828081     0.820438     0.812795     0.805152     0.797508
      0.789865     0.782222     0.774579     0.766936     0.759293     0.751650     0.744007     0.736364     0.728721     0.721077
      0.713434     0.705791     0.698148     0.690505     0.682862     0.675219     0.667576     0.659933     0.652290     0.644646
      0.637003     0.629360     0.621717     0.614074     0.606431     0.598788     0.591145     0.583502     0.575858     0.568215
      0.560572     0.552929     0.545286     0.537643     0.530000     0.522357     0.514714     0.507071     0.499427     0.491784
      0.484141     0.476498     0.468855     0.461212     0.453569     0.445925     0.438282     0.430639     0.422996     0.415353
      0.407710     0.400067     0.392424     0.384780     0.377137     0.369494     0.361851     0.354208     0.346565     0.338922
      0.331278     0.323635     0.315992     0.308349     0.300706     0.293063     0.285420     0.277777     0.270133     0.262490
      0.254847     0.247204     0.239561     0.231918     0.224275     0.216631     0.208988     0.201345
 NY phased data points follow
   8.75108E+00  7.01687E+00  1.16385E+01  7.72774E+00  7.59511E+00  8.85121E+00  8.63837E+00  9.16878E+00  8.52239E+00  1.49072E+01
   1.55744E+01  1.56715E+01  4.14900E+00  1.23808E+01  8.54702E+00  1.10927E+01  6.22228E+00  1.23126E+01  7.78046E+00  5.51963E+00
   6.89194E+00  9.32072E+00  7.52781E+00  6.52223E+00  6.49566E+00  6.97677E+00  8.04117E+00  8.68833E+00  8.69723E+00  5.58513E+00
   5.51298E+00  7.62202E+00  4.43381E+00  6.29488E+00  4.65776E+00  4.17178E+00  8.16873E+00  3.46731E+00  9.27809E+00  1.14950E+01
   1.04004E+01  7.39716E+00  5.34677E+00  9.21827E+00  5.93174E+00  5.69791E+00  1.32873E+01  5.65802E+00  8.34776E+00  1.00149E+01
   1.02705E+01  9.94776E+00  1.03216E+01  7.13437E+00  3.30345E+00  9.70017E+00  2.40845E+00  5.44222E+00  6.19235E+00  3.31239E+00
   1.14883E+01  3.96148E+00  7.80079E+00  9.99876E+00  4.18450E+00  6.38478E+00  3.58753E+00 -3.59854E-01  6.15437E+00  3.23727E+00
   3.16773E+00  6.40626E+00  7.05623E+00  2.41858E+00  8.29020E+00  2.61761E+00  7.62396E+00  6.23596E+00  8.71896E+00  8.41003E+00
   1.82554E+00  4.25500E+00  4.32595E+00  9.14597E+00  1.09072E+01  9.28440E+00  9.18347E+00  4.39019E+00  1.09794E+01  1.24771E+01
   9.86518E+00  1.18496E+01  8.99282E+00  7.02524E+00  1.23030E+01  1.15866E+01  9.27129E+00  1.18344E+01  1.48971E+01  1.41409E+01
   1.51706E+01  1.90565E+01  1.41213E+01  2.17013E+01  1.27048E+01  9.32714E+00  1.53632E+01  1.35004E+01  1.77985E+01  1.14777E+01
   1.10149E+01  1.20197E+01  8.33544E+00  1.12954E+01  8.19556E+00  1.12167E+01  1.06152E+01  7.66528E+00  7.52674E+00  7.52508E+00
   1.01595E+01  1.03599E+01  1.19616E+01  1.21990E+01  1.66413E+01  1.76905E+01  1.96603E+01  1.81661E+01  2.20652E+01  1.97041E+01
   1.92097E+01  2.03248E+01  1.45354E+01  1.26882E+01  1.18406E+01  7.65639E+00  9.29692E+00  9.02943E+00  1.27104E+01  8.39504E+00
   3.46743E+00  1.15212E+01  7.91277E+00  9.45249E+00  7.37162E+00  1.03455E+01  5.52431E+00  7.66555E+00  6.57830E+00  6.30604E+00
   7.18742E+00  7.55877E+00  7.08134E+00  4.86259E+00  9.14005E+00  5.84567E+00  5.15268E+00  1.06651E+01  8.19297E+00  1.21728E+01
   4.60237E+00  4.32170E+00  4.55591E+00  7.41986E+00  7.28604E+00  5.97244E+00  6.51652E+00  2.53140E+00  5.35363E-01  4.17502E+00
   1.47646E+00  7.19170E+00  2.23584E+00  1.70430E-01  1.64543E+00  4.27240E+00  3.37899E+00  9.12183E-01  5.03756E+00  1.88665E+00
   5.78648E+00  6.46902E+00  7.56236E+00  6.34173E+00  9.28114E-01  1.15447E+01  8.18911E+00  3.99584E+00  3.10347E+00  2.03284E+00
   5.90759E+00  8.56148E+00  1.05395E+01  2.78974E+00  1.02862E+01  9.28829E+00  1.27260E+01  9.23117E+00  7.29792E+00  5.80683E+00
   1.09259E+01  4.55815E+00  8.66280E+00  7.05993E+00  9.57509E+00  7.06397E+00  1.14381E+01  7.79113E+00  1.09436E+01  1.04463E+01
   1.31332E+01  1.07603E+01  1.14546E+01  7.87290E+00  5.53056E+00  7.03440E+00  1.00352E+01  1.41832E+01  1.52996E+01  1.34373E+01
   7.79793E+00  1.32192E+01  1.26956E+01  1.48429E+01  8.53524E+00  1.49696E+01  1.19829E+01  1.32761E+01  1.18306E+01  1.60306E+01
   7.40138E+00  8.79586E+00  1.23995E+01  1.36794E+01  1.42216E+01  1.39245E+01  1.40063E+01  1.44001E+01  1.75334E+01  1.40587E+01
   1.84624E+01  1.71698E+01  1.28477E+01  1.30314E+01  1.80760E+01  2.04260E+01  1.67290E+01  1.97818E+01  2.04618E+01  2.05832E+01
   1.71432E+01  1.65042E+01  2.09566E+01  2.36252E+01  2.47879E+01  2.45662E+01  2.89142E+01  2.56061E+01  2.91623E+01  3.10657E+01
   3.85759E+01  3.50943E+01  4.24369E+01  4.09046E+01  3.36645E+01  4.08031E+01  3.39342E+01  3.47753E+01  3.43560E+01  3.32488E+01
   3.00336E+01  2.96240E+01  3.21276E+01  3.32388E+01  2.89301E+01  2.61214E+01  2.54415E+01  2.66677E+01  2.70985E+01  2.63654E+01
   2.94500E+01  2.75391E+01  2.90896E+01  2.93927E+01  2.55209E+01  2.84892E+01  2.93260E+01  3.32920E+01  2.63067E+01  2.85884E+01
   2.85870E+01  2.94064E+01  2.81983E+01  2.81097E+01  2.88826E+01  3.21302E+01  3.60791E+01  3.42753E+01  3.20581E+01  3.53827E+01
   3.29481E+01  3.42093E+01  3.61299E+01  3.86331E+01  3.46928E+01  3.96116E+01  3.58281E+01  4.37304E+01  3.92104E+01  4.46483E+01
   3.99043E+01  4.43820E+01  4.53110E+01  4.69711E+01  4.81351E+01  4.47509E+01  4.68268E+01  5.01693E+01  4.52291E+01  4.49011E+01
   4.77395E+01  4.42351E+01  4.68291E+01  4.40043E+01  4.74948E+01  4.51727E+01  4.50980E+01  4.19575E+01  4.68325E+01  4.33448E+01
   3.92511E+01  3.82949E+01  4.13699E+01  4.32333E+01  4.55269E+01  4.36050E+01  4.54764E+01  5.04527E+01  5.02451E+01  5.29663E+01
   5.56087E+01  5.50032E+01  6.24744E+01  6.21403E+01  5.94268E+01  6.42874E+01  6.17368E+01  6.26639E+01  6.28017E+01  6.47089E+01
   6.78762E+01  6.29433E+01  6.50264E+01  6.25508E+01  5.82135E+01  5.30705E+01  5.81746E+01  5.37017E+01  5.41070E+01  4.90190E+01
   5.51092E+01  5.24257E+01  5.20983E+01  5.03284E+01  4.82908E+01  4.28305E+01  4.16090E+01  4.29154E+01  4.41601E+01  4.27501E+01
   3.84603E+01  3.53939E+01  3.80203E+01  3.65682E+01  3.73327E+01  3.68203E+01  3.67374E+01  3.56397E+01  3.27011E+01  2.97707E+01
   3.11978E+01  2.90952E+01  3.10971E+01  2.74249E+01  2.72444E+01  3.25410E+01  2.93733E+01  2.79573E+01  3.01043E+01  2.63950E+01
   2.35924E+01  2.27515E+01  2.56319E+01  2.50711E+01  1.53615E+01  1.65190E+01  2.16270E+01  2.21481E+01  2.56684E+01  2.48675E+01
   2.12346E+01  2.00242E+01  2.42224E+01  2.71882E+01  2.12643E+01  2.27856E+01  2.10987E+01  2.14817E+01  2.57960E+01  2.39510E+01
   2.17508E+01  2.04676E+01  1.96932E+01  1.79224E+01  1.82962E+01  1.77180E+01  2.12673E+01  1.96578E+01  2.16822E+01  2.17677E+01
   1.74979E+01  2.32880E+01  1.46042E+01  1.86836E+01  1.86987E+01  1.84478E+01  2.37302E+01  1.74948E+01  1.85462E+01  1.32812E+01
   1.67676E+01  1.68069E+01  1.23517E+01  1.87590E+01  1.61771E+01  1.20176E+01  1.08743E+01  1.40138E+01  1.88305E+01  1.05616E+01
   1.38019E+01  1.27075E+01  1.12638E+01  1.56487E+01  1.73196E+01  1.45244E+01  1.56748E+01  1.09917E+01  1.59848E+01  1.52326E+01
   1.94602E+01  1.68054E+01  1.69868E+01  1.56793E+01  9.17122E+00  7.94317E+00  1.50499E+01  1.30595E+01  1.07738E+01  1.09688E+01
   1.30119E+01  6.13449E+00  1.40166E+01  1.07946E+01  1.60196E+01  1.11059E+01  1.65379E+01  1.24680E+01  1.08366E+01  9.24194E+00
   8.58290E+00  1.57214E+01  1.34844E+01  1.08597E+01  9.67223E+00  1.25120E+01  8.63764E+00  3.27851E+00  1.43616E+01  9.56137E+00
   1.31028E+01  9.44902E+00  1.03180E+01  1.29330E+01  1.07778E+01  9.54263E+00  1.17722E+01  7.94231E+00  1.24975E+01  5.66871E+00
   1.11711E+01  1.07755E+01  8.08119E+00  1.27193E+01  1.22484E+01  7.50003E+00  1.09429E+01  8.94411E+00
 NY points of the fit to the data follow
   5.09271E+00  6.25429E+00  6.36530E+00  7.50028E+00  7.29566E+00  8.52381E+00  8.13335E+00  9.45121E+00  8.87156E+00  1.04421E+01
   9.90556E+00  1.20058E+01  1.10768E+01  1.27408E+01  1.13082E+01  1.19758E+01  1.00523E+01  9.79710E+00  8.26969E+00  8.28969E+00
   7.71884E+00  7.91079E+00  7.73926E+00  7.50302E+00  7.44216E+00  6.75626E+00  7.31491E+00  6.55312E+00  7.15108E+00  6.28972E+00
   6.91693E+00  6.22987E+00  6.94656E+00  6.60569E+00  7.56135E+00  7.75014E+00  8.42196E+00  8.97366E+00  9.23301E+00  9.63172E+00
   9.45680E+00  9.52208E+00  9.36686E+00  9.93870E+00  9.71423E+00  1.02353E+01  9.90677E+00  9.66911E+00  9.08027E+00  8.11012E+00
   7.73134E+00  7.47602E+00  7.68762E+00  7.70944E+00  7.88046E+00  7.55459E+00  7.33770E+00  6.71498E+00  6.39037E+00  5.88735E+00
   5.74968E+00  5.38761E+00  5.31515E+00  5.01663E+00  5.00385E+00  4.81988E+00  4.98093E+00  4.90123E+00  5.05047E+00  4.95307E+00
   5.07651E+00  5.02892E+00  5.32848E+00  5.27647E+00  5.58404E+00  5.46018E+00  5.73167E+00  5.57785E+00  5.91393E+00  5.72399E+00
   6.05920E+00  5.79190E+00  6.12028E+00  5.78922E+00  6.10192E+00  5.76781E+00  6.01810E+00  5.86692E+00  6.73779E+00  6.86145E+00
   7.76776E+00  8.04854E+00  8.87015E+00  9.34017E+00  1.01219E+01  1.07469E+01  1.14154E+01  1.21605E+01  1.27663E+01  1.35707E+01
   1.39875E+01  1.47558E+01  1.48362E+01  1.55100E+01  1.53788E+01  1.57769E+01  1.50916E+01  1.51041E+01  1.39384E+01  1.36090E+01
   1.20586E+01  1.16716E+01  1.09867E+01  1.08450E+01  1.06066E+01  1.05968E+01  1.05323E+01  1.06381E+01  1.08051E+01  1.11922E+01
   1.22674E+01  1.29565E+01  1.40491E+01  1.47718E+01  1.57168E+01  1.63616E+01  1.69566E+01  1.74103E+01  1.75255E+01  1.77051E+01
   1.72089E+01  1.70659E+01  1.59826E+01  1.55157E+01  1.38926E+01  1.32268E+01  1.16168E+01  1.09584E+01  9.58613E+00  8.97600E+00
   7.66993E+00  7.09088E+00  5.96537E+00  5.66092E+00  5.61372E+00  5.62454E+00  5.64983E+00  5.66603E+00  5.71001E+00  5.73063E+00
   5.79163E+00  5.82843E+00  5.87567E+00  5.89708E+00  5.93313E+00  5.93952E+00  5.96136E+00  5.95773E+00  5.96151E+00  5.94600E+00
   5.92821E+00  5.90300E+00  5.84752E+00  5.81645E+00  5.76743E+00  5.73398E+00  5.68635E+00  5.62376E+00  5.58359E+00  5.51962E+00
   5.50419E+00  5.42929E+00  5.42588E+00  5.31375E+00  5.37451E+00  5.29426E+00  5.42561E+00  5.38284E+00  5.56365E+00  5.51504E+00
   5.67040E+00  5.59339E+00  5.73474E+00  5.51586E+00  5.66791E+00  5.31947E+00  5.52218E+00  5.19531E+00  5.79382E+00  5.60732E+00
   6.52452E+00  6.46683E+00  7.77429E+00  7.62460E+00  8.95035E+00  8.44430E+00  9.16069E+00  7.89891E+00  9.00330E+00  7.33878E+00
   8.94554E+00  7.31436E+00  9.71753E+00  8.81018E+00  1.12384E+01  1.04734E+01  1.23690E+01  1.14772E+01  1.24675E+01  1.09441E+01
   1.10947E+01  9.97349E+00  9.96646E+00  9.58198E+00  9.63912E+00  9.98807E+00  1.00322E+01  1.10654E+01  1.08389E+01  1.22225E+01
   1.15400E+01  1.28177E+01  1.14584E+01  1.23901E+01  1.16532E+01  1.23108E+01  1.24041E+01  1.30530E+01  1.33611E+01  1.30657E+01
   1.43623E+01  1.35888E+01  1.55264E+01  1.41974E+01  1.67856E+01  1.57864E+01  1.80812E+01  1.69430E+01  1.88819E+01  1.74334E+01
   1.87653E+01  1.65557E+01  1.73420E+01  1.55652E+01  1.64614E+01  1.50183E+01  1.66828E+01  1.62115E+01  1.79516E+01  1.82150E+01
   2.00267E+01  2.11401E+01  2.30964E+01  2.46354E+01  2.60930E+01  2.76302E+01  2.91360E+01  3.08937E+01  3.23515E+01  3.41957E+01
   3.52919E+01  3.64558E+01  3.65882E+01  3.73889E+01  3.66230E+01  3.69617E+01  3.54718E+01  3.54676E+01  3.32718E+01  3.27807E+01
   3.05700E+01  2.99660E+01  2.82594E+01  2.77771E+01  2.63617E+01  2.58313E+01  2.47230E+01  2.41263E+01  2.42309E+01  2.42328E+01
   2.45328E+01  2.46828E+01  2.50571E+01  2.53822E+01  2.56818E+01  2.60865E+01  2.64677E+01  2.69485E+01  2.73831E+01  2.79263E+01
   2.83997E+01  2.89714E+01  2.95586E+01  3.02336E+01  3.09093E+01  3.16390E+01  3.23541E+01  3.30915E+01  3.37991E+01  3.44740E+01
   3.51178E+01  3.57202E+01  3.62843E+01  3.68050E+01  3.72906E+01  3.77435E+01  3.81820E+01  3.86174E+01  3.90906E+01  3.96338E+01
   4.03268E+01  4.12938E+01  4.28474E+01  4.50956E+01  4.58214E+01  4.75186E+01  4.73542E+01  4.84959E+01  4.73801E+01  4.77199E+01
   4.52787E+01  4.63580E+01  4.45956E+01  4.59269E+01  4.43103E+01  4.53154E+01  4.36679E+01  4.41425E+01  4.28278E+01  4.26021E+01
   4.17759E+01  4.11322E+01  4.16215E+01  4.11821E+01  4.32213E+01  4.25481E+01  4.65787E+01  4.63699E+01  5.17071E+01  5.13194E+01
   5.66213E+01  5.57121E+01  6.09358E+01  5.94377E+01  6.43593E+01  6.37257E+01  6.65269E+01  6.49669E+01  6.66023E+01  6.42585E+01
   6.45817E+01  6.14114E+01  6.04111E+01  5.86980E+01  5.86036E+01  5.70786E+01  5.69608E+01  5.54628E+01  5.51043E+01  5.35116E+01
   5.28622E+01  5.11153E+01  5.03233E+01  4.85720E+01  4.77820E+01  4.65390E+01  4.55420E+01  4.41523E+01  4.30456E+01  4.15137E+01
   4.02639E+01  3.85785E+01  3.72084E+01  3.60349E+01  3.49673E+01  3.39758E+01  3.30476E+01  3.21768E+01  3.13599E+01  3.05948E+01
   2.98800E+01  2.92142E+01  2.85958E+01  2.80236E+01  2.74961E+01  2.70118E+01  2.65690E+01  2.61659E+01  2.58007E+01  2.54715E+01
   2.51760E+01  2.49121E+01  2.46774E+01  2.44692E+01  2.42847E+01  2.41208E+01  2.39745E+01  2.38423E+01  2.37207E+01  2.36059E+01
   2.34943E+01  2.33823E+01  2.32663E+01  2.31431E+01  2.30097E+01  2.28634E+01  2.27023E+01  2.25248E+01  2.23299E+01  2.21173E+01
   2.18873E+01  2.16408E+01  2.13791E+01  2.11041E+01  2.08179E+01  2.05229E+01  2.02218E+01  1.99172E+01  1.96115E+01  1.93073E+01
   1.90066E+01  1.87115E+01  1.84236E+01  1.81443E+01  1.78744E+01  1.76148E+01  1.73659E+01  1.71278E+01  1.69005E+01  1.66837E+01
   1.64772E+01  1.62804E+01  1.60929E+01  1.59139E+01  1.57430E+01  1.55795E+01  1.54227E+01  1.52722E+01  1.51274E+01  1.49877E+01
   1.48527E+01  1.47220E+01  1.45952E+01  1.44719E+01  1.43518E+01  1.42346E+01  1.41201E+01  1.40080E+01  1.38982E+01  1.37904E+01
   1.36845E+01  1.35803E+01  1.34778E+01  1.33767E+01  1.32770E+01  1.31786E+01  1.30815E+01  1.29854E+01  1.28903E+01  1.27963E+01
   1.27032E+01  1.26109E+01  1.25195E+01  1.24288E+01  1.23389E+01  1.22497E+01  1.21612E+01  1.20733E+01  1.19861E+01  1.18994E+01
   1.18133E+01  1.17278E+01  1.16428E+01  1.15584E+01  1.14744E+01  1.13910E+01  1.13081E+01  1.12256E+01  1.11436E+01  1.10622E+01
   1.09812E+01  1.09006E+01  1.08206E+01  1.07411E+01  1.06621E+01  1.05835E+01  1.05056E+01  1.04281E+01  1.03513E+01  1.02750E+01
   1.01993E+01  1.01244E+01  1.00501E+01  9.97662E+00  9.90398E+00  9.83225E+00  9.76157E+00  9.69203E+00
 NY background values follow
    -2.146E+00   -2.099E+00   -2.052E+00   -2.005E+00   -1.958E+00   -1.911E+00   -1.864E+00   -1.816E+00   -1.769E+00   -1.721E+00
    -1.674E+00   -1.626E+00   -1.578E+00   -1.530E+00   -1.482E+00   -1.434E+00   -1.386E+00   -1.338E+00   -1.289E+00   -1.240E+00
    -1.192E+00   -1.143E+00   -1.094E+00   -1.045E+00   -9.954E-01   -9.459E-01   -8.963E-01   -8.466E-01   -7.966E-01   -7.465E-01
    -6.962E-01   -6.458E-01   -5.952E-01   -5.443E-01   -4.933E-01   -4.421E-01   -3.907E-01   -3.391E-01   -2.873E-01   -2.353E-01
    -1.831E-01   -1.306E-01   -7.796E-02   -2.507E-02    2.806E-02    8.142E-02    1.350E-01    1.889E-01    2.429E-01    2.972E-01
     3.517E-01    4.063E-01    4.612E-01    5.163E-01    5.715E-01    6.269E-01    6.825E-01    7.382E-01    7.941E-01    8.501E-01
     9.062E-01    9.625E-01    1.019E+00    1.075E+00    1.132E+00    1.189E+00    1.245E+00    1.302E+00    1.359E+00    1.416E+00
     1.473E+00    1.530E+00    1.587E+00    1.644E+00    1.701E+00    1.758E+00    1.815E+00    1.872E+00    1.930E+00    1.987E+00
     2.044E+00    2.101E+00    2.158E+00    2.214E+00    2.271E+00    2.328E+00    2.385E+00    2.441E+00    2.498E+00    2.554E+00
     2.610E+00    2.667E+00    2.723E+00    2.779E+00    2.834E+00    2.890E+00    2.946E+00    3.001E+00    3.057E+00    3.112E+00
     3.167E+00    3.223E+00    3.278E+00    3.333E+00    3.388E+00    3.443E+00    3.498E+00    3.553E+00    3.608E+00    3.663E+00
     3.717E+00    3.772E+00    3.827E+00    3.882E+00    3.937E+00    3.992E+00    4.047E+00    4.101E+00    4.156E+00    4.211E+00
     4.266E+00    4.321E+00    4.377E+00    4.432E+00    4.487E+00    4.542E+00    4.598E+00    4.653E+00    4.709E+00    4.764E+00
     4.820E+00    4.876E+00    4.932E+00    4.988E+00    5.044E+00    5.100E+00    5.157E+00    5.214E+00    5.270E+00    5.327E+00
     5.384E+00    5.441E+00    5.499E+00    5.556E+00    5.614E+00    5.672E+00    5.730E+00    5.789E+00    5.848E+00    5.907E+00
     5.966E+00    6.025E+00    6.085E+00    6.145E+00    6.205E+00    6.266E+00    6.326E+00    6.388E+00    6.449E+00    6.511E+00
     6.573E+00    6.635E+00    6.698E+00    6.761E+00    6.825E+00    6.889E+00    6.953E+00    7.018E+00    7.083E+00    7.148E+00
     7.214E+00    7.280E+00    7.347E+00    7.414E+00    7.482E+00    7.550E+00    7.619E+00    7.688E+00    7.757E+00    7.827E+00
     7.898E+00    7.969E+00    8.040E+00    8.112E+00    8.185E+00    8.258E+00    8.332E+00    8.406E+00    8.480E+00    8.555E+00
     8.631E+00    8.707E+00    8.784E+00    8.861E+00    8.938E+00    9.016E+00    9.095E+00    9.174E+00    9.253E+00    9.333E+00
     9.413E+00    9.494E+00    9.575E+00    9.657E+00    9.739E+00    9.822E+00    9.905E+00    9.989E+00    1.007E+01    1.016E+01
     1.024E+01    1.033E+01    1.041E+01    1.050E+01    1.059E+01    1.067E+01    1.076E+01    1.085E+01    1.094E+01    1.103E+01
     1.112E+01    1.121E+01    1.130E+01    1.139E+01    1.148E+01    1.157E+01    1.166E+01    1.175E+01    1.184E+01    1.194E+01
     1.203E+01    1.212E+01    1.222E+01    1.231E+01    1.241E+01    1.250E+01    1.259E+01    1.269E+01    1.278E+01    1.288E+01
     1.297E+01    1.307E+01    1.316E+01    1.326E+01    1.335E+01    1.344E+01    1.354E+01    1.363E+01    1.373E+01    1.382E+01
     1.391E+01    1.400E+01    1.410E+01    1.419E+01    1.428E+01    1.437E+01    1.446E+01    1.455E+01    1.464E+01    1.473E+01
     1.482E+01    1.490E+01    1.499E+01    1.508E+01    1.516E+01    1.525E+01    1.533E+01    1.541E+01    1.549E+01    1.558E+01
     1.566E+01    1.573E+01    1.581E+01    1.589E+01    1.597E+01    1.604E+01    1.612E+01    1.619E+01    1.626E+01    1.633E+01
     1.640E+01    1.647E+01    1.654E+01    1.661E+01    1.667E+01    1.674E+01    1.680E+01    1.686E+01    1.692E+01    1.698E+01
     1.704E+01    1.710E+01    1.716E+01    1.721E+01    1.727E+01    1.732E+01    1.737E+01    1.742E+01    1.747E+01    1.752E+01
     1.757E+01    1.762E+01    1.766E+01    1.770E+01    1.775E+01    1.779E+01    1.783E+01    1.787E+01    1.790E+01    1.794E+01
     1.797E+01    1.801E+01    1.804E+01    1.807E+01    1.810E+01    1.813E+01    1.815E+01    1.818E+01    1.820E+01    1.823E+01
     1.825E+01    1.827E+01    1.829E+01    1.831E+01    1.832E+01    1.834E+01    1.835E+01    1.836E+01    1.838E+01    1.839E+01
     1.839E+01    1.840E+01    1.841E+01    1.841E+01    1.842E+01    1.842E+01    1.842E+01    1.842E+01    1.842E+01    1.842E+01
     1.842E+01    1.841E+01    1.841E+01    1.840E+01    1.839E+01    1.838E+01    1.837E+01    1.836E+01    1.835E+01    1.834E+01
     1.832E+01    1.831E+01    1.829E+01    1.828E+01    1.826E+01    1.824E+01    1.822E+01    1.820E+01    1.817E+01    1.815E+01
     1.813E+01    1.810E+01    1.808E+01    1.805E+01    1.802E+01    1.799E+01    1.796E+01    1.793E+01    1.790E+01    1.787E+01
     1.783E+01    1.780E+01    1.776E+01    1.773E+01    1.769E+01    1.765E+01    1.761E+01    1.758E+01    1.753E+01    1.749E+01
     1.745E+01    1.741E+01    1.737E+01    1.732E+01    1.728E+01    1.723E+01    1.719E+01    1.714E+01    1.709E+01    1.704E+01
     1.700E+01    1.695E+01    1.690E+01    1.685E+01    1.679E+01    1.674E+01    1.669E+01    1.664E+01    1.658E+01    1.653E+01
     1.647E+01    1.642E+01    1.636E+01    1.631E+01    1.625E+01    1.619E+01    1.614E+01    1.608E+01    1.602E+01    1.596E+01
     1.590E+01    1.584E+01    1.578E+01    1.572E+01    1.566E+01    1.559E+01    1.553E+01    1.547E+01    1.541E+01    1.534E+01
     1.528E+01    1.522E+01    1.515E+01    1.509E+01    1.502E+01    1.496E+01    1.489E+01    1.482E+01    1.476E+01    1.469E+01
     1.462E+01    1.456E+01    1.449E+01    1.442E+01    1.435E+01    1.428E+01    1.422E+01    1.415E+01    1.408E+01    1.401E+01
     1.394E+01    1.387E+01    1.380E+01    1.373E+01    1.366E+01    1.359E+01    1.352E+01    1.345E+01    1.338E+01    1.331E+01
     1.323E+01    1.316E+01    1.309E+01    1.302E+01    1.295E+01    1.288E+01    1.280E+01    1.273E+01    1.266E+01    1.259E+01
     1.252E+01    1.244E+01    1.237E+01    1.230E+01    1.223E+01    1.215E+01    1.208E+01    1.201E+01    1.193E+01    1.186E+01
     1.179E+01    1.172E+01    1.164E+01    1.157E+01    1.150E+01    1.142E+01    1.135E+01    1.128E+01    1.120E+01    1.113E+01
     1.106E+01    1.098E+01    1.091E+01    1.084E+01    1.076E+01    1.069E+01    1.062E+01    1.054E+01    1.047E+01    1.040E+01
     1.032E+01    1.025E+01    1.018E+01    1.010E+01    1.003E+01    9.959E+00    9.886E+00    9.813E+00
 Ala      Conc. = 5.48E+03
