 LCModel (Version 6.3-1L) Copyright: S.W. Provencher.          Ref.: Magn. Reson. Med. 30:672-679 (1993).                
 Slice#3 Row#3 Col#10  K_02_press_1_raw_act
 36 lines in following concentration table = NCONC+1
    Conc.  %SD /Cr+PCr  Metabolite                                         
  355.413  41%   0.255 Ala                                                 
   59.780 374% 4.3E-02 Asp                                                 
    0.000 999%   0.000 Cr                                                  
 1.39E+03   5%   1.000 PCr                                                 
    0.000 999%   0.000 GABA                                                
    0.000 999%   0.000 Glc                                                 
  633.887  46%   0.455 Gln                                                 
  943.790  34%   0.677 Glu                                                 
  351.134   7%   0.252 GPC                                                 
    0.000 999%   0.000 PCh                                                 
  399.437  23%   0.287 GSH                                                 
  979.697  38%   0.703 Ins                                                 
  603.457  27%   0.433 Lac                                                 
 1.94E+03   4%   1.395 NAA                                                 
    0.000 999%   0.000 NAAG                                                
   71.245  45% 5.1E-02 Scyllo                                              
    0.000 999%   0.000 Tau                                                 
  215.258  60%   0.154 -CrCH2                                              
  351.134   7%   0.252 GPC+PCh                                             
 1.94E+03   4%   1.395 NAA+NAAG                                            
 1.39E+03   5%   1.000 Cr+PCr                                              
 1.58E+03  30%   1.132 Glu+Gln                                             
 8.36E+03  13%   5.997 Lip13a                                              
    0.000 999%   0.000 Lip13b                                              
 1.57E+03  26%   1.129 Lip09                                               
   18.919 654% 1.4E-02 MM09                                                
  259.290 116%   0.186 Lip20                                               
    0.000 999%   0.000 MM20                                                
    1.896 999% 1.4E-03 MM12                                                
  469.337  53%   0.337 MM14                                                
  380.043  38%   0.273 MM17                                                
 8.36E+03  13%   5.997 Lip13a+Lip13b                                       
 8.83E+03  12%   6.335 MM14+Lip13a+Lip13b+MM12                             
 1.59E+03  26%   1.142 MM09+Lip09                                          
  259.290 116%   0.186 MM20+Lip20                                          
   6 lines in following misc. output table
  FWHM = 0.054 ppm    S/N =   8                                            
  Data shift = 0.031 ppm                                                   
  Ph: -11 deg     -26.6 deg/ppm                                            
  alphaB,S = 2.5E-01,   1.6E+02                                            
   14 spline knots.   Ns = 8(1)                                            
  (13) 5 infls.   ( 7) 1 extrs.                                            
  498 points on ppm-axis = NY
      4.000000     3.992357     3.984714     3.977070     3.969427     3.961784     3.954141     3.946497     3.938854     3.931211
      3.923568     3.915925     3.908281     3.900638     3.892995     3.885352     3.877708     3.870065     3.862422     3.854779
      3.847136     3.839492     3.831849     3.824206     3.816563     3.808919     3.801276     3.793633     3.785990     3.778347
      3.770703     3.763060     3.755417     3.747774     3.740130     3.732487     3.724844     3.717201     3.709558     3.701914
      3.694271     3.686628     3.678985     3.671341     3.663698     3.656055     3.648412     3.640769     3.633125     3.625482
      3.617839     3.610196     3.602552     3.594909     3.587266     3.579623     3.571980     3.564336     3.556693     3.549050
      3.541407     3.533763     3.526120     3.518477     3.510834     3.503191     3.495547     3.487904     3.480261     3.472618
      3.464974     3.457331     3.449688     3.442045     3.434402     3.426758     3.419115     3.411472     3.403829     3.396185
      3.388542     3.380899     3.373256     3.365613     3.357969     3.350326     3.342683     3.335040     3.327396     3.319753
      3.312110     3.304467     3.296824     3.289180     3.281537     3.273894     3.266251     3.258607     3.250964     3.243321
      3.235678     3.228034     3.220391     3.212748     3.205105     3.197462     3.189818     3.182175     3.174532     3.166889
      3.159245     3.151602     3.143959     3.136316     3.128673     3.121029     3.113386     3.105743     3.098100     3.090456
      3.082813     3.075170     3.067527     3.059884     3.052240     3.044597     3.036954     3.029311     3.021667     3.014024
      3.006381     2.998738     2.991095     2.983451     2.975808     2.968165     2.960522     2.952878     2.945235     2.937592
      2.929949     2.922306     2.914662     2.907019     2.899376     2.891733     2.884089     2.876446     2.868803     2.861160
      2.853517     2.845873     2.838230     2.830587     2.822944     2.815300     2.807657     2.800014     2.792371     2.784728
      2.777084     2.769441     2.761798     2.754155     2.746511     2.738868     2.731225     2.723582     2.715939     2.708295
      2.700652     2.693009     2.685366     2.677722     2.670079     2.662436     2.654793     2.647150     2.639506     2.631863
      2.624220     2.616577     2.608933     2.601290     2.593647     2.586004     2.578361     2.570717     2.563074     2.555431
      2.547788     2.540144     2.532501     2.524858     2.517215     2.509572     2.501928     2.494285     2.486642     2.478999
      2.471355     2.463712     2.456069     2.448426     2.440783     2.433139     2.425496     2.417853     2.410210     2.402566
      2.394923     2.387280     2.379637     2.371994     2.364350     2.356707     2.349064     2.341421     2.333777     2.326134
      2.318491     2.310848     2.303205     2.295561     2.287918     2.280275     2.272632     2.264988     2.257345     2.249702
      2.242059     2.234416     2.226772     2.219129     2.211486     2.203843     2.196199     2.188556     2.180913     2.173270
      2.165627     2.157983     2.150340     2.142697     2.135054     2.127410     2.119767     2.112124     2.104481     2.096838
      2.089194     2.081551     2.073908     2.066265     2.058621     2.050978     2.043335     2.035692     2.028049     2.020405
      2.012762     2.005119     1.997476     1.989833     1.982190     1.974546     1.966903     1.959260     1.951617     1.943974
      1.936331     1.928688     1.921045     1.913402     1.905759     1.898115     1.890472     1.882829     1.875186     1.867543
      1.859900     1.852257     1.844614     1.836971     1.829327     1.821684     1.814041     1.806398     1.798755     1.791112
      1.783469     1.775826     1.768183     1.760540     1.752896     1.745253     1.737610     1.729967     1.722324     1.714681
      1.707038     1.699395     1.691752     1.684108     1.676465     1.668822     1.661179     1.653536     1.645893     1.638250
      1.630607     1.622964     1.615321     1.607677     1.600034     1.592391     1.584748     1.577105     1.569462     1.561819
      1.554176     1.546533     1.538890     1.531246     1.523603     1.515960     1.508317     1.500674     1.493031     1.485388
      1.477745     1.470102     1.462458     1.454815     1.447172     1.439529     1.431886     1.424243     1.416600     1.408957
      1.401314     1.393671     1.386027     1.378384     1.370741     1.363098     1.355455     1.347812     1.340169     1.332526
      1.324883     1.317240     1.309596     1.301953     1.294310     1.286667     1.279024     1.271381     1.263738     1.256095
      1.248452     1.240808     1.233165     1.225522     1.217879     1.210236     1.202593     1.194950     1.187307     1.179664
      1.172021     1.164377     1.156734     1.149091     1.141448     1.133805     1.126162     1.118519     1.110876     1.103233
      1.095590     1.087946     1.080303     1.072660     1.065017     1.057374     1.049731     1.042088     1.034445     1.026802
      1.019158     1.011515     1.003872     0.996229     0.988586     0.980943     0.973300     0.965657     0.958014     0.950371
      0.942727     0.935084     0.927441     0.919798     0.912155     0.904512     0.896869     0.889226     0.881583     0.873940
      0.866296     0.858653     0.851010     0.843367     0.835724     0.828081     0.820438     0.812795     0.805152     0.797508
      0.789865     0.782222     0.774579     0.766936     0.759293     0.751650     0.744007     0.736364     0.728721     0.721077
      0.713434     0.705791     0.698148     0.690505     0.682862     0.675219     0.667576     0.659933     0.652290     0.644646
      0.637003     0.629360     0.621717     0.614074     0.606431     0.598788     0.591145     0.583502     0.575858     0.568215
      0.560572     0.552929     0.545286     0.537643     0.530000     0.522357     0.514714     0.507071     0.499427     0.491784
      0.484141     0.476498     0.468855     0.461212     0.453569     0.445925     0.438282     0.430639     0.422996     0.415353
      0.407710     0.400067     0.392424     0.384780     0.377137     0.369494     0.361851     0.354208     0.346565     0.338922
      0.331278     0.323635     0.315992     0.308349     0.300706     0.293063     0.285420     0.277777     0.270133     0.262490
      0.254847     0.247204     0.239561     0.231918     0.224275     0.216631     0.208988     0.201345
 NY phased data points follow
   7.92015E+01  7.75089E+01  7.59039E+01  7.26581E+01  7.78940E+01  8.05229E+01  8.45179E+01  7.94677E+01  8.34458E+01  8.65455E+01
   9.05539E+01  9.25043E+01  8.54347E+01  8.12905E+01  7.51619E+01  7.33495E+01  7.07537E+01  6.58032E+01  6.02196E+01  5.37547E+01
   6.03153E+01  6.45852E+01  6.20583E+01  6.08309E+01  5.46404E+01  6.11627E+01  6.33376E+01  5.99498E+01  5.81059E+01  5.46696E+01
   6.05523E+01  6.78977E+01  5.94107E+01  5.55730E+01  5.38486E+01  5.56148E+01  5.15836E+01  5.61461E+01  5.38135E+01  5.69529E+01
   5.43614E+01  5.42598E+01  5.66523E+01  5.11952E+01  5.21790E+01  5.19031E+01  5.60273E+01  5.43881E+01  5.38304E+01  5.34987E+01
   5.18493E+01  5.32885E+01  4.75101E+01  4.64880E+01  4.81313E+01  4.47006E+01  4.72635E+01  4.32309E+01  4.93625E+01  4.44363E+01
   3.98821E+01  4.04155E+01  3.96872E+01  4.12921E+01  3.77467E+01  3.51104E+01  3.42365E+01  3.61512E+01  3.64113E+01  3.96651E+01
   3.37960E+01  3.75536E+01  3.42829E+01  3.92315E+01  3.76804E+01  4.11867E+01  3.91294E+01  4.04957E+01  3.86315E+01  3.78712E+01
   3.38363E+01  3.62265E+01  3.73013E+01  3.91833E+01  4.07345E+01  3.86818E+01  3.78583E+01  3.89493E+01  4.08212E+01  4.42830E+01
   4.16619E+01  3.91920E+01  4.03585E+01  4.38165E+01  4.27074E+01  4.56297E+01  4.86774E+01  4.99133E+01  4.74361E+01  5.28384E+01
   5.26868E+01  5.57353E+01  6.35872E+01  6.72518E+01  6.87286E+01  6.81576E+01  6.01701E+01  5.74229E+01  5.22167E+01  4.96465E+01
   5.01457E+01  4.69250E+01  4.39072E+01  4.37996E+01  4.62506E+01  4.82643E+01  4.77347E+01  4.49652E+01  4.65673E+01  4.91700E+01
   5.13718E+01  5.59271E+01  5.97131E+01  5.68310E+01  6.23997E+01  7.01670E+01  8.01026E+01  8.65736E+01  8.77804E+01  8.64702E+01
   8.14251E+01  7.17507E+01  6.44712E+01  6.02330E+01  5.92730E+01  5.57545E+01  5.29182E+01  5.18433E+01  5.28646E+01  5.19809E+01
   5.31970E+01  5.43227E+01  5.26026E+01  5.10210E+01  5.34422E+01  5.33964E+01  5.53035E+01  5.27143E+01  5.15300E+01  5.53432E+01
   5.53245E+01  5.32451E+01  5.43038E+01  5.12030E+01  5.58332E+01  5.52311E+01  5.35697E+01  5.95147E+01  5.47044E+01  5.43661E+01
   5.25205E+01  5.88036E+01  5.63671E+01  5.49470E+01  5.23308E+01  5.63451E+01  5.68071E+01  5.66156E+01  5.74071E+01  5.31800E+01
   5.52241E+01  5.90761E+01  5.84181E+01  5.71294E+01  5.86397E+01  5.65405E+01  5.52658E+01  6.00571E+01  5.71906E+01  6.32729E+01
   6.45843E+01  6.61189E+01  6.80960E+01  7.02603E+01  7.02931E+01  6.75287E+01  7.24047E+01  6.71130E+01  7.33142E+01  7.76165E+01
   8.02399E+01  8.44327E+01  8.55433E+01  8.48240E+01  9.08320E+01  9.25133E+01  8.66085E+01  9.54301E+01  9.30667E+01  9.29066E+01
   9.31946E+01  9.32128E+01  9.59161E+01  9.73378E+01  9.86712E+01  1.01094E+02  1.01943E+02  1.02471E+02  1.02107E+02  1.00602E+02
   1.02024E+02  1.04975E+02  1.04353E+02  1.03707E+02  1.07358E+02  1.08891E+02  1.13823E+02  1.22187E+02  1.20325E+02  1.18472E+02
   1.13040E+02  1.11914E+02  1.09685E+02  1.11742E+02  1.12398E+02  1.15332E+02  1.13442E+02  1.16179E+02  1.16979E+02  1.18197E+02
   1.13949E+02  1.17913E+02  1.17811E+02  1.12927E+02  1.18437E+02  1.18281E+02  1.18469E+02  1.16346E+02  1.17859E+02  1.16188E+02
   1.12652E+02  1.14503E+02  1.12792E+02  1.14869E+02  1.12560E+02  1.12610E+02  1.17322E+02  1.18749E+02  1.20305E+02  1.19913E+02
   1.19740E+02  1.19718E+02  1.24691E+02  1.30659E+02  1.31851E+02  1.36120E+02  1.41249E+02  1.41160E+02  1.48376E+02  1.60242E+02
   1.73000E+02  1.80242E+02  1.81196E+02  1.79369E+02  1.65161E+02  1.58444E+02  1.52374E+02  1.44147E+02  1.40618E+02  1.38159E+02
   1.30183E+02  1.29593E+02  1.29814E+02  1.33078E+02  1.31221E+02  1.28244E+02  1.32182E+02  1.36533E+02  1.35851E+02  1.30592E+02
   1.34409E+02  1.33935E+02  1.39296E+02  1.37737E+02  1.38641E+02  1.41046E+02  1.42755E+02  1.40483E+02  1.41882E+02  1.49154E+02
   1.46674E+02  1.48287E+02  1.47342E+02  1.52196E+02  1.55339E+02  1.50809E+02  1.57972E+02  1.59085E+02  1.56614E+02  1.59033E+02
   1.66276E+02  1.63385E+02  1.66593E+02  1.69875E+02  1.67325E+02  1.68914E+02  1.71047E+02  1.71422E+02  1.69855E+02  1.71183E+02
   1.74126E+02  1.71684E+02  1.72514E+02  1.72386E+02  1.76310E+02  1.76316E+02  1.74573E+02  1.73043E+02  1.76323E+02  1.77341E+02
   1.81180E+02  1.76097E+02  1.81206E+02  1.80789E+02  1.77518E+02  1.81347E+02  1.81737E+02  1.82220E+02  1.83469E+02  1.82174E+02
   1.82272E+02  1.83300E+02  1.83357E+02  1.84223E+02  1.81025E+02  1.87493E+02  1.88027E+02  1.87206E+02  1.88717E+02  1.91361E+02
   1.91095E+02  1.92232E+02  1.93899E+02  1.90281E+02  1.95356E+02  1.89925E+02  1.88007E+02  1.90964E+02  1.82105E+02  1.76926E+02
   1.72287E+02  1.68456E+02  1.63093E+02  1.64077E+02  1.59475E+02  1.55287E+02  1.52978E+02  1.51674E+02  1.50625E+02  1.48501E+02
   1.45223E+02  1.40535E+02  1.37264E+02  1.33114E+02  1.33222E+02  1.31741E+02  1.30301E+02  1.25411E+02  1.21354E+02  1.19627E+02
   1.20868E+02  1.19774E+02  1.17355E+02  1.11925E+02  1.07196E+02  1.08253E+02  1.04014E+02  9.97515E+01  1.04871E+02  9.97639E+01
   9.97395E+01  9.59057E+01  9.74493E+01  9.45886E+01  9.25190E+01  8.89053E+01  8.99794E+01  8.68416E+01  8.58061E+01  8.60003E+01
   8.34179E+01  8.56779E+01  8.70934E+01  7.94463E+01  7.95611E+01  8.00920E+01  7.57348E+01  7.83655E+01  7.96267E+01  7.97864E+01
   7.74441E+01  7.20096E+01  7.87429E+01  7.55730E+01  7.24890E+01  7.35519E+01  7.35452E+01  7.27168E+01  7.46986E+01  7.24788E+01
   7.17148E+01  7.12845E+01  6.92422E+01  7.03920E+01  6.57908E+01  6.67687E+01  6.54196E+01  7.05190E+01  6.39522E+01  6.32374E+01
   6.60759E+01  5.84984E+01  6.37486E+01  6.01495E+01  6.27120E+01  5.94332E+01  6.33266E+01  5.96041E+01  5.93379E+01  5.69731E+01
   5.90858E+01  5.64553E+01  5.90933E+01  5.82987E+01  5.62342E+01  5.06160E+01  5.47626E+01  5.34311E+01  5.14564E+01  5.60110E+01
   4.84875E+01  4.81632E+01  5.16755E+01  5.15794E+01  4.84817E+01  4.34998E+01  4.92632E+01  4.51672E+01  4.91632E+01  4.69188E+01
   4.61416E+01  4.26516E+01  4.68474E+01  5.15066E+01  4.53959E+01  4.66212E+01  4.76948E+01  4.05371E+01  4.33435E+01  3.99142E+01
   3.94634E+01  4.46570E+01  4.41468E+01  4.34293E+01  4.55568E+01  4.16770E+01  3.96995E+01  4.21171E+01  4.10278E+01  4.64118E+01
   4.34996E+01  4.04783E+01  3.85915E+01  3.98802E+01  4.13288E+01  4.20795E+01  4.43281E+01  3.94111E+01  4.23200E+01  3.98168E+01
   3.28763E+01  4.10628E+01  4.00320E+01  3.66335E+01  3.53124E+01  3.50352E+01  3.52812E+01  3.35474E+01  3.60517E+01  3.68198E+01
   3.40722E+01  3.74717E+01  3.30196E+01  3.54855E+01  3.55591E+01  3.30522E+01  3.31231E+01  3.54397E+01
 NY points of the fit to the data follow
   7.49648E+01  7.50130E+01  7.56543E+01  7.63266E+01  7.69533E+01  7.79461E+01  7.98739E+01  8.28695E+01  8.63408E+01  8.91168E+01
   9.00313E+01  8.85652E+01  8.51350E+01  8.08529E+01  7.67591E+01  7.32309E+01  7.00358E+01  6.68740E+01  6.40705E+01  6.24196E+01
   6.14011E+01  6.06976E+01  6.04348E+01  6.02957E+01  6.00437E+01  5.96384E+01  5.92724E+01  5.91930E+01  5.95178E+01  6.02348E+01
   6.10905E+01  6.16545E+01  6.15730E+01  6.07426E+01  5.93830E+01  5.78241E+01  5.61737E+01  5.44502E+01  5.27209E+01  5.13763E+01
   5.07264E+01  5.04095E+01  5.02178E+01  5.01369E+01  5.03127E+01  5.07774E+01  5.13835E+01  5.19224E+01  5.20965E+01  5.16131E+01
   5.04273E+01  4.88343E+01  4.72586E+01  4.59573E+01  4.48962E+01  4.39756E+01  4.32368E+01  4.28208E+01  4.27598E+01  4.29074E+01
   4.30555E+01  4.30355E+01  4.27456E+01  4.22059E+01  4.15650E+01  4.09697E+01  4.05220E+01  4.02295E+01  4.00621E+01  4.00325E+01
   4.01148E+01  4.02509E+01  4.03710E+01  4.03950E+01  4.02945E+01  4.00830E+01  3.98168E+01  3.95789E+01  3.94511E+01  3.94639E+01
   3.94565E+01  3.93935E+01  3.93700E+01  3.94518E+01  3.96813E+01  4.00252E+01  4.03578E+01  4.05063E+01  4.03896E+01  4.00443E+01
   3.96188E+01  3.93174E+01  3.92723E+01  3.95617E+01  4.06208E+01  4.26863E+01  4.48213E+01  4.66314E+01  4.82925E+01  5.04922E+01
   5.39637E+01  5.87410E+01  6.38197E+01  6.75619E+01  6.86369E+01  6.67317E+01  6.27481E+01  5.81844E+01  5.41248E+01  5.07811E+01
   4.77586E+01  4.48549E+01  4.28992E+01  4.24849E+01  4.26212E+01  4.29066E+01  4.33043E+01  4.38999E+01  4.52860E+01  4.82071E+01
   5.14638E+01  5.42570E+01  5.68627E+01  6.01499E+01  6.50685E+01  7.18068E+01  7.91642E+01  8.48990E+01  8.70685E+01  8.50554E+01
   7.98802E+01  7.36367E+01  6.79679E+01  6.32523E+01  5.88878E+01  5.43770E+01  5.07055E+01  4.92873E+01  4.90906E+01  4.94250E+01
   5.00590E+01  5.07778E+01  5.14291E+01  5.19912E+01  5.24488E+01  5.27694E+01  5.29982E+01  5.31695E+01  5.32971E+01  5.34232E+01
   5.35643E+01  5.37616E+01  5.40145E+01  5.42550E+01  5.44775E+01  5.47518E+01  5.51109E+01  5.55547E+01  5.59957E+01  5.63088E+01
   5.64868E+01  5.66334E+01  5.68974E+01  5.73778E+01  5.80495E+01  5.87711E+01  5.93774E+01  5.97768E+01  5.99924E+01  6.01499E+01
   6.04453E+01  6.08545E+01  6.12607E+01  6.15885E+01  6.18324E+01  6.21715E+01  6.27043E+01  6.34185E+01  6.42983E+01  6.52317E+01
   6.61344E+01  6.70621E+01  6.80727E+01  6.92097E+01  7.04595E+01  7.17322E+01  7.29603E+01  7.42276E+01  7.57646E+01  7.76335E+01
   7.96483E+01  8.14999E+01  8.29714E+01  8.41016E+01  8.49965E+01  8.57878E+01  8.66695E+01  8.76792E+01  8.88210E+01  9.01814E+01
   9.17191E+01  9.33408E+01  9.49219E+01  9.64452E+01  9.77933E+01  9.87408E+01  9.91550E+01  9.91388E+01  9.89550E+01  9.88934E+01
   9.91340E+01  9.98356E+01  1.01018E+02  1.02614E+02  1.04539E+02  1.06578E+02  1.08509E+02  1.10102E+02  1.11057E+02  1.11209E+02
   1.10691E+02  1.10021E+02  1.09590E+02  1.09541E+02  1.09997E+02  1.11077E+02  1.12694E+02  1.14423E+02  1.15842E+02  1.16927E+02
   1.17735E+02  1.18290E+02  1.18600E+02  1.18714E+02  1.18797E+02  1.18994E+02  1.19318E+02  1.19743E+02  1.20161E+02  1.20391E+02
   1.20298E+02  1.19851E+02  1.19236E+02  1.18763E+02  1.18616E+02  1.18802E+02  1.19270E+02  1.19978E+02  1.20747E+02  1.21453E+02
   1.22150E+02  1.23073E+02  1.25181E+02  1.29473E+02  1.34024E+02  1.37766E+02  1.41155E+02  1.45447E+02  1.52026E+02  1.61145E+02
   1.71062E+02  1.78595E+02  1.80971E+02  1.77380E+02  1.69392E+02  1.60044E+02  1.51736E+02  1.45058E+02  1.39175E+02  1.33446E+02
   1.29326E+02  1.28482E+02  1.28898E+02  1.29603E+02  1.30471E+02  1.31441E+02  1.32437E+02  1.33445E+02  1.34456E+02  1.35471E+02
   1.36499E+02  1.37547E+02  1.38610E+02  1.39699E+02  1.40826E+02  1.41990E+02  1.43183E+02  1.44396E+02  1.45628E+02  1.46879E+02
   1.48145E+02  1.49421E+02  1.50708E+02  1.52005E+02  1.53310E+02  1.54619E+02  1.55927E+02  1.57232E+02  1.58526E+02  1.59802E+02
   1.61055E+02  1.62278E+02  1.63464E+02  1.64607E+02  1.65702E+02  1.66744E+02  1.67727E+02  1.68650E+02  1.69514E+02  1.70318E+02
   1.71065E+02  1.71760E+02  1.72408E+02  1.73016E+02  1.73593E+02  1.74149E+02  1.74695E+02  1.75249E+02  1.75842E+02  1.76533E+02
   1.77280E+02  1.77903E+02  1.78430E+02  1.78971E+02  1.79608E+02  1.80317E+02  1.80938E+02  1.81306E+02  1.81436E+02  1.81303E+02
   1.80999E+02  1.80773E+02  1.80898E+02  1.81545E+02  1.82755E+02  1.84436E+02  1.86413E+02  1.88499E+02  1.90380E+02  1.91754E+02
   1.92581E+02  1.92723E+02  1.92334E+02  1.91589E+02  1.90527E+02  1.89165E+02  1.87467E+02  1.85211E+02  1.82232E+02  1.78370E+02
   1.73840E+02  1.69181E+02  1.64985E+02  1.61632E+02  1.59181E+02  1.57400E+02  1.55948E+02  1.54553E+02  1.52788E+02  1.50200E+02
   1.47033E+02  1.43666E+02  1.40293E+02  1.36874E+02  1.33322E+02  1.29914E+02  1.26917E+02  1.24194E+02  1.21656E+02  1.19267E+02
   1.17005E+02  1.14855E+02  1.12805E+02  1.10844E+02  1.08964E+02  1.07158E+02  1.05419E+02  1.03741E+02  1.02120E+02  1.00552E+02
   9.90328E+01  9.75604E+01  9.61325E+01  9.47476E+01  9.34044E+01  9.21022E+01  9.08407E+01  8.96195E+01  8.84387E+01  8.72985E+01
   8.61994E+01  8.51417E+01  8.41257E+01  8.31517E+01  8.22196E+01  8.13295E+01  8.04807E+01  7.96724E+01  7.89032E+01  7.81711E+01
   7.74738E+01  7.68082E+01  7.61707E+01  7.55572E+01  7.49630E+01  7.43832E+01  7.38125E+01  7.32456E+01  7.26768E+01  7.21001E+01
   7.15098E+01  7.09009E+01  7.02694E+01  6.96123E+01  6.89275E+01  6.82144E+01  6.74734E+01  6.67060E+01  6.59149E+01  6.51039E+01
   6.42771E+01  6.34397E+01  6.25967E+01  6.17537E+01  6.09160E+01  6.00888E+01  5.92767E+01  5.84839E+01  5.77139E+01  5.69696E+01
   5.62532E+01  5.55663E+01  5.49097E+01  5.42836E+01  5.36877E+01  5.31215E+01  5.25839E+01  5.20735E+01  5.15888E+01  5.11280E+01
   5.06894E+01  5.02712E+01  4.98715E+01  4.94886E+01  4.91205E+01  4.87657E+01  4.84224E+01  4.80892E+01  4.77645E+01  4.74470E+01
   4.71352E+01  4.68280E+01  4.65241E+01  4.62226E+01  4.59230E+01  4.56251E+01  4.53285E+01  4.50331E+01  4.47386E+01  4.44450E+01
   4.41519E+01  4.38594E+01  4.35673E+01  4.32755E+01  4.29840E+01  4.26928E+01  4.24018E+01  4.21109E+01  4.18202E+01  4.15296E+01
   4.12393E+01  4.09491E+01  4.06591E+01  4.03693E+01  4.00797E+01  3.97905E+01  3.95016E+01  3.92130E+01  3.89248E+01  3.86371E+01
   3.83498E+01  3.80632E+01  3.77772E+01  3.74919E+01  3.72072E+01  3.69234E+01  3.66405E+01  3.63585E+01  3.60776E+01  3.57977E+01
   3.55189E+01  3.52414E+01  3.49653E+01  3.46906E+01  3.44173E+01  3.41456E+01  3.38755E+01  3.36073E+01
 NY background values follow
     7.067E+01    6.997E+01    6.928E+01    6.859E+01    6.790E+01    6.722E+01    6.653E+01    6.585E+01    6.518E+01    6.450E+01
     6.383E+01    6.317E+01    6.250E+01    6.185E+01    6.119E+01    6.054E+01    5.990E+01    5.926E+01    5.863E+01    5.800E+01
     5.737E+01    5.676E+01    5.615E+01    5.554E+01    5.494E+01    5.435E+01    5.377E+01    5.319E+01    5.262E+01    5.206E+01
     5.151E+01    5.096E+01    5.042E+01    4.989E+01    4.937E+01    4.886E+01    4.836E+01    4.786E+01    4.738E+01    4.690E+01
     4.644E+01    4.598E+01    4.554E+01    4.511E+01    4.468E+01    4.427E+01    4.387E+01    4.348E+01    4.310E+01    4.273E+01
     4.238E+01    4.203E+01    4.170E+01    4.138E+01    4.106E+01    4.076E+01    4.047E+01    4.019E+01    3.993E+01    3.967E+01
     3.942E+01    3.919E+01    3.897E+01    3.875E+01    3.855E+01    3.836E+01    3.818E+01    3.801E+01    3.786E+01    3.771E+01
     3.757E+01    3.745E+01    3.733E+01    3.723E+01    3.714E+01    3.705E+01    3.698E+01    3.692E+01    3.687E+01    3.683E+01
     3.681E+01    3.679E+01    3.678E+01    3.678E+01    3.680E+01    3.682E+01    3.686E+01    3.691E+01    3.696E+01    3.703E+01
     3.711E+01    3.720E+01    3.730E+01    3.741E+01    3.753E+01    3.766E+01    3.779E+01    3.794E+01    3.810E+01    3.826E+01
     3.844E+01    3.862E+01    3.881E+01    3.900E+01    3.921E+01    3.942E+01    3.964E+01    3.986E+01    4.009E+01    4.033E+01
     4.057E+01    4.082E+01    4.108E+01    4.134E+01    4.160E+01    4.187E+01    4.214E+01    4.242E+01    4.270E+01    4.299E+01
     4.327E+01    4.357E+01    4.386E+01    4.416E+01    4.446E+01    4.476E+01    4.506E+01    4.536E+01    4.567E+01    4.598E+01
     4.628E+01    4.659E+01    4.690E+01    4.721E+01    4.752E+01    4.782E+01    4.813E+01    4.844E+01    4.874E+01    4.905E+01
     4.936E+01    4.967E+01    4.998E+01    5.030E+01    5.062E+01    5.094E+01    5.127E+01    5.160E+01    5.194E+01    5.228E+01
     5.263E+01    5.299E+01    5.336E+01    5.374E+01    5.412E+01    5.452E+01    5.492E+01    5.534E+01    5.576E+01    5.620E+01
     5.666E+01    5.712E+01    5.760E+01    5.810E+01    5.860E+01    5.913E+01    5.967E+01    6.023E+01    6.080E+01    6.139E+01
     6.200E+01    6.263E+01    6.328E+01    6.395E+01    6.464E+01    6.536E+01    6.609E+01    6.685E+01    6.762E+01    6.843E+01
     6.925E+01    7.011E+01    7.098E+01    7.188E+01    7.280E+01    7.375E+01    7.471E+01    7.569E+01    7.668E+01    7.769E+01
     7.871E+01    7.975E+01    8.080E+01    8.185E+01    8.291E+01    8.398E+01    8.506E+01    8.614E+01    8.722E+01    8.830E+01
     8.938E+01    9.045E+01    9.153E+01    9.260E+01    9.366E+01    9.472E+01    9.576E+01    9.680E+01    9.782E+01    9.883E+01
     9.982E+01    1.008E+02    1.018E+02    1.027E+02    1.036E+02    1.045E+02    1.054E+02    1.062E+02    1.071E+02    1.079E+02
     1.086E+02    1.094E+02    1.101E+02    1.108E+02    1.114E+02    1.120E+02    1.126E+02    1.131E+02    1.136E+02    1.140E+02
     1.144E+02    1.148E+02    1.152E+02    1.155E+02    1.158E+02    1.161E+02    1.164E+02    1.166E+02    1.168E+02    1.170E+02
     1.172E+02    1.174E+02    1.176E+02    1.177E+02    1.179E+02    1.181E+02    1.182E+02    1.183E+02    1.185E+02    1.186E+02
     1.188E+02    1.190E+02    1.191E+02    1.193E+02    1.195E+02    1.197E+02    1.199E+02    1.201E+02    1.204E+02    1.207E+02
     1.210E+02    1.213E+02    1.217E+02    1.220E+02    1.225E+02    1.229E+02    1.234E+02    1.239E+02    1.244E+02    1.250E+02
     1.257E+02    1.264E+02    1.271E+02    1.278E+02    1.287E+02    1.295E+02    1.304E+02    1.313E+02    1.322E+02    1.332E+02
     1.342E+02    1.352E+02    1.363E+02    1.373E+02    1.384E+02    1.395E+02    1.406E+02    1.417E+02    1.428E+02    1.439E+02
     1.450E+02    1.461E+02    1.472E+02    1.483E+02    1.494E+02    1.504E+02    1.515E+02    1.525E+02    1.535E+02    1.545E+02
     1.554E+02    1.564E+02    1.572E+02    1.581E+02    1.589E+02    1.597E+02    1.604E+02    1.611E+02    1.618E+02    1.623E+02
     1.629E+02    1.634E+02    1.638E+02    1.641E+02    1.644E+02    1.647E+02    1.648E+02    1.649E+02    1.649E+02    1.649E+02
     1.648E+02    1.646E+02    1.643E+02    1.640E+02    1.637E+02    1.632E+02    1.627E+02    1.622E+02    1.616E+02    1.609E+02
     1.602E+02    1.595E+02    1.587E+02    1.578E+02    1.569E+02    1.560E+02    1.550E+02    1.540E+02    1.530E+02    1.519E+02
     1.507E+02    1.496E+02    1.484E+02    1.472E+02    1.459E+02    1.446E+02    1.433E+02    1.420E+02    1.407E+02    1.393E+02
     1.379E+02    1.365E+02    1.351E+02    1.337E+02    1.322E+02    1.308E+02    1.293E+02    1.278E+02    1.264E+02    1.249E+02
     1.234E+02    1.219E+02    1.205E+02    1.190E+02    1.175E+02    1.161E+02    1.146E+02    1.131E+02    1.117E+02    1.102E+02
     1.088E+02    1.073E+02    1.059E+02    1.045E+02    1.031E+02    1.017E+02    1.003E+02    9.890E+01    9.753E+01    9.617E+01
     9.482E+01    9.349E+01    9.216E+01    9.085E+01    8.956E+01    8.828E+01    8.701E+01    8.576E+01    8.452E+01    8.331E+01
     8.211E+01    8.093E+01    7.976E+01    7.862E+01    7.750E+01    7.639E+01    7.531E+01    7.425E+01    7.321E+01    7.219E+01
     7.119E+01    7.022E+01    6.928E+01    6.835E+01    6.746E+01    6.659E+01    6.574E+01    6.492E+01    6.413E+01    6.337E+01
     6.263E+01    6.192E+01    6.123E+01    6.056E+01    5.992E+01    5.930E+01    5.870E+01    5.813E+01    5.757E+01    5.703E+01
     5.652E+01    5.602E+01    5.554E+01    5.507E+01    5.463E+01    5.420E+01    5.378E+01    5.338E+01    5.299E+01    5.262E+01
     5.226E+01    5.191E+01    5.157E+01    5.124E+01    5.092E+01    5.062E+01    5.032E+01    5.002E+01    4.974E+01    4.946E+01
     4.919E+01    4.893E+01    4.867E+01    4.841E+01    4.816E+01    4.791E+01    4.766E+01    4.741E+01    4.717E+01    4.692E+01
     4.668E+01    4.643E+01    4.618E+01    4.593E+01    4.568E+01    4.542E+01    4.517E+01    4.491E+01    4.465E+01    4.438E+01
     4.412E+01    4.385E+01    4.359E+01    4.332E+01    4.305E+01    4.278E+01    4.251E+01    4.223E+01    4.196E+01    4.168E+01
     4.141E+01    4.113E+01    4.085E+01    4.057E+01    4.030E+01    4.002E+01    3.974E+01    3.946E+01    3.918E+01    3.890E+01
     3.862E+01    3.834E+01    3.806E+01    3.778E+01    3.750E+01    3.722E+01    3.694E+01    3.667E+01    3.639E+01    3.611E+01
     3.584E+01    3.556E+01    3.529E+01    3.501E+01    3.474E+01    3.447E+01    3.420E+01    3.394E+01
 Ala      Conc. = 3.55E+02
