 LCModel (Version 6.3-1L) Copyright: S.W. Provencher.          Ref.: Magn. Reson. Med. 30:672-679 (1993).                
 Slice#2 Row#14 Col#12  K_02_press_1_raw_act
 36 lines in following concentration table = NCONC+1
    Conc.  %SD /Cr+PCr  Metabolite                                         
  781.297  27%  40.551 Ala                                                 
    2.642  69%   0.137 Asp                                                 
    0.000 999%   0.000 Cr                                                  
   19.267 117%   1.000 PCr                                                 
    1.585  69% 8.2E-02 GABA                                                
    1.585  69% 8.2E-02 Glc                                                 
  743.971  34%  38.614 Gln                                                 
    0.000 999%   0.000 Glu                                                 
   11.190  77%   0.581 GPC                                                 
    0.000 999%   0.000 PCh                                                 
   10.625 385%   0.551 GSH                                                 
    0.000 999%   0.000 Ins                                                 
  588.299  35%  30.534 Lac                                                 
    0.000 999%   0.000 NAA                                                 
    0.000 999%   0.000 NAAG                                                
    0.528  69% 2.7E-02 Scyllo                                              
    2.642  69%   0.137 Tau                                                 
    1.914 126% 9.9E-02 -CrCH2                                              
   11.190  77%   0.581 GPC+PCh                                             
    0.000 999%   0.000 NAA+NAAG                                            
   19.267 117%   1.000 Cr+PCr                                              
  743.971  34%  38.614 Glu+Gln                                             
    0.000 999%   0.000 Lip13a                                              
    0.000 999%   0.000 Lip13b                                              
    0.000 999%   0.000 Lip09                                               
  141.834  24%   7.361 MM09                                                
    0.000 999%   0.000 Lip20                                               
    0.000 999%   0.000 MM20                                                
   50.555  43%   2.624 MM12                                                
  309.694  22%  16.074 MM14                                                
  339.543  12%  17.623+MM17                                                
    0.000 999%   0.000 Lip13a+Lip13b                                       
  360.249  20%  18.698 MM14+Lip13a+Lip13b+MM12                             
  141.834  24%   7.361 MM09+Lip09                                          
    0.000 999%   0.000 MM20+Lip20                                          
   6 lines in following misc. output table
  FWHM = 0.153 ppm    S/N =   2                                            
  Data shift = 0.153 ppm                                                   
  Ph: -99 deg      14.8 deg/ppm                                            
  alphaB,S = 1.2E+00,   3.5E+02                                            
    7 spline knots.   Ns = 9(2)                                            
  (13) 2 infls.   ( 9) 1 extrs.                                            
  498 points on ppm-axis = NY
      4.000000     3.992357     3.984714     3.977070     3.969427     3.961784     3.954141     3.946497     3.938854     3.931211
      3.923568     3.915925     3.908281     3.900638     3.892995     3.885352     3.877708     3.870065     3.862422     3.854779
      3.847136     3.839492     3.831849     3.824206     3.816563     3.808919     3.801276     3.793633     3.785990     3.778347
      3.770703     3.763060     3.755417     3.747774     3.740130     3.732487     3.724844     3.717201     3.709558     3.701914
      3.694271     3.686628     3.678985     3.671341     3.663698     3.656055     3.648412     3.640769     3.633125     3.625482
      3.617839     3.610196     3.602552     3.594909     3.587266     3.579623     3.571980     3.564336     3.556693     3.549050
      3.541407     3.533763     3.526120     3.518477     3.510834     3.503191     3.495547     3.487904     3.480261     3.472618
      3.464974     3.457331     3.449688     3.442045     3.434402     3.426758     3.419115     3.411472     3.403829     3.396185
      3.388542     3.380899     3.373256     3.365613     3.357969     3.350326     3.342683     3.335040     3.327396     3.319753
      3.312110     3.304467     3.296824     3.289180     3.281537     3.273894     3.266251     3.258607     3.250964     3.243321
      3.235678     3.228034     3.220391     3.212748     3.205105     3.197462     3.189818     3.182175     3.174532     3.166889
      3.159245     3.151602     3.143959     3.136316     3.128673     3.121029     3.113386     3.105743     3.098100     3.090456
      3.082813     3.075170     3.067527     3.059884     3.052240     3.044597     3.036954     3.029311     3.021667     3.014024
      3.006381     2.998738     2.991095     2.983451     2.975808     2.968165     2.960522     2.952878     2.945235     2.937592
      2.929949     2.922306     2.914662     2.907019     2.899376     2.891733     2.884089     2.876446     2.868803     2.861160
      2.853517     2.845873     2.838230     2.830587     2.822944     2.815300     2.807657     2.800014     2.792371     2.784728
      2.777084     2.769441     2.761798     2.754155     2.746511     2.738868     2.731225     2.723582     2.715939     2.708295
      2.700652     2.693009     2.685366     2.677722     2.670079     2.662436     2.654793     2.647150     2.639506     2.631863
      2.624220     2.616577     2.608933     2.601290     2.593647     2.586004     2.578361     2.570717     2.563074     2.555431
      2.547788     2.540144     2.532501     2.524858     2.517215     2.509572     2.501928     2.494285     2.486642     2.478999
      2.471355     2.463712     2.456069     2.448426     2.440783     2.433139     2.425496     2.417853     2.410210     2.402566
      2.394923     2.387280     2.379637     2.371994     2.364350     2.356707     2.349064     2.341421     2.333777     2.326134
      2.318491     2.310848     2.303205     2.295561     2.287918     2.280275     2.272632     2.264988     2.257345     2.249702
      2.242059     2.234416     2.226772     2.219129     2.211486     2.203843     2.196199     2.188556     2.180913     2.173270
      2.165627     2.157983     2.150340     2.142697     2.135054     2.127410     2.119767     2.112124     2.104481     2.096838
      2.089194     2.081551     2.073908     2.066265     2.058621     2.050978     2.043335     2.035692     2.028049     2.020405
      2.012762     2.005119     1.997476     1.989833     1.982190     1.974546     1.966903     1.959260     1.951617     1.943974
      1.936331     1.928688     1.921045     1.913402     1.905759     1.898115     1.890472     1.882829     1.875186     1.867543
      1.859900     1.852257     1.844614     1.836971     1.829327     1.821684     1.814041     1.806398     1.798755     1.791112
      1.783469     1.775826     1.768183     1.760540     1.752896     1.745253     1.737610     1.729967     1.722324     1.714681
      1.707038     1.699395     1.691752     1.684108     1.676465     1.668822     1.661179     1.653536     1.645893     1.638250
      1.630607     1.622964     1.615321     1.607677     1.600034     1.592391     1.584748     1.577105     1.569462     1.561819
      1.554176     1.546533     1.538890     1.531246     1.523603     1.515960     1.508317     1.500674     1.493031     1.485388
      1.477745     1.470102     1.462458     1.454815     1.447172     1.439529     1.431886     1.424243     1.416600     1.408957
      1.401314     1.393671     1.386027     1.378384     1.370741     1.363098     1.355455     1.347812     1.340169     1.332526
      1.324883     1.317240     1.309596     1.301953     1.294310     1.286667     1.279024     1.271381     1.263738     1.256095
      1.248452     1.240808     1.233165     1.225522     1.217879     1.210236     1.202593     1.194950     1.187307     1.179664
      1.172021     1.164377     1.156734     1.149091     1.141448     1.133805     1.126162     1.118519     1.110876     1.103233
      1.095590     1.087946     1.080303     1.072660     1.065017     1.057374     1.049731     1.042088     1.034445     1.026802
      1.019158     1.011515     1.003872     0.996229     0.988586     0.980943     0.973300     0.965657     0.958014     0.950371
      0.942727     0.935084     0.927441     0.919798     0.912155     0.904512     0.896869     0.889226     0.881583     0.873940
      0.866296     0.858653     0.851010     0.843367     0.835724     0.828081     0.820438     0.812795     0.805152     0.797508
      0.789865     0.782222     0.774579     0.766936     0.759293     0.751650     0.744007     0.736364     0.728721     0.721077
      0.713434     0.705791     0.698148     0.690505     0.682862     0.675219     0.667576     0.659933     0.652290     0.644646
      0.637003     0.629360     0.621717     0.614074     0.606431     0.598788     0.591145     0.583502     0.575858     0.568215
      0.560572     0.552929     0.545286     0.537643     0.530000     0.522357     0.514714     0.507071     0.499427     0.491784
      0.484141     0.476498     0.468855     0.461212     0.453569     0.445925     0.438282     0.430639     0.422996     0.415353
      0.407710     0.400067     0.392424     0.384780     0.377137     0.369494     0.361851     0.354208     0.346565     0.338922
      0.331278     0.323635     0.315992     0.308349     0.300706     0.293063     0.285420     0.277777     0.270133     0.262490
      0.254847     0.247204     0.239561     0.231918     0.224275     0.216631     0.208988     0.201345
 NY phased data points follow
   7.04654E-01  1.73483E-02 -1.86563E-01  4.73675E-01  5.74880E-02 -2.03457E-02  1.36915E+00  6.11043E-01  1.18625E+00 -3.60347E-01
  -4.37361E-01  1.89673E-01  1.32448E-01  1.01488E-01 -8.59980E-01  1.99049E+00 -8.54817E-01 -4.19805E-01 -1.79311E-01  5.68301E-01
   1.32012E+00 -1.41040E-01 -2.32305E-01 -2.38471E-01  1.14192E+00 -1.05050E-01  9.20336E-01  8.79503E-01 -3.41541E-01 -9.10575E-01
   5.41935E-01  9.42046E-02  1.61428E+00  9.84318E-01 -1.20965E+00 -5.66262E-01 -5.90746E-01  2.93584E-01  2.86558E-01 -3.24333E-01
   5.37011E-01 -6.63491E-01 -1.41250E+00 -1.54602E-01 -7.06224E-01 -1.30221E-01  7.16863E-01  1.73828E+00 -1.99375E-01 -1.53670E-01
  -6.67593E-01 -3.61526E-01 -6.27548E-01  1.19657E+00 -2.77210E-01  1.00825E-01 -9.59750E-01 -2.35391E-01  7.67166E-01  5.61777E-01
  -9.24964E-01  6.08003E-01  9.24189E-02 -1.59991E-02 -5.80262E-01 -8.72139E-01  1.76148E-01 -6.34351E-01 -8.56778E-02 -6.17072E-01
   1.57076E+00 -1.07717E+00 -2.92148E-01 -2.08187E-01 -1.05553E+00 -1.65852E-01  5.05511E-03 -9.35577E-02 -1.05091E+00  5.46160E-02
  -1.92514E-01 -2.98548E-01  8.81396E-02 -6.84590E-01  1.31687E-01 -2.05023E-01 -1.55566E+00  3.61393E-01 -1.06397E+00  2.12428E-01
   1.00981E+00  2.24250E-01 -4.37256E-01  7.97637E-01 -7.18262E-01  9.53333E-01  1.28667E-01  3.16655E-01 -1.26617E-01  1.63124E-01
  -1.27440E+00 -6.62727E-01  7.36321E-01 -9.72230E-02  6.27016E-01  9.91970E-01 -6.19914E-01  1.08523E+00 -5.08516E-01  4.61397E-01
  -8.98754E-01  5.80945E-01  1.43188E+00  4.72631E-02 -2.69626E-01  7.33256E-01  4.73371E-01  1.08232E+00 -1.77303E-01 -1.29527E+00
  -4.16581E-01  1.61807E+00 -5.54614E-01 -1.00852E+00 -1.07216E+00 -7.14843E-01  7.17954E-01  1.66348E-01  8.55673E-01  1.29585E+00
   7.39365E-01 -5.54177E-01  1.19915E-01 -3.15684E-01 -1.70718E+00  9.33897E-01 -7.20290E-01 -7.05977E-01  1.21935E+00  4.57885E-01
  -7.14763E-01  6.17673E-01  3.98555E-01  1.72033E-01  7.27730E-01 -2.17256E+00  6.81986E-01 -4.82729E-02 -7.31160E-01 -6.06307E-01
   3.61820E-01  9.58027E-01 -3.90025E-01 -2.34352E-01 -1.83765E+00 -1.60905E+00 -1.64427E+00 -1.62586E-01 -1.73402E-01  1.21852E-01
   1.04240E-02 -1.00673E+00 -8.48740E-02 -2.47147E-01  7.89117E-02 -3.86188E-01 -7.03194E-01 -2.99776E-01  1.28225E-01 -3.94734E-01
   1.16904E+00 -5.76873E-01  7.97219E-01  1.17908E+00  1.10942E+00 -2.75878E-02  2.07474E-01  1.71933E-01 -4.46950E-01  8.28764E-01
  -4.34846E-01 -8.49471E-02 -2.25318E+00  5.87455E-01 -3.05483E-01 -3.09580E-01  9.57921E-02 -1.48947E-01  1.21557E+00 -4.55014E-02
   9.48248E-01 -7.55023E-01  5.01263E-01  8.73165E-01  7.04626E-01  3.84407E-01 -1.56736E-01 -3.01574E-01  1.20866E+00  2.41463E-01
   7.30214E-02  7.69438E-01  1.83735E-01  1.81724E+00  3.98239E-02 -1.15892E+00 -1.93441E-01  1.50441E-01  1.30401E+00 -2.51433E-01
   1.47111E+00  1.11206E+00 -4.94774E-01  7.42832E-01  1.20713E+00  1.52618E+00  4.50878E-01  4.23282E-02  1.29811E+00  1.45005E+00
   1.59305E+00  9.54331E-01  9.63406E-01  7.61276E-01  2.44035E+00  1.36491E+00  1.62905E+00 -6.85471E-03  6.85080E-01  1.76402E+00
   5.18084E-01  1.41047E+00  3.68860E+00  9.06798E-02  2.33145E+00  1.15362E+00 -1.09395E-01  1.63263E+00  8.85258E-01  6.03899E-03
  -1.01510E+00 -1.57857E+00 -5.96206E-01 -8.45626E-01  2.79787E-01  6.36880E-01  1.44474E+00 -7.77618E-01 -1.68455E+00  2.19305E-02
  -2.70228E-01  7.89639E-01  1.42467E-01  8.50201E-01  9.06632E-01 -2.45840E-01 -5.70871E-01 -5.23738E-01 -1.03962E-01  9.97267E-01
   1.05352E-01 -1.69331E+00 -9.63376E-01  1.27023E-03  6.07721E-01 -6.19272E-02  8.33772E-01  1.29944E+00 -1.53200E+00 -1.76609E+00
   5.52681E-01 -5.22785E-01  1.81279E-01 -9.19076E-01 -1.13780E+00  1.15598E+00 -5.60589E-01  1.14371E+00  6.41458E-02 -1.80468E-01
  -3.21763E-01  3.46855E-01 -5.62582E-01  1.10876E+00  1.69421E+00  8.81380E-01  3.24081E+00  1.59395E+00  1.47037E+00  2.95590E+00
   2.75668E+00  4.05478E+00  3.65928E+00  3.95754E+00  3.52325E+00  3.67129E+00  2.99608E+00  3.63192E+00  4.55860E+00  6.41283E+00
   5.82759E+00  4.70243E+00  3.75896E+00  8.16582E+00  4.89142E+00  5.85980E+00  4.37962E+00  6.27286E+00  5.83534E+00  5.50792E+00
   3.85541E+00  4.75355E+00  5.16629E+00  6.25194E+00  6.52394E+00  5.63836E+00  6.44630E+00  6.21773E+00  3.27946E+00  4.75310E+00
   5.49622E+00  4.64099E+00  3.71753E+00  4.29828E+00  3.86746E+00  4.20904E+00  4.42058E+00  4.04796E+00  4.60242E+00  3.98003E+00
   5.15626E+00  5.43362E+00  4.12058E+00  5.20827E+00  4.29529E+00  4.37441E+00  4.87800E+00  4.29743E+00  4.28873E+00  3.36074E+00
   3.71262E+00  4.35660E+00  3.38452E+00  4.54358E+00  3.28751E+00  3.16058E+00  3.94826E+00  8.30041E-01  3.08141E+00  4.03168E+00
   2.80890E+00  4.73124E-01  2.41359E+00  1.73147E+00  3.24045E+00  3.35117E+00  3.01120E+00  2.94726E+00  2.02021E+00  2.50122E+00
   4.05043E+00  3.44214E+00  3.39821E+00  3.59751E+00  2.58568E+00  3.13327E+00  2.69146E+00  2.38736E+00  1.04450E+00  2.52194E+00
   2.43003E+00  3.95749E+00  2.99323E+00  2.84784E+00  3.49710E+00  5.80839E-01  2.06794E+00  1.11327E+00  4.89131E+00  2.20024E+00
   2.63899E+00  1.93430E+00  1.49287E+00  2.68667E+00  2.68433E+00  3.57074E+00  2.07672E+00  2.80444E+00  2.88317E+00  2.36050E+00
   1.09094E+00  1.84934E+00  2.27946E+00  2.27581E+00  2.83652E-01  1.20868E+00  2.56936E+00  1.92841E+00  3.19549E+00  1.51631E+00
   1.00372E+00  2.10748E+00  1.10017E+00  1.38237E+00  3.64330E-01  9.12609E-01  1.40392E+00  1.10587E+00  2.77438E-01  3.83283E-01
   9.02645E-01  2.42056E+00  1.95385E+00  7.81537E-01  9.65591E-01  1.48686E+00  4.15592E-01  1.32256E+00  3.85066E-01  8.26385E-01
   1.81588E-01  1.29850E+00  6.06877E-01  1.32651E+00  6.15762E-01  1.10904E+00  4.68356E-01  1.08145E+00  4.93358E-01  7.85849E-02
   5.66783E-02  5.58373E-01  3.40422E-01  3.02962E-01 -1.01182E-01  9.74400E-01 -6.35252E-01  1.42953E-01  1.03600E+00 -1.17346E-01
  -3.17497E-02 -1.14625E-01  3.78873E-01  1.73539E+00 -7.96688E-02  1.56195E+00 -4.07465E-01  2.11919E+00 -2.89161E-01  9.73857E-01
  -2.00932E-01  9.46995E-01  1.13783E+00  1.00679E+00  1.19681E+00 -1.21884E-01  8.39064E-01  8.27615E-01  4.26759E-01 -7.46925E-01
   2.91596E-01  6.48224E-01 -8.49441E-01  1.12909E+00 -1.78158E+00 -4.58173E-01  2.77137E-01  5.87487E-01  1.77570E+00  1.07379E+00
   1.06044E+00 -1.37692E+00 -2.73048E-01  4.11405E-02 -1.85646E-01  9.70942E-01 -1.01416E+00 -8.50547E-01 -6.99167E-01 -7.11888E-01
   3.10970E-01  1.03389E-01 -1.01432E-01 -3.77734E-01  8.10290E-01 -1.80673E+00 -1.46075E+00  7.19813E-01  6.21177E-02 -1.16133E+00
  -2.37679E-01 -1.57931E+00 -8.02502E-01 -4.94791E-01 -1.10719E+00 -1.05874E+00 -2.37030E-01 -1.22936E+00
 NY points of the fit to the data follow
  -1.51198E-01 -6.64669E-02 -1.36293E-01 -4.10814E-02 -9.73345E-02  2.49824E-02 -1.16112E-02  1.40045E-01  8.83418E-02  2.26053E-01
   1.41274E-01  2.45980E-01  1.25635E-01  2.08124E-01  9.93867E-02  1.87754E-01  1.01842E-01  1.91133E-01  1.25441E-01  2.04156E-01
   1.34604E-01  2.14551E-01  1.46279E-01  2.20484E-01  1.56075E-01  2.17380E-01  1.63202E-01  2.13649E-01  1.71127E-01  2.06506E-01
   1.76635E-01  1.98527E-01  1.80709E-01  1.86483E-01  1.83235E-01  1.75051E-01  1.84322E-01  1.61804E-01  1.74186E-01  1.29880E-01
   1.34951E-01  7.89434E-02  9.29102E-02  3.82033E-02  6.88498E-02  3.07319E-02  7.59431E-02  5.71151E-02  7.17714E-02  1.84727E-02
   1.34488E-02 -5.40155E-02 -6.26517E-02 -1.25424E-01 -1.12275E-01 -1.36218E-01 -1.15157E-01 -1.32890E-01 -1.21074E-01 -1.38713E-01
  -1.41565E-01 -1.47177E-01 -1.56373E-01 -1.63835E-01 -1.72067E-01 -1.77119E-01 -1.84153E-01 -1.87430E-01 -1.92643E-01 -1.94595E-01
  -1.98622E-01 -1.99565E-01 -2.02071E-01 -2.02397E-01 -2.03794E-01 -2.03932E-01 -2.04615E-01 -2.04751E-01 -2.05052E-01 -2.05334E-01
  -2.05232E-01 -2.05384E-01 -2.04783E-01 -2.03593E-01 -1.95550E-01 -1.77305E-01 -1.66176E-01 -1.29257E-01 -1.20768E-01 -6.55887E-02
  -6.48885E-02  6.11401E-03 -4.78407E-03  7.83439E-02  5.33119E-02  1.43420E-01  1.04044E-01  1.96916E-01  1.43715E-01  2.33814E-01
   1.68957E-01  2.52308E-01  1.78465E-01  2.51355E-01  1.72726E-01  2.33651E-01  1.54283E-01  2.03015E-01  1.30783E-01  1.76071E-01
   1.11346E-01  1.55034E-01  9.74230E-02  1.41659E-01  9.02624E-02  1.36928E-01  8.97685E-02  1.37374E-01  9.14883E-02  1.36732E-01
   9.15171E-02  1.33890E-01  9.05859E-02  1.31875E-01  9.44481E-02  1.41333E-01  1.01920E-01  1.42938E-01  1.02197E-01  1.35703E-01
   9.55527E-02  1.20740E-01  8.28719E-02  9.95867E-02  6.55577E-02  7.45282E-02  4.56505E-02  4.82313E-02  2.52957E-02  2.32693E-02
   5.95901E-03  2.75730E-04 -1.23662E-02 -2.12258E-02 -2.93602E-02 -4.00544E-02 -4.32518E-02 -5.29082E-02 -5.01172E-02 -5.34499E-02
  -5.03029E-02 -5.22110E-02 -4.95337E-02 -5.01344E-02 -4.76951E-02 -4.68152E-02 -4.45822E-02 -4.32128E-02 -4.17017E-02 -3.97562E-02
  -3.88408E-02 -3.60819E-02 -3.50008E-02 -3.14875E-02 -2.98911E-02 -2.60758E-02 -2.37697E-02 -1.96970E-02 -1.67075E-02 -1.21550E-02
  -7.97097E-03 -3.20352E-03  2.50046E-03  7.71798E-03  1.53486E-02  1.96470E-02  2.03946E-02  1.88918E-02  3.57227E-03 -1.73402E-02
  -4.65687E-02 -8.96183E-02 -1.24136E-01 -1.73371E-01 -1.80130E-01 -2.19525E-01 -1.90905E-01 -2.05562E-01 -1.38734E-01 -1.39356E-01
  -5.34043E-02 -7.43583E-02 -3.79715E-02 -9.37267E-02 -7.45779E-02 -1.57852E-01 -1.35895E-01 -2.38594E-01 -1.97886E-01 -3.11843E-01
  -2.39881E-01 -3.57926E-01 -2.46397E-01 -3.62251E-01 -2.13659E-01 -3.21289E-01 -1.35552E-01 -2.31360E-01 -1.82160E-02 -9.92938E-02
   1.35682E-01  7.07872E-02  3.14864E-01  2.67706E-01  5.07781E-01  4.74353E-01  6.92676E-01  6.54411E-01  8.04250E-01  7.48642E-01
   8.46308E-01  7.92836E-01  8.67273E-01  8.56562E-01  9.44065E-01  9.41326E-01  1.03426E+00  1.00621E+00  1.09304E+00  9.95746E-01
   1.05680E+00  8.70545E-01  8.99257E-01  6.61800E-01  7.43636E-01  4.87506E-01  6.18580E-01  3.54888E-01  5.25748E-01  2.59932E-01
   4.61404E-01  1.94354E-01  4.18401E-01  1.59368E-01  3.96969E-01  1.52678E-01  3.94257E-01  1.69546E-01  4.04815E-01  2.07280E-01
   4.32503E-01  2.67570E-01  4.81297E-01  3.48834E-01  5.42893E-01  4.34560E-01  5.98837E-01  5.04684E-01  6.19212E-01  5.50904E-01
   6.54911E-01  6.25657E-01  7.25348E-01  7.32805E-01  8.20036E-01  8.16641E-01  8.82563E-01  8.70833E-01  9.12707E-01  8.97237E-01
   9.27181E-01  9.16586E-01  9.42719E-01  9.51224E-01  9.80847E-01  1.00309E+00  1.03384E+00  1.06569E+00  1.09706E+00  1.13424E+00
   1.17295E+00  1.21785E+00  1.27102E+00  1.33480E+00  1.41081E+00  1.50124E+00  1.60767E+00  1.73227E+00  1.87546E+00  2.03860E+00
   2.22087E+00  2.42191E+00  2.63906E+00  2.86990E+00  3.10975E+00  3.35418E+00  3.59694E+00  3.83243E+00  4.05412E+00  4.25658E+00
   4.43447E+00  4.58434E+00  4.70399E+00  4.79347E+00  4.85517E+00  4.89442E+00  4.92053E+00  4.94956E+00  5.01535E+00  5.13949E+00
   5.14775E+00  5.30247E+00  5.20260E+00  5.35116E+00  5.10390E+00  5.19354E+00  4.76176E+00  4.90774E+00  4.41297E+00  4.62042E+00
   4.12874E+00  4.38845E+00  3.93761E+00  4.21744E+00  3.84436E+00  4.12534E+00  3.85744E+00  4.12001E+00  4.00309E+00  4.31386E+00
   4.30880E+00  4.53998E+00  4.60164E+00  4.68014E+00  4.77410E+00  4.63271E+00  4.71977E+00  4.46838E+00  4.60006E+00  4.26447E+00
   4.43901E+00  4.03710E+00  4.24309E+00  3.78284E+00  4.02898E+00  3.55694E+00  3.85701E+00  3.41996E+00  3.77470E+00  3.41349E+00
   3.69340E+00  3.28422E+00  3.50104E+00  3.07546E+00  3.23086E+00  2.82102E+00  2.93329E+00  2.66099E+00  2.82430E+00  2.60885E+00
   2.75950E+00  2.56575E+00  2.68137E+00  2.49506E+00  2.57547E+00  2.41377E+00  2.47321E+00  2.36811E+00  2.42244E+00  2.38508E+00
   2.38358E+00  2.28135E+00  2.23431E+00  2.09529E+00  2.01673E+00  1.87364E+00  1.78915E+00  1.73962E+00  1.70841E+00  1.68973E+00
   1.68070E+00  1.67979E+00  1.68582E+00  1.69802E+00  1.71553E+00  1.73763E+00  1.76337E+00  1.79190E+00  1.82207E+00  1.85286E+00
   1.88296E+00  1.91118E+00  1.93618E+00  1.95681E+00  1.97183E+00  1.98033E+00  1.98141E+00  1.97454E+00  1.95929E+00  1.93568E+00
   1.90381E+00  1.86424E+00  1.81755E+00  1.76472E+00  1.70670E+00  1.64470E+00  1.57982E+00  1.51330E+00  1.44616E+00  1.37950E+00
   1.31412E+00  1.25084E+00  1.19017E+00  1.13262E+00  1.07838E+00  1.02769E+00  9.80480E-01  9.36783E-01  8.96366E-01  8.59116E-01
   8.24709E-01  7.92975E-01  7.63566E-01  7.36309E-01  7.10868E-01  6.87094E-01  6.64688E-01  6.43542E-01  6.23402E-01  6.04204E-01
   5.85729E-01  5.67950E-01  5.50681E-01  5.33926E-01  5.17530E-01  5.01517E-01  4.85748E-01  4.70264E-01  4.54940E-01  4.39833E-01
   4.24827E-01  4.09988E-01  3.95203E-01  3.80545E-01  3.65908E-01  3.51372E-01  3.36834E-01  3.22373E-01  3.07891E-01  2.93469E-01
   2.79012E-01  2.64605E-01  2.50153E-01  2.35740E-01  2.21274E-01  2.06838E-01  1.92346E-01  1.77881E-01  1.63354E-01  1.48848E-01
   1.34278E-01  1.19726E-01  1.05111E-01  9.05128E-02  7.58484E-02  6.11996E-02  4.64843E-02  3.17859E-02  1.70226E-02  2.27683E-03
  -1.25345E-02 -2.73278E-02 -4.21845E-02 -5.70195E-02 -7.19158E-02 -8.67887E-02 -1.01721E-01 -1.16627E-01 -1.31589E-01 -1.46519E-01
  -1.61501E-01 -1.76448E-01 -1.91442E-01 -2.06395E-01 -2.21389E-01 -2.36334E-01 -2.51312E-01 -2.66234E-01 -2.81180E-01 -2.96057E-01
  -3.10945E-01 -3.25749E-01 -3.40547E-01 -3.55241E-01 -3.69902E-01 -3.84427E-01 -3.98880E-01 -4.13146E-01
 NY background values follow
    -2.425E-01   -2.440E-01   -2.456E-01   -2.470E-01   -2.484E-01   -2.498E-01   -2.511E-01   -2.523E-01   -2.535E-01   -2.547E-01
    -2.557E-01   -2.568E-01   -2.577E-01   -2.586E-01   -2.595E-01   -2.603E-01   -2.611E-01   -2.618E-01   -2.624E-01   -2.630E-01
    -2.636E-01   -2.641E-01   -2.645E-01   -2.649E-01   -2.652E-01   -2.655E-01   -2.658E-01   -2.660E-01   -2.661E-01   -2.662E-01
    -2.662E-01   -2.662E-01   -2.661E-01   -2.660E-01   -2.659E-01   -2.657E-01   -2.654E-01   -2.651E-01   -2.648E-01   -2.644E-01
    -2.639E-01   -2.634E-01   -2.629E-01   -2.623E-01   -2.617E-01   -2.610E-01   -2.603E-01   -2.595E-01   -2.587E-01   -2.579E-01
    -2.570E-01   -2.560E-01   -2.551E-01   -2.540E-01   -2.529E-01   -2.518E-01   -2.507E-01   -2.495E-01   -2.482E-01   -2.469E-01
    -2.456E-01   -2.442E-01   -2.428E-01   -2.414E-01   -2.399E-01   -2.384E-01   -2.368E-01   -2.352E-01   -2.335E-01   -2.318E-01
    -2.301E-01   -2.283E-01   -2.265E-01   -2.247E-01   -2.228E-01   -2.209E-01   -2.189E-01   -2.169E-01   -2.149E-01   -2.128E-01
    -2.107E-01   -2.086E-01   -2.064E-01   -2.042E-01   -2.019E-01   -1.996E-01   -1.973E-01   -1.949E-01   -1.926E-01   -1.901E-01
    -1.877E-01   -1.852E-01   -1.827E-01   -1.801E-01   -1.775E-01   -1.749E-01   -1.722E-01   -1.695E-01   -1.668E-01   -1.641E-01
    -1.613E-01   -1.585E-01   -1.556E-01   -1.528E-01   -1.499E-01   -1.469E-01   -1.440E-01   -1.410E-01   -1.379E-01   -1.349E-01
    -1.318E-01   -1.287E-01   -1.256E-01   -1.224E-01   -1.192E-01   -1.160E-01   -1.127E-01   -1.095E-01   -1.062E-01   -1.029E-01
    -9.951E-02   -9.613E-02   -9.273E-02   -8.930E-02   -8.585E-02   -8.238E-02   -7.888E-02   -7.536E-02   -7.181E-02   -6.823E-02
    -6.464E-02   -6.101E-02   -5.737E-02   -5.370E-02   -5.000E-02   -4.628E-02   -4.254E-02   -3.877E-02   -3.497E-02   -3.116E-02
    -2.731E-02   -2.345E-02   -1.955E-02   -1.564E-02   -1.169E-02   -7.727E-03   -3.736E-03    2.805E-04    4.321E-03    8.387E-03
     1.248E-02    1.659E-02    2.073E-02    2.490E-02    2.909E-02    3.330E-02    3.754E-02    4.181E-02    4.609E-02    5.041E-02
     5.475E-02    5.911E-02    6.350E-02    6.791E-02    7.235E-02    7.682E-02    8.131E-02    8.582E-02    9.036E-02    9.492E-02
     9.951E-02    1.041E-01    1.088E-01    1.134E-01    1.181E-01    1.228E-01    1.276E-01    1.323E-01    1.371E-01    1.419E-01
     1.468E-01    1.516E-01    1.565E-01    1.615E-01    1.664E-01    1.714E-01    1.764E-01    1.814E-01    1.864E-01    1.915E-01
     1.966E-01    2.017E-01    2.068E-01    2.120E-01    2.172E-01    2.224E-01    2.277E-01    2.329E-01    2.382E-01    2.436E-01
     2.489E-01    2.543E-01    2.597E-01    2.651E-01    2.705E-01    2.760E-01    2.815E-01    2.870E-01    2.926E-01    2.982E-01
     3.038E-01    3.094E-01    3.150E-01    3.207E-01    3.264E-01    3.322E-01    3.379E-01    3.437E-01    3.495E-01    3.553E-01
     3.612E-01    3.671E-01    3.730E-01    3.789E-01    3.849E-01    3.909E-01    3.969E-01    4.029E-01    4.090E-01    4.151E-01
     4.212E-01    4.273E-01    4.335E-01    4.397E-01    4.459E-01    4.521E-01    4.584E-01    4.647E-01    4.710E-01    4.774E-01
     4.837E-01    4.901E-01    4.966E-01    5.030E-01    5.095E-01    5.160E-01    5.225E-01    5.291E-01    5.356E-01    5.423E-01
     5.489E-01    5.555E-01    5.622E-01    5.689E-01    5.756E-01    5.824E-01    5.891E-01    5.959E-01    6.026E-01    6.094E-01
     6.162E-01    6.230E-01    6.298E-01    6.366E-01    6.434E-01    6.502E-01    6.570E-01    6.638E-01    6.706E-01    6.774E-01
     6.841E-01    6.909E-01    6.977E-01    7.044E-01    7.111E-01    7.178E-01    7.245E-01    7.312E-01    7.378E-01    7.444E-01
     7.510E-01    7.576E-01    7.641E-01    7.706E-01    7.771E-01    7.835E-01    7.899E-01    7.963E-01    8.026E-01    8.089E-01
     8.151E-01    8.213E-01    8.275E-01    8.336E-01    8.396E-01    8.456E-01    8.515E-01    8.574E-01    8.633E-01    8.690E-01
     8.748E-01    8.804E-01    8.860E-01    8.915E-01    8.970E-01    9.024E-01    9.077E-01    9.129E-01    9.181E-01    9.232E-01
     9.282E-01    9.332E-01    9.380E-01    9.428E-01    9.475E-01    9.521E-01    9.566E-01    9.611E-01    9.654E-01    9.697E-01
     9.738E-01    9.779E-01    9.819E-01    9.857E-01    9.895E-01    9.932E-01    9.967E-01    1.000E+00    1.004E+00    1.007E+00
     1.010E+00    1.013E+00    1.016E+00    1.019E+00    1.021E+00    1.024E+00    1.026E+00    1.029E+00    1.031E+00    1.033E+00
     1.035E+00    1.037E+00    1.038E+00    1.040E+00    1.041E+00    1.042E+00    1.044E+00    1.045E+00    1.045E+00    1.046E+00
     1.047E+00    1.047E+00    1.047E+00    1.047E+00    1.047E+00    1.047E+00    1.047E+00    1.046E+00    1.046E+00    1.045E+00
     1.044E+00    1.043E+00    1.042E+00    1.040E+00    1.038E+00    1.037E+00    1.035E+00    1.032E+00    1.030E+00    1.028E+00
     1.025E+00    1.022E+00    1.019E+00    1.016E+00    1.013E+00    1.009E+00    1.005E+00    1.001E+00    9.971E-01    9.928E-01
     9.883E-01    9.837E-01    9.789E-01    9.739E-01    9.687E-01    9.634E-01    9.579E-01    9.522E-01    9.464E-01    9.404E-01
     9.343E-01    9.280E-01    9.215E-01    9.149E-01    9.081E-01    9.012E-01    8.941E-01    8.868E-01    8.794E-01    8.719E-01
     8.642E-01    8.564E-01    8.484E-01    8.403E-01    8.320E-01    8.236E-01    8.150E-01    8.063E-01    7.975E-01    7.885E-01
     7.794E-01    7.702E-01    7.608E-01    7.514E-01    7.417E-01    7.320E-01    7.221E-01    7.121E-01    7.020E-01    6.917E-01
     6.814E-01    6.709E-01    6.603E-01    6.496E-01    6.387E-01    6.278E-01    6.167E-01    6.055E-01    5.942E-01    5.828E-01
     5.713E-01    5.597E-01    5.480E-01    5.362E-01    5.243E-01    5.123E-01    5.001E-01    4.879E-01    4.756E-01    4.632E-01
     4.507E-01    4.381E-01    4.254E-01    4.127E-01    3.998E-01    3.868E-01    3.738E-01    3.607E-01    3.475E-01    3.342E-01
     3.208E-01    3.074E-01    2.939E-01    2.803E-01    2.666E-01    2.529E-01    2.390E-01    2.252E-01    2.112E-01    1.972E-01
     1.831E-01    1.689E-01    1.547E-01    1.404E-01    1.261E-01    1.117E-01    9.720E-02    8.268E-02    6.810E-02    5.347E-02
     3.878E-02    2.405E-02    9.259E-03   -5.578E-03   -2.046E-02   -3.539E-02   -5.037E-02   -6.539E-02   -8.045E-02   -9.556E-02
    -1.107E-01   -1.259E-01   -1.411E-01   -1.564E-01   -1.716E-01   -1.870E-01   -2.023E-01   -2.177E-01   -2.331E-01   -2.486E-01
    -2.640E-01   -2.795E-01   -2.950E-01   -3.106E-01   -3.261E-01   -3.417E-01   -3.573E-01   -3.729E-01
 Ala      Conc. = 7.81E+02
