 LCModel (Version 6.3-1L) Copyright: S.W. Provencher.          Ref.: Magn. Reson. Med. 30:672-679 (1993).                
 Slice#3 Row#9 Col#5  K_02_press_1_raw_act
 36 lines in following concentration table = NCONC+1
    Conc.  %SD /Cr+PCr  Metabolite                                         
   73.297 192% 3.1E-02 Ala                                                 
    0.000 999%   0.000 Asp                                                 
    0.000 999%   0.000 Cr                                                  
 2.33E+03   3%   1.000 PCr                                                 
    0.000 999%   0.000 GABA                                                
  275.277  81%   0.118 Glc                                                 
  939.364  33%   0.403 Gln                                                 
 2.31E+03  15%   0.992 Glu                                                 
  929.166   3%   0.398 GPC                                                 
    0.000 999%   0.000 PCh                                                 
  759.564  13%   0.326 GSH                                                 
 2.19E+03  16%   0.940 Ins                                                 
  273.952  61%   0.117 Lac                                                 
 3.06E+03   6%   1.312 NAA                                                 
  465.949  44%   0.200 NAAG                                                
  302.047  13%   0.130 Scyllo                                              
  764.082  39%   0.328 Tau                                                 
   78.262 164% 3.4E-02 -CrCH2                                              
  929.166   3%   0.398 GPC+PCh                                             
 3.52E+03   2%   1.512 NAA+NAAG                                            
 2.33E+03   3%   1.000 Cr+PCr                                              
 3.25E+03  16%   1.395 Glu+Gln                                             
    0.000 999%   0.000 Lip13a                                              
  534.161  53%   0.229 Lip13b                                              
  119.733 105% 5.1E-02 Lip09                                               
  670.270  29%   0.287 MM09                                                
   79.669 103% 3.4E-02 Lip20                                               
 1.20E+03  28%   0.515 MM20                                                
  204.705  48% 8.8E-02 MM12                                                
  355.766  73%   0.153 MM14                                                
  207.591  88% 8.9E-02 MM17                                                
  534.161  53%   0.229 Lip13a+Lip13b                                       
 1.09E+03  35%   0.469 MM14+Lip13a+Lip13b+MM12                             
  790.003  24%   0.339 MM09+Lip09                                          
 1.28E+03  26%   0.549 MM20+Lip20                                          
   6 lines in following misc. output table
  FWHM = 0.061 ppm    S/N =  14                                            
  Data shift = 0.031 ppm                                                   
  Ph: -48 deg     -26.9 deg/ppm                                            
  alphaB,S = 9.6E-01,   2.1E+02                                            
   14 spline knots.   Ns = 8(1)                                            
  (12) 4 infls.   ( 7) 1 extrs.                                            
  498 points on ppm-axis = NY
      4.000000     3.992357     3.984714     3.977070     3.969427     3.961784     3.954141     3.946497     3.938854     3.931211
      3.923568     3.915925     3.908281     3.900638     3.892995     3.885352     3.877708     3.870065     3.862422     3.854779
      3.847136     3.839492     3.831849     3.824206     3.816563     3.808919     3.801276     3.793633     3.785990     3.778347
      3.770703     3.763060     3.755417     3.747774     3.740130     3.732487     3.724844     3.717201     3.709558     3.701914
      3.694271     3.686628     3.678985     3.671341     3.663698     3.656055     3.648412     3.640769     3.633125     3.625482
      3.617839     3.610196     3.602552     3.594909     3.587266     3.579623     3.571980     3.564336     3.556693     3.549050
      3.541407     3.533763     3.526120     3.518477     3.510834     3.503191     3.495547     3.487904     3.480261     3.472618
      3.464974     3.457331     3.449688     3.442045     3.434402     3.426758     3.419115     3.411472     3.403829     3.396185
      3.388542     3.380899     3.373256     3.365613     3.357969     3.350326     3.342683     3.335040     3.327396     3.319753
      3.312110     3.304467     3.296824     3.289180     3.281537     3.273894     3.266251     3.258607     3.250964     3.243321
      3.235678     3.228034     3.220391     3.212748     3.205105     3.197462     3.189818     3.182175     3.174532     3.166889
      3.159245     3.151602     3.143959     3.136316     3.128673     3.121029     3.113386     3.105743     3.098100     3.090456
      3.082813     3.075170     3.067527     3.059884     3.052240     3.044597     3.036954     3.029311     3.021667     3.014024
      3.006381     2.998738     2.991095     2.983451     2.975808     2.968165     2.960522     2.952878     2.945235     2.937592
      2.929949     2.922306     2.914662     2.907019     2.899376     2.891733     2.884089     2.876446     2.868803     2.861160
      2.853517     2.845873     2.838230     2.830587     2.822944     2.815300     2.807657     2.800014     2.792371     2.784728
      2.777084     2.769441     2.761798     2.754155     2.746511     2.738868     2.731225     2.723582     2.715939     2.708295
      2.700652     2.693009     2.685366     2.677722     2.670079     2.662436     2.654793     2.647150     2.639506     2.631863
      2.624220     2.616577     2.608933     2.601290     2.593647     2.586004     2.578361     2.570717     2.563074     2.555431
      2.547788     2.540144     2.532501     2.524858     2.517215     2.509572     2.501928     2.494285     2.486642     2.478999
      2.471355     2.463712     2.456069     2.448426     2.440783     2.433139     2.425496     2.417853     2.410210     2.402566
      2.394923     2.387280     2.379637     2.371994     2.364350     2.356707     2.349064     2.341421     2.333777     2.326134
      2.318491     2.310848     2.303205     2.295561     2.287918     2.280275     2.272632     2.264988     2.257345     2.249702
      2.242059     2.234416     2.226772     2.219129     2.211486     2.203843     2.196199     2.188556     2.180913     2.173270
      2.165627     2.157983     2.150340     2.142697     2.135054     2.127410     2.119767     2.112124     2.104481     2.096838
      2.089194     2.081551     2.073908     2.066265     2.058621     2.050978     2.043335     2.035692     2.028049     2.020405
      2.012762     2.005119     1.997476     1.989833     1.982190     1.974546     1.966903     1.959260     1.951617     1.943974
      1.936331     1.928688     1.921045     1.913402     1.905759     1.898115     1.890472     1.882829     1.875186     1.867543
      1.859900     1.852257     1.844614     1.836971     1.829327     1.821684     1.814041     1.806398     1.798755     1.791112
      1.783469     1.775826     1.768183     1.760540     1.752896     1.745253     1.737610     1.729967     1.722324     1.714681
      1.707038     1.699395     1.691752     1.684108     1.676465     1.668822     1.661179     1.653536     1.645893     1.638250
      1.630607     1.622964     1.615321     1.607677     1.600034     1.592391     1.584748     1.577105     1.569462     1.561819
      1.554176     1.546533     1.538890     1.531246     1.523603     1.515960     1.508317     1.500674     1.493031     1.485388
      1.477745     1.470102     1.462458     1.454815     1.447172     1.439529     1.431886     1.424243     1.416600     1.408957
      1.401314     1.393671     1.386027     1.378384     1.370741     1.363098     1.355455     1.347812     1.340169     1.332526
      1.324883     1.317240     1.309596     1.301953     1.294310     1.286667     1.279024     1.271381     1.263738     1.256095
      1.248452     1.240808     1.233165     1.225522     1.217879     1.210236     1.202593     1.194950     1.187307     1.179664
      1.172021     1.164377     1.156734     1.149091     1.141448     1.133805     1.126162     1.118519     1.110876     1.103233
      1.095590     1.087946     1.080303     1.072660     1.065017     1.057374     1.049731     1.042088     1.034445     1.026802
      1.019158     1.011515     1.003872     0.996229     0.988586     0.980943     0.973300     0.965657     0.958014     0.950371
      0.942727     0.935084     0.927441     0.919798     0.912155     0.904512     0.896869     0.889226     0.881583     0.873940
      0.866296     0.858653     0.851010     0.843367     0.835724     0.828081     0.820438     0.812795     0.805152     0.797508
      0.789865     0.782222     0.774579     0.766936     0.759293     0.751650     0.744007     0.736364     0.728721     0.721077
      0.713434     0.705791     0.698148     0.690505     0.682862     0.675219     0.667576     0.659933     0.652290     0.644646
      0.637003     0.629360     0.621717     0.614074     0.606431     0.598788     0.591145     0.583502     0.575858     0.568215
      0.560572     0.552929     0.545286     0.537643     0.530000     0.522357     0.514714     0.507071     0.499427     0.491784
      0.484141     0.476498     0.468855     0.461212     0.453569     0.445925     0.438282     0.430639     0.422996     0.415353
      0.407710     0.400067     0.392424     0.384780     0.377137     0.369494     0.361851     0.354208     0.346565     0.338922
      0.331278     0.323635     0.315992     0.308349     0.300706     0.293063     0.285420     0.277777     0.270133     0.262490
      0.254847     0.247204     0.239561     0.231918     0.224275     0.216631     0.208988     0.201345
 NY phased data points follow
  -9.03500E+01 -8.93962E+01 -7.95983E+01 -7.62212E+01 -7.22100E+01 -6.55673E+01 -6.31106E+01 -5.39220E+01 -4.56759E+01 -3.53950E+01
  -3.67742E+01 -4.14023E+01 -4.45469E+01 -4.73340E+01 -5.81535E+01 -6.62796E+01 -7.09383E+01 -7.74353E+01 -7.45075E+01 -7.52521E+01
  -7.71360E+01 -7.26956E+01 -7.44422E+01 -7.42298E+01 -6.96476E+01 -6.57043E+01 -6.62209E+01 -6.79222E+01 -5.31440E+01 -5.39680E+01
  -5.49169E+01 -5.54860E+01 -5.12291E+01 -5.11406E+01 -5.41691E+01 -5.56448E+01 -5.41265E+01 -5.20461E+01 -5.42809E+01 -5.57757E+01
  -4.96902E+01 -5.19238E+01 -4.98182E+01 -5.47620E+01 -4.76461E+01 -4.59512E+01 -4.10729E+01 -4.02627E+01 -3.94950E+01 -4.41501E+01
  -4.58600E+01 -4.98368E+01 -4.90574E+01 -4.71991E+01 -4.77133E+01 -4.56012E+01 -4.64420E+01 -5.17284E+01 -4.91118E+01 -4.58578E+01
  -4.77346E+01 -4.62289E+01 -4.61997E+01 -5.02803E+01 -4.67417E+01 -5.19982E+01 -4.54518E+01 -4.63145E+01 -4.45916E+01 -4.35281E+01
  -4.34089E+01 -4.12667E+01 -3.92335E+01 -3.85407E+01 -3.88426E+01 -3.66780E+01 -3.73129E+01 -3.42926E+01 -3.54010E+01 -3.48096E+01
  -3.04561E+01 -3.01787E+01 -3.27544E+01 -2.88826E+01 -2.89141E+01 -3.01453E+01 -3.00912E+01 -2.73053E+01 -2.88703E+01 -2.50227E+01
  -1.91856E+01 -1.76075E+01 -1.64654E+01 -1.27219E+01 -1.51550E+01 -1.28296E+01 -9.84087E+00 -3.78299E+00 -5.85362E-02  1.20987E+01
   2.45145E+01  2.89169E+01  4.29799E+01  4.60025E+01  4.35004E+01  3.37571E+01  1.93853E+01  9.94859E+00  3.59130E+00 -3.12473E+00
  -8.14648E+00 -1.51422E+01 -1.59843E+01 -1.70343E+01 -2.03306E+01 -1.95080E+01 -1.60043E+01 -1.34295E+01 -8.95216E+00 -9.32955E+00
  -1.13810E+01 -4.25274E+00 -1.10267E+00  9.61578E+00  2.21367E+01  2.90509E+01  3.62393E+01  4.54104E+01  4.77654E+01  4.16961E+01
   3.33865E+01  2.77806E+01  1.79474E+01  6.57161E+00  6.22218E-01 -1.03887E+01 -8.27625E+00 -1.68634E+01 -1.24804E+01 -1.54545E+01
  -1.46287E+01 -1.62344E+01 -1.47188E+01 -1.25831E+01 -9.46511E+00 -1.16547E+01 -1.23068E+01 -1.33384E+01 -8.54536E+00 -1.26039E+01
  -1.15085E+01 -1.16562E+01 -1.25013E+01 -1.10874E+01 -1.17693E+01 -9.90662E+00 -1.09896E+01 -1.30458E+01 -1.02709E+01 -6.92188E+00
  -6.76882E+00 -1.76054E+01 -6.89610E+00 -9.93866E+00 -1.12043E+01 -7.81688E+00 -7.91264E+00 -1.09079E+01 -1.23558E+01 -8.98792E+00
  -1.09211E+01 -1.66123E+01 -1.39938E+01 -1.83403E+01 -1.95901E+01 -1.52667E+01 -1.90106E+01 -2.34238E+01 -1.53068E+01 -1.33431E+01
  -1.50543E+01 -1.15753E+01 -1.95084E+01 -1.62602E+01 -8.25911E+00 -1.02029E+01 -1.14125E+01 -7.29109E+00  1.03520E+00  2.86482E+00
   8.66613E+00  6.55355E+00  8.14529E+00  9.83418E+00  4.46809E+00  7.97929E+00  4.72425E+00  4.95969E+00  2.71717E+00  3.42000E+00
   4.54690E+00  4.12878E+00  5.14220E+00  9.20638E+00  5.63352E+00  3.15151E+00  6.07014E+00  5.29975E+00 -2.58492E+00  1.25392E+00
   3.22130E+00  5.15620E+00  7.57064E+00  4.93910E+00  9.12393E+00  1.72062E+01  1.61799E+01  2.21251E+01  2.22598E+01  1.35555E+01
   1.31021E+01  5.88752E+00  6.44755E+00  6.45438E-01  2.05206E+00  7.75132E+00  1.16547E+01  1.50351E+01  1.51727E+01  1.60289E+01
   1.74412E+01  1.97101E+01  1.50192E+01  1.98621E+01  1.79292E+01  1.40938E+01  1.83598E+01  1.52643E+01  1.90076E+01  9.78131E+00
   1.38809E+01  1.48968E+01  9.58177E+00  9.75102E+00  9.77269E+00  1.47699E+01  2.09537E+01  2.12994E+01  1.80376E+01  2.47565E+01
   2.50482E+01  2.66331E+01  3.48162E+01  4.60096E+01  5.27552E+01  5.91017E+01  6.86023E+01  8.22368E+01  9.47123E+01  1.04321E+02
   1.12853E+02  1.14239E+02  1.08076E+02  9.30512E+01  7.71949E+01  5.47591E+01  4.89519E+01  3.57205E+01  3.20713E+01  2.96976E+01
   2.27527E+01  2.52189E+01  2.33821E+01  2.22045E+01  2.16443E+01  2.21732E+01  2.03183E+01  2.58802E+01  2.40308E+01  1.79292E+01
   2.34586E+01  1.96643E+01  2.40968E+01  2.37659E+01  1.83859E+01  2.15341E+01  1.65623E+01  1.66439E+01  2.00384E+01  1.57604E+01
   2.19089E+01  1.69935E+01  1.92705E+01  1.98642E+01  2.01367E+01  2.10357E+01  2.08346E+01  1.78426E+01  1.45838E+01  2.24099E+01
   1.59396E+01  2.14429E+01  2.19575E+01  2.32902E+01  2.12401E+01  2.52316E+01  1.94795E+01  2.10706E+01  2.38583E+01  2.55259E+01
   1.95807E+01  2.29065E+01  2.25294E+01  2.19866E+01  2.21748E+01  2.52229E+01  2.64520E+01  2.64682E+01  2.60340E+01  2.44041E+01
   2.08037E+01  2.08755E+01  2.10577E+01  2.57410E+01  2.24987E+01  1.92044E+01  2.36043E+01  2.30967E+01  2.15954E+01  2.41365E+01
   2.69751E+01  2.43591E+01  2.15543E+01  2.34606E+01  2.44877E+01  2.07622E+01  2.19021E+01  1.96782E+01  2.88239E+01  2.96189E+01
   1.93349E+01  2.39430E+01  3.18037E+01  3.08398E+01  2.49416E+01  2.57774E+01  2.70084E+01  2.59183E+01  2.83172E+01  2.38326E+01
   2.62996E+01  2.43675E+01  2.48313E+01  2.63631E+01  3.05582E+01  2.59584E+01  3.05175E+01  2.92072E+01  2.53354E+01  3.05413E+01
   2.85613E+01  3.02310E+01  3.01768E+01  2.56261E+01  3.04196E+01  2.89106E+01  2.59044E+01  3.00054E+01  2.94113E+01  2.52413E+01
   2.53649E+01  2.50394E+01  2.59484E+01  2.23667E+01  1.94553E+01  2.51392E+01  2.23115E+01  2.51853E+01  2.61269E+01  2.20641E+01
   2.63956E+01  1.95056E+01  2.18149E+01  2.43380E+01  2.50222E+01  2.48144E+01  2.42379E+01  2.72988E+01  2.01309E+01  2.46637E+01
   2.59195E+01  2.55938E+01  2.68552E+01  2.72369E+01  2.63748E+01  2.58600E+01  2.76375E+01  2.74408E+01  2.48514E+01  2.84202E+01
   2.49623E+01  2.89430E+01  2.77441E+01  3.14956E+01  2.95245E+01  2.82033E+01  2.59361E+01  2.93694E+01  3.07821E+01  3.24880E+01
   2.89853E+01  2.80443E+01  2.65885E+01  2.91455E+01  2.92548E+01  2.81407E+01  2.61862E+01  2.86628E+01  2.50529E+01  3.21248E+01
   3.19735E+01  2.50606E+01  2.58184E+01  2.62888E+01  2.32761E+01  2.50106E+01  2.70181E+01  2.31522E+01  2.70000E+01  2.30715E+01
   2.45198E+01  2.67251E+01  2.61497E+01  2.52762E+01  2.71001E+01  2.47968E+01  2.03701E+01  2.17739E+01  2.16897E+01  2.42272E+01
   2.40025E+01  2.15614E+01  2.25267E+01  1.92372E+01  2.36596E+01  2.76407E+01  2.49262E+01  2.63131E+01  2.71476E+01  2.33163E+01
   2.68741E+01  2.37307E+01  2.68221E+01  2.86292E+01  2.35426E+01  2.36445E+01  2.36916E+01  2.34595E+01  2.46547E+01  2.52200E+01
   2.10517E+01  2.57814E+01  2.42147E+01  2.70373E+01  2.31040E+01  2.54412E+01  2.62568E+01  2.03490E+01  2.20240E+01  2.79324E+01
   2.37759E+01  2.31039E+01  2.38221E+01  2.73384E+01  2.56049E+01  2.70708E+01  2.36291E+01  2.24020E+01  2.37010E+01  2.26335E+01
   2.17898E+01  2.53411E+01  2.29938E+01  2.27211E+01  2.15681E+01  2.40300E+01  2.37655E+01  2.69925E+01  2.08731E+01  2.28254E+01
   2.58691E+01  2.30554E+01  2.20139E+01  2.17092E+01  2.40260E+01  2.13571E+01  2.27818E+01  2.34078E+01
 NY points of the fit to the data follow
  -8.71924E+01 -8.44153E+01 -8.03712E+01 -7.62501E+01 -7.18295E+01 -6.63775E+01 -5.97104E+01 -5.23982E+01 -4.55020E+01 -4.04128E+01
  -3.84995E+01 -4.02535E+01 -4.49111E+01 -5.09766E+01 -5.69932E+01 -6.21309E+01 -6.63723E+01 -6.98909E+01 -7.24251E+01 -7.33099E+01
  -7.33373E+01 -7.30136E+01 -7.19210E+01 -7.04464E+01 -6.89896E+01 -6.74263E+01 -6.54006E+01 -6.27339E+01 -5.96323E+01 -5.62923E+01
  -5.31112E+01 -5.07756E+01 -4.97257E+01 -4.99016E+01 -5.10300E+01 -5.28081E+01 -5.49493E+01 -5.69852E+01 -5.84259E+01 -5.88583E+01
  -5.81478E+01 -5.66999E+01 -5.47253E+01 -5.22639E+01 -4.94819E+01 -4.67070E+01 -4.43906E+01 -4.29216E+01 -4.26681E+01 -4.37450E+01
  -4.56637E+01 -4.76434E+01 -4.91892E+01 -5.01579E+01 -5.06808E+01 -5.07438E+01 -5.02100E+01 -4.91341E+01 -4.78002E+01 -4.64979E+01
  -4.55125E+01 -4.49893E+01 -4.48797E+01 -4.49628E+01 -4.49831E+01 -4.47375E+01 -4.41903E+01 -4.33769E+01 -4.22416E+01 -4.09447E+01
  -3.97455E+01 -3.87072E+01 -3.78359E+01 -3.71047E+01 -3.64571E+01 -3.58672E+01 -3.54067E+01 -3.52136E+01 -3.54154E+01 -3.57316E+01
  -3.54530E+01 -3.46462E+01 -3.36883E+01 -3.25641E+01 -3.10978E+01 -2.91735E+01 -2.69032E+01 -2.45759E+01 -2.25529E+01 -2.13116E+01
  -2.11112E+01 -2.16954E+01 -2.25271E+01 -2.25973E+01 -1.99032E+01 -1.51481E+01 -1.03495E+01 -5.15146E+00  2.04924E+00  1.16790E+01
   2.27946E+01  3.36488E+01  4.19654E+01  4.53929E+01  4.26808E+01  3.46770E+01  2.37120E+01  1.22786E+01  2.10080E+00 -6.34088E+00
  -1.33106E+01 -1.86126E+01 -2.12952E+01 -2.20683E+01 -2.22626E+01 -2.22127E+01 -2.19406E+01 -2.13097E+01 -1.93132E+01 -1.44577E+01
  -8.67434E+00 -3.26146E+00  2.52426E+00  9.88367E+00  1.91427E+01  2.94582E+01  3.91158E+01  4.57522E+01  4.72679E+01  4.31584E+01
   3.48060E+01  2.46060E+01  1.46878E+01  6.08967E+00 -1.28675E+00 -7.72202E+00 -1.25022E+01 -1.45795E+01 -1.50657E+01 -1.47710E+01
  -1.39896E+01 -1.30132E+01 -1.21014E+01 -1.13821E+01 -1.09073E+01 -1.07147E+01 -1.07433E+01 -1.08975E+01 -1.10882E+01 -1.12433E+01
  -1.13377E+01 -1.13595E+01 -1.13637E+01 -1.14397E+01 -1.14763E+01 -1.13896E+01 -1.11626E+01 -1.08771E+01 -1.07323E+01 -1.07487E+01
  -1.08310E+01 -1.08535E+01 -1.07302E+01 -1.04536E+01 -1.01243E+01 -9.91274E+00 -9.94206E+00 -1.02398E+01 -1.07132E+01 -1.10778E+01
  -1.12381E+01 -1.13287E+01 -1.14666E+01 -1.17076E+01 -1.18704E+01 -1.18367E+01 -1.16217E+01 -1.12730E+01 -1.08799E+01 -1.05328E+01
  -1.01510E+01 -9.68317E+00 -9.07537E+00 -8.27288E+00 -7.27516E+00 -6.18779E+00 -5.04824E+00 -3.66367E+00 -1.93261E+00 -5.75205E-02
   1.54700E+00  2.71327E+00  3.41743E+00  3.63846E+00  3.45393E+00  3.08404E+00  2.79389E+00  2.76214E+00  3.19435E+00  4.14554E+00
   5.46375E+00  6.88864E+00  8.09004E+00  8.91289E+00  9.10109E+00  8.46312E+00  7.17894E+00  5.53444E+00  3.97661E+00  2.97472E+00
   2.54982E+00  2.91545E+00  4.24496E+00  6.45957E+00  9.07071E+00  1.13891E+01  1.30548E+01  1.38326E+01  1.32641E+01  1.12545E+01
   8.32248E+00  5.37812E+00  3.14982E+00  2.02625E+00  2.27482E+00  3.95803E+00  6.73863E+00  9.82670E+00  1.24173E+01  1.43498E+01
   1.56561E+01  1.63632E+01  1.65912E+01  1.65387E+01  1.64980E+01  1.66619E+01  1.69873E+01  1.73723E+01  1.76097E+01  1.73952E+01
   1.66689E+01  1.56116E+01  1.45740E+01  1.39554E+01  1.39791E+01  1.46926E+01  1.59922E+01  1.77628E+01  2.00226E+01  2.23204E+01
   2.44573E+01  2.76834E+01  3.48330E+01  4.39449E+01  5.26794E+01  6.14771E+01  7.15949E+01  8.32098E+01  9.51221E+01  1.05565E+02
   1.12249E+02  1.12678E+02  1.05859E+02  9.32592E+01  7.78763E+01  6.28374E+01  5.01665E+01  3.98186E+01  3.11556E+01  2.46893E+01
   2.17848E+01  2.08618E+01  2.04726E+01  2.03195E+01  2.03230E+01  2.04111E+01  2.04728E+01  2.04781E+01  2.04274E+01  2.03391E+01
   2.02422E+01  2.01565E+01  2.00852E+01  2.00368E+01  2.00317E+01  2.00659E+01  2.01119E+01  2.01504E+01  2.01856E+01  2.02305E+01
   2.02904E+01  2.03602E+01  2.04456E+01  2.05508E+01  2.06679E+01  2.07848E+01  2.08964E+01  2.10017E+01  2.11025E+01  2.12017E+01
   2.13024E+01  2.14076E+01  2.15202E+01  2.16369E+01  2.17523E+01  2.18616E+01  2.19623E+01  2.20537E+01  2.21348E+01  2.22048E+01
   2.22659E+01  2.23211E+01  2.23723E+01  2.24217E+01  2.24716E+01  2.25245E+01  2.25834E+01  2.26529E+01  2.27413E+01  2.28613E+01
   2.29876E+01  2.30893E+01  2.31820E+01  2.32825E+01  2.33856E+01  2.34655E+01  2.34917E+01  2.34685E+01  2.34177E+01  2.33332E+01
   2.32388E+01  2.31866E+01  2.32260E+01  2.33790E+01  2.36372E+01  2.39776E+01  2.43717E+01  2.47887E+01  2.52002E+01  2.56273E+01
   2.59966E+01  2.62179E+01  2.63736E+01  2.65434E+01  2.67198E+01  2.68330E+01  2.68104E+01  2.66981E+01  2.64854E+01  2.61257E+01
   2.57324E+01  2.55160E+01  2.56442E+01  2.61561E+01  2.69666E+01  2.79262E+01  2.88644E+01  2.96227E+01  3.00251E+01  3.00011E+01
   2.96604E+01  2.91394E+01  2.85268E+01  2.78573E+01  2.71701E+01  2.65784E+01  2.61156E+01  2.57414E+01  2.54359E+01  2.51875E+01
   2.49870E+01  2.48265E+01  2.46989E+01  2.45987E+01  2.45213E+01  2.44630E+01  2.44214E+01  2.43951E+01  2.43832E+01  2.43855E+01
   2.44020E+01  2.44331E+01  2.44795E+01  2.45421E+01  2.46220E+01  2.47202E+01  2.48379E+01  2.49760E+01  2.51354E+01  2.53168E+01
   2.55206E+01  2.57465E+01  2.59937E+01  2.62607E+01  2.65452E+01  2.68442E+01  2.71534E+01  2.74678E+01  2.77816E+01  2.80884E+01
   2.83811E+01  2.86527E+01  2.88961E+01  2.91046E+01  2.92722E+01  2.93940E+01  2.94666E+01  2.94879E+01  2.94574E+01  2.93762E+01
   2.92470E+01  2.90741E+01  2.88629E+01  2.86196E+01  2.83510E+01  2.80642E+01  2.77662E+01  2.74639E+01  2.71632E+01  2.68695E+01
   2.65871E+01  2.63195E+01  2.60694E+01  2.58384E+01  2.56274E+01  2.54365E+01  2.52653E+01  2.51129E+01  2.49783E+01  2.48602E+01
   2.47569E+01  2.46671E+01  2.45890E+01  2.45215E+01  2.44631E+01  2.44127E+01  2.43692E+01  2.43315E+01  2.42989E+01  2.42706E+01
   2.42459E+01  2.42244E+01  2.42056E+01  2.41889E+01  2.41741E+01  2.41609E+01  2.41490E+01  2.41383E+01  2.41283E+01  2.41191E+01
   2.41104E+01  2.41023E+01  2.40944E+01  2.40868E+01  2.40793E+01  2.40719E+01  2.40645E+01  2.40573E+01  2.40500E+01  2.40426E+01
   2.40351E+01  2.40275E+01  2.40198E+01  2.40120E+01  2.40041E+01  2.39960E+01  2.39877E+01  2.39792E+01  2.39707E+01  2.39620E+01
   2.39530E+01  2.39439E+01  2.39346E+01  2.39252E+01  2.39157E+01  2.39060E+01  2.38962E+01  2.38862E+01  2.38761E+01  2.38659E+01
   2.38556E+01  2.38452E+01  2.38347E+01  2.38241E+01  2.38135E+01  2.38029E+01  2.37922E+01  2.37815E+01  2.37708E+01  2.37601E+01
   2.37494E+01  2.37389E+01  2.37284E+01  2.37180E+01  2.37077E+01  2.36976E+01  2.36877E+01  2.36781E+01
 NY background values follow
    -9.594E+01   -9.524E+01   -9.454E+01   -9.385E+01   -9.315E+01   -9.245E+01   -9.176E+01   -9.106E+01   -9.036E+01   -8.967E+01
    -8.897E+01   -8.828E+01   -8.758E+01   -8.688E+01   -8.619E+01   -8.549E+01   -8.480E+01   -8.411E+01   -8.341E+01   -8.272E+01
    -8.203E+01   -8.134E+01   -8.065E+01   -7.995E+01   -7.927E+01   -7.858E+01   -7.789E+01   -7.720E+01   -7.652E+01   -7.583E+01
    -7.515E+01   -7.447E+01   -7.378E+01   -7.310E+01   -7.243E+01   -7.175E+01   -7.107E+01   -7.040E+01   -6.972E+01   -6.905E+01
    -6.838E+01   -6.771E+01   -6.704E+01   -6.638E+01   -6.571E+01   -6.505E+01   -6.439E+01   -6.373E+01   -6.307E+01   -6.242E+01
    -6.177E+01   -6.112E+01   -6.047E+01   -5.982E+01   -5.918E+01   -5.853E+01   -5.789E+01   -5.726E+01   -5.662E+01   -5.599E+01
    -5.536E+01   -5.473E+01   -5.411E+01   -5.348E+01   -5.286E+01   -5.225E+01   -5.163E+01   -5.102E+01   -5.042E+01   -4.981E+01
    -4.921E+01   -4.861E+01   -4.801E+01   -4.742E+01   -4.683E+01   -4.625E+01   -4.566E+01   -4.509E+01   -4.451E+01   -4.394E+01
    -4.337E+01   -4.280E+01   -4.224E+01   -4.169E+01   -4.113E+01   -4.058E+01   -4.004E+01   -3.950E+01   -3.896E+01   -3.842E+01
    -3.789E+01   -3.737E+01   -3.685E+01   -3.633E+01   -3.582E+01   -3.531E+01   -3.480E+01   -3.430E+01   -3.381E+01   -3.331E+01
    -3.282E+01   -3.234E+01   -3.186E+01   -3.138E+01   -3.091E+01   -3.044E+01   -2.997E+01   -2.951E+01   -2.905E+01   -2.860E+01
    -2.815E+01   -2.770E+01   -2.726E+01   -2.682E+01   -2.639E+01   -2.596E+01   -2.553E+01   -2.511E+01   -2.468E+01   -2.427E+01
    -2.385E+01   -2.344E+01   -2.304E+01   -2.264E+01   -2.224E+01   -2.184E+01   -2.145E+01   -2.106E+01   -2.067E+01   -2.029E+01
    -1.991E+01   -1.954E+01   -1.916E+01   -1.879E+01   -1.843E+01   -1.807E+01   -1.771E+01   -1.735E+01   -1.700E+01   -1.665E+01
    -1.630E+01   -1.595E+01   -1.561E+01   -1.527E+01   -1.494E+01   -1.460E+01   -1.427E+01   -1.394E+01   -1.362E+01   -1.329E+01
    -1.297E+01   -1.265E+01   -1.233E+01   -1.202E+01   -1.170E+01   -1.139E+01   -1.108E+01   -1.077E+01   -1.047E+01   -1.016E+01
    -9.857E+00   -9.554E+00   -9.253E+00   -8.952E+00   -8.653E+00   -8.355E+00   -8.058E+00   -7.762E+00   -7.467E+00   -7.172E+00
    -6.879E+00   -6.585E+00   -6.293E+00   -6.001E+00   -5.709E+00   -5.417E+00   -5.126E+00   -4.835E+00   -4.544E+00   -4.253E+00
    -3.962E+00   -3.671E+00   -3.380E+00   -3.088E+00   -2.797E+00   -2.506E+00   -2.215E+00   -1.923E+00   -1.633E+00   -1.342E+00
    -1.052E+00   -7.626E-01   -4.736E-01   -1.851E-01    1.026E-01    3.896E-01    6.758E-01    9.612E-01    1.246E+00    1.529E+00
     1.811E+00    2.092E+00    2.372E+00    2.650E+00    2.928E+00    3.203E+00    3.478E+00    3.750E+00    4.021E+00    4.290E+00
     4.558E+00    4.823E+00    5.087E+00    5.348E+00    5.608E+00    5.865E+00    6.120E+00    6.373E+00    6.624E+00    6.872E+00
     7.117E+00    7.360E+00    7.601E+00    7.839E+00    8.073E+00    8.305E+00    8.535E+00    8.761E+00    8.984E+00    9.204E+00
     9.422E+00    9.636E+00    9.848E+00    1.006E+01    1.026E+01    1.047E+01    1.067E+01    1.086E+01    1.106E+01    1.125E+01
     1.144E+01    1.163E+01    1.181E+01    1.200E+01    1.218E+01    1.235E+01    1.253E+01    1.270E+01    1.287E+01    1.304E+01
     1.320E+01    1.337E+01    1.353E+01    1.368E+01    1.384E+01    1.399E+01    1.415E+01    1.430E+01    1.444E+01    1.459E+01
     1.473E+01    1.487E+01    1.501E+01    1.515E+01    1.528E+01    1.542E+01    1.555E+01    1.568E+01    1.580E+01    1.593E+01
     1.605E+01    1.618E+01    1.630E+01    1.641E+01    1.653E+01    1.665E+01    1.676E+01    1.687E+01    1.698E+01    1.709E+01
     1.720E+01    1.730E+01    1.741E+01    1.751E+01    1.761E+01    1.771E+01    1.780E+01    1.790E+01    1.800E+01    1.809E+01
     1.818E+01    1.827E+01    1.836E+01    1.845E+01    1.853E+01    1.862E+01    1.870E+01    1.878E+01    1.886E+01    1.894E+01
     1.902E+01    1.910E+01    1.917E+01    1.925E+01    1.932E+01    1.939E+01    1.946E+01    1.953E+01    1.960E+01    1.967E+01
     1.973E+01    1.980E+01    1.986E+01    1.993E+01    1.999E+01    2.005E+01    2.011E+01    2.017E+01    2.023E+01    2.028E+01
     2.034E+01    2.039E+01    2.045E+01    2.050E+01    2.055E+01    2.061E+01    2.066E+01    2.071E+01    2.076E+01    2.080E+01
     2.085E+01    2.090E+01    2.094E+01    2.099E+01    2.103E+01    2.108E+01    2.112E+01    2.116E+01    2.120E+01    2.124E+01
     2.128E+01    2.132E+01    2.136E+01    2.140E+01    2.144E+01    2.148E+01    2.151E+01    2.155E+01    2.158E+01    2.162E+01
     2.165E+01    2.169E+01    2.172E+01    2.175E+01    2.178E+01    2.182E+01    2.185E+01    2.188E+01    2.191E+01    2.194E+01
     2.197E+01    2.200E+01    2.203E+01    2.206E+01    2.208E+01    2.211E+01    2.214E+01    2.217E+01    2.220E+01    2.222E+01
     2.225E+01    2.228E+01    2.230E+01    2.233E+01    2.235E+01    2.238E+01    2.240E+01    2.243E+01    2.245E+01    2.248E+01
     2.250E+01    2.252E+01    2.255E+01    2.257E+01    2.259E+01    2.262E+01    2.264E+01    2.266E+01    2.268E+01    2.271E+01
     2.273E+01    2.275E+01    2.277E+01    2.279E+01    2.282E+01    2.284E+01    2.286E+01    2.288E+01    2.290E+01    2.292E+01
     2.294E+01    2.296E+01    2.298E+01    2.301E+01    2.303E+01    2.305E+01    2.307E+01    2.309E+01    2.311E+01    2.313E+01
     2.315E+01    2.317E+01    2.319E+01    2.321E+01    2.323E+01    2.325E+01    2.327E+01    2.329E+01    2.331E+01    2.333E+01
     2.335E+01    2.337E+01    2.338E+01    2.340E+01    2.342E+01    2.344E+01    2.346E+01    2.347E+01    2.349E+01    2.351E+01
     2.352E+01    2.354E+01    2.355E+01    2.357E+01    2.358E+01    2.360E+01    2.361E+01    2.363E+01    2.364E+01    2.365E+01
     2.366E+01    2.368E+01    2.369E+01    2.370E+01    2.371E+01    2.372E+01    2.373E+01    2.373E+01    2.374E+01    2.375E+01
     2.376E+01    2.376E+01    2.377E+01    2.377E+01    2.378E+01    2.378E+01    2.378E+01    2.379E+01    2.379E+01    2.379E+01
     2.379E+01    2.379E+01    2.379E+01    2.379E+01    2.379E+01    2.379E+01    2.379E+01    2.378E+01    2.378E+01    2.378E+01
     2.377E+01    2.377E+01    2.376E+01    2.376E+01    2.375E+01    2.375E+01    2.374E+01    2.374E+01    2.373E+01    2.372E+01
     2.372E+01    2.371E+01    2.370E+01    2.369E+01    2.369E+01    2.368E+01    2.367E+01    2.366E+01    2.365E+01    2.364E+01
     2.364E+01    2.363E+01    2.362E+01    2.361E+01    2.360E+01    2.359E+01    2.358E+01    2.357E+01
 Ala      Conc. = 7.33E+01
