 LCModel (Version 6.3-1L) Copyright: S.W. Provencher.          Ref.: Magn. Reson. Med. 30:672-679 (1993).                
 Slice#3 Row#5 Col#14  K_02_press_1_raw_act
 36 lines in following concentration table = NCONC+1
    Conc.  %SD /Cr+PCr  Metabolite                                         
 1.05E+05   6% 229.639 Ala                                                 
   49.154  81%   0.107 Asp                                                 
  458.433  38%   1.000 Cr                                                  
    0.000 999%   0.000 PCr                                                 
   31.289  76% 6.8E-02 GABA                                                
   33.574  71% 7.3E-02 Glc                                                 
 4.03E+03  58%   8.791 Gln                                                 
 1.86E+03 175%   4.064 Glu                                                 
    0.000 999%   0.000 GPC                                                 
  200.910  28%   0.438 PCh                                                 
  729.623  55%   1.592 GSH                                                 
    0.000 999%   0.000 Ins                                                 
    0.000 999%   0.000 Lac                                                 
    0.000 999%   0.000 NAA                                                 
    0.000 999%   0.000 NAAG                                                
   12.490  64% 2.7E-02 Scyllo                                              
   60.758  65%   0.133 Tau                                                 
   88.848  89%   0.194 -CrCH2                                              
  200.910  28%   0.438 GPC+PCh                                             
    0.000 999%   0.000 NAA+NAAG                                            
  458.433  38%   1.000 Cr+PCr                                              
 5.89E+03  88%  12.855 Glu+Gln                                             
 2.59E+04  22%  56.404 Lip13a                                              
 2.93E+03  21%   6.389 Lip13b                                              
 1.08E+04  20%  23.536+Lip09                                               
 1.20E+04  13%  26.076 MM09                                                
    0.000 999%   0.000-Lip20                                               
    0.000 999%   0.000-MM20                                                
 3.71E+03  23%   8.085 MM12                                                
 4.60E+04   2% 100.435+MM14                                                
 1.85E+04  10%  40.324+MM17                                                
 2.88E+04  19%  62.793 Lip13a+Lip13b                                       
 7.85E+04   7% 171.312 MM14+Lip13a+Lip13b+MM12                             
 2.27E+04  10%  49.612 MM09+Lip09                                          
    0.000 999%   0.000 MM20+Lip20                                          
   6 lines in following misc. output table
  FWHM = 0.153 ppm    S/N =  36                                            
  Data shift = 0.321 ppm                                                   
  Ph: -58 deg     -44.7 deg/ppm                                            
  alphaB,S = 4.0E+01,   8.3E+02                                            
    6 spline knots.   Ns = 9(2)                                            
  ( 9) 3 infls.   ( 3) 1 extrs.                                            
  498 points on ppm-axis = NY
      4.000000     3.992357     3.984714     3.977070     3.969427     3.961784     3.954141     3.946497     3.938854     3.931211
      3.923568     3.915925     3.908281     3.900638     3.892995     3.885352     3.877708     3.870065     3.862422     3.854779
      3.847136     3.839492     3.831849     3.824206     3.816563     3.808919     3.801276     3.793633     3.785990     3.778347
      3.770703     3.763060     3.755417     3.747774     3.740130     3.732487     3.724844     3.717201     3.709558     3.701914
      3.694271     3.686628     3.678985     3.671341     3.663698     3.656055     3.648412     3.640769     3.633125     3.625482
      3.617839     3.610196     3.602552     3.594909     3.587266     3.579623     3.571980     3.564336     3.556693     3.549050
      3.541407     3.533763     3.526120     3.518477     3.510834     3.503191     3.495547     3.487904     3.480261     3.472618
      3.464974     3.457331     3.449688     3.442045     3.434402     3.426758     3.419115     3.411472     3.403829     3.396185
      3.388542     3.380899     3.373256     3.365613     3.357969     3.350326     3.342683     3.335040     3.327396     3.319753
      3.312110     3.304467     3.296824     3.289180     3.281537     3.273894     3.266251     3.258607     3.250964     3.243321
      3.235678     3.228034     3.220391     3.212748     3.205105     3.197462     3.189818     3.182175     3.174532     3.166889
      3.159245     3.151602     3.143959     3.136316     3.128673     3.121029     3.113386     3.105743     3.098100     3.090456
      3.082813     3.075170     3.067527     3.059884     3.052240     3.044597     3.036954     3.029311     3.021667     3.014024
      3.006381     2.998738     2.991095     2.983451     2.975808     2.968165     2.960522     2.952878     2.945235     2.937592
      2.929949     2.922306     2.914662     2.907019     2.899376     2.891733     2.884089     2.876446     2.868803     2.861160
      2.853517     2.845873     2.838230     2.830587     2.822944     2.815300     2.807657     2.800014     2.792371     2.784728
      2.777084     2.769441     2.761798     2.754155     2.746511     2.738868     2.731225     2.723582     2.715939     2.708295
      2.700652     2.693009     2.685366     2.677722     2.670079     2.662436     2.654793     2.647150     2.639506     2.631863
      2.624220     2.616577     2.608933     2.601290     2.593647     2.586004     2.578361     2.570717     2.563074     2.555431
      2.547788     2.540144     2.532501     2.524858     2.517215     2.509572     2.501928     2.494285     2.486642     2.478999
      2.471355     2.463712     2.456069     2.448426     2.440783     2.433139     2.425496     2.417853     2.410210     2.402566
      2.394923     2.387280     2.379637     2.371994     2.364350     2.356707     2.349064     2.341421     2.333777     2.326134
      2.318491     2.310848     2.303205     2.295561     2.287918     2.280275     2.272632     2.264988     2.257345     2.249702
      2.242059     2.234416     2.226772     2.219129     2.211486     2.203843     2.196199     2.188556     2.180913     2.173270
      2.165627     2.157983     2.150340     2.142697     2.135054     2.127410     2.119767     2.112124     2.104481     2.096838
      2.089194     2.081551     2.073908     2.066265     2.058621     2.050978     2.043335     2.035692     2.028049     2.020405
      2.012762     2.005119     1.997476     1.989833     1.982190     1.974546     1.966903     1.959260     1.951617     1.943974
      1.936331     1.928688     1.921045     1.913402     1.905759     1.898115     1.890472     1.882829     1.875186     1.867543
      1.859900     1.852257     1.844614     1.836971     1.829327     1.821684     1.814041     1.806398     1.798755     1.791112
      1.783469     1.775826     1.768183     1.760540     1.752896     1.745253     1.737610     1.729967     1.722324     1.714681
      1.707038     1.699395     1.691752     1.684108     1.676465     1.668822     1.661179     1.653536     1.645893     1.638250
      1.630607     1.622964     1.615321     1.607677     1.600034     1.592391     1.584748     1.577105     1.569462     1.561819
      1.554176     1.546533     1.538890     1.531246     1.523603     1.515960     1.508317     1.500674     1.493031     1.485388
      1.477745     1.470102     1.462458     1.454815     1.447172     1.439529     1.431886     1.424243     1.416600     1.408957
      1.401314     1.393671     1.386027     1.378384     1.370741     1.363098     1.355455     1.347812     1.340169     1.332526
      1.324883     1.317240     1.309596     1.301953     1.294310     1.286667     1.279024     1.271381     1.263738     1.256095
      1.248452     1.240808     1.233165     1.225522     1.217879     1.210236     1.202593     1.194950     1.187307     1.179664
      1.172021     1.164377     1.156734     1.149091     1.141448     1.133805     1.126162     1.118519     1.110876     1.103233
      1.095590     1.087946     1.080303     1.072660     1.065017     1.057374     1.049731     1.042088     1.034445     1.026802
      1.019158     1.011515     1.003872     0.996229     0.988586     0.980943     0.973300     0.965657     0.958014     0.950371
      0.942727     0.935084     0.927441     0.919798     0.912155     0.904512     0.896869     0.889226     0.881583     0.873940
      0.866296     0.858653     0.851010     0.843367     0.835724     0.828081     0.820438     0.812795     0.805152     0.797508
      0.789865     0.782222     0.774579     0.766936     0.759293     0.751650     0.744007     0.736364     0.728721     0.721077
      0.713434     0.705791     0.698148     0.690505     0.682862     0.675219     0.667576     0.659933     0.652290     0.644646
      0.637003     0.629360     0.621717     0.614074     0.606431     0.598788     0.591145     0.583502     0.575858     0.568215
      0.560572     0.552929     0.545286     0.537643     0.530000     0.522357     0.514714     0.507071     0.499427     0.491784
      0.484141     0.476498     0.468855     0.461212     0.453569     0.445925     0.438282     0.430639     0.422996     0.415353
      0.407710     0.400067     0.392424     0.384780     0.377137     0.369494     0.361851     0.354208     0.346565     0.338922
      0.331278     0.323635     0.315992     0.308349     0.300706     0.293063     0.285420     0.277777     0.270133     0.262490
      0.254847     0.247204     0.239561     0.231918     0.224275     0.216631     0.208988     0.201345
 NY phased data points follow
   2.57200E+01  2.69565E+01  2.84159E+01  2.81548E+01  2.84996E+01  2.65867E+01  2.97325E+01  2.67080E+01  2.62757E+01  2.98461E+01
   3.28267E+01  2.88776E+01  2.63595E+01  2.90835E+01  2.93862E+01  3.03366E+01  2.67463E+01  3.10347E+01  3.04898E+01  2.78939E+01
   2.74304E+01  3.04104E+01  3.10217E+01  3.14503E+01  3.17496E+01  2.87609E+01  3.12049E+01  3.25224E+01  2.94971E+01  3.25719E+01
   3.02591E+01  3.06648E+01  3.04868E+01  3.26796E+01  2.95796E+01  2.68213E+01  3.29734E+01  2.83054E+01  3.01438E+01  3.20187E+01
   3.02431E+01  3.40607E+01  3.10857E+01  3.08525E+01  2.81235E+01  3.18561E+01  3.17135E+01  3.06601E+01  3.15047E+01  3.20761E+01
   3.05776E+01  3.26838E+01  3.06574E+01  3.16531E+01  3.15014E+01  3.45236E+01  3.30451E+01  3.22419E+01  3.45828E+01  3.51106E+01
   3.36003E+01  3.35840E+01  2.96149E+01  3.34188E+01  3.46760E+01  3.22566E+01  3.35592E+01  3.44427E+01  3.45806E+01  3.49203E+01
   3.27612E+01  3.49003E+01  3.72796E+01  3.47332E+01  3.43886E+01  3.41342E+01  3.32851E+01  3.59417E+01  3.28412E+01  3.36698E+01
   3.66463E+01  3.46550E+01  3.57371E+01  3.78098E+01  3.60306E+01  3.53077E+01  3.31406E+01  3.61429E+01  3.37573E+01  3.35819E+01
   3.33588E+01  3.56788E+01  3.70939E+01  3.86251E+01  3.51810E+01  3.44529E+01  3.88740E+01  3.46867E+01  3.79869E+01  3.28157E+01
   3.66176E+01  3.43218E+01  3.33236E+01  3.38387E+01  3.51410E+01  3.47430E+01  3.34629E+01  3.39571E+01  3.50703E+01  3.34378E+01
   3.46101E+01  3.51365E+01  3.39473E+01  3.36889E+01  3.37964E+01  3.57231E+01  3.28793E+01  3.36249E+01  3.22616E+01  3.45647E+01
   3.14139E+01  3.26362E+01  3.30628E+01  3.20723E+01  3.56702E+01  3.19728E+01  3.45621E+01  3.25338E+01  3.19644E+01  3.26480E+01
   3.50540E+01  3.41425E+01  3.28843E+01  3.18173E+01  3.22916E+01  3.22041E+01  3.23571E+01  3.14565E+01  3.06602E+01  3.28659E+01
   3.21809E+01  3.14214E+01  3.18044E+01  2.97732E+01  3.07639E+01  3.04337E+01  3.04626E+01  2.98888E+01  2.73075E+01  2.80963E+01
   3.20497E+01  3.03136E+01  2.93963E+01  2.75244E+01  2.61024E+01  2.79473E+01  2.65000E+01  2.42498E+01  2.62137E+01  2.78114E+01
   2.57384E+01  2.72436E+01  2.75205E+01  2.57667E+01  2.73793E+01  2.79416E+01  2.64546E+01  2.48211E+01  2.74073E+01  2.40370E+01
   2.83133E+01  2.43396E+01  2.59510E+01  2.41005E+01  2.30700E+01  2.61354E+01  2.16382E+01  2.41392E+01  2.22872E+01  2.40748E+01
   2.45896E+01  2.42198E+01  2.56855E+01  2.25309E+01  2.32854E+01  2.20383E+01  2.11869E+01  2.26181E+01  2.02042E+01  2.06889E+01
   2.11701E+01  1.94635E+01  1.97344E+01  2.11965E+01  1.90810E+01  2.09247E+01  2.10313E+01  2.25251E+01  1.60616E+01  1.87545E+01
   2.08725E+01  1.87877E+01  1.72831E+01  1.71737E+01  1.84672E+01  1.88053E+01  1.85815E+01  1.79762E+01  1.64370E+01  1.76731E+01
   1.67036E+01  1.89293E+01  1.91501E+01  1.96356E+01  1.75845E+01  1.80518E+01  2.25401E+01  2.43571E+01  2.34791E+01  1.95691E+01
   2.01690E+01  1.70424E+01  1.89985E+01  1.89685E+01  2.28210E+01  2.27317E+01  2.26296E+01  2.23187E+01  2.29746E+01  2.33723E+01
   2.40170E+01  2.29246E+01  2.34254E+01  2.11550E+01  2.14214E+01  2.08879E+01  2.11025E+01  2.09224E+01  2.28818E+01  2.17108E+01
   2.03253E+01  1.92009E+01  2.15625E+01  1.85331E+01  1.92434E+01  2.24583E+01  2.00307E+01  2.19439E+01  2.18876E+01  2.04875E+01
   2.02867E+01  2.10704E+01  1.98228E+01  2.33112E+01  2.11702E+01  2.15723E+01  2.51621E+01  2.38870E+01  2.35580E+01  2.54745E+01
   2.45554E+01  2.67134E+01  2.58459E+01  3.06947E+01  2.94236E+01  3.17633E+01  3.19346E+01  3.42755E+01  3.78138E+01  4.28009E+01
   4.14509E+01  4.33583E+01  4.76167E+01  5.21320E+01  5.66403E+01  6.08695E+01  6.77300E+01  6.81658E+01  7.85952E+01  8.77701E+01
   8.90559E+01  9.79967E+01  1.08142E+02  1.17625E+02  1.22984E+02  1.34927E+02  1.47942E+02  1.57110E+02  1.68959E+02  1.82982E+02
   1.94282E+02  2.07662E+02  2.21305E+02  2.34035E+02  2.49411E+02  2.61453E+02  2.77199E+02  2.91676E+02  3.06840E+02  3.20193E+02
   3.33773E+02  3.54599E+02  3.71855E+02  3.87059E+02  4.07115E+02  4.23184E+02  4.38601E+02  4.53376E+02  4.66076E+02  4.77537E+02
   4.83630E+02  4.89040E+02  4.94537E+02  4.94935E+02  4.93940E+02  4.89971E+02  4.84162E+02  4.77769E+02  4.72661E+02  4.60236E+02
   4.49571E+02  4.38530E+02  4.28163E+02  4.16461E+02  4.05115E+02  3.91818E+02  3.80340E+02  3.70010E+02  3.59409E+02  3.48112E+02
   3.40285E+02  3.29043E+02  3.20079E+02  3.10553E+02  3.02796E+02  2.94126E+02  2.87106E+02  2.80950E+02  2.73354E+02  2.65032E+02
   2.60305E+02  2.55099E+02  2.48053E+02  2.43982E+02  2.39324E+02  2.34239E+02  2.29277E+02  2.22974E+02  2.17529E+02  2.16550E+02
   2.12281E+02  2.06803E+02  2.04348E+02  2.00982E+02  1.95582E+02  1.93379E+02  1.88986E+02  1.87105E+02  1.84319E+02  1.80858E+02
   1.78268E+02  1.76836E+02  1.74621E+02  1.69315E+02  1.69249E+02  1.65852E+02  1.64160E+02  1.61887E+02  1.58914E+02  1.58276E+02
   1.54814E+02  1.57521E+02  1.53908E+02  1.48266E+02  1.48807E+02  1.49146E+02  1.45775E+02  1.41293E+02  1.39760E+02  1.38561E+02
   1.39218E+02  1.34170E+02  1.36408E+02  1.33982E+02  1.28448E+02  1.27982E+02  1.28794E+02  1.24731E+02  1.25568E+02  1.22477E+02
   1.23117E+02  1.21102E+02  1.16582E+02  1.17169E+02  1.15173E+02  1.17567E+02  1.14486E+02  1.11572E+02  1.12703E+02  1.09822E+02
   1.11451E+02  1.08650E+02  1.07249E+02  1.08129E+02  1.06091E+02  1.05864E+02  1.02012E+02  9.97787E+01  1.02167E+02  1.00452E+02
   9.89101E+01  1.00146E+02  9.65960E+01  9.73997E+01  9.53550E+01  9.20392E+01  9.37078E+01  9.21036E+01  9.30119E+01  9.04221E+01
   8.99701E+01  9.05878E+01  8.80684E+01  8.92147E+01  8.67570E+01  8.66474E+01  8.45777E+01  8.69288E+01  8.30252E+01  8.28274E+01
   8.43402E+01  8.16719E+01  8.02466E+01  8.12836E+01  7.92833E+01  7.97296E+01  7.87949E+01  7.92683E+01  7.58376E+01  7.66646E+01
   7.59582E+01  7.46634E+01  7.68562E+01  7.44668E+01  7.21475E+01  7.25037E+01  7.26599E+01  7.26079E+01  7.33056E+01  7.05188E+01
   7.05378E+01  6.94078E+01  6.91541E+01  6.95116E+01  6.60864E+01  6.81075E+01  6.84879E+01  6.62094E+01  6.80904E+01  6.51530E+01
   6.47165E+01  6.46730E+01  6.53507E+01  6.48500E+01  6.34223E+01  6.21805E+01  6.25630E+01  6.03220E+01  6.15198E+01  6.20003E+01
   6.21026E+01  6.00922E+01  5.83870E+01  5.86511E+01  6.05858E+01  5.97303E+01  6.02138E+01  5.79720E+01  5.59744E+01  5.68198E+01
   5.68908E+01  5.62029E+01  5.77421E+01  5.50621E+01  5.39813E+01  5.53705E+01  5.61256E+01  5.67226E+01  5.30043E+01  5.43910E+01
   5.49872E+01  5.40323E+01  5.34712E+01  5.19174E+01  5.02263E+01  5.20730E+01  5.12607E+01  5.10260E+01
 NY points of the fit to the data follow
   3.66875E+01  3.66340E+01  3.69206E+01  3.62732E+01  3.56807E+01  3.42797E+01  3.44603E+01  3.36108E+01  3.32923E+01  3.16887E+01
   3.10379E+01  2.93093E+01  2.84764E+01  2.66797E+01  2.61955E+01  2.52372E+01  2.51749E+01  2.48539E+01  2.50172E+01  2.51721E+01
   2.54749E+01  2.64027E+01  2.68431E+01  2.82269E+01  2.84439E+01  2.99233E+01  2.97990E+01  3.13889E+01  3.10493E+01  3.27896E+01
   3.18499E+01  3.31080E+01  3.18810E+01  3.28634E+01  3.15277E+01  3.25160E+01  3.15466E+01  3.35425E+01  3.35023E+01  3.48931E+01
   3.43010E+01  3.49763E+01  3.39210E+01  3.36160E+01  3.15351E+01  3.04859E+01  2.95255E+01  2.96844E+01  2.96549E+01  3.02925E+01
   3.10237E+01  3.19999E+01  3.25928E+01  3.29470E+01  3.31806E+01  3.32694E+01  3.33197E+01  3.32872E+01  3.32338E+01  3.30182E+01
   3.28199E+01  3.26585E+01  3.25049E+01  3.23913E+01  3.22562E+01  3.21646E+01  3.20418E+01  3.19613E+01  3.18654E+01  3.17950E+01
   3.17057E+01  3.16386E+01  3.15607E+01  3.14902E+01  3.14329E+01  3.13587E+01  3.13109E+01  3.12299E+01  3.11888E+01  3.11019E+01
   3.10721E+01  3.09871E+01  3.09638E+01  3.08967E+01  3.09669E+01  3.12688E+01  3.14703E+01  3.17308E+01  3.19646E+01  3.22852E+01
   3.26036E+01  3.30613E+01  3.34752E+01  3.39700E+01  3.44282E+01  3.48226E+01  3.52718E+01  3.55417E+01  3.59630E+01  3.60685E+01
   3.64158E+01  3.62954E+01  3.65397E+01  3.61991E+01  3.63317E+01  3.58007E+01  3.58146E+01  3.51315E+01  3.50632E+01  3.43382E+01
   3.44307E+01  3.38905E+01  3.38650E+01  3.34594E+01  3.34454E+01  3.31649E+01  3.31065E+01  3.30812E+01  3.29701E+01  3.32398E+01
   3.30685E+01  3.34761E+01  3.31970E+01  3.35893E+01  3.31886E+01  3.38510E+01  3.34045E+01  3.39680E+01  3.34378E+01  3.38403E+01
   3.32420E+01  3.34398E+01  3.28036E+01  3.27938E+01  3.21694E+01  3.19678E+01  3.14021E+01  3.10552E+01  3.05589E+01  3.00934E+01
   2.96536E+01  2.90933E+01  2.87398E+01  2.81520E+01  2.78983E+01  2.73501E+01  2.71305E+01  2.66010E+01  2.63711E+01  2.58627E+01
   2.58200E+01  2.54751E+01  2.53859E+01  2.51562E+01  2.50987E+01  2.49127E+01  2.48016E+01  2.46355E+01  2.44600E+01  2.43178E+01
   2.41361E+01  2.40313E+01  2.38964E+01  2.38063E+01  2.36860E+01  2.35801E+01  2.34514E+01  2.33422E+01  2.32133E+01  2.31132E+01
   2.30219E+01  2.29539E+01  2.28972E+01  2.28455E+01  2.27775E+01  2.27134E+01  2.25719E+01  2.24940E+01  2.21939E+01  2.21167E+01
   2.18016E+01  2.17385E+01  2.13529E+01  2.14342E+01  2.11142E+01  2.13002E+01  2.09414E+01  2.13433E+01  2.10195E+01  2.14848E+01
   2.11417E+01  2.14874E+01  2.06795E+01  2.12501E+01  2.06250E+01  2.13048E+01  2.06480E+01  2.13948E+01  2.07316E+01  2.13813E+01
   2.06916E+01  2.13237E+01  2.07984E+01  2.13141E+01  2.08894E+01  2.12643E+01  2.11737E+01  2.14476E+01  2.16141E+01  2.17514E+01
   2.21334E+01  2.21310E+01  2.26972E+01  2.25960E+01  2.33579E+01  2.32154E+01  2.40709E+01  2.38038E+01  2.43154E+01  2.40823E+01
   2.45695E+01  2.44819E+01  2.49233E+01  2.51375E+01  2.53761E+01  2.54125E+01  2.54754E+01  2.56576E+01  2.56349E+01  2.58379E+01
   2.58475E+01  2.56440E+01  2.52570E+01  2.48881E+01  2.47410E+01  2.42344E+01  2.42926E+01  2.37278E+01  2.40990E+01  2.33326E+01
   2.39456E+01  2.30691E+01  2.39495E+01  2.30005E+01  2.39187E+01  2.29528E+01  2.40439E+01  2.31791E+01  2.44006E+01  2.37360E+01
   2.50245E+01  2.45172E+01  2.57404E+01  2.53816E+01  2.65739E+01  2.64627E+01  2.76921E+01  2.77267E+01  2.87344E+01  2.88877E+01
   2.98528E+01  3.01888E+01  3.11985E+01  3.19081E+01  3.28889E+01  3.36686E+01  3.48055E+01  3.58011E+01  3.71246E+01  3.84852E+01
   4.02277E+01  4.21118E+01  4.44695E+01  4.71994E+01  5.05170E+01  5.44113E+01  5.90287E+01  6.44069E+01  7.05951E+01  7.76705E+01
   8.56036E+01  9.44603E+01  1.04195E+02  1.14759E+02  1.26026E+02  1.37887E+02  1.50145E+02  1.62613E+02  1.75114E+02  1.87453E+02
   1.99490E+02  2.11117E+02  2.22328E+02  2.33194E+02  2.43948E+02  2.54979E+02  2.66895E+02  2.80600E+02  2.97356E+02  3.18158E+02
   3.40441E+02  3.58999E+02  3.77125E+02  3.93066E+02  4.09914E+02  4.23626E+02  4.37498E+02  4.47779E+02  4.63825E+02  4.74225E+02
   4.85936E+02  4.89628E+02  4.94609E+02  4.92129E+02  4.92894E+02  4.87075E+02  4.84740E+02  4.76526E+02  4.70367E+02  4.59370E+02
   4.49860E+02  4.37557E+02  4.26434E+02  4.14544E+02  4.02751E+02  3.91814E+02  3.79884E+02  3.69849E+02  3.57739E+02  3.48452E+02
   3.36622E+02  3.28979E+02  3.18660E+02  3.12599E+02  3.03253E+02  2.96671E+02  2.86423E+02  2.79227E+02  2.70122E+02  2.67251E+02
   2.62864E+02  2.59208E+02  2.53655E+02  2.49015E+02  2.42647E+02  2.35998E+02  2.26432E+02  2.18426E+02  2.13808E+02  2.11424E+02
   2.09959E+02  2.08470E+02  2.06395E+02  2.03491E+02  1.99788E+02  1.95502E+02  1.90956E+02  1.86482E+02  1.82361E+02  1.78771E+02
   1.75782E+02  1.73362E+02  1.71408E+02  1.69779E+02  1.68328E+02  1.66922E+02  1.65460E+02  1.63871E+02  1.62120E+02  1.60193E+02
   1.58103E+02  1.55873E+02  1.53538E+02  1.51135E+02  1.48706E+02  1.46287E+02  1.43917E+02  1.41624E+02  1.39436E+02  1.37371E+02
   1.35442E+02  1.33656E+02  1.32015E+02  1.30511E+02  1.29137E+02  1.27876E+02  1.26714E+02  1.25629E+02  1.24603E+02  1.23613E+02
   1.22642E+02  1.21669E+02  1.20680E+02  1.19660E+02  1.18601E+02  1.17492E+02  1.16333E+02  1.15121E+02  1.13859E+02  1.12551E+02
   1.11206E+02  1.09831E+02  1.08438E+02  1.07037E+02  1.05640E+02  1.04258E+02  1.02903E+02  1.01583E+02  1.00309E+02  9.90855E+01
   9.79208E+01  9.68175E+01  9.57792E+01  9.48059E+01  9.38979E+01  9.30523E+01  9.22668E+01  9.15359E+01  9.08556E+01  9.02187E+01
   8.96198E+01  8.90511E+01  8.85066E+01  8.79785E+01  8.74608E+01  8.69464E+01  8.64300E+01  8.59054E+01  8.53688E+01  8.48151E+01
   8.42419E+01  8.36458E+01  8.30258E+01  8.23801E+01  8.17093E+01  8.10130E+01  8.02928E+01  7.95498E+01  7.87867E+01  7.80053E+01
   7.72092E+01  7.64007E+01  7.55837E+01  7.47609E+01  7.39363E+01  7.31125E+01  7.22934E+01  7.14813E+01  7.06797E+01  6.98907E+01
   6.91172E+01  6.83607E+01  6.76237E+01  6.69072E+01  6.62130E+01  6.55417E+01  6.48946E+01  6.42719E+01  6.36744E+01  6.31019E+01
   6.25548E+01  6.20326E+01  6.15356E+01  6.10629E+01  6.06145E+01  6.01895E+01  5.97878E+01  5.94082E+01  5.90506E+01  5.87139E+01
   5.83978E+01  5.81011E+01  5.78236E+01  5.75643E+01  5.73227E+01  5.70980E+01  5.68899E+01  5.66975E+01  5.65205E+01  5.63582E+01
   5.62105E+01  5.60768E+01  5.59570E+01  5.58509E+01  5.57586E+01  5.56803E+01  5.56165E+01  5.55679E+01  5.55364E+01  5.55241E+01
   5.55353E+01  5.55770E+01  5.56630E+01  5.58209E+01  5.61127E+01  5.66439E+01  5.73995E+01  5.81918E+01
 NY background values follow
     2.938E+01    2.945E+01    2.951E+01    2.957E+01    2.963E+01    2.969E+01    2.974E+01    2.979E+01    2.985E+01    2.989E+01
     2.994E+01    2.999E+01    3.003E+01    3.007E+01    3.011E+01    3.014E+01    3.018E+01    3.021E+01    3.024E+01    3.027E+01
     3.030E+01    3.032E+01    3.035E+01    3.037E+01    3.039E+01    3.041E+01    3.042E+01    3.044E+01    3.045E+01    3.046E+01
     3.047E+01    3.048E+01    3.048E+01    3.049E+01    3.049E+01    3.049E+01    3.049E+01    3.049E+01    3.048E+01    3.048E+01
     3.047E+01    3.046E+01    3.045E+01    3.044E+01    3.042E+01    3.041E+01    3.039E+01    3.037E+01    3.035E+01    3.033E+01
     3.031E+01    3.029E+01    3.026E+01    3.023E+01    3.020E+01    3.017E+01    3.014E+01    3.011E+01    3.008E+01    3.004E+01
     3.000E+01    2.997E+01    2.993E+01    2.989E+01    2.985E+01    2.980E+01    2.976E+01    2.971E+01    2.967E+01    2.962E+01
     2.957E+01    2.952E+01    2.947E+01    2.941E+01    2.936E+01    2.931E+01    2.925E+01    2.919E+01    2.914E+01    2.908E+01
     2.902E+01    2.896E+01    2.889E+01    2.883E+01    2.877E+01    2.870E+01    2.863E+01    2.857E+01    2.850E+01    2.843E+01
     2.836E+01    2.829E+01    2.822E+01    2.815E+01    2.807E+01    2.800E+01    2.792E+01    2.785E+01    2.777E+01    2.769E+01
     2.762E+01    2.754E+01    2.746E+01    2.738E+01    2.730E+01    2.721E+01    2.713E+01    2.705E+01    2.696E+01    2.688E+01
     2.680E+01    2.671E+01    2.662E+01    2.654E+01    2.645E+01    2.636E+01    2.627E+01    2.618E+01    2.609E+01    2.600E+01
     2.591E+01    2.582E+01    2.573E+01    2.564E+01    2.555E+01    2.545E+01    2.536E+01    2.527E+01    2.517E+01    2.508E+01
     2.498E+01    2.489E+01    2.479E+01    2.470E+01    2.460E+01    2.451E+01    2.441E+01    2.431E+01    2.422E+01    2.412E+01
     2.402E+01    2.392E+01    2.383E+01    2.373E+01    2.363E+01    2.353E+01    2.343E+01    2.334E+01    2.324E+01    2.314E+01
     2.304E+01    2.294E+01    2.284E+01    2.274E+01    2.265E+01    2.255E+01    2.245E+01    2.235E+01    2.225E+01    2.215E+01
     2.205E+01    2.195E+01    2.186E+01    2.176E+01    2.166E+01    2.156E+01    2.146E+01    2.137E+01    2.127E+01    2.117E+01
     2.107E+01    2.098E+01    2.088E+01    2.078E+01    2.069E+01    2.059E+01    2.050E+01    2.040E+01    2.030E+01    2.021E+01
     2.012E+01    2.002E+01    1.993E+01    1.983E+01    1.974E+01    1.965E+01    1.956E+01    1.946E+01    1.937E+01    1.928E+01
     1.919E+01    1.910E+01    1.901E+01    1.892E+01    1.883E+01    1.874E+01    1.866E+01    1.857E+01    1.848E+01    1.840E+01
     1.831E+01    1.822E+01    1.814E+01    1.806E+01    1.797E+01    1.789E+01    1.781E+01    1.773E+01    1.765E+01    1.757E+01
     1.749E+01    1.741E+01    1.733E+01    1.725E+01    1.718E+01    1.710E+01    1.703E+01    1.695E+01    1.688E+01    1.680E+01
     1.673E+01    1.666E+01    1.659E+01    1.652E+01    1.645E+01    1.639E+01    1.632E+01    1.625E+01    1.619E+01    1.612E+01
     1.606E+01    1.600E+01    1.594E+01    1.587E+01    1.582E+01    1.576E+01    1.570E+01    1.564E+01    1.559E+01    1.553E+01
     1.548E+01    1.543E+01    1.537E+01    1.532E+01    1.527E+01    1.523E+01    1.518E+01    1.513E+01    1.509E+01    1.504E+01
     1.500E+01    1.496E+01    1.492E+01    1.488E+01    1.484E+01    1.481E+01    1.477E+01    1.474E+01    1.470E+01    1.467E+01
     1.464E+01    1.461E+01    1.459E+01    1.456E+01    1.453E+01    1.451E+01    1.449E+01    1.447E+01    1.445E+01    1.443E+01
     1.441E+01    1.440E+01    1.438E+01    1.437E+01    1.436E+01    1.435E+01    1.434E+01    1.433E+01    1.433E+01    1.432E+01
     1.432E+01    1.432E+01    1.432E+01    1.432E+01    1.433E+01    1.433E+01    1.434E+01    1.435E+01    1.436E+01    1.437E+01
     1.438E+01    1.440E+01    1.441E+01    1.443E+01    1.445E+01    1.447E+01    1.449E+01    1.452E+01    1.455E+01    1.457E+01
     1.461E+01    1.464E+01    1.467E+01    1.471E+01    1.474E+01    1.478E+01    1.482E+01    1.487E+01    1.491E+01    1.496E+01
     1.501E+01    1.506E+01    1.511E+01    1.516E+01    1.522E+01    1.528E+01    1.534E+01    1.540E+01    1.546E+01    1.553E+01
     1.559E+01    1.566E+01    1.574E+01    1.581E+01    1.588E+01    1.596E+01    1.604E+01    1.612E+01    1.621E+01    1.629E+01
     1.638E+01    1.647E+01    1.656E+01    1.666E+01    1.676E+01    1.685E+01    1.695E+01    1.706E+01    1.716E+01    1.727E+01
     1.738E+01    1.749E+01    1.760E+01    1.772E+01    1.783E+01    1.795E+01    1.807E+01    1.819E+01    1.832E+01    1.844E+01
     1.857E+01    1.870E+01    1.883E+01    1.896E+01    1.910E+01    1.923E+01    1.937E+01    1.951E+01    1.965E+01    1.979E+01
     1.994E+01    2.008E+01    2.023E+01    2.038E+01    2.053E+01    2.068E+01    2.083E+01    2.099E+01    2.114E+01    2.130E+01
     2.146E+01    2.162E+01    2.178E+01    2.195E+01    2.211E+01    2.227E+01    2.244E+01    2.261E+01    2.278E+01    2.295E+01
     2.312E+01    2.329E+01    2.347E+01    2.364E+01    2.382E+01    2.399E+01    2.417E+01    2.435E+01    2.453E+01    2.471E+01
     2.490E+01    2.508E+01    2.526E+01    2.545E+01    2.563E+01    2.582E+01    2.601E+01    2.620E+01    2.639E+01    2.658E+01
     2.677E+01    2.696E+01    2.715E+01    2.734E+01    2.754E+01    2.773E+01    2.793E+01    2.812E+01    2.832E+01    2.852E+01
     2.871E+01    2.891E+01    2.911E+01    2.931E+01    2.951E+01    2.971E+01    2.991E+01    3.011E+01    3.031E+01    3.052E+01
     3.072E+01    3.092E+01    3.112E+01    3.133E+01    3.153E+01    3.174E+01    3.194E+01    3.214E+01    3.235E+01    3.255E+01
     3.276E+01    3.296E+01    3.317E+01    3.337E+01    3.358E+01    3.379E+01    3.399E+01    3.420E+01    3.440E+01    3.461E+01
     3.481E+01    3.502E+01    3.523E+01    3.543E+01    3.564E+01    3.584E+01    3.605E+01    3.625E+01    3.646E+01    3.666E+01
     3.687E+01    3.707E+01    3.728E+01    3.748E+01    3.768E+01    3.789E+01    3.809E+01    3.829E+01    3.849E+01    3.870E+01
     3.890E+01    3.910E+01    3.930E+01    3.950E+01    3.970E+01    3.990E+01    4.009E+01    4.029E+01    4.049E+01    4.069E+01
     4.088E+01    4.108E+01    4.127E+01    4.147E+01    4.166E+01    4.185E+01    4.204E+01    4.223E+01    4.243E+01    4.261E+01
     4.280E+01    4.299E+01    4.318E+01    4.336E+01    4.355E+01    4.373E+01    4.392E+01    4.410E+01    4.428E+01    4.446E+01
     4.464E+01    4.482E+01    4.500E+01    4.517E+01    4.535E+01    4.552E+01    4.570E+01    4.587E+01
 Ala      Conc. = 1.05E+05
