 LCModel (Version 6.3-1L) Copyright: S.W. Provencher.          Ref.: Magn. Reson. Med. 30:672-679 (1993).                
 Slice#3 Row#14 Col#13  K_02_press_1_raw_act
 36 lines in following concentration table = NCONC+1
    Conc.  %SD /Cr+PCr  Metabolite                                         
    0.000 999%   0.000 Ala                                                 
 4.20E-03 999%   0.000 Asp                                                 
    0.000 999%   0.000 Cr                                                  
    0.000 999%   0.000 PCr                                                 
    0.000 999%   0.000 GABA                                                
    0.000 999%   0.000 Glc                                                 
    7.695  29%   0.000 Gln                                                 
    0.605 418%   0.000 Glu                                                 
    0.136 156%   0.000 GPC                                                 
    0.000 999%   0.000 PCh                                                 
    0.441 188%   0.000 GSH                                                 
    4.536  65%   0.000 Ins                                                 
    0.000 999%   0.000 Lac                                                 
    0.000 999%   0.000 NAA                                                 
    0.000 999%   0.000 NAAG                                                
 1.61E-02 922%   0.000 Scyllo                                              
    0.354 223%   0.000 Tau                                                 
    4.853  21%   0.000 -CrCH2                                              
    0.136 156%   0.000 GPC+PCh                                             
    0.000 999%   0.000 NAA+NAAG                                            
    0.000 999%   0.000 Cr+PCr                                              
    8.301  37%   0.000 Glu+Gln                                             
 5.16E+03   4%   0.000 Lip13a                                              
    0.000 999%   0.000 Lip13b                                              
    0.000 999%   0.000-Lip09                                               
   60.462  58%   0.000 MM09                                                
   76.377 101%   0.000 Lip20                                               
   96.094  57%   0.000 MM20                                                
   18.484  67%   0.000 MM12                                                
   62.807  59%   0.000 MM14                                                
   24.497  89%   0.000 MM17                                                
 5.16E+03   4%   0.000 Lip13a+Lip13b                                       
 5.24E+03   3%   0.000 MM14+Lip13a+Lip13b+MM12                             
   60.462  58%   0.000 MM09+Lip09                                          
  172.471  37%   0.000 MM20+Lip20                                          
   6 lines in following misc. output table
  FWHM = 0.046 ppm    S/N =   7                                            
  Data shift =-0.069 ppm                                                   
  Ph: 154 deg     -38.0 deg/ppm                                            
  alphaB,S = 2.2E+01,   8.7E-01                                            
    6 spline knots.   Ns = 9(2)                                            
  ( 5) 5 infls.   ( 6) 5 extrs.                                            
  498 points on ppm-axis = NY
      4.000000     3.992357     3.984714     3.977070     3.969427     3.961784     3.954141     3.946497     3.938854     3.931211
      3.923568     3.915925     3.908281     3.900638     3.892995     3.885352     3.877708     3.870065     3.862422     3.854779
      3.847136     3.839492     3.831849     3.824206     3.816563     3.808919     3.801276     3.793633     3.785990     3.778347
      3.770703     3.763060     3.755417     3.747774     3.740130     3.732487     3.724844     3.717201     3.709558     3.701914
      3.694271     3.686628     3.678985     3.671341     3.663698     3.656055     3.648412     3.640769     3.633125     3.625482
      3.617839     3.610196     3.602552     3.594909     3.587266     3.579623     3.571980     3.564336     3.556693     3.549050
      3.541407     3.533763     3.526120     3.518477     3.510834     3.503191     3.495547     3.487904     3.480261     3.472618
      3.464974     3.457331     3.449688     3.442045     3.434402     3.426758     3.419115     3.411472     3.403829     3.396185
      3.388542     3.380899     3.373256     3.365613     3.357969     3.350326     3.342683     3.335040     3.327396     3.319753
      3.312110     3.304467     3.296824     3.289180     3.281537     3.273894     3.266251     3.258607     3.250964     3.243321
      3.235678     3.228034     3.220391     3.212748     3.205105     3.197462     3.189818     3.182175     3.174532     3.166889
      3.159245     3.151602     3.143959     3.136316     3.128673     3.121029     3.113386     3.105743     3.098100     3.090456
      3.082813     3.075170     3.067527     3.059884     3.052240     3.044597     3.036954     3.029311     3.021667     3.014024
      3.006381     2.998738     2.991095     2.983451     2.975808     2.968165     2.960522     2.952878     2.945235     2.937592
      2.929949     2.922306     2.914662     2.907019     2.899376     2.891733     2.884089     2.876446     2.868803     2.861160
      2.853517     2.845873     2.838230     2.830587     2.822944     2.815300     2.807657     2.800014     2.792371     2.784728
      2.777084     2.769441     2.761798     2.754155     2.746511     2.738868     2.731225     2.723582     2.715939     2.708295
      2.700652     2.693009     2.685366     2.677722     2.670079     2.662436     2.654793     2.647150     2.639506     2.631863
      2.624220     2.616577     2.608933     2.601290     2.593647     2.586004     2.578361     2.570717     2.563074     2.555431
      2.547788     2.540144     2.532501     2.524858     2.517215     2.509572     2.501928     2.494285     2.486642     2.478999
      2.471355     2.463712     2.456069     2.448426     2.440783     2.433139     2.425496     2.417853     2.410210     2.402566
      2.394923     2.387280     2.379637     2.371994     2.364350     2.356707     2.349064     2.341421     2.333777     2.326134
      2.318491     2.310848     2.303205     2.295561     2.287918     2.280275     2.272632     2.264988     2.257345     2.249702
      2.242059     2.234416     2.226772     2.219129     2.211486     2.203843     2.196199     2.188556     2.180913     2.173270
      2.165627     2.157983     2.150340     2.142697     2.135054     2.127410     2.119767     2.112124     2.104481     2.096838
      2.089194     2.081551     2.073908     2.066265     2.058621     2.050978     2.043335     2.035692     2.028049     2.020405
      2.012762     2.005119     1.997476     1.989833     1.982190     1.974546     1.966903     1.959260     1.951617     1.943974
      1.936331     1.928688     1.921045     1.913402     1.905759     1.898115     1.890472     1.882829     1.875186     1.867543
      1.859900     1.852257     1.844614     1.836971     1.829327     1.821684     1.814041     1.806398     1.798755     1.791112
      1.783469     1.775826     1.768183     1.760540     1.752896     1.745253     1.737610     1.729967     1.722324     1.714681
      1.707038     1.699395     1.691752     1.684108     1.676465     1.668822     1.661179     1.653536     1.645893     1.638250
      1.630607     1.622964     1.615321     1.607677     1.600034     1.592391     1.584748     1.577105     1.569462     1.561819
      1.554176     1.546533     1.538890     1.531246     1.523603     1.515960     1.508317     1.500674     1.493031     1.485388
      1.477745     1.470102     1.462458     1.454815     1.447172     1.439529     1.431886     1.424243     1.416600     1.408957
      1.401314     1.393671     1.386027     1.378384     1.370741     1.363098     1.355455     1.347812     1.340169     1.332526
      1.324883     1.317240     1.309596     1.301953     1.294310     1.286667     1.279024     1.271381     1.263738     1.256095
      1.248452     1.240808     1.233165     1.225522     1.217879     1.210236     1.202593     1.194950     1.187307     1.179664
      1.172021     1.164377     1.156734     1.149091     1.141448     1.133805     1.126162     1.118519     1.110876     1.103233
      1.095590     1.087946     1.080303     1.072660     1.065017     1.057374     1.049731     1.042088     1.034445     1.026802
      1.019158     1.011515     1.003872     0.996229     0.988586     0.980943     0.973300     0.965657     0.958014     0.950371
      0.942727     0.935084     0.927441     0.919798     0.912155     0.904512     0.896869     0.889226     0.881583     0.873940
      0.866296     0.858653     0.851010     0.843367     0.835724     0.828081     0.820438     0.812795     0.805152     0.797508
      0.789865     0.782222     0.774579     0.766936     0.759293     0.751650     0.744007     0.736364     0.728721     0.721077
      0.713434     0.705791     0.698148     0.690505     0.682862     0.675219     0.667576     0.659933     0.652290     0.644646
      0.637003     0.629360     0.621717     0.614074     0.606431     0.598788     0.591145     0.583502     0.575858     0.568215
      0.560572     0.552929     0.545286     0.537643     0.530000     0.522357     0.514714     0.507071     0.499427     0.491784
      0.484141     0.476498     0.468855     0.461212     0.453569     0.445925     0.438282     0.430639     0.422996     0.415353
      0.407710     0.400067     0.392424     0.384780     0.377137     0.369494     0.361851     0.354208     0.346565     0.338922
      0.331278     0.323635     0.315992     0.308349     0.300706     0.293063     0.285420     0.277777     0.270133     0.262490
      0.254847     0.247204     0.239561     0.231918     0.224275     0.216631     0.208988     0.201345
 NY phased data points follow
   4.14817E+00  5.11074E+00  6.66178E+00  6.64540E+00  5.74425E+00  4.56085E+00  4.06292E+00  4.38764E+00  3.90415E+00  4.44600E+00
   4.30613E+00  5.12620E+00  3.69230E+00  4.06713E+00  3.84077E+00  5.37755E+00  3.62065E+00  3.57726E+00  2.67028E+00  3.15686E+00
   3.76851E+00  3.12645E+00  3.82258E+00  2.73732E+00  4.25261E+00  3.70415E+00  1.70548E+00  4.71964E+00  2.83663E+00  5.14467E+00
   4.59367E+00  2.84561E+00  3.70605E+00  4.77794E+00  3.37708E+00  4.19528E+00  4.38569E+00  2.94964E+00  3.07004E+00  3.55853E+00
   3.11784E+00  4.22480E+00  2.84360E+00  4.39943E+00  3.20823E+00  4.12120E+00  3.98143E+00  2.58366E+00  3.55516E+00  3.27361E+00
   2.97923E+00  3.54348E+00  2.45711E+00  2.60980E+00  2.55705E+00  3.34020E+00  1.85047E+00  1.98234E+00  3.41562E+00  3.37394E+00
   2.77934E+00  2.91628E+00  2.79701E+00  1.93441E+00  2.58486E+00  1.19989E+00  3.55101E+00  1.33893E+00  1.79006E+00  2.62868E+00
   2.25709E+00  3.55121E+00  2.66018E+00  2.23423E+00  2.44079E+00  2.57821E+00  3.63281E+00  3.23863E+00  3.75624E+00  3.61672E+00
   2.27398E+00  1.53562E+00  2.65261E+00  2.68505E+00  2.71351E+00  3.71966E+00  2.39986E+00  3.13783E+00  3.03809E+00  2.35521E+00
   2.29307E+00  1.18129E+00  2.16553E+00  1.93578E+00  2.59231E+00  2.27220E+00  1.75794E+00  1.91843E+00  2.39720E+00  2.87852E+00
   2.20039E+00  1.61133E+00  2.29489E+00  1.58362E+00  2.61591E+00  2.47624E+00  2.37342E+00  2.64170E+00  2.04135E+00  1.45909E+00
   2.52844E+00  1.91146E+00  1.01729E+00  2.91812E+00  2.92544E+00  1.83077E+00  2.61572E+00  1.23423E+00  2.63681E+00  2.83711E+00
   2.38648E+00  3.15439E+00  2.08407E+00  2.26236E+00  2.20297E+00  1.63400E+00  2.88667E+00  8.07846E-01  2.44090E+00  2.40056E+00
   2.27721E+00  1.90032E+00  1.27673E+00  2.20556E+00  1.66015E+00  2.69223E+00  9.23383E-01  1.53348E+00  2.10895E+00  1.93850E+00
   1.77990E+00  2.73281E+00  1.63420E+00  1.04255E+00  1.07845E+00  9.94465E-01  3.50326E+00  2.20333E+00  1.72029E+00  2.84143E+00
   3.45164E+00  2.14371E+00  2.34092E+00  1.48764E+00  2.46840E+00  2.44719E+00  2.01125E+00  6.83541E-01  1.60180E+00  1.86660E+00
   1.79059E+00  2.25533E+00  6.89691E-01  1.00635E+00  2.25182E+00  2.10595E+00  2.78924E+00  4.25198E-01  1.41430E+00  1.72199E+00
   2.45808E+00  3.07853E+00  2.19162E+00  1.93601E+00  1.12053E+00  2.47086E+00  2.35603E+00  2.60047E+00  2.45016E+00  1.66014E+00
  -4.09917E-02  1.15176E+00  1.75646E+00  1.29381E+00  2.48739E+00  1.60750E+00  1.83906E+00  1.66176E+00  1.63881E+00  1.98298E+00
   1.50090E+00  2.63932E+00  2.49604E+00  1.96311E+00  2.45532E+00  1.09184E+00  1.07458E+00  1.18916E+00  1.40649E+00  3.21275E+00
   4.05263E-01  2.47286E+00  3.13750E+00  2.11322E+00  3.42429E+00  2.71854E+00  3.14409E+00  1.01620E+00  2.55349E+00  1.28570E+00
   1.60601E+00  1.84978E+00  2.60244E+00  3.13728E+00  2.93357E+00  2.76498E+00  1.35999E+00  1.99011E+00  2.00390E+00  1.50727E+00
   4.35524E-01  1.83591E+00  1.75171E+00  1.41567E+00  3.26899E+00  2.01910E+00  2.42371E+00  1.74557E+00  1.72926E+00  1.98429E+00
   1.46449E+00  1.51872E+00  1.69535E+00  2.25449E+00  1.20111E+00  3.01297E+00  2.35276E+00  3.80192E+00  2.61560E+00  2.57469E+00
   4.00430E+00  2.53332E+00  2.57038E+00  2.24957E+00  3.09720E+00  1.91571E+00  2.41183E+00  1.29869E+00  1.81140E+00  3.93211E+00
   3.16488E+00  2.89967E+00  3.62407E+00  2.57918E+00  3.08419E+00  1.81322E+00  3.44575E+00  3.64105E+00  3.32946E+00  3.56687E+00
   2.60655E+00  3.65103E+00  4.45826E+00  3.81478E+00  3.67919E+00  4.15869E+00  4.25332E+00  3.73253E+00  3.27685E+00  2.00957E+00
   3.58108E+00  3.36775E+00  2.30384E+00  4.42485E+00  3.07547E+00  3.49901E+00  2.59570E+00  2.06453E+00  2.84234E+00  4.25520E+00
   3.57051E+00  2.69408E+00  1.91025E+00  3.40940E+00  2.10620E+00  3.21877E+00  2.85394E+00  3.21955E+00  4.13833E+00  2.20720E+00
   2.78689E+00  4.10722E+00  2.85416E+00  3.13492E+00  3.59586E+00  3.56318E+00  3.71572E+00  3.85199E+00  2.92145E+00  3.45120E+00
   3.38653E+00  3.88447E+00  3.39159E+00  3.44437E+00  3.48063E+00  3.88436E+00  3.91500E+00  4.67595E+00  5.06529E+00  4.07022E+00
   4.70081E+00  3.70715E+00  4.87694E+00  4.47582E+00  5.10040E+00  4.85925E+00  3.15649E+00  6.49742E+00  5.24318E+00  5.43128E+00
   5.90626E+00  6.03608E+00  5.36207E+00  5.87604E+00  6.20475E+00  6.33359E+00  6.18273E+00  6.31667E+00  8.42758E+00  8.51351E+00
   8.51584E+00  8.23990E+00  9.20486E+00  9.01969E+00  9.13787E+00  1.07293E+01  1.04753E+01  9.81726E+00  9.68502E+00  1.07316E+01
   1.02589E+01  1.04997E+01  1.11122E+01  1.15507E+01  1.06542E+01  1.19054E+01  1.26637E+01  1.10980E+01  1.31384E+01  1.22020E+01
   1.28775E+01  1.25293E+01  1.34332E+01  1.36647E+01  1.29689E+01  1.35310E+01  1.35165E+01  1.50713E+01  1.35528E+01  1.35445E+01
   1.34280E+01  1.40889E+01  1.27401E+01  1.34505E+01  1.22051E+01  1.15350E+01  1.21396E+01  1.12724E+01  1.18299E+01  1.07026E+01
   1.15523E+01  1.05017E+01  1.04707E+01  1.00503E+01  8.66299E+00  9.09851E+00  8.06234E+00  8.23349E+00  8.40396E+00  7.83806E+00
   7.41393E+00  7.04408E+00  6.69646E+00  6.22683E+00  7.38677E+00  6.52706E+00  4.67664E+00  5.11947E+00  5.31277E+00  2.88982E+00
   4.66383E+00  5.04449E+00  4.87733E+00  4.34173E+00  3.97321E+00  3.23125E+00  4.08553E+00  3.82128E+00  2.01115E+00  2.71238E+00
   3.99648E+00  4.18056E+00  2.74452E+00  3.56836E+00  2.90849E+00  2.22915E+00  2.34717E+00  1.90227E+00  2.13502E+00  1.65848E+00
   6.37661E-01  2.95419E+00  1.20678E+00  2.07681E+00  1.11600E+00  1.76143E+00  1.93237E+00  2.15263E+00  2.35552E+00  2.00334E+00
   1.52681E+00  1.41532E+00  2.42386E+00  3.70515E-01  5.20356E-01  2.18106E+00  8.09178E-01  1.43100E+00  3.56724E+00  1.15972E+00
   1.14256E+00  2.18743E+00  3.00143E+00  1.19106E+00  4.92733E-01  1.56588E+00  1.66465E+00  1.19901E-01  1.79768E+00  4.82034E-01
   2.62707E+00  7.49668E-01  2.01661E+00 -1.32073E+00  2.41817E+00  5.49423E-01  1.29452E-01  3.20254E-01  6.67060E-01 -2.38144E-01
  -6.26941E-01  6.86695E-01 -2.15246E-01  7.83919E-01  4.67049E-01  1.05260E+00  1.51092E+00  7.19193E-01  1.47033E+00  8.35734E-01
   2.71610E-01  1.71197E+00  1.07707E+00  7.73155E-01  7.20620E-01  3.18675E-01  7.20815E-01  6.90295E-01  1.36182E+00  7.81635E-01
   1.43788E+00  1.02488E+00 -7.50362E-01  5.42103E-01  2.94292E-01  7.59433E-01  4.35677E-01  1.12732E+00  1.04909E+00 -4.27767E-01
  -2.34112E-03  1.10540E+00  1.73772E+00  6.55617E-01  3.57805E-01 -1.04669E-01  6.26182E-01  2.53817E+00  8.35900E-01 -9.70497E-02
   5.50588E-01  2.19793E+00  1.12278E+00  1.23128E+00  1.70248E+00  1.06695E+00  5.28462E-01  8.40347E-01
 NY points of the fit to the data follow
   3.97715E+00  4.16312E+00  4.67944E+00  4.83125E+00  4.74020E+00  4.71526E+00  4.41464E+00  4.32264E+00  4.05962E+00  3.98881E+00
   3.82205E+00  3.83910E+00  3.70050E+00  3.80166E+00  3.72073E+00  3.75273E+00  3.54831E+00  3.40641E+00  3.23281E+00  3.00405E+00
   3.06294E+00  2.94574E+00  3.04532E+00  3.03050E+00  2.94782E+00  3.01042E+00  2.85160E+00  2.98460E+00  2.98709E+00  3.20920E+00
   3.38659E+00  3.52994E+00  3.58400E+00  3.55992E+00  3.44141E+00  3.31884E+00  3.12306E+00  2.98426E+00  2.86355E+00  2.76112E+00
   2.79176E+00  2.77480E+00  2.91403E+00  2.95941E+00  3.05935E+00  3.06283E+00  3.04407E+00  2.99919E+00  2.93532E+00  2.89440E+00
   2.84673E+00  2.82465E+00  2.80300E+00  2.81396E+00  2.84345E+00  2.93017E+00  3.01584E+00  3.11223E+00  3.16431E+00  3.14418E+00
   3.09223E+00  2.96245E+00  2.86251E+00  2.75066E+00  2.68779E+00  2.66581E+00  2.65647E+00  2.70314E+00  2.71458E+00  2.72989E+00
   2.71362E+00  2.67109E+00  2.64320E+00  2.57064E+00  2.54910E+00  2.51145E+00  2.52527E+00  2.55772E+00  2.61585E+00  2.69076E+00
   2.75479E+00  2.80874E+00  2.82588E+00  2.82349E+00  2.80255E+00  2.81041E+00  2.74609E+00  2.77775E+00  2.70298E+00  2.75134E+00
   2.69398E+00  2.72253E+00  2.68674E+00  2.66203E+00  2.62584E+00  2.53883E+00  2.51286E+00  2.41193E+00  2.42327E+00  2.38118E+00
   2.41792E+00  2.42867E+00  2.46439E+00  2.47893E+00  2.49883E+00  2.48565E+00  2.49067E+00  2.46437E+00  2.46121E+00  2.45278E+00
   2.45833E+00  2.48539E+00  2.49050E+00  2.53033E+00  2.52081E+00  2.54061E+00  2.52597E+00  2.50712E+00  2.49550E+00  2.46228E+00
   2.45643E+00  2.43436E+00  2.43301E+00  2.42650E+00  2.42756E+00  2.42150E+00  2.42842E+00  2.42724E+00  2.43794E+00  2.44049E+00
   2.44796E+00  2.44347E+00  2.43637E+00  2.42389E+00  2.40273E+00  2.39387E+00  2.37218E+00  2.37328E+00  2.36269E+00  2.36869E+00
   2.36642E+00  2.37111E+00  2.36979E+00  2.36699E+00  2.35976E+00  2.35002E+00  2.33763E+00  2.33035E+00  2.32213E+00  2.32340E+00
   2.32527E+00  2.32777E+00  2.33274E+00  2.32791E+00  2.32710E+00  2.31652E+00  2.30921E+00  2.29983E+00  2.29105E+00  2.28355E+00
   2.27460E+00  2.26605E+00  2.25648E+00  2.24618E+00  2.23667E+00  2.22689E+00  2.21976E+00  2.20895E+00  2.20301E+00  2.19430E+00
   2.18910E+00  2.18197E+00  2.18075E+00  2.17870E+00  2.17888E+00  2.16590E+00  2.13216E+00  2.11327E+00  2.01790E+00  1.99533E+00
   1.88853E+00  1.89464E+00  1.84561E+00  1.95121E+00  2.02687E+00  2.18257E+00  2.32362E+00  2.49086E+00  2.59163E+00  2.63707E+00
   2.56935E+00  2.36539E+00  2.01301E+00  1.81198E+00  1.49347E+00  1.43086E+00  1.34228E+00  1.48118E+00  1.68979E+00  1.92863E+00
   2.28339E+00  2.47746E+00  2.77600E+00  2.73633E+00  2.79237E+00  2.53362E+00  2.39490E+00  2.18062E+00  2.10708E+00  2.08599E+00
   2.17651E+00  2.27417E+00  2.41121E+00  2.45419E+00  2.46043E+00  2.38838E+00  2.24591E+00  2.03419E+00  1.74884E+00  1.68734E+00
   1.53390E+00  1.74658E+00  1.85934E+00  2.23450E+00  2.40666E+00  2.60242E+00  2.69230E+00  2.62169E+00  2.60431E+00  2.35996E+00
   2.30712E+00  2.02793E+00  2.02737E+00  1.90748E+00  2.03740E+00  2.16054E+00  2.39376E+00  2.64854E+00  2.81532E+00  2.95907E+00
   2.97640E+00  2.92835E+00  2.84351E+00  2.70136E+00  2.60541E+00  2.53781E+00  2.52791E+00  2.62538E+00  2.72432E+00  2.89810E+00
   2.97909E+00  3.05393E+00  3.01094E+00  2.93218E+00  2.82191E+00  2.71017E+00  2.64737E+00  2.62987E+00  2.65987E+00  2.72347E+00
   2.77942E+00  2.85232E+00  2.86829E+00  2.88569E+00  2.85568E+00  2.82815E+00  2.77775E+00  2.73159E+00  2.70744E+00  2.67544E+00
   2.68656E+00  2.68402E+00  2.70587E+00  2.71684E+00  2.73025E+00  2.74299E+00  2.74837E+00  2.75914E+00  2.76716E+00  2.77967E+00
   2.79472E+00  2.81334E+00  2.83409E+00  2.85782E+00  2.88421E+00  2.91303E+00  2.94438E+00  2.97792E+00  3.01403E+00  3.05211E+00
   3.09292E+00  3.13585E+00  3.18159E+00  3.22955E+00  3.28016E+00  3.33277E+00  3.38778E+00  3.44467E+00  3.50373E+00  3.56453E+00
   3.62751E+00  3.69222E+00  3.75922E+00  3.82821E+00  3.89961E+00  3.97351E+00  4.05021E+00  4.12999E+00  4.21327E+00  4.30029E+00
   4.39167E+00  4.48758E+00  4.58876E+00  4.69544E+00  4.80833E+00  4.92762E+00  5.05410E+00  5.18776E+00  5.32942E+00  5.47899E+00
   5.63718E+00  5.80392E+00  5.97974E+00  6.16455E+00  6.35875E+00  6.56213E+00  6.77502E+00  6.99707E+00  7.22850E+00  7.46884E+00
   7.71818E+00  7.97592E+00  8.24198E+00  8.51559E+00  8.79648E+00  9.08366E+00  9.37659E+00  9.67401E+00  9.97509E+00  1.02782E+01
   1.05822E+01  1.08851E+01  1.11854E+01  1.14806E+01  1.17688E+01  1.20473E+01  1.23140E+01  1.25658E+01  1.28004E+01  1.30147E+01
   1.32064E+01  1.33727E+01  1.35115E+01  1.36203E+01  1.36975E+01  1.37412E+01  1.37507E+01  1.37249E+01  1.36638E+01  1.35673E+01
   1.34363E+01  1.32716E+01  1.30750E+01  1.28483E+01  1.25939E+01  1.23142E+01  1.20122E+01  1.16907E+01  1.13531E+01  1.10023E+01
   1.06417E+01  1.02741E+01  9.90277E+00  9.53027E+00  9.15946E+00  8.79247E+00  8.43169E+00  8.07877E+00  7.73558E+00  7.40326E+00
   7.08319E+00  6.77599E+00  6.48259E+00  6.20319E+00  5.93830E+00  5.68775E+00  5.45171E+00  5.22968E+00  5.02153E+00  4.82651E+00
   4.64424E+00  4.47372E+00  4.31440E+00  4.16511E+00  4.02514E+00  3.89324E+00  3.76865E+00  3.65010E+00  3.53688E+00  3.42783E+00
   3.32238E+00  3.21956E+00  3.11906E+00  3.02016E+00  2.92283E+00  2.82664E+00  2.73183E+00  2.63822E+00  2.54626E+00  2.45594E+00
   2.36782E+00  2.28197E+00  2.19896E+00  2.11883E+00  2.04209E+00  1.96868E+00  1.89901E+00  1.83288E+00  1.77058E+00  1.71180E+00
   1.65671E+00  1.60493E+00  1.55653E+00  1.51110E+00  1.46867E+00  1.42879E+00  1.39150E+00  1.35637E+00  1.32345E+00  1.29231E+00
   1.26303E+00  1.23524E+00  1.20902E+00  1.18402E+00  1.16037E+00  1.13773E+00  1.11625E+00  1.09563E+00  1.07601E+00  1.05712E+00
   1.03912E+00  1.02173E+00  1.00514E+00  9.89084E-01  9.73739E-01  9.58851E-01  9.44613E-01  9.30771E-01  9.17523E-01  9.04619E-01
   8.92262E-01  8.80204E-01  8.68650E-01  8.57356E-01  8.46530E-01  8.35930E-01  8.25764E-01  8.15795E-01  8.06230E-01  7.96837E-01
   7.87822E-01  7.78956E-01  7.70446E-01  7.62064E-01  7.54017E-01  7.46080E-01  7.38459E-01  7.30932E-01  7.23703E-01  7.16554E-01
   7.09687E-01  7.02887E-01  6.96357E-01  6.89881E-01  6.83663E-01  6.77487E-01  6.71559E-01  6.65664E-01  6.60005E-01  6.54371E-01
   6.48963E-01  6.43572E-01  6.38401E-01  6.33241E-01  6.28293E-01  6.23349E-01  6.18612E-01  6.13876E-01  6.09342E-01  6.04807E-01
   6.00471E-01  5.96134E-01  5.91996E-01  5.87862E-01  5.83936E-01  5.80025E-01  5.76339E-01  5.72697E-01
 NY background values follow
     3.357E+00    3.346E+00    3.335E+00    3.324E+00    3.313E+00    3.302E+00    3.291E+00    3.280E+00    3.269E+00    3.258E+00
     3.247E+00    3.236E+00    3.225E+00    3.214E+00    3.203E+00    3.192E+00    3.181E+00    3.170E+00    3.159E+00    3.148E+00
     3.137E+00    3.126E+00    3.115E+00    3.104E+00    3.093E+00    3.082E+00    3.071E+00    3.061E+00    3.050E+00    3.039E+00
     3.028E+00    3.017E+00    3.006E+00    2.995E+00    2.984E+00    2.974E+00    2.963E+00    2.952E+00    2.941E+00    2.930E+00
     2.920E+00    2.909E+00    2.898E+00    2.887E+00    2.877E+00    2.866E+00    2.855E+00    2.845E+00    2.834E+00    2.823E+00
     2.813E+00    2.802E+00    2.791E+00    2.781E+00    2.770E+00    2.760E+00    2.749E+00    2.738E+00    2.728E+00    2.717E+00
     2.707E+00    2.696E+00    2.686E+00    2.676E+00    2.665E+00    2.655E+00    2.644E+00    2.634E+00    2.624E+00    2.613E+00
     2.603E+00    2.593E+00    2.582E+00    2.572E+00    2.562E+00    2.552E+00    2.541E+00    2.531E+00    2.521E+00    2.511E+00
     2.501E+00    2.491E+00    2.481E+00    2.471E+00    2.461E+00    2.451E+00    2.441E+00    2.431E+00    2.421E+00    2.411E+00
     2.401E+00    2.391E+00    2.382E+00    2.372E+00    2.362E+00    2.352E+00    2.343E+00    2.333E+00    2.323E+00    2.314E+00
     2.304E+00    2.294E+00    2.285E+00    2.275E+00    2.266E+00    2.256E+00    2.247E+00    2.238E+00    2.228E+00    2.219E+00
     2.209E+00    2.200E+00    2.191E+00    2.182E+00    2.173E+00    2.163E+00    2.154E+00    2.145E+00    2.136E+00    2.127E+00
     2.118E+00    2.109E+00    2.100E+00    2.091E+00    2.083E+00    2.074E+00    2.065E+00    2.056E+00    2.047E+00    2.039E+00
     2.030E+00    2.022E+00    2.013E+00    2.004E+00    1.996E+00    1.987E+00    1.979E+00    1.971E+00    1.962E+00    1.954E+00
     1.946E+00    1.938E+00    1.929E+00    1.921E+00    1.913E+00    1.905E+00    1.897E+00    1.889E+00    1.881E+00    1.873E+00
     1.865E+00    1.857E+00    1.850E+00    1.842E+00    1.834E+00    1.827E+00    1.819E+00    1.811E+00    1.804E+00    1.796E+00
     1.789E+00    1.782E+00    1.774E+00    1.767E+00    1.760E+00    1.753E+00    1.745E+00    1.738E+00    1.731E+00    1.724E+00
     1.717E+00    1.710E+00    1.703E+00    1.697E+00    1.690E+00    1.683E+00    1.676E+00    1.670E+00    1.663E+00    1.656E+00
     1.650E+00    1.643E+00    1.637E+00    1.630E+00    1.624E+00    1.618E+00    1.611E+00    1.605E+00    1.599E+00    1.593E+00
     1.587E+00    1.581E+00    1.575E+00    1.569E+00    1.563E+00    1.557E+00    1.551E+00    1.545E+00    1.539E+00    1.533E+00
     1.528E+00    1.522E+00    1.516E+00    1.511E+00    1.505E+00    1.500E+00    1.494E+00    1.489E+00    1.483E+00    1.478E+00
     1.472E+00    1.467E+00    1.462E+00    1.457E+00    1.451E+00    1.446E+00    1.441E+00    1.436E+00    1.431E+00    1.426E+00
     1.421E+00    1.416E+00    1.411E+00    1.406E+00    1.401E+00    1.396E+00    1.391E+00    1.386E+00    1.382E+00    1.377E+00
     1.372E+00    1.368E+00    1.363E+00    1.358E+00    1.354E+00    1.349E+00    1.345E+00    1.340E+00    1.336E+00    1.331E+00
     1.327E+00    1.322E+00    1.318E+00    1.314E+00    1.310E+00    1.305E+00    1.301E+00    1.297E+00    1.293E+00    1.288E+00
     1.284E+00    1.280E+00    1.276E+00    1.272E+00    1.268E+00    1.264E+00    1.260E+00    1.256E+00    1.252E+00    1.248E+00
     1.244E+00    1.240E+00    1.237E+00    1.233E+00    1.229E+00    1.225E+00    1.221E+00    1.218E+00    1.214E+00    1.210E+00
     1.207E+00    1.203E+00    1.199E+00    1.196E+00    1.192E+00    1.189E+00    1.185E+00    1.182E+00    1.178E+00    1.175E+00
     1.171E+00    1.168E+00    1.164E+00    1.161E+00    1.157E+00    1.154E+00    1.151E+00    1.147E+00    1.144E+00    1.141E+00
     1.137E+00    1.134E+00    1.131E+00    1.128E+00    1.124E+00    1.121E+00    1.118E+00    1.115E+00    1.112E+00    1.108E+00
     1.105E+00    1.102E+00    1.099E+00    1.096E+00    1.093E+00    1.090E+00    1.087E+00    1.084E+00    1.081E+00    1.078E+00
     1.075E+00    1.071E+00    1.068E+00    1.066E+00    1.063E+00    1.060E+00    1.057E+00    1.054E+00    1.051E+00    1.048E+00
     1.045E+00    1.042E+00    1.039E+00    1.036E+00    1.033E+00    1.030E+00    1.028E+00    1.025E+00    1.022E+00    1.019E+00
     1.016E+00    1.013E+00    1.011E+00    1.008E+00    1.005E+00    1.002E+00    9.993E-01    9.965E-01    9.937E-01    9.909E-01
     9.882E-01    9.854E-01    9.826E-01    9.799E-01    9.771E-01    9.744E-01    9.716E-01    9.689E-01    9.662E-01    9.635E-01
     9.608E-01    9.580E-01    9.553E-01    9.526E-01    9.500E-01    9.473E-01    9.446E-01    9.419E-01    9.392E-01    9.366E-01
     9.339E-01    9.313E-01    9.286E-01    9.260E-01    9.233E-01    9.207E-01    9.181E-01    9.155E-01    9.129E-01    9.103E-01
     9.077E-01    9.051E-01    9.025E-01    8.999E-01    8.973E-01    8.947E-01    8.922E-01    8.896E-01    8.870E-01    8.845E-01
     8.819E-01    8.794E-01    8.769E-01    8.743E-01    8.718E-01    8.693E-01    8.668E-01    8.643E-01    8.617E-01    8.592E-01
     8.568E-01    8.543E-01    8.518E-01    8.493E-01    8.468E-01    8.444E-01    8.419E-01    8.394E-01    8.370E-01    8.345E-01
     8.321E-01    8.296E-01    8.272E-01    8.248E-01    8.223E-01    8.199E-01    8.175E-01    8.151E-01    8.127E-01    8.103E-01
     8.079E-01    8.055E-01    8.031E-01    8.007E-01    7.983E-01    7.960E-01    7.936E-01    7.912E-01    7.889E-01    7.865E-01
     7.842E-01    7.818E-01    7.795E-01    7.771E-01    7.748E-01    7.725E-01    7.701E-01    7.678E-01    7.655E-01    7.632E-01
     7.609E-01    7.586E-01    7.563E-01    7.540E-01    7.517E-01    7.494E-01    7.471E-01    7.449E-01    7.426E-01    7.403E-01
     7.380E-01    7.358E-01    7.335E-01    7.313E-01    7.290E-01    7.268E-01    7.245E-01    7.223E-01    7.201E-01    7.178E-01
     7.156E-01    7.134E-01    7.112E-01    7.090E-01    7.067E-01    7.045E-01    7.023E-01    7.001E-01    6.979E-01    6.958E-01
     6.936E-01    6.914E-01    6.892E-01    6.870E-01    6.849E-01    6.827E-01    6.805E-01    6.784E-01    6.762E-01    6.740E-01
     6.719E-01    6.697E-01    6.676E-01    6.655E-01    6.633E-01    6.612E-01    6.591E-01    6.569E-01    6.548E-01    6.527E-01
     6.506E-01    6.485E-01    6.464E-01    6.442E-01    6.421E-01    6.400E-01    6.379E-01    6.359E-01    6.338E-01    6.317E-01
     6.296E-01    6.275E-01    6.254E-01    6.234E-01    6.213E-01    6.192E-01    6.171E-01    6.151E-01
 Asp      Conc. = 4.20E-03
