 LCModel (Version 6.3-1L) Copyright: S.W. Provencher.          Ref.: Magn. Reson. Med. 30:672-679 (1993).                
 Slice#1 Row#3 Col#4  K_02_press_1_raw_act
 36 lines in following concentration table = NCONC+1
    Conc.  %SD /Cr+PCr  Metabolite                                         
    0.000 999%   0.000 Ala                                                 
   43.801 205%   0.166 Asp                                                 
  264.105  18%   1.000 Cr                                                  
    0.000 999%   0.000 PCr                                                 
   15.888 341% 6.0E-02 GABA                                                
   38.373 142%   0.145 Glc                                                 
    0.000 999%   0.000 Gln                                                 
  130.829 142%   0.495 Glu                                                 
   98.076  18%   0.371 GPC                                                 
    0.000 999%   0.000 PCh                                                 
  122.369  48%   0.463 GSH                                                 
  531.773  38%   2.013 Ins                                                 
   69.260 132%   0.262 Lac                                                 
    0.000 999%   0.000 NAA                                                 
  434.349  15%   1.645 NAAG                                                
    0.000 999%   0.000 Scyllo                                              
    0.000 999%   0.000 Tau                                                 
  127.794  54%   0.484 -CrCH2                                              
   98.076  18%   0.371 GPC+PCh                                             
  434.349  15%   1.645 NAA+NAAG                                            
  264.105  18%   1.000 Cr+PCr                                              
  130.829 142%   0.495 Glu+Gln                                             
 1.64E+04  20%  62.236 Lip13a                                              
    0.000 999%   0.000 Lip13b                                              
 4.95E+03  20%  18.743 Lip09                                               
 2.60E+03  23%   9.838 MM09                                                
 2.61E+03  26%   9.893 Lip20                                               
 3.01E+03  22%  11.397 MM20                                                
 1.02E+03  84%   3.862 MM12                                                
 1.12E+04  13%  42.314 MM14                                                
 1.05E+03  48%   3.991 MM17                                                
 1.64E+04  20%  62.236 Lip13a+Lip13b                                       
 2.86E+04   9% 108.413 MM14+Lip13a+Lip13b+MM12                             
 7.55E+03  14%  28.581 MM09+Lip09                                          
 5.62E+03  12%  21.290 MM20+Lip20                                          
   6 lines in following misc. output table
  FWHM = 0.054 ppm    S/N =   8                                            
  Data shift = 0.076 ppm                                                   
  Ph:-107 deg     113.6 deg/ppm                                            
  alphaB,S = 2.4E-01,   7.1E+01                                            
   14 spline knots.   Ns = 7(1)                                            
   2 inflections.     1 extrema                                            
  498 points on ppm-axis = NY
      4.000000     3.992357     3.984714     3.977070     3.969427     3.961784     3.954141     3.946497     3.938854     3.931211
      3.923568     3.915925     3.908281     3.900638     3.892995     3.885352     3.877708     3.870065     3.862422     3.854779
      3.847136     3.839492     3.831849     3.824206     3.816563     3.808919     3.801276     3.793633     3.785990     3.778347
      3.770703     3.763060     3.755417     3.747774     3.740130     3.732487     3.724844     3.717201     3.709558     3.701914
      3.694271     3.686628     3.678985     3.671341     3.663698     3.656055     3.648412     3.640769     3.633125     3.625482
      3.617839     3.610196     3.602552     3.594909     3.587266     3.579623     3.571980     3.564336     3.556693     3.549050
      3.541407     3.533763     3.526120     3.518477     3.510834     3.503191     3.495547     3.487904     3.480261     3.472618
      3.464974     3.457331     3.449688     3.442045     3.434402     3.426758     3.419115     3.411472     3.403829     3.396185
      3.388542     3.380899     3.373256     3.365613     3.357969     3.350326     3.342683     3.335040     3.327396     3.319753
      3.312110     3.304467     3.296824     3.289180     3.281537     3.273894     3.266251     3.258607     3.250964     3.243321
      3.235678     3.228034     3.220391     3.212748     3.205105     3.197462     3.189818     3.182175     3.174532     3.166889
      3.159245     3.151602     3.143959     3.136316     3.128673     3.121029     3.113386     3.105743     3.098100     3.090456
      3.082813     3.075170     3.067527     3.059884     3.052240     3.044597     3.036954     3.029311     3.021667     3.014024
      3.006381     2.998738     2.991095     2.983451     2.975808     2.968165     2.960522     2.952878     2.945235     2.937592
      2.929949     2.922306     2.914662     2.907019     2.899376     2.891733     2.884089     2.876446     2.868803     2.861160
      2.853517     2.845873     2.838230     2.830587     2.822944     2.815300     2.807657     2.800014     2.792371     2.784728
      2.777084     2.769441     2.761798     2.754155     2.746511     2.738868     2.731225     2.723582     2.715939     2.708295
      2.700652     2.693009     2.685366     2.677722     2.670079     2.662436     2.654793     2.647150     2.639506     2.631863
      2.624220     2.616577     2.608933     2.601290     2.593647     2.586004     2.578361     2.570717     2.563074     2.555431
      2.547788     2.540144     2.532501     2.524858     2.517215     2.509572     2.501928     2.494285     2.486642     2.478999
      2.471355     2.463712     2.456069     2.448426     2.440783     2.433139     2.425496     2.417853     2.410210     2.402566
      2.394923     2.387280     2.379637     2.371994     2.364350     2.356707     2.349064     2.341421     2.333777     2.326134
      2.318491     2.310848     2.303205     2.295561     2.287918     2.280275     2.272632     2.264988     2.257345     2.249702
      2.242059     2.234416     2.226772     2.219129     2.211486     2.203843     2.196199     2.188556     2.180913     2.173270
      2.165627     2.157983     2.150340     2.142697     2.135054     2.127410     2.119767     2.112124     2.104481     2.096838
      2.089194     2.081551     2.073908     2.066265     2.058621     2.050978     2.043335     2.035692     2.028049     2.020405
      2.012762     2.005119     1.997476     1.989833     1.982190     1.974546     1.966903     1.959260     1.951617     1.943974
      1.936331     1.928688     1.921045     1.913402     1.905759     1.898115     1.890472     1.882829     1.875186     1.867543
      1.859900     1.852257     1.844614     1.836971     1.829327     1.821684     1.814041     1.806398     1.798755     1.791112
      1.783469     1.775826     1.768183     1.760540     1.752896     1.745253     1.737610     1.729967     1.722324     1.714681
      1.707038     1.699395     1.691752     1.684108     1.676465     1.668822     1.661179     1.653536     1.645893     1.638250
      1.630607     1.622964     1.615321     1.607677     1.600034     1.592391     1.584748     1.577105     1.569462     1.561819
      1.554176     1.546533     1.538890     1.531246     1.523603     1.515960     1.508317     1.500674     1.493031     1.485388
      1.477745     1.470102     1.462458     1.454815     1.447172     1.439529     1.431886     1.424243     1.416600     1.408957
      1.401314     1.393671     1.386027     1.378384     1.370741     1.363098     1.355455     1.347812     1.340169     1.332526
      1.324883     1.317240     1.309596     1.301953     1.294310     1.286667     1.279024     1.271381     1.263738     1.256095
      1.248452     1.240808     1.233165     1.225522     1.217879     1.210236     1.202593     1.194950     1.187307     1.179664
      1.172021     1.164377     1.156734     1.149091     1.141448     1.133805     1.126162     1.118519     1.110876     1.103233
      1.095590     1.087946     1.080303     1.072660     1.065017     1.057374     1.049731     1.042088     1.034445     1.026802
      1.019158     1.011515     1.003872     0.996229     0.988586     0.980943     0.973300     0.965657     0.958014     0.950371
      0.942727     0.935084     0.927441     0.919798     0.912155     0.904512     0.896869     0.889226     0.881583     0.873940
      0.866296     0.858653     0.851010     0.843367     0.835724     0.828081     0.820438     0.812795     0.805152     0.797508
      0.789865     0.782222     0.774579     0.766936     0.759293     0.751650     0.744007     0.736364     0.728721     0.721077
      0.713434     0.705791     0.698148     0.690505     0.682862     0.675219     0.667576     0.659933     0.652290     0.644646
      0.637003     0.629360     0.621717     0.614074     0.606431     0.598788     0.591145     0.583502     0.575858     0.568215
      0.560572     0.552929     0.545286     0.537643     0.530000     0.522357     0.514714     0.507071     0.499427     0.491784
      0.484141     0.476498     0.468855     0.461212     0.453569     0.445925     0.438282     0.430639     0.422996     0.415353
      0.407710     0.400067     0.392424     0.384780     0.377137     0.369494     0.361851     0.354208     0.346565     0.338922
      0.331278     0.323635     0.315992     0.308349     0.300706     0.293063     0.285420     0.277777     0.270133     0.262490
      0.254847     0.247204     0.239561     0.231918     0.224275     0.216631     0.208988     0.201345
 NY phased data points follow
   3.51665E+01  3.25979E+01  3.07601E+01  3.08341E+01  3.23029E+01  2.90770E+01  3.11703E+01  2.94171E+01  2.79930E+01  3.27440E+01
   3.60069E+01  3.30797E+01  3.53842E+01  3.40889E+01  3.22628E+01  3.67271E+01  3.46495E+01  3.18020E+01  3.36018E+01  3.18731E+01
   3.11303E+01  2.87352E+01  2.67049E+01  2.93996E+01  2.85732E+01  2.96261E+01  2.95620E+01  2.88315E+01  2.85180E+01  3.07588E+01
   2.78819E+01  2.78591E+01  3.27297E+01  3.02202E+01  2.65763E+01  2.61655E+01  2.57558E+01  2.57519E+01  2.68969E+01  2.95867E+01
   2.86519E+01  2.83978E+01  2.55703E+01  2.48208E+01  2.70457E+01  2.85105E+01  2.90759E+01  2.74644E+01  2.78910E+01  2.58629E+01
   2.81635E+01  2.24142E+01  2.94821E+01  2.43712E+01  2.61609E+01  2.38767E+01  2.53620E+01  1.99336E+01  2.45808E+01  2.27761E+01
   2.47279E+01  1.97291E+01  2.53591E+01  2.06346E+01  2.59096E+01  1.76812E+01  2.42374E+01  1.73642E+01  2.06175E+01  1.91054E+01
   2.46137E+01  2.22148E+01  1.83061E+01  1.90083E+01  1.92708E+01  1.75487E+01  1.81306E+01  1.92773E+01  1.67791E+01  1.83452E+01
   1.66794E+01  1.74443E+01  1.91358E+01  1.62742E+01  1.65939E+01  1.24059E+01  1.13299E+01  1.69942E+01  1.42891E+01  1.33633E+01
   1.23298E+01  1.23360E+01  1.12589E+01  1.36113E+01  1.14488E+01  1.12923E+01  3.54484E+00  1.11817E+01  1.11445E+01  1.08473E+01
   1.44884E+01  1.93944E+01  2.17064E+01  1.74817E+01  2.60601E+01  2.27974E+01  2.43992E+01  2.63176E+01  1.76716E+01  1.68871E+01
   1.52361E+01  1.51526E+01  1.25966E+01  1.46026E+01  1.82107E+01  1.28066E+01  1.17833E+01  1.70373E+01  6.04659E+00  1.06748E+01
   9.46511E+00  8.52198E+00  1.18605E+01  1.07979E+01  1.07765E+01  1.63724E+01  1.94864E+01  2.30434E+01  2.02518E+01  1.72099E+01
   2.27903E+01  1.72842E+01  1.90369E+01  1.51093E+01  9.52267E+00  1.79269E+01  1.21413E+01  9.94293E+00  5.15806E+00  1.21442E+01
   1.16671E+01  6.41051E+00  9.62068E+00  8.20355E+00  6.51396E+00  1.21090E+01  9.16659E+00  1.02803E+01  7.75813E+00  7.04293E+00
   6.18314E+00  1.17365E+01  8.58054E+00  3.91492E+00  5.03037E+00  2.76355E+00  5.00907E+00  4.06556E+00  4.96825E+00  5.79901E+00
   1.87902E-01  5.04718E+00  9.73623E+00  1.77746E+00  3.59223E+00  7.26959E-01  1.13412E+00 -5.20214E-01  5.64086E+00  4.91796E+00
   4.70677E-01  3.18848E-01 -1.46671E+00 -2.06945E+00 -4.76684E+00 -2.67275E+00 -5.39941E+00 -2.21075E+00 -3.28693E+00  8.73869E-01
  -7.55721E+00 -7.34472E+00 -2.80756E+00 -3.45354E+00 -5.36199E+00 -4.36913E+00 -4.45617E+00 -1.06550E+01 -2.11294E+00  6.71073E-01
  -1.70301E+00 -3.45912E+00 -3.82605E+00 -3.55989E+00 -2.19247E+00 -8.54400E+00 -8.67033E+00 -5.00647E+00 -7.41421E+00 -9.42087E+00
  -8.22757E+00 -6.93313E+00 -6.03776E+00 -5.55141E+00 -1.04044E+01 -8.31852E+00 -2.99323E-01 -6.63338E+00 -1.09153E+01 -7.58247E+00
  -4.13582E+00 -3.41154E+00 -1.34589E+00 -5.13969E+00 -5.21931E+00 -5.88556E+00 -4.57103E+00 -4.53425E+00 -1.14278E+01 -6.18035E+00
  -3.55090E+00 -7.74270E+00 -1.08213E+01 -1.00422E+01 -8.86507E+00 -8.65080E+00 -1.16029E+01 -5.80673E+00 -1.10286E+01 -6.77356E+00
  -7.07013E+00 -7.64293E+00 -1.06986E+01 -8.15012E+00 -8.84343E+00 -9.34274E+00 -9.44771E+00 -7.29158E+00 -7.98456E+00 -7.33073E+00
  -8.56254E+00 -7.23002E+00 -1.25904E+01 -8.83096E+00 -8.18234E+00 -2.53019E+00 -6.30219E+00 -3.06682E+00 -2.18089E+00 -4.12625E+00
  -7.37412E+00 -6.85152E+00 -9.40968E+00 -4.00425E+00 -2.98251E-01  2.65609E+00  7.55186E+00  3.53915E+00  5.87287E+00  8.31409E+00
   2.63438E+00 -1.06482E+00 -8.55823E+00 -1.12465E+01 -1.61344E+01 -2.59332E+01 -2.26551E+01 -2.68422E+01 -2.90236E+01 -2.92025E+01
  -2.85867E+01 -2.94652E+01 -3.10791E+01 -2.92344E+01 -3.08312E+01 -2.85293E+01 -3.20022E+01 -3.21124E+01 -3.12317E+01 -3.01400E+01
  -2.59361E+01 -2.70840E+01 -3.23341E+01 -3.27205E+01 -3.43877E+01 -3.62007E+01 -3.31644E+01 -3.20504E+01 -3.66498E+01 -3.35201E+01
  -3.49223E+01 -3.74324E+01 -3.87617E+01 -3.14280E+01 -3.89735E+01 -3.49709E+01 -3.76692E+01 -3.37333E+01 -4.00614E+01 -4.18057E+01
  -3.69585E+01 -3.82040E+01 -3.81550E+01 -3.75880E+01 -4.13843E+01 -4.49514E+01 -4.08657E+01 -3.91252E+01 -4.25871E+01 -4.11655E+01
  -3.67022E+01 -3.53446E+01 -3.07638E+01 -3.88882E+01 -3.48239E+01 -3.66277E+01 -3.38624E+01 -2.66738E+01 -2.85331E+01 -2.50063E+01
  -2.14653E+01 -2.10818E+01 -1.78093E+01 -1.45492E+01 -1.34056E+01 -1.12804E+01 -5.67447E+00 -8.17073E+00 -1.45890E+00  3.29865E+00
   8.27704E+00 -1.39925E+00  6.76836E+00  1.02476E+01  1.08305E+01  1.40984E+01  9.26281E+00  1.21195E+01  1.29402E+01  1.24167E+01
   1.33558E+01  1.24585E+01  1.04072E+01  9.25778E+00  1.35509E+01  1.51792E+01  1.00321E+01  1.47529E+01  1.14971E+01  1.18814E+01
   1.38137E+01  1.11619E+01  1.01806E+01  9.28388E+00  1.14462E+01  1.02857E+01  8.91248E+00  7.83079E+00  7.24097E+00  8.10271E+00
   4.87499E+00  1.10576E+01  1.05303E+01  7.88178E+00  7.97710E+00  8.65842E+00  8.23425E+00  5.67517E+00  8.96126E+00  1.06681E+01
   6.98895E+00  8.85213E+00  7.35351E+00  5.19026E+00  5.59938E+00  3.29700E+00  4.18572E+00  7.23521E+00  5.96908E+00  4.06894E+00
   4.58476E+00  1.49169E+00  1.89059E+00  5.01768E+00  7.79582E+00  9.05412E+00  5.54669E+00  6.64653E+00  6.74357E+00  5.81745E+00
   9.49038E+00  5.44412E+00  3.62044E+00  4.70991E+00  6.97466E+00  3.85465E+00  2.33194E+00  1.65099E+00  4.24010E+00  3.29521E+00
   2.84190E+00  7.89702E+00  4.85405E+00  2.92962E+00  4.34417E+00  3.77772E+00  6.14781E+00  3.07535E+00  1.75839E+00  6.66257E-01
  -6.84861E-01  1.91307E+00  4.54257E+00  2.74093E+00  6.13849E+00  9.89289E-01  5.01707E+00  2.19650E+00  3.04349E+00 -3.56181E+00
   3.00982E+00  5.40126E+00  1.66643E+00 -2.43286E+00  3.34508E+00  7.15743E+00  1.81086E+00  7.06529E+00  4.25720E+00  3.36124E-01
   6.18349E+00  4.65575E+00  6.46761E+00  3.62969E+00  4.86289E+00  6.01054E+00  2.73495E+00  7.23812E+00  1.72362E+00  4.87168E+00
   5.09047E+00  4.00140E+00  2.02025E+00  3.78090E+00  3.59441E+00  1.44078E+00  3.03908E+00  2.40333E+00  4.19604E+00  4.73986E+00
   8.45723E-01  7.77540E-01  1.50289E+00  1.73918E+00  2.77381E+00  1.68795E+00 -1.09303E-01  6.77940E+00 -5.25488E-01 -1.91284E-01
   2.13170E-02  3.62127E+00  1.97809E+00  5.01226E+00  2.55789E+00 -2.84694E-02  2.91762E+00  5.53426E-01 -8.28873E-01  6.14861E-01
   2.33357E+00  2.36310E+00  1.46155E+00  2.67566E+00  2.60069E+00  2.69371E+00 -1.27485E+00  1.61285E+00 -1.20714E+00  6.20641E+00
   2.72607E+00  2.57931E+00 -1.25497E-03  5.09634E+00  2.18173E+00  3.97917E+00 -3.33310E+00 -7.39262E-01 -4.05144E-02  6.17814E-01
   2.73544E-01  6.83352E-01  4.63316E+00  2.50486E+00 -1.46354E-01  9.29269E-01  1.33245E+00  1.70506E+00
 NY points of the fit to the data follow
   3.09858E+01  3.07836E+01  3.07638E+01  3.06966E+01  3.04496E+01  3.00609E+01  2.98763E+01  3.02100E+01  3.11254E+01  3.23707E+01
   3.35502E+01  3.43792E+01  3.47957E+01  3.48209E+01  3.44331E+01  3.35664E+01  3.22863E+01  3.08173E+01  2.94954E+01  2.86528E+01
   2.83714E+01  2.84551E+01  2.85016E+01  2.84718E+01  2.85551E+01  2.88685E+01  2.93998E+01  3.00261E+01  3.05673E+01  3.08818E+01
   3.09056E+01  3.06539E+01  3.01772E+01  2.95067E+01  2.87154E+01  2.79075E+01  2.71672E+01  2.65756E+01  2.62158E+01  2.60312E+01
   2.58228E+01  2.56411E+01  2.56809E+01  2.60729E+01  2.67624E+01  2.75501E+01  2.81714E+01  2.84037E+01  2.81649E+01  2.75217E+01
   2.65688E+01  2.53997E+01  2.41472E+01  2.30044E+01  2.21724E+01  2.18175E+01  2.19839E+01  2.24608E+01  2.29364E+01  2.32217E+01
   2.32595E+01  2.30537E+01  2.26517E+01  2.21269E+01  2.15572E+01  2.10107E+01  2.05616E+01  2.02818E+01  2.02169E+01  2.03201E+01
   2.04793E+01  2.05891E+01  2.05743E+01  2.04264E+01  2.01707E+01  1.98406E+01  1.94715E+01  1.90894E+01  1.87206E+01  1.83869E+01
   1.81130E+01  1.78855E+01  1.76320E+01  1.72894E+01  1.68380E+01  1.63098E+01  1.57718E+01  1.52962E+01  1.49460E+01  1.47516E+01
   1.47330E+01  1.48971E+01  1.52046E+01  1.55691E+01  1.58774E+01  1.60172E+01  1.58553E+01  1.53813E+01  1.51027E+01  1.55136E+01
   1.67834E+01  1.86805E+01  2.06648E+01  2.22065E+01  2.30126E+01  2.30347E+01  2.23059E+01  2.08197E+01  1.86933E+01  1.62800E+01
   1.40394E+01  1.23762E+01  1.15664E+01  1.15570E+01  1.17514E+01  1.19123E+01  1.20248E+01  1.20944E+01  1.21277E+01  1.21231E+01
   1.20040E+01  1.17524E+01  1.17725E+01  1.24494E+01  1.39014E+01  1.58922E+01  1.79101E+01  1.94829E+01  2.03863E+01  2.05890E+01
   2.01082E+01  1.88918E+01  1.69649E+01  1.46029E+01  1.22336E+01  1.02873E+01  9.10520E+00  8.68937E+00  8.56001E+00  8.53570E+00
   8.59779E+00  8.72888E+00  8.89249E+00  9.01883E+00  9.03583E+00  8.92931E+00  8.72292E+00  8.46335E+00  8.18743E+00  7.89348E+00
   7.57116E+00  7.21146E+00  6.83079E+00  6.48363E+00  6.19703E+00  5.96312E+00  5.74783E+00  5.52230E+00  5.27591E+00  4.99911E+00
   4.67851E+00  4.30177E+00  3.86438E+00  3.37591E+00  2.85704E+00  2.33480E+00  1.83414E+00  1.38981E+00  1.02976E+00  7.36168E-01
   4.78715E-01  2.17730E-01 -7.15531E-02 -3.81482E-01 -6.93375E-01 -1.00140E+00 -1.33074E+00 -1.72731E+00 -2.18627E+00 -2.65221E+00
  -3.04115E+00 -3.32746E+00 -3.53473E+00 -3.70755E+00 -3.88229E+00 -4.03544E+00 -4.10072E+00 -4.05695E+00 -3.94073E+00 -3.82271E+00
  -3.77809E+00 -3.86674E+00 -4.12551E+00 -4.54556E+00 -5.10276E+00 -5.73051E+00 -6.33461E+00 -6.83112E+00 -7.17213E+00 -7.34663E+00
  -7.36700E+00 -7.26631E+00 -7.12842E+00 -7.04298E+00 -7.07807E+00 -7.26815E+00 -7.60083E+00 -8.00879E+00 -8.38973E+00 -8.70865E+00
  -8.94340E+00 -9.05513E+00 -9.01838E+00 -8.84214E+00 -8.57522E+00 -8.28528E+00 -8.05382E+00 -7.96248E+00 -8.05320E+00 -8.30700E+00
  -8.66713E+00 -9.04200E+00 -9.34920E+00 -9.52962E+00 -9.54732E+00 -9.41257E+00 -9.21407E+00 -9.05186E+00 -9.00788E+00 -9.10896E+00
  -9.31323E+00 -9.54002E+00 -9.68031E+00 -9.65680E+00 -9.46105E+00 -9.13592E+00 -8.76750E+00 -8.47093E+00 -8.33093E+00 -8.39288E+00
  -8.62621E+00 -8.90814E+00 -9.09435E+00 -9.08493E+00 -8.84476E+00 -8.41834E+00 -7.89658E+00 -7.39879E+00 -7.23445E+00 -7.76161E+00
  -8.51099E+00 -8.70169E+00 -7.70334E+00 -5.39842E+00 -2.31274E+00  7.60452E-01  3.18896E+00  4.65804E+00  5.03667E+00  4.11394E+00
   1.75879E+00 -1.77687E+00 -5.92551E+00 -9.99820E+00 -1.32775E+01 -1.54036E+01 -1.70221E+01 -1.84984E+01 -1.98980E+01 -2.12132E+01
  -2.24291E+01 -2.35454E+01 -2.45818E+01 -2.55636E+01 -2.65163E+01 -2.74553E+01 -2.83914E+01 -2.93269E+01 -3.02486E+01 -3.11371E+01
  -3.19599E+01 -3.26908E+01 -3.33220E+01 -3.38550E+01 -3.43054E+01 -3.47095E+01 -3.50959E+01 -3.54702E+01 -3.58256E+01 -3.61520E+01
  -3.64409E+01 -3.66848E+01 -3.68768E+01 -3.70275E+01 -3.71547E+01 -3.72749E+01 -3.74075E+01 -3.75658E+01 -3.77540E+01 -3.79699E+01
  -3.82019E+01 -3.84311E+01 -3.86449E+01 -3.88320E+01 -3.89804E+01 -3.90783E+01 -3.91138E+01 -3.90744E+01 -3.89459E+01 -3.87049E+01
  -3.83283E+01 -3.77946E+01 -3.70840E+01 -3.61794E+01 -3.50668E+01 -3.37362E+01 -3.21820E+01 -3.04038E+01 -2.84064E+01 -2.62013E+01
  -2.38056E+01 -2.12427E+01 -1.85420E+01 -1.57381E+01 -1.28697E+01 -9.97896E+00 -7.10998E+00 -4.30721E+00 -1.61398E+00  9.28930E-01
   3.28485E+00  5.42244E+00  7.31698E+00  8.95113E+00  1.03155E+01  1.14087E+01  1.22369E+01  1.28136E+01  1.31581E+01  1.32932E+01
   1.32356E+01  1.30177E+01  1.27295E+01  1.24527E+01  1.22288E+01  1.20497E+01  1.18718E+01  1.16579E+01  1.13736E+01  1.09800E+01
   1.04837E+01  9.92412E+00  9.38099E+00  8.95606E+00  8.72359E+00  8.70980E+00  8.90512E+00  9.25624E+00  9.65785E+00  1.00376E+01
   1.03334E+01  1.04963E+01  1.05026E+01  1.03565E+01  1.01088E+01  9.81990E+00  9.48773E+00  9.10577E+00  8.67486E+00  8.20053E+00
   7.69160E+00  7.15941E+00  6.61712E+00  6.07918E+00  5.56066E+00  5.07650E+00  4.64098E+00  4.26690E+00  3.96503E+00  3.74347E+00
   3.60711E+00  3.55734E+00  3.59183E+00  3.70449E+00  3.88571E+00  4.12270E+00  4.40013E+00  4.70082E+00  5.00669E+00  5.29968E+00
   5.56270E+00  5.78043E+00  5.94020E+00  6.03261E+00  6.05185E+00  5.99594E+00  5.86673E+00  5.66950E+00  5.41267E+00  5.10711E+00
   4.76560E+00  4.40193E+00  4.03032E+00  3.66461E+00  3.31781E+00  3.00149E+00  2.72548E+00  2.49754E+00  2.32326E+00  2.20599E+00
   2.14695E+00  2.14535E+00  2.19856E+00  2.30237E+00  2.45127E+00  2.63863E+00  2.85721E+00  3.09918E+00  3.35658E+00  3.62145E+00
   3.88611E+00  4.14333E+00  4.38655E+00  4.60995E+00  4.80859E+00  4.97842E+00  5.11637E+00  5.22032E+00  5.28912E+00  5.32245E+00
   5.32079E+00  5.28534E+00  5.21791E+00  5.12078E+00  4.99666E+00  4.84851E+00  4.67947E+00  4.49272E+00  4.29151E+00  4.07897E+00
   3.85813E+00  3.63181E+00  3.40262E+00  3.17295E+00  2.94497E+00  2.72057E+00  2.50141E+00  2.28891E+00  2.08423E+00  1.88838E+00
   1.70217E+00  1.52623E+00  1.36104E+00  1.20692E+00  1.06412E+00  9.32764E-01  8.12927E-01  7.04584E-01  6.07667E-01  5.22030E-01
   4.47527E-01  3.83960E-01  3.31140E-01  2.88826E-01  2.56763E-01  2.34701E-01  2.22396E-01  2.19590E-01  2.26044E-01  2.41490E-01
   2.65669E-01  2.98333E-01  3.39257E-01  3.88208E-01  4.44974E-01  5.09306E-01  5.80998E-01  6.59843E-01  7.45656E-01  8.38242E-01
   9.37418E-01  1.04299E+00  1.15480E+00  1.27266E+00  1.39644E+00  1.52598E+00  1.66114E+00  1.80174E+00  1.94766E+00  2.09877E+00
   2.25496E+00  2.41607E+00  2.58200E+00  2.75260E+00  2.92779E+00  3.10744E+00  3.29145E+00  3.47970E+00
 NY background values follow
     2.054E+01    2.049E+01    2.044E+01    2.038E+01    2.033E+01    2.026E+01    2.020E+01    2.013E+01    2.005E+01    1.998E+01
     1.990E+01    1.981E+01    1.973E+01    1.964E+01    1.955E+01    1.945E+01    1.936E+01    1.925E+01    1.915E+01    1.904E+01
     1.893E+01    1.882E+01    1.870E+01    1.859E+01    1.846E+01    1.834E+01    1.821E+01    1.808E+01    1.795E+01    1.782E+01
     1.768E+01    1.754E+01    1.740E+01    1.725E+01    1.711E+01    1.696E+01    1.680E+01    1.665E+01    1.649E+01    1.633E+01
     1.617E+01    1.601E+01    1.584E+01    1.568E+01    1.551E+01    1.533E+01    1.516E+01    1.499E+01    1.481E+01    1.463E+01
     1.445E+01    1.427E+01    1.408E+01    1.390E+01    1.371E+01    1.352E+01    1.333E+01    1.314E+01    1.295E+01    1.275E+01
     1.256E+01    1.237E+01    1.217E+01    1.197E+01    1.178E+01    1.158E+01    1.138E+01    1.118E+01    1.098E+01    1.078E+01
     1.059E+01    1.039E+01    1.019E+01    9.987E+00    9.788E+00    9.589E+00    9.390E+00    9.192E+00    8.994E+00    8.797E+00
     8.601E+00    8.405E+00    8.210E+00    8.016E+00    7.823E+00    7.632E+00    7.441E+00    7.252E+00    7.064E+00    6.878E+00
     6.693E+00    6.510E+00    6.328E+00    6.148E+00    5.970E+00    5.794E+00    5.619E+00    5.445E+00    5.273E+00    5.103E+00
     4.934E+00    4.767E+00    4.601E+00    4.437E+00    4.273E+00    4.112E+00    3.951E+00    3.792E+00    3.634E+00    3.478E+00
     3.322E+00    3.168E+00    3.015E+00    2.862E+00    2.711E+00    2.561E+00    2.412E+00    2.264E+00    2.116E+00    1.970E+00
     1.824E+00    1.679E+00    1.535E+00    1.391E+00    1.248E+00    1.106E+00    9.639E-01    8.225E-01    6.815E-01    5.408E-01
     4.005E-01    2.604E-01    1.206E-01   -1.908E-02   -1.586E-01   -2.981E-01   -4.375E-01   -5.770E-01   -7.165E-01   -8.562E-01
    -9.959E-01   -1.136E+00   -1.276E+00   -1.416E+00   -1.557E+00   -1.697E+00   -1.838E+00   -1.980E+00   -2.121E+00   -2.264E+00
    -2.406E+00   -2.549E+00   -2.693E+00   -2.837E+00   -2.981E+00   -3.126E+00   -3.272E+00   -3.419E+00   -3.566E+00   -3.713E+00
    -3.862E+00   -4.011E+00   -4.162E+00   -4.313E+00   -4.465E+00   -4.617E+00   -4.771E+00   -4.926E+00   -5.082E+00   -5.239E+00
    -5.397E+00   -5.556E+00   -5.716E+00   -5.878E+00   -6.040E+00   -6.204E+00   -6.370E+00   -6.536E+00   -6.704E+00   -6.874E+00
    -7.044E+00   -7.217E+00   -7.390E+00   -7.566E+00   -7.743E+00   -7.921E+00   -8.101E+00   -8.283E+00   -8.467E+00   -8.653E+00
    -8.840E+00   -9.030E+00   -9.221E+00   -9.415E+00   -9.611E+00   -9.808E+00   -1.001E+01   -1.021E+01   -1.041E+01   -1.062E+01
    -1.083E+01   -1.104E+01   -1.126E+01   -1.147E+01   -1.169E+01   -1.191E+01   -1.214E+01   -1.236E+01   -1.259E+01   -1.283E+01
    -1.306E+01   -1.330E+01   -1.354E+01   -1.378E+01   -1.403E+01   -1.428E+01   -1.453E+01   -1.479E+01   -1.505E+01   -1.531E+01
    -1.558E+01   -1.584E+01   -1.612E+01   -1.639E+01   -1.667E+01   -1.695E+01   -1.724E+01   -1.753E+01   -1.782E+01   -1.811E+01
    -1.841E+01   -1.871E+01   -1.902E+01   -1.932E+01   -1.963E+01   -1.994E+01   -2.025E+01   -2.057E+01   -2.088E+01   -2.120E+01
    -2.152E+01   -2.184E+01   -2.216E+01   -2.248E+01   -2.281E+01   -2.313E+01   -2.345E+01   -2.378E+01   -2.410E+01   -2.443E+01
    -2.475E+01   -2.508E+01   -2.540E+01   -2.572E+01   -2.605E+01   -2.637E+01   -2.669E+01   -2.701E+01   -2.732E+01   -2.764E+01
    -2.796E+01   -2.827E+01   -2.858E+01   -2.889E+01   -2.919E+01   -2.950E+01   -2.980E+01   -3.010E+01   -3.039E+01   -3.069E+01
    -3.098E+01   -3.126E+01   -3.155E+01   -3.183E+01   -3.210E+01   -3.238E+01   -3.265E+01   -3.291E+01   -3.318E+01   -3.344E+01
    -3.369E+01   -3.394E+01   -3.419E+01   -3.444E+01   -3.468E+01   -3.492E+01   -3.516E+01   -3.539E+01   -3.562E+01   -3.584E+01
    -3.606E+01   -3.628E+01   -3.650E+01   -3.671E+01   -3.691E+01   -3.712E+01   -3.732E+01   -3.752E+01   -3.771E+01   -3.790E+01
    -3.809E+01   -3.827E+01   -3.845E+01   -3.862E+01   -3.880E+01   -3.897E+01   -3.913E+01   -3.929E+01   -3.945E+01   -3.961E+01
    -3.976E+01   -3.991E+01   -4.005E+01   -4.019E+01   -4.033E+01   -4.046E+01   -4.059E+01   -4.072E+01   -4.084E+01   -4.096E+01
    -4.108E+01   -4.119E+01   -4.130E+01   -4.141E+01   -4.151E+01   -4.161E+01   -4.171E+01   -4.180E+01   -4.189E+01   -4.197E+01
    -4.205E+01   -4.213E+01   -4.221E+01   -4.228E+01   -4.235E+01   -4.241E+01   -4.247E+01   -4.253E+01   -4.258E+01   -4.263E+01
    -4.268E+01   -4.272E+01   -4.276E+01   -4.280E+01   -4.283E+01   -4.286E+01   -4.289E+01   -4.291E+01   -4.293E+01   -4.294E+01
    -4.295E+01   -4.296E+01   -4.297E+01   -4.297E+01   -4.297E+01   -4.296E+01   -4.295E+01   -4.294E+01   -4.293E+01   -4.291E+01
    -4.289E+01   -4.286E+01   -4.283E+01   -4.280E+01   -4.276E+01   -4.272E+01   -4.268E+01   -4.264E+01   -4.259E+01   -4.253E+01
    -4.248E+01   -4.242E+01   -4.236E+01   -4.229E+01   -4.222E+01   -4.215E+01   -4.208E+01   -4.200E+01   -4.191E+01   -4.183E+01
    -4.174E+01   -4.165E+01   -4.155E+01   -4.146E+01   -4.136E+01   -4.125E+01   -4.114E+01   -4.103E+01   -4.092E+01   -4.080E+01
    -4.068E+01   -4.056E+01   -4.043E+01   -4.030E+01   -4.017E+01   -4.004E+01   -3.990E+01   -3.976E+01   -3.961E+01   -3.946E+01
    -3.931E+01   -3.916E+01   -3.900E+01   -3.884E+01   -3.868E+01   -3.852E+01   -3.835E+01   -3.818E+01   -3.800E+01   -3.783E+01
    -3.765E+01   -3.746E+01   -3.728E+01   -3.709E+01   -3.690E+01   -3.671E+01   -3.651E+01   -3.631E+01   -3.611E+01   -3.591E+01
    -3.570E+01   -3.549E+01   -3.528E+01   -3.507E+01   -3.485E+01   -3.463E+01   -3.441E+01   -3.418E+01   -3.396E+01   -3.373E+01
    -3.350E+01   -3.326E+01   -3.303E+01   -3.279E+01   -3.255E+01   -3.231E+01   -3.206E+01   -3.181E+01   -3.156E+01   -3.131E+01
    -3.106E+01   -3.080E+01   -3.054E+01   -3.028E+01   -3.002E+01   -2.976E+01   -2.949E+01   -2.922E+01   -2.895E+01   -2.868E+01
    -2.840E+01   -2.813E+01   -2.785E+01   -2.757E+01   -2.728E+01   -2.700E+01   -2.671E+01   -2.642E+01   -2.613E+01   -2.584E+01
    -2.555E+01   -2.525E+01   -2.495E+01   -2.465E+01   -2.435E+01   -2.405E+01   -2.374E+01   -2.343E+01   -2.312E+01   -2.281E+01
    -2.250E+01   -2.218E+01   -2.187E+01   -2.155E+01   -2.123E+01   -2.091E+01   -2.058E+01   -2.026E+01   -1.993E+01   -1.960E+01
    -1.927E+01   -1.894E+01   -1.860E+01   -1.827E+01   -1.793E+01   -1.759E+01   -1.725E+01   -1.691E+01   -1.656E+01   -1.621E+01
    -1.587E+01   -1.552E+01   -1.517E+01   -1.481E+01   -1.446E+01   -1.410E+01   -1.374E+01   -1.338E+01
 Asp      Conc. = 4.38E+01
