 LCModel (Version 6.3-1L) Copyright: S.W. Provencher.          Ref.: Magn. Reson. Med. 30:672-679 (1993).                
 Slice#3 Row#13 Col#3  K_02_press_1_raw_act
 36 lines in following concentration table = NCONC+1
    Conc.  %SD /Cr+PCr  Metabolite                                         
    0.000 999%   0.000 Ala                                                 
    0.000 999%   0.000 Asp                                                 
    0.000 999%   0.000 Cr                                                  
  462.035  14%   1.000 PCr                                                 
   92.969  92%   0.201 GABA                                                
    0.000 999%   0.000 Glc                                                 
 3.45E+03  20%   7.463 Gln                                                 
  966.268  88%   2.091 Glu                                                 
  253.209  11%   0.548 GPC                                                 
    0.000 999%   0.000 PCh                                                 
    0.000 999%   0.000 GSH                                                 
 4.69E+03   7%  10.157 Ins                                                 
    0.000 999%   0.000 Lac                                                 
    6.811 999% 1.5E-02 NAA                                                 
  349.683  47%   0.757 NAAG                                                
   13.847 163% 3.0E-02 Scyllo                                              
    0.000 999%   0.000 Tau                                                 
    0.000 999%   0.000 -CrCH2                                              
  253.209  11%   0.548 GPC+PCh                                             
  356.494  27%   0.772 NAA+NAAG                                            
  462.035  14%   1.000 Cr+PCr                                              
 4.41E+03  32%   9.554 Glu+Gln                                             
  708.147  44%   1.533 Lip13a                                              
   49.919 192%   0.108 Lip13b                                              
  193.874  38%   0.420 Lip09                                               
 1.32E+03  14%   2.856 MM09                                                
  121.148  35%   0.262 Lip20                                               
 2.17E+03  13%   4.688 MM20                                                
  403.946  16%   0.874 MM12                                                
  636.613  31%   1.378 MM14                                                
  636.656  17%   1.378 MM17                                                
  758.066  34%   1.641 Lip13a+Lip13b                                       
 1.80E+03  19%   3.893 MM14+Lip13a+Lip13b+MM12                             
 1.51E+03  13%   3.276 MM09+Lip09                                          
 2.29E+03  13%   4.950 MM20+Lip20                                          
   6 lines in following misc. output table
  FWHM = 0.183 ppm    S/N =   5                                            
  Data shift = 0.145 ppm                                                   
  Ph: 158 deg      35.3 deg/ppm                                            
  alphaB,S = 8.9E-01,   2.2E+02                                            
   11 spline knots.   Ns = 9(2)                                            
  (14) 4 infls.   ( 9) 1 extrs.                                            
  498 points on ppm-axis = NY
      4.000000     3.992357     3.984714     3.977070     3.969427     3.961784     3.954141     3.946497     3.938854     3.931211
      3.923568     3.915925     3.908281     3.900638     3.892995     3.885352     3.877708     3.870065     3.862422     3.854779
      3.847136     3.839492     3.831849     3.824206     3.816563     3.808919     3.801276     3.793633     3.785990     3.778347
      3.770703     3.763060     3.755417     3.747774     3.740130     3.732487     3.724844     3.717201     3.709558     3.701914
      3.694271     3.686628     3.678985     3.671341     3.663698     3.656055     3.648412     3.640769     3.633125     3.625482
      3.617839     3.610196     3.602552     3.594909     3.587266     3.579623     3.571980     3.564336     3.556693     3.549050
      3.541407     3.533763     3.526120     3.518477     3.510834     3.503191     3.495547     3.487904     3.480261     3.472618
      3.464974     3.457331     3.449688     3.442045     3.434402     3.426758     3.419115     3.411472     3.403829     3.396185
      3.388542     3.380899     3.373256     3.365613     3.357969     3.350326     3.342683     3.335040     3.327396     3.319753
      3.312110     3.304467     3.296824     3.289180     3.281537     3.273894     3.266251     3.258607     3.250964     3.243321
      3.235678     3.228034     3.220391     3.212748     3.205105     3.197462     3.189818     3.182175     3.174532     3.166889
      3.159245     3.151602     3.143959     3.136316     3.128673     3.121029     3.113386     3.105743     3.098100     3.090456
      3.082813     3.075170     3.067527     3.059884     3.052240     3.044597     3.036954     3.029311     3.021667     3.014024
      3.006381     2.998738     2.991095     2.983451     2.975808     2.968165     2.960522     2.952878     2.945235     2.937592
      2.929949     2.922306     2.914662     2.907019     2.899376     2.891733     2.884089     2.876446     2.868803     2.861160
      2.853517     2.845873     2.838230     2.830587     2.822944     2.815300     2.807657     2.800014     2.792371     2.784728
      2.777084     2.769441     2.761798     2.754155     2.746511     2.738868     2.731225     2.723582     2.715939     2.708295
      2.700652     2.693009     2.685366     2.677722     2.670079     2.662436     2.654793     2.647150     2.639506     2.631863
      2.624220     2.616577     2.608933     2.601290     2.593647     2.586004     2.578361     2.570717     2.563074     2.555431
      2.547788     2.540144     2.532501     2.524858     2.517215     2.509572     2.501928     2.494285     2.486642     2.478999
      2.471355     2.463712     2.456069     2.448426     2.440783     2.433139     2.425496     2.417853     2.410210     2.402566
      2.394923     2.387280     2.379637     2.371994     2.364350     2.356707     2.349064     2.341421     2.333777     2.326134
      2.318491     2.310848     2.303205     2.295561     2.287918     2.280275     2.272632     2.264988     2.257345     2.249702
      2.242059     2.234416     2.226772     2.219129     2.211486     2.203843     2.196199     2.188556     2.180913     2.173270
      2.165627     2.157983     2.150340     2.142697     2.135054     2.127410     2.119767     2.112124     2.104481     2.096838
      2.089194     2.081551     2.073908     2.066265     2.058621     2.050978     2.043335     2.035692     2.028049     2.020405
      2.012762     2.005119     1.997476     1.989833     1.982190     1.974546     1.966903     1.959260     1.951617     1.943974
      1.936331     1.928688     1.921045     1.913402     1.905759     1.898115     1.890472     1.882829     1.875186     1.867543
      1.859900     1.852257     1.844614     1.836971     1.829327     1.821684     1.814041     1.806398     1.798755     1.791112
      1.783469     1.775826     1.768183     1.760540     1.752896     1.745253     1.737610     1.729967     1.722324     1.714681
      1.707038     1.699395     1.691752     1.684108     1.676465     1.668822     1.661179     1.653536     1.645893     1.638250
      1.630607     1.622964     1.615321     1.607677     1.600034     1.592391     1.584748     1.577105     1.569462     1.561819
      1.554176     1.546533     1.538890     1.531246     1.523603     1.515960     1.508317     1.500674     1.493031     1.485388
      1.477745     1.470102     1.462458     1.454815     1.447172     1.439529     1.431886     1.424243     1.416600     1.408957
      1.401314     1.393671     1.386027     1.378384     1.370741     1.363098     1.355455     1.347812     1.340169     1.332526
      1.324883     1.317240     1.309596     1.301953     1.294310     1.286667     1.279024     1.271381     1.263738     1.256095
      1.248452     1.240808     1.233165     1.225522     1.217879     1.210236     1.202593     1.194950     1.187307     1.179664
      1.172021     1.164377     1.156734     1.149091     1.141448     1.133805     1.126162     1.118519     1.110876     1.103233
      1.095590     1.087946     1.080303     1.072660     1.065017     1.057374     1.049731     1.042088     1.034445     1.026802
      1.019158     1.011515     1.003872     0.996229     0.988586     0.980943     0.973300     0.965657     0.958014     0.950371
      0.942727     0.935084     0.927441     0.919798     0.912155     0.904512     0.896869     0.889226     0.881583     0.873940
      0.866296     0.858653     0.851010     0.843367     0.835724     0.828081     0.820438     0.812795     0.805152     0.797508
      0.789865     0.782222     0.774579     0.766936     0.759293     0.751650     0.744007     0.736364     0.728721     0.721077
      0.713434     0.705791     0.698148     0.690505     0.682862     0.675219     0.667576     0.659933     0.652290     0.644646
      0.637003     0.629360     0.621717     0.614074     0.606431     0.598788     0.591145     0.583502     0.575858     0.568215
      0.560572     0.552929     0.545286     0.537643     0.530000     0.522357     0.514714     0.507071     0.499427     0.491784
      0.484141     0.476498     0.468855     0.461212     0.453569     0.445925     0.438282     0.430639     0.422996     0.415353
      0.407710     0.400067     0.392424     0.384780     0.377137     0.369494     0.361851     0.354208     0.346565     0.338922
      0.331278     0.323635     0.315992     0.308349     0.300706     0.293063     0.285420     0.277777     0.270133     0.262490
      0.254847     0.247204     0.239561     0.231918     0.224275     0.216631     0.208988     0.201345
 NY phased data points follow
   2.31669E+02  2.27657E+02  2.25368E+02  2.24281E+02  2.21054E+02  2.17408E+02  2.15188E+02  2.10978E+02  2.07363E+02  2.07459E+02
   2.04978E+02  2.03744E+02  1.98738E+02  1.95596E+02  1.95539E+02  1.91848E+02  1.89340E+02  1.86996E+02  1.86310E+02  1.81895E+02
   1.79951E+02  1.82421E+02  1.78406E+02  1.76386E+02  1.73698E+02  1.73645E+02  1.74633E+02  1.72536E+02  1.68137E+02  1.65955E+02
   1.66337E+02  1.64128E+02  1.63951E+02  1.63481E+02  1.62150E+02  1.61126E+02  1.58912E+02  1.57353E+02  1.57292E+02  1.56051E+02
   1.55537E+02  1.53948E+02  1.54481E+02  1.51917E+02  1.50404E+02  1.51049E+02  1.52416E+02  1.47688E+02  1.46131E+02  1.44301E+02
   1.43831E+02  1.43242E+02  1.40699E+02  1.39908E+02  1.38468E+02  1.34502E+02  1.34653E+02  1.33861E+02  1.32608E+02  1.31803E+02
   1.29823E+02  1.26019E+02  1.22845E+02  1.23642E+02  1.23382E+02  1.20741E+02  1.19465E+02  1.20706E+02  1.18057E+02  1.16066E+02
   1.15687E+02  1.12415E+02  1.12265E+02  1.12485E+02  1.11156E+02  1.06689E+02  1.07928E+02  1.06046E+02  1.04541E+02  1.02604E+02
   9.88315E+01  1.02283E+02  1.00263E+02  9.91490E+01  9.59113E+01  9.56250E+01  9.57639E+01  9.74097E+01  9.75869E+01  9.68527E+01
   9.63971E+01  9.60951E+01  9.51053E+01  9.49295E+01  9.31728E+01  9.53064E+01  9.20354E+01  9.43347E+01  9.21402E+01  9.10591E+01
   9.02889E+01  9.30671E+01  8.86037E+01  9.00463E+01  8.94435E+01  8.72687E+01  8.89267E+01  8.78015E+01  8.74959E+01  8.48709E+01
   8.43223E+01  8.62928E+01  8.55338E+01  8.67312E+01  8.71317E+01  8.47573E+01  8.61763E+01  8.62381E+01  8.41746E+01  8.28351E+01
   8.43874E+01  8.38472E+01  8.53242E+01  8.26263E+01  8.36634E+01  8.31003E+01  8.43225E+01  8.12441E+01  8.07826E+01  8.15352E+01
   8.06378E+01  7.88889E+01  7.92404E+01  7.97338E+01  7.83186E+01  7.69551E+01  7.92255E+01  7.85362E+01  7.48229E+01  7.72902E+01
   7.66795E+01  7.55391E+01  7.33176E+01  7.38237E+01  7.43001E+01  7.24062E+01  7.34124E+01  7.33554E+01  7.39270E+01  7.21705E+01
   7.31347E+01  7.16218E+01  7.30572E+01  7.24223E+01  7.27936E+01  7.15474E+01  6.97287E+01  7.06578E+01  6.95683E+01  6.88545E+01
   6.94864E+01  6.86375E+01  6.92721E+01  6.85091E+01  6.80333E+01  6.85205E+01  6.79079E+01  6.56707E+01  6.87861E+01  6.56464E+01
   6.84369E+01  6.45122E+01  6.66070E+01  6.66756E+01  6.42234E+01  6.25210E+01  6.27825E+01  6.42316E+01  6.39273E+01  6.50822E+01
   6.38962E+01  6.25301E+01  6.00577E+01  6.14453E+01  6.14272E+01  6.09897E+01  6.12927E+01  6.17050E+01  6.10430E+01  6.15636E+01
   5.90703E+01  6.08431E+01  5.98439E+01  6.09477E+01  6.12988E+01  6.10550E+01  5.95656E+01  5.86621E+01  5.64667E+01  5.82846E+01
   5.83539E+01  5.89171E+01  5.85432E+01  5.94653E+01  5.81215E+01  5.82039E+01  5.94932E+01  5.55540E+01  5.93651E+01  5.90801E+01
   5.75888E+01  6.04316E+01  6.02788E+01  5.78732E+01  5.84037E+01  5.96514E+01  5.79869E+01  5.76892E+01  6.11972E+01  5.98210E+01
   6.06047E+01  6.02541E+01  6.00566E+01  6.10977E+01  5.97868E+01  6.45711E+01  6.22038E+01  6.07262E+01  6.37081E+01  6.22834E+01
   6.25441E+01  5.91568E+01  6.24381E+01  5.98799E+01  6.08089E+01  5.88833E+01  6.06943E+01  5.93861E+01  6.00503E+01  6.20541E+01
   6.04416E+01  5.90182E+01  6.29019E+01  6.12760E+01  6.55881E+01  6.54230E+01  6.46137E+01  6.44270E+01  6.29354E+01  6.26081E+01
   6.37053E+01  6.63246E+01  6.44265E+01  6.11423E+01  6.36030E+01  6.18738E+01  6.19602E+01  6.16533E+01  6.20661E+01  6.32649E+01
   6.27783E+01  6.17891E+01  6.27404E+01  5.95343E+01  6.22969E+01  5.83640E+01  6.08039E+01  5.55665E+01  5.77792E+01  5.51482E+01
   5.77419E+01  5.59101E+01  5.53323E+01  5.41352E+01  5.38571E+01  5.56167E+01  5.21667E+01  5.20129E+01  5.22112E+01  5.37947E+01
   4.80678E+01  5.00607E+01  5.10823E+01  4.68231E+01  4.61166E+01  4.76665E+01  4.81948E+01  4.40716E+01  4.61626E+01  4.77540E+01
   4.81758E+01  4.44501E+01  4.40086E+01  4.39378E+01  4.41206E+01  4.16579E+01  4.32904E+01  4.18468E+01  4.27387E+01  4.20422E+01
   3.89259E+01  3.97023E+01  3.88728E+01  3.95572E+01  3.63522E+01  3.65854E+01  3.95135E+01  3.67366E+01  3.44967E+01  3.37771E+01
   3.36467E+01  3.37534E+01  3.10128E+01  3.03880E+01  2.78827E+01  2.79072E+01  2.90776E+01  2.81528E+01  2.69087E+01  2.79773E+01
   2.46810E+01  2.54414E+01  2.46029E+01  2.51974E+01  2.45408E+01  2.26742E+01  2.15209E+01  2.12388E+01  2.16598E+01  2.11897E+01
   1.71258E+01  1.95997E+01  2.04544E+01  1.94818E+01  1.87549E+01  1.89199E+01  1.65133E+01  1.88586E+01  1.74340E+01  1.70217E+01
   1.63410E+01  1.51281E+01  1.62585E+01  1.39349E+01  1.62802E+01  1.62095E+01  1.55386E+01  1.31217E+01  1.12906E+01  1.28032E+01
   1.25037E+01  1.12715E+01  1.08529E+01  1.36074E+01  1.22179E+01  1.18700E+01  1.28775E+01  1.27311E+01  1.13555E+01  1.29386E+01
   1.06692E+01  1.01399E+01  9.07369E+00  1.06487E+01  9.68078E+00  7.55067E+00  8.22628E+00  8.06106E+00  8.13345E+00  8.54771E+00
   4.06536E+00  5.48319E+00  8.22654E+00  5.97592E+00  6.73139E+00  3.72544E+00  6.68470E+00  4.79347E+00  5.28999E+00  4.63706E+00
   3.94602E+00  4.56214E+00  5.26529E+00  5.25248E+00  4.89445E+00  8.78583E-01  4.10275E+00  2.98331E+00  5.48975E+00  5.04912E+00
   2.54769E+00  1.08803E+00  3.74282E+00  5.22967E+00  4.13459E+00  1.31886E+00  1.22627E+00  3.43719E+00  5.12511E+00  1.47232E+00
   3.52358E-01  1.48172E+00  2.52669E+00  1.78725E+00  9.43878E-01  7.99782E-01  5.90204E-01  1.12562E+00  4.89869E-02 -9.23971E-01
  -1.53604E-01 -2.05954E+00 -1.28501E+00 -2.34253E+00 -3.81726E+00 -1.90908E+00 -1.82621E+00 -3.94716E+00 -4.36351E+00 -4.79357E+00
  -2.94196E+00 -2.71964E+00 -4.47688E+00 -3.67966E+00 -3.53528E+00 -2.43389E+00 -5.39685E+00 -5.13602E+00 -5.76702E+00 -5.44683E+00
  -5.29198E+00 -3.88375E+00 -5.64902E+00 -6.38797E+00 -5.62707E+00 -4.50322E+00 -5.30506E+00 -5.10785E+00 -4.18888E+00 -3.79210E+00
  -3.52079E+00 -2.78060E+00 -4.72371E+00 -3.90599E+00 -3.46447E+00 -3.87489E+00 -4.66816E+00 -6.20522E+00 -6.68947E+00 -5.34918E+00
  -3.89287E+00 -5.10437E+00 -3.41297E+00 -5.39120E+00 -6.82357E+00 -4.37203E+00 -5.85255E+00 -6.85719E+00 -6.16469E+00 -6.10482E+00
  -6.15443E+00 -4.79175E+00 -5.79565E+00 -4.12607E+00 -7.10639E+00 -5.02897E+00 -8.61143E+00 -7.89181E+00 -6.93995E+00 -8.95110E+00
  -8.00362E+00 -7.60375E+00 -8.11713E+00 -7.26347E+00 -8.46022E+00 -7.11965E+00 -7.79874E+00 -6.91167E+00 -8.33061E+00 -9.13865E+00
  -7.08768E+00 -1.00737E+01 -6.77179E+00 -7.65170E+00 -6.75772E+00 -7.62128E+00 -5.67659E+00 -6.64916E+00 -6.51995E+00 -6.61980E+00
  -5.22977E+00 -4.93724E+00 -5.54392E+00 -5.27452E+00 -5.45998E+00 -6.92607E+00 -3.07308E+00 -5.74600E+00
 NY points of the fit to the data follow
   2.27988E+02  2.25672E+02  2.23701E+02  2.21223E+02  2.19041E+02  2.16399E+02  2.14057E+02  2.11471E+02  2.08991E+02  2.06438E+02
   2.03896E+02  2.01369E+02  1.98867E+02  1.96445E+02  1.94178E+02  1.92081E+02  1.90248E+02  1.88231E+02  1.86673E+02  1.84661E+02
   1.83057E+02  1.81058E+02  1.79357E+02  1.77472E+02  1.75732E+02  1.74020E+02  1.72243E+02  1.70642E+02  1.68695E+02  1.67266E+02
   1.65682E+02  1.64751E+02  1.63569E+02  1.63041E+02  1.62137E+02  1.61663E+02  1.60688E+02  1.59949E+02  1.58756E+02  1.57800E+02
   1.56413E+02  1.55392E+02  1.53999E+02  1.52952E+02  1.51434E+02  1.50244E+02  1.48651E+02  1.47406E+02  1.45751E+02  1.44472E+02
   1.42930E+02  1.41644E+02  1.40188E+02  1.38839E+02  1.37596E+02  1.36197E+02  1.34881E+02  1.33424E+02  1.31965E+02  1.30446E+02
   1.28761E+02  1.27303E+02  1.25601E+02  1.24333E+02  1.22806E+02  1.21793E+02  1.20358E+02  1.19504E+02  1.18006E+02  1.17171E+02
   1.15816E+02  1.15062E+02  1.13477E+02  1.12480E+02  1.10634E+02  1.09560E+02  1.07644E+02  1.06672E+02  1.04816E+02  1.04070E+02
   1.02216E+02  1.01587E+02  9.97544E+01  9.93130E+01  9.78637E+01  9.76560E+01  9.65706E+01  9.65504E+01  9.56642E+01  9.57502E+01
   9.48309E+01  9.49562E+01  9.39181E+01  9.40473E+01  9.29855E+01  9.32457E+01  9.22194E+01  9.25680E+01  9.14514E+01  9.18250E+01
   9.06539E+01  9.10003E+01  8.98622E+01  9.01424E+01  8.91413E+01  8.93417E+01  8.83693E+01  8.85147E+01  8.77499E+01  8.78070E+01
   8.72244E+01  8.71608E+01  8.67811E+01  8.65947E+01  8.62027E+01  8.58412E+01  8.55427E+01  8.50771E+01  8.49538E+01  8.44501E+01
   8.44854E+01  8.38593E+01  8.38404E+01  8.31362E+01  8.33165E+01  8.26395E+01  8.27443E+01  8.20503E+01  8.21692E+01  8.14811E+01
   8.15539E+01  8.08452E+01  8.07817E+01  8.00461E+01  7.98224E+01  7.90823E+01  7.87309E+01  7.79795E+01  7.74303E+01  7.66939E+01
   7.60578E+01  7.53886E+01  7.47560E+01  7.41774E+01  7.35917E+01  7.30859E+01  7.25086E+01  7.21084E+01  7.17305E+01  7.14002E+01
   7.10471E+01  7.07343E+01  7.03892E+01  7.00910E+01  6.97516E+01  6.94668E+01  6.91343E+01  6.88577E+01  6.85378E+01  6.82693E+01
   6.79600E+01  6.77049E+01  6.74044E+01  6.71621E+01  6.68662E+01  6.66330E+01  6.63561E+01  6.61336E+01  6.58819E+01  6.56720E+01
   6.54477E+01  6.52489E+01  6.50553E+01  6.48720E+01  6.47204E+01  6.45448E+01  6.43775E+01  6.41885E+01  6.39167E+01  6.36636E+01
   6.32667E+01  6.29381E+01  6.24731E+01  6.21738E+01  6.18351E+01  6.16923E+01  6.15519E+01  6.16759E+01  6.16955E+01  6.19952E+01
   6.20243E+01  6.22053E+01  6.18078E+01  6.17796E+01  6.10243E+01  6.09121E+01  6.00328E+01  6.00010E+01  5.92630E+01  5.93157E+01
   5.88127E+01  5.88650E+01  5.85889E+01  5.85985E+01  5.84834E+01  5.85032E+01  5.86711E+01  5.87481E+01  5.91517E+01  5.92381E+01
   5.96943E+01  5.96786E+01  5.99846E+01  5.98478E+01  6.00595E+01  5.98995E+01  6.01897E+01  6.00289E+01  6.02719E+01  6.01190E+01
   6.02878E+01  6.02835E+01  6.05640E+01  6.08831E+01  6.12567E+01  6.16411E+01  6.19548E+01  6.21751E+01  6.23268E+01  6.22116E+01
   6.22414E+01  6.17276E+01  6.15065E+01  6.08409E+01  6.08654E+01  6.01948E+01  6.04204E+01  5.98001E+01  6.03706E+01  5.97828E+01
   6.07013E+01  6.01425E+01  6.14359E+01  6.08697E+01  6.23783E+01  6.16735E+01  6.33076E+01  6.24189E+01  6.41139E+01  6.30441E+01
   6.46499E+01  6.34071E+01  6.47511E+01  6.33520E+01  6.43998E+01  6.30856E+01  6.39451E+01  6.27670E+01  6.33583E+01  6.22677E+01
   6.26797E+01  6.16184E+01  6.18274E+01  6.08472E+01  6.08011E+01  5.97081E+01  5.94551E+01  5.83039E+01  5.77839E+01  5.66619E+01
   5.60134E+01  5.49877E+01  5.42800E+01  5.34112E+01  5.27312E+01  5.19903E+01  5.13249E+01  5.07386E+01  5.02348E+01  4.97339E+01
   4.92764E+01  4.88028E+01  4.83976E+01  4.79704E+01  4.76089E+01  4.72163E+01  4.68858E+01  4.65037E+01  4.61764E+01  4.57905E+01
   4.54428E+01  4.50285E+01  4.46352E+01  4.41721E+01  4.37161E+01  4.31938E+01  4.26703E+01  4.20849E+01  4.14909E+01  4.08434E+01
   4.01857E+01  3.94869E+01  3.87812E+01  3.80470E+01  3.73119E+01  3.65628E+01  3.58178E+01  3.50699E+01  3.43322E+01  3.35985E+01
   3.28782E+01  3.21674E+01  3.14704E+01  3.07857E+01  3.01163E+01  2.94600E+01  2.88179E+01  2.81890E+01  2.75732E+01  2.69706E+01
   2.63796E+01  2.58006E+01  2.52331E+01  2.46768E+01  2.41314E+01  2.35966E+01  2.30717E+01  2.25566E+01  2.20506E+01  2.15532E+01
   2.10638E+01  2.05819E+01  2.01069E+01  1.96385E+01  1.91763E+01  1.87202E+01  1.82700E+01  1.78260E+01  1.73888E+01  1.69589E+01
   1.65376E+01  1.61261E+01  1.57263E+01  1.53404E+01  1.49710E+01  1.46212E+01  1.42942E+01  1.39931E+01  1.37205E+01  1.34777E+01
   1.32638E+01  1.30756E+01  1.29068E+01  1.27482E+01  1.25886E+01  1.24157E+01  1.22177E+01  1.19852E+01  1.17118E+01  1.13951E+01
   1.10368E+01  1.06415E+01  1.02160E+01  9.76814E+00  9.30561E+00  8.83543E+00  8.36366E+00  7.89548E+00  7.43544E+00  6.98777E+00
   6.55659E+00  6.14609E+00  5.76045E+00  5.40382E+00  5.07993E+00  4.79179E+00  4.54172E+00  4.33117E+00  4.16060E+00  4.02938E+00
   3.93575E+00  3.87684E+00  3.84873E+00  3.84652E+00  3.86455E+00  3.89653E+00  3.93580E+00  3.97557E+00  4.00915E+00  4.03022E+00
   4.03307E+00  4.01282E+00  3.96550E+00  3.88829E+00  3.77943E+00  3.63838E+00  3.46564E+00  3.26269E+00  3.03186E+00  2.77615E+00
   2.49906E+00  2.20435E+00  1.89591E+00  1.57760E+00  1.25307E+00  9.25695E-01  5.98465E-01  2.73990E-01 -4.55675E-02 -3.58440E-01
  -6.63260E-01 -9.58992E-01 -1.24490E+00 -1.52048E+00 -1.78545E+00 -2.03965E+00 -2.28306E+00 -2.51571E+00 -2.73774E+00 -2.94928E+00
  -3.15055E+00 -3.34176E+00 -3.52316E+00 -3.69504E+00 -3.85770E+00 -4.01146E+00 -4.15669E+00 -4.29376E+00 -4.42308E+00 -4.54507E+00
  -4.66015E+00 -4.76878E+00 -4.87140E+00 -4.96848E+00 -5.06046E+00 -5.14780E+00 -5.23088E+00 -5.30997E+00 -5.38531E+00 -5.45710E+00
  -5.52555E+00 -5.59083E+00 -5.65314E+00 -5.71263E+00 -5.76945E+00 -5.82373E+00 -5.87561E+00 -5.92518E+00 -5.97255E+00 -6.01781E+00
  -6.06106E+00 -6.10234E+00 -6.14175E+00 -6.17933E+00 -6.21515E+00 -6.24924E+00 -6.28166E+00 -6.31244E+00 -6.34161E+00 -6.36920E+00
  -6.39525E+00 -6.41978E+00 -6.44280E+00 -6.46433E+00 -6.48439E+00 -6.50300E+00 -6.52016E+00 -6.53589E+00 -6.55018E+00 -6.56306E+00
  -6.57452E+00 -6.58457E+00 -6.59321E+00 -6.60046E+00 -6.60631E+00 -6.61076E+00 -6.61382E+00 -6.61550E+00 -6.61579E+00 -6.61470E+00
  -6.61224E+00 -6.60842E+00 -6.60323E+00 -6.59670E+00 -6.58884E+00 -6.57966E+00 -6.56917E+00 -6.55741E+00 -6.54440E+00 -6.53018E+00
  -6.51480E+00 -6.49829E+00 -6.48074E+00 -6.46223E+00 -6.44285E+00 -6.42274E+00 -6.40206E+00 -6.38102E+00
 NY background values follow
     2.118E+02    2.099E+02    2.080E+02    2.061E+02    2.043E+02    2.024E+02    2.005E+02    1.987E+02    1.968E+02    1.950E+02
     1.931E+02    1.913E+02    1.895E+02    1.876E+02    1.858E+02    1.840E+02    1.822E+02    1.804E+02    1.786E+02    1.768E+02
     1.750E+02    1.733E+02    1.715E+02    1.698E+02    1.680E+02    1.663E+02    1.646E+02    1.629E+02    1.612E+02    1.595E+02
     1.578E+02    1.562E+02    1.545E+02    1.529E+02    1.513E+02    1.496E+02    1.480E+02    1.465E+02    1.449E+02    1.434E+02
     1.418E+02    1.403E+02    1.388E+02    1.373E+02    1.358E+02    1.344E+02    1.330E+02    1.315E+02    1.301E+02    1.288E+02
     1.274E+02    1.261E+02    1.247E+02    1.234E+02    1.222E+02    1.209E+02    1.197E+02    1.184E+02    1.172E+02    1.161E+02
     1.149E+02    1.138E+02    1.127E+02    1.116E+02    1.106E+02    1.095E+02    1.085E+02    1.075E+02    1.065E+02    1.056E+02
     1.047E+02    1.038E+02    1.029E+02    1.020E+02    1.012E+02    1.003E+02    9.954E+01    9.875E+01    9.799E+01    9.723E+01
     9.650E+01    9.579E+01    9.509E+01    9.441E+01    9.374E+01    9.309E+01    9.246E+01    9.184E+01    9.124E+01    9.065E+01
     9.008E+01    8.952E+01    8.897E+01    8.844E+01    8.792E+01    8.741E+01    8.691E+01    8.643E+01    8.596E+01    8.550E+01
     8.505E+01    8.461E+01    8.418E+01    8.376E+01    8.336E+01    8.296E+01    8.256E+01    8.218E+01    8.181E+01    8.144E+01
     8.108E+01    8.073E+01    8.039E+01    8.005E+01    7.972E+01    7.939E+01    7.907E+01    7.875E+01    7.844E+01    7.813E+01
     7.783E+01    7.753E+01    7.724E+01    7.695E+01    7.666E+01    7.637E+01    7.609E+01    7.580E+01    7.552E+01    7.525E+01
     7.497E+01    7.470E+01    7.443E+01    7.416E+01    7.390E+01    7.363E+01    7.337E+01    7.311E+01    7.286E+01    7.261E+01
     7.235E+01    7.211E+01    7.186E+01    7.162E+01    7.137E+01    7.113E+01    7.090E+01    7.066E+01    7.043E+01    7.020E+01
     6.998E+01    6.975E+01    6.953E+01    6.931E+01    6.909E+01    6.888E+01    6.867E+01    6.846E+01    6.825E+01    6.804E+01
     6.784E+01    6.764E+01    6.744E+01    6.725E+01    6.705E+01    6.686E+01    6.668E+01    6.649E+01    6.631E+01    6.613E+01
     6.595E+01    6.578E+01    6.560E+01    6.543E+01    6.526E+01    6.510E+01    6.494E+01    6.477E+01    6.462E+01    6.446E+01
     6.431E+01    6.416E+01    6.401E+01    6.386E+01    6.372E+01    6.358E+01    6.344E+01    6.331E+01    6.317E+01    6.304E+01
     6.292E+01    6.279E+01    6.266E+01    6.254E+01    6.242E+01    6.230E+01    6.218E+01    6.206E+01    6.195E+01    6.183E+01
     6.172E+01    6.160E+01    6.149E+01    6.138E+01    6.126E+01    6.115E+01    6.104E+01    6.092E+01    6.081E+01    6.070E+01
     6.058E+01    6.047E+01    6.035E+01    6.023E+01    6.011E+01    6.000E+01    5.987E+01    5.975E+01    5.963E+01    5.950E+01
     5.937E+01    5.924E+01    5.911E+01    5.898E+01    5.884E+01    5.870E+01    5.856E+01    5.841E+01    5.826E+01    5.811E+01
     5.796E+01    5.780E+01    5.764E+01    5.747E+01    5.730E+01    5.713E+01    5.695E+01    5.677E+01    5.658E+01    5.639E+01
     5.620E+01    5.600E+01    5.579E+01    5.558E+01    5.537E+01    5.515E+01    5.492E+01    5.469E+01    5.446E+01    5.421E+01
     5.397E+01    5.371E+01    5.345E+01    5.319E+01    5.292E+01    5.264E+01    5.236E+01    5.207E+01    5.178E+01    5.148E+01
     5.117E+01    5.086E+01    5.055E+01    5.023E+01    4.990E+01    4.957E+01    4.923E+01    4.889E+01    4.854E+01    4.819E+01
     4.783E+01    4.747E+01    4.710E+01    4.673E+01    4.635E+01    4.597E+01    4.558E+01    4.518E+01    4.479E+01    4.438E+01
     4.398E+01    4.356E+01    4.315E+01    4.272E+01    4.230E+01    4.186E+01    4.143E+01    4.099E+01    4.054E+01    4.009E+01
     3.964E+01    3.918E+01    3.871E+01    3.825E+01    3.777E+01    3.730E+01    3.682E+01    3.633E+01    3.584E+01    3.535E+01
     3.485E+01    3.435E+01    3.384E+01    3.333E+01    3.281E+01    3.230E+01    3.177E+01    3.125E+01    3.072E+01    3.018E+01
     2.964E+01    2.910E+01    2.855E+01    2.800E+01    2.745E+01    2.690E+01    2.634E+01    2.578E+01    2.521E+01    2.465E+01
     2.408E+01    2.351E+01    2.294E+01    2.237E+01    2.180E+01    2.122E+01    2.065E+01    2.008E+01    1.950E+01    1.893E+01
     1.836E+01    1.779E+01    1.722E+01    1.665E+01    1.608E+01    1.552E+01    1.495E+01    1.439E+01    1.383E+01    1.328E+01
     1.272E+01    1.217E+01    1.163E+01    1.108E+01    1.054E+01    1.001E+01    9.480E+00    8.954E+00    8.433E+00    7.917E+00
     7.406E+00    6.901E+00    6.402E+00    5.909E+00    5.421E+00    4.941E+00    4.467E+00    3.999E+00    3.539E+00    3.087E+00
     2.642E+00    2.204E+00    1.775E+00    1.354E+00    9.411E-01    5.372E-01    1.421E-01   -2.438E-01   -6.203E-01   -9.873E-01
    -1.344E+00   -1.692E+00   -2.029E+00   -2.355E+00   -2.671E+00   -2.976E+00   -3.272E+00   -3.557E+00   -3.832E+00   -4.098E+00
    -4.354E+00   -4.601E+00   -4.839E+00   -5.068E+00   -5.288E+00   -5.499E+00   -5.702E+00   -5.897E+00   -6.084E+00   -6.263E+00
    -6.434E+00   -6.597E+00   -6.753E+00   -6.902E+00   -7.044E+00   -7.179E+00   -7.308E+00   -7.430E+00   -7.545E+00   -7.655E+00
    -7.758E+00   -7.856E+00   -7.948E+00   -8.035E+00   -8.116E+00   -8.192E+00   -8.263E+00   -8.330E+00   -8.392E+00   -8.449E+00
    -8.503E+00   -8.552E+00   -8.597E+00   -8.639E+00   -8.677E+00   -8.711E+00   -8.743E+00   -8.771E+00   -8.796E+00   -8.819E+00
    -8.839E+00   -8.856E+00   -8.872E+00   -8.885E+00   -8.897E+00   -8.906E+00   -8.915E+00   -8.921E+00   -8.927E+00   -8.931E+00
    -8.935E+00   -8.938E+00   -8.940E+00   -8.942E+00   -8.943E+00   -8.945E+00   -8.946E+00   -8.948E+00   -8.949E+00   -8.951E+00
    -8.952E+00   -8.953E+00   -8.954E+00   -8.955E+00   -8.956E+00   -8.957E+00   -8.957E+00   -8.957E+00   -8.957E+00   -8.956E+00
    -8.955E+00   -8.953E+00   -8.952E+00   -8.949E+00   -8.947E+00   -8.943E+00   -8.939E+00   -8.935E+00   -8.930E+00   -8.924E+00
    -8.918E+00   -8.911E+00   -8.903E+00   -8.895E+00   -8.886E+00   -8.876E+00   -8.865E+00   -8.853E+00   -8.841E+00   -8.827E+00
    -8.813E+00   -8.798E+00   -8.781E+00   -8.764E+00   -8.746E+00   -8.726E+00   -8.706E+00   -8.684E+00   -8.661E+00   -8.637E+00
    -8.612E+00   -8.586E+00   -8.558E+00   -8.529E+00   -8.499E+00   -8.467E+00   -8.434E+00   -8.400E+00   -8.364E+00   -8.327E+00
    -8.288E+00   -8.248E+00   -8.206E+00   -8.163E+00   -8.118E+00   -8.072E+00   -8.024E+00   -7.974E+00
 PCr      Conc. = 4.62E+02
