 LCModel (Version 6.3-1L) Copyright: S.W. Provencher.          Ref.: Magn. Reson. Med. 30:672-679 (1993).                
 Slice#2 Row#9 Col#2  K_02_press_1_raw_act
 36 lines in following concentration table = NCONC+1
    Conc.  %SD /Cr+PCr  Metabolite                                         
   44.790 115% 6.6E-02 Ala                                                 
    0.000 999%   0.000 Asp                                                 
  397.630  23%   0.588 Cr                                                  
  278.232  34%   0.412 PCr                                                 
    0.000 999%   0.000 GABA                                                
   91.715  77%   0.136 Glc                                                 
  169.538  63%   0.251 Gln                                                 
  906.571  13%   1.341 Glu                                                 
  224.028   5%   0.331 GPC                                                 
    0.000 999%   0.000 PCh                                                 
  318.516  12%   0.471 GSH                                                 
  461.579  31%   0.683 Ins                                                 
    7.645 735% 1.1E-02 Lac                                                 
 1.03E+03   4%   1.528 NAA                                                 
  147.793  32%   0.219 NAAG                                                
   22.718  62% 3.4E-02 Scyllo                                              
    0.000 999%   0.000 Tau                                                 
  163.596  35%   0.242 -CrCH2                                              
  224.028   5%   0.331 GPC+PCh                                             
 1.18E+03   3%   1.747 NAA+NAAG                                            
  675.862   5%   1.000 Cr+PCr                                              
 1.08E+03  15%   1.592 Glu+Gln                                             
    5.737 999% 8.5E-03 Lip13a                                              
   75.443 113%   0.112 Lip13b                                              
    0.000 999%   0.000 Lip09                                               
  277.614  37%   0.411 MM09                                                
   27.588 186% 4.1E-02 Lip20                                               
  439.719  36%   0.651 MM20                                                
   85.169  41%   0.126 MM12                                                
  179.769  55%   0.266 MM14                                                
  131.938  45%   0.195 MM17                                                
   81.180 216%   0.120 Lip13a+Lip13b                                       
  346.117  65%   0.512 MM14+Lip13a+Lip13b+MM12                             
  277.614  37%   0.411 MM09+Lip09                                          
  467.308  36%   0.691 MM20+Lip20                                          
   6 lines in following misc. output table
  FWHM = 0.054 ppm    S/N =  10                                            
  Data shift =-0.015 ppm                                                   
  Ph: -39 deg     -19.2 deg/ppm                                            
  alphaB,S = 7.1E-01,   2.4E+01                                            
   14 spline knots.   Ns = 6(1)                                            
  ( 7) 2 infls.   ( 1) 1 extrs.                                            
  498 points on ppm-axis = NY
      4.000000     3.992357     3.984714     3.977070     3.969427     3.961784     3.954141     3.946497     3.938854     3.931211
      3.923568     3.915925     3.908281     3.900638     3.892995     3.885352     3.877708     3.870065     3.862422     3.854779
      3.847136     3.839492     3.831849     3.824206     3.816563     3.808919     3.801276     3.793633     3.785990     3.778347
      3.770703     3.763060     3.755417     3.747774     3.740130     3.732487     3.724844     3.717201     3.709558     3.701914
      3.694271     3.686628     3.678985     3.671341     3.663698     3.656055     3.648412     3.640769     3.633125     3.625482
      3.617839     3.610196     3.602552     3.594909     3.587266     3.579623     3.571980     3.564336     3.556693     3.549050
      3.541407     3.533763     3.526120     3.518477     3.510834     3.503191     3.495547     3.487904     3.480261     3.472618
      3.464974     3.457331     3.449688     3.442045     3.434402     3.426758     3.419115     3.411472     3.403829     3.396185
      3.388542     3.380899     3.373256     3.365613     3.357969     3.350326     3.342683     3.335040     3.327396     3.319753
      3.312110     3.304467     3.296824     3.289180     3.281537     3.273894     3.266251     3.258607     3.250964     3.243321
      3.235678     3.228034     3.220391     3.212748     3.205105     3.197462     3.189818     3.182175     3.174532     3.166889
      3.159245     3.151602     3.143959     3.136316     3.128673     3.121029     3.113386     3.105743     3.098100     3.090456
      3.082813     3.075170     3.067527     3.059884     3.052240     3.044597     3.036954     3.029311     3.021667     3.014024
      3.006381     2.998738     2.991095     2.983451     2.975808     2.968165     2.960522     2.952878     2.945235     2.937592
      2.929949     2.922306     2.914662     2.907019     2.899376     2.891733     2.884089     2.876446     2.868803     2.861160
      2.853517     2.845873     2.838230     2.830587     2.822944     2.815300     2.807657     2.800014     2.792371     2.784728
      2.777084     2.769441     2.761798     2.754155     2.746511     2.738868     2.731225     2.723582     2.715939     2.708295
      2.700652     2.693009     2.685366     2.677722     2.670079     2.662436     2.654793     2.647150     2.639506     2.631863
      2.624220     2.616577     2.608933     2.601290     2.593647     2.586004     2.578361     2.570717     2.563074     2.555431
      2.547788     2.540144     2.532501     2.524858     2.517215     2.509572     2.501928     2.494285     2.486642     2.478999
      2.471355     2.463712     2.456069     2.448426     2.440783     2.433139     2.425496     2.417853     2.410210     2.402566
      2.394923     2.387280     2.379637     2.371994     2.364350     2.356707     2.349064     2.341421     2.333777     2.326134
      2.318491     2.310848     2.303205     2.295561     2.287918     2.280275     2.272632     2.264988     2.257345     2.249702
      2.242059     2.234416     2.226772     2.219129     2.211486     2.203843     2.196199     2.188556     2.180913     2.173270
      2.165627     2.157983     2.150340     2.142697     2.135054     2.127410     2.119767     2.112124     2.104481     2.096838
      2.089194     2.081551     2.073908     2.066265     2.058621     2.050978     2.043335     2.035692     2.028049     2.020405
      2.012762     2.005119     1.997476     1.989833     1.982190     1.974546     1.966903     1.959260     1.951617     1.943974
      1.936331     1.928688     1.921045     1.913402     1.905759     1.898115     1.890472     1.882829     1.875186     1.867543
      1.859900     1.852257     1.844614     1.836971     1.829327     1.821684     1.814041     1.806398     1.798755     1.791112
      1.783469     1.775826     1.768183     1.760540     1.752896     1.745253     1.737610     1.729967     1.722324     1.714681
      1.707038     1.699395     1.691752     1.684108     1.676465     1.668822     1.661179     1.653536     1.645893     1.638250
      1.630607     1.622964     1.615321     1.607677     1.600034     1.592391     1.584748     1.577105     1.569462     1.561819
      1.554176     1.546533     1.538890     1.531246     1.523603     1.515960     1.508317     1.500674     1.493031     1.485388
      1.477745     1.470102     1.462458     1.454815     1.447172     1.439529     1.431886     1.424243     1.416600     1.408957
      1.401314     1.393671     1.386027     1.378384     1.370741     1.363098     1.355455     1.347812     1.340169     1.332526
      1.324883     1.317240     1.309596     1.301953     1.294310     1.286667     1.279024     1.271381     1.263738     1.256095
      1.248452     1.240808     1.233165     1.225522     1.217879     1.210236     1.202593     1.194950     1.187307     1.179664
      1.172021     1.164377     1.156734     1.149091     1.141448     1.133805     1.126162     1.118519     1.110876     1.103233
      1.095590     1.087946     1.080303     1.072660     1.065017     1.057374     1.049731     1.042088     1.034445     1.026802
      1.019158     1.011515     1.003872     0.996229     0.988586     0.980943     0.973300     0.965657     0.958014     0.950371
      0.942727     0.935084     0.927441     0.919798     0.912155     0.904512     0.896869     0.889226     0.881583     0.873940
      0.866296     0.858653     0.851010     0.843367     0.835724     0.828081     0.820438     0.812795     0.805152     0.797508
      0.789865     0.782222     0.774579     0.766936     0.759293     0.751650     0.744007     0.736364     0.728721     0.721077
      0.713434     0.705791     0.698148     0.690505     0.682862     0.675219     0.667576     0.659933     0.652290     0.644646
      0.637003     0.629360     0.621717     0.614074     0.606431     0.598788     0.591145     0.583502     0.575858     0.568215
      0.560572     0.552929     0.545286     0.537643     0.530000     0.522357     0.514714     0.507071     0.499427     0.491784
      0.484141     0.476498     0.468855     0.461212     0.453569     0.445925     0.438282     0.430639     0.422996     0.415353
      0.407710     0.400067     0.392424     0.384780     0.377137     0.369494     0.361851     0.354208     0.346565     0.338922
      0.331278     0.323635     0.315992     0.308349     0.300706     0.293063     0.285420     0.277777     0.270133     0.262490
      0.254847     0.247204     0.239561     0.231918     0.224275     0.216631     0.208988     0.201345
 NY phased data points follow
  -1.16101E+02 -1.14238E+02 -1.08904E+02 -1.05892E+02 -1.06622E+02 -1.01913E+02 -1.00816E+02 -9.27795E+01 -8.88992E+01 -8.72175E+01
  -8.64511E+01 -8.38538E+01 -8.64357E+01 -8.73348E+01 -8.60033E+01 -8.73673E+01 -9.04701E+01 -9.25912E+01 -8.84296E+01 -8.87117E+01
  -8.63283E+01 -8.62384E+01 -8.44098E+01 -7.91706E+01 -8.27553E+01 -8.23400E+01 -7.73889E+01 -7.39992E+01 -7.39850E+01 -7.08413E+01
  -6.95712E+01 -6.89855E+01 -7.00516E+01 -6.88495E+01 -6.87718E+01 -6.53746E+01 -6.72411E+01 -6.50120E+01 -6.49318E+01 -6.77993E+01
  -6.73719E+01 -6.29012E+01 -6.33968E+01 -5.99038E+01 -6.48624E+01 -5.93466E+01 -5.78356E+01 -5.82116E+01 -5.56735E+01 -5.51480E+01
  -5.72905E+01 -5.85342E+01 -5.91196E+01 -5.50314E+01 -5.51674E+01 -5.26229E+01 -5.76101E+01 -5.57849E+01 -5.18499E+01 -5.45637E+01
  -5.63388E+01 -5.45146E+01 -5.45056E+01 -5.66515E+01 -5.41083E+01 -5.43715E+01 -5.49765E+01 -5.06592E+01 -5.13779E+01 -4.93402E+01
  -4.98446E+01 -4.53324E+01 -4.54987E+01 -4.55509E+01 -4.21476E+01 -4.35882E+01 -4.26785E+01 -4.31143E+01 -4.44482E+01 -4.02611E+01
  -4.08280E+01 -4.26299E+01 -4.19808E+01 -4.09166E+01 -4.05403E+01 -3.95978E+01 -3.75264E+01 -3.74127E+01 -3.91482E+01 -3.57931E+01
  -3.56018E+01 -3.63710E+01 -3.52590E+01 -3.36742E+01 -3.39690E+01 -3.07179E+01 -3.16930E+01 -2.95351E+01 -2.77859E+01 -2.23552E+01
  -1.81904E+01 -1.29508E+01 -7.40060E+00 -8.72138E+00 -1.04100E+01 -1.31116E+01 -1.69475E+01 -2.30197E+01 -2.60477E+01 -2.65263E+01
  -2.87677E+01 -2.70419E+01 -2.64937E+01 -2.51766E+01 -2.35249E+01 -2.61653E+01 -2.42521E+01 -2.51902E+01 -2.28703E+01 -2.14186E+01
  -2.08430E+01 -2.08763E+01 -1.56274E+01 -1.16326E+01 -7.59227E+00 -2.06272E+00  1.10623E+00  3.25685E+00  9.94706E-02 -1.88198E+00
  -3.62341E+00 -1.04631E+01 -1.60980E+01 -1.99660E+01 -1.94607E+01 -2.04403E+01 -1.98080E+01 -1.91455E+01 -1.87441E+01 -1.66336E+01
  -1.64737E+01 -1.89700E+01 -1.89166E+01 -2.00298E+01 -1.55806E+01 -1.71388E+01 -1.75271E+01 -1.65474E+01 -1.42671E+01 -1.75259E+01
  -1.67519E+01 -1.45255E+01 -1.58065E+01 -1.63667E+01 -1.42809E+01 -1.24980E+01 -1.23025E+01 -1.35690E+01 -1.45518E+01 -1.47657E+01
  -1.57469E+01 -1.37374E+01 -1.22937E+01 -1.46310E+01 -1.45649E+01 -1.52307E+01 -1.28004E+01 -1.44729E+01 -1.40659E+01 -1.63461E+01
  -1.73924E+01 -1.63733E+01 -1.65252E+01 -1.61375E+01 -1.87719E+01 -1.88816E+01 -1.48964E+01 -1.91748E+01 -1.86056E+01 -1.81038E+01
  -1.64849E+01 -1.63113E+01 -1.72258E+01 -1.59978E+01 -1.28182E+01 -1.23181E+01 -1.55795E+01 -1.14753E+01 -1.17540E+01 -8.14514E+00
  -1.05459E+01 -8.62172E+00 -6.02071E+00 -5.61734E+00 -7.68552E+00 -6.36569E+00 -8.78271E+00 -7.27007E+00 -1.00816E+01 -1.06522E+01
  -9.11944E+00 -5.70462E+00 -7.39795E+00 -4.48679E+00 -5.45810E+00 -4.81438E+00 -7.36998E+00 -7.82660E+00 -8.37967E+00 -7.19202E+00
  -6.59904E+00 -7.78402E+00 -4.13019E+00 -3.07547E+00 -1.54555E+00 -1.46244E+00  1.93917E+00  7.98398E-01 -1.31335E+00  3.23292E-01
  -5.66145E+00 -7.57018E+00 -1.07685E+01 -5.52131E+00 -6.84565E+00 -2.77396E+00 -1.94967E+00 -8.26363E-01  2.74474E+00  1.53997E-01
   1.14683E+00 -6.60906E-01  1.08646E-01 -5.79047E-01 -2.37869E-01 -4.11854E+00 -8.45093E-01 -5.17477E-01 -2.73185E+00 -1.15567E+00
  -8.89110E-01 -2.38910E+00  9.46889E-01  1.52876E+00 -8.01905E-01  3.99296E-02  3.61813E-01  5.47825E+00  4.85056E+00  4.93094E+00
   7.64997E+00  3.56805E+00  7.77399E+00  1.06380E+01  9.81903E+00  1.31161E+01  1.93823E+01  2.61150E+01  3.56029E+01  3.65485E+01
   4.05082E+01  3.82754E+01  3.74525E+01  3.23736E+01  2.33551E+01  1.35737E+01  4.88897E+00  3.84238E+00  4.97254E+00  4.87938E+00
   4.75397E+00  6.56489E+00  8.13327E+00  5.95522E+00  4.55938E+00  4.09005E+00  4.39538E+00  5.30896E+00  3.60357E+00  3.17453E+00
   7.34457E+00  5.50613E+00  3.80898E+00  1.20826E+00  3.52721E+00  2.07229E+00  1.64252E+00  3.79130E+00  2.22252E+00  1.92806E+00
   3.44977E+00  7.13697E+00  4.50889E+00  3.43726E+00  4.62566E+00  5.58464E+00  3.48561E+00  3.64210E+00  4.93902E+00  7.10803E+00
   7.53298E+00  5.86841E+00  7.80264E+00  7.01993E+00  9.23897E+00  9.51138E+00  9.45315E+00  7.17882E+00  9.11772E+00  7.34253E+00
   9.92005E+00  8.01955E+00  5.31361E+00  8.54882E+00  7.39255E+00  8.69191E+00  1.13469E+01  1.02333E+01  8.94989E+00  7.23393E+00
   8.76190E+00  6.61875E+00  1.00465E+01  6.10592E+00  8.66833E+00  7.82339E+00  1.01987E+01  8.20210E+00  8.15102E+00  6.14230E+00
   8.67384E+00  9.11419E+00  8.94653E+00  7.81988E+00  8.84313E+00  8.92729E+00  1.20832E+01  8.79910E+00  7.85400E+00  8.82922E+00
   1.02257E+01  1.20597E+01  9.92774E+00  8.59875E+00  8.93594E+00  7.90238E+00  9.04470E+00  1.04450E+01  8.18777E+00  1.07773E+01
   9.43301E+00  1.14565E+01  8.73150E+00  1.29093E+01  1.07952E+01  1.06732E+01  1.27483E+01  1.21120E+01  1.19145E+01  1.15231E+01
   1.01798E+01  9.76909E+00  1.09209E+01  1.14337E+01  1.01850E+01  1.33429E+01  1.15914E+01  1.28245E+01  1.29839E+01  1.15224E+01
   7.99096E+00  9.91228E+00  1.20445E+01  1.13231E+01  1.14468E+01  8.07211E+00  1.23690E+01  1.18550E+01  1.40614E+01  9.25540E+00
   1.23219E+01  1.13699E+01  1.10184E+01  1.03510E+01  1.26964E+01  1.23787E+01  9.78794E+00  9.10787E+00  1.51161E+01  1.38699E+01
   1.17600E+01  1.25634E+01  1.13166E+01  1.24277E+01  1.07855E+01  1.47656E+01  1.19744E+01  1.19908E+01  1.23395E+01  1.11773E+01
   9.63015E+00  1.28238E+01  1.23930E+01  1.17582E+01  9.49173E+00  1.02455E+01  1.08680E+01  9.83335E+00  1.18969E+01  1.17258E+01
   1.04413E+01  1.26010E+01  1.18165E+01  9.84936E+00  1.04952E+01  1.19247E+01  1.19921E+01  1.16740E+01  1.25358E+01  1.16131E+01
   1.15715E+01  8.36367E+00  1.11341E+01  1.19351E+01  8.65379E+00  1.03749E+01  1.07385E+01  1.11811E+01  1.12348E+01  8.56230E+00
   1.00628E+01  1.02103E+01  1.29019E+01  9.93765E+00  7.92102E+00  1.13855E+01  1.12281E+01  1.10544E+01  1.07454E+01  1.17283E+01
   1.33714E+01  9.15863E+00  1.22061E+01  1.07137E+01  9.96326E+00  1.01091E+01  1.31585E+01  9.60558E+00  1.01217E+01  1.04656E+01
   9.64250E+00  1.16083E+01  1.38734E+01  9.71155E+00  1.26069E+01  1.10678E+01  1.10511E+01  1.02171E+01  8.87440E+00  7.98374E+00
   1.27173E+01  1.36362E+01  9.61626E+00  1.01060E+01  1.15062E+01  1.25900E+01  9.32677E+00  1.20986E+01  1.18788E+01  1.30377E+01
   1.36365E+01  1.06162E+01  1.14070E+01  1.30738E+01  1.08988E+01  1.16923E+01  1.11742E+01  1.19019E+01  1.10946E+01  1.05342E+01
   1.07693E+01  1.11554E+01  9.28152E+00  9.96629E+00  1.28660E+01  8.39418E+00  1.13197E+01  9.91182E+00  1.08479E+01  1.05280E+01
   8.73780E+00  1.20736E+01  1.10395E+01  9.78649E+00  1.09256E+01  9.82285E+00  1.03378E+01  1.00970E+01
 NY points of the fit to the data follow
  -1.08639E+02 -1.07669E+02 -1.06451E+02 -1.04939E+02 -1.03116E+02 -1.00608E+02 -9.77325E+01 -9.44274E+01 -9.09949E+01 -8.81729E+01
  -8.60587E+01 -8.48585E+01 -8.47309E+01 -8.52691E+01 -8.63745E+01 -8.79605E+01 -8.92142E+01 -8.93001E+01 -8.85490E+01 -8.76175E+01
  -8.67455E+01 -8.58619E+01 -8.49487E+01 -8.38956E+01 -8.24737E+01 -8.09280E+01 -7.88857E+01 -7.64753E+01 -7.41197E+01 -7.17661E+01
  -6.99314E+01 -6.87382E+01 -6.79110E+01 -6.78179E+01 -6.87113E+01 -6.98827E+01 -7.04310E+01 -7.04528E+01 -7.03667E+01 -6.99590E+01
  -6.90063E+01 -6.76473E+01 -6.60518E+01 -6.42631E+01 -6.24377E+01 -6.08780E+01 -5.97472E+01 -5.90174E+01 -5.85389E+01 -5.82327E+01
  -5.82173E+01 -5.84807E+01 -5.86814E+01 -5.84843E+01 -5.78917E+01 -5.70350E+01 -5.60553E+01 -5.50621E+01 -5.41128E+01 -5.33137E+01
  -5.26990E+01 -5.21914E+01 -5.17724E+01 -5.14341E+01 -5.11411E+01 -5.07483E+01 -5.01617E+01 -4.94018E+01 -4.85117E+01 -4.76025E+01
  -4.67509E+01 -4.59863E+01 -4.53273E+01 -4.47300E+01 -4.41643E+01 -4.36536E+01 -4.32070E+01 -4.27692E+01 -4.22973E+01 -4.18121E+01
  -4.13096E+01 -4.07847E+01 -4.02486E+01 -3.96872E+01 -3.91977E+01 -3.87959E+01 -3.84415E+01 -3.81469E+01 -3.78469E+01 -3.74996E+01
  -3.71328E+01 -3.67156E+01 -3.61183E+01 -3.53865E+01 -3.46992E+01 -3.39946E+01 -3.26462E+01 -3.01180E+01 -2.67070E+01 -2.17801E+01
  -1.66651E+01 -1.25395E+01 -9.56433E+00 -8.72142E+00 -9.80802E+00 -1.21164E+01 -1.63785E+01 -2.20652E+01 -2.63525E+01 -2.76854E+01
  -2.75360E+01 -2.72208E+01 -2.68887E+01 -2.65271E+01 -2.61586E+01 -2.57966E+01 -2.54482E+01 -2.50934E+01 -2.46912E+01 -2.41481E+01
  -2.29688E+01 -2.04217E+01 -1.70254E+01 -1.20470E+01 -6.60365E+00 -2.21076E+00  1.00909E+00  2.14766E+00  1.20425E+00 -9.15454E-01
  -4.90249E+00 -1.08250E+01 -1.60170E+01 -1.82929E+01 -1.89131E+01 -1.92875E+01 -1.95200E+01 -1.96054E+01 -1.94017E+01 -1.87869E+01
  -1.79054E+01 -1.70496E+01 -1.64367E+01 -1.61283E+01 -1.60994E+01 -1.62530E+01 -1.64593E+01 -1.65865E+01 -1.65909E+01 -1.65439E+01
  -1.64913E+01 -1.64376E+01 -1.63650E+01 -1.62585E+01 -1.61132E+01 -1.59527E+01 -1.58140E+01 -1.57414E+01 -1.57277E+01 -1.56848E+01
  -1.56411E+01 -1.55689E+01 -1.54138E+01 -1.52742E+01 -1.51416E+01 -1.49596E+01 -1.48106E+01 -1.47779E+01 -1.48856E+01 -1.50932E+01
  -1.52734E+01 -1.53316E+01 -1.53016E+01 -1.53066E+01 -1.52755E+01 -1.51951E+01 -1.50995E+01 -1.49451E+01 -1.47663E+01 -1.45505E+01
  -1.42388E+01 -1.39725E+01 -1.38545E+01 -1.38155E+01 -1.36563E+01 -1.31132E+01 -1.22244E+01 -1.12318E+01 -1.02300E+01 -9.26832E+00
  -8.45272E+00 -7.86925E+00 -7.67915E+00 -7.93365E+00 -8.50370E+00 -9.06444E+00 -9.36499E+00 -9.29808E+00 -8.78961E+00 -7.98766E+00
  -7.05155E+00 -6.05058E+00 -5.15926E+00 -4.55812E+00 -4.49193E+00 -4.82573E+00 -5.40808E+00 -6.26376E+00 -7.14933E+00 -7.83915E+00
  -8.04146E+00 -7.42544E+00 -6.20224E+00 -4.44667E+00 -2.59752E+00 -1.17553E+00 -5.51284E-01 -9.71381E-01 -2.22051E+00 -4.11409E+00
  -6.46232E+00 -8.44908E+00 -9.23558E+00 -8.63013E+00 -7.10654E+00 -5.26565E+00 -3.30735E+00 -1.36344E+00 -1.75064E-02  3.45225E-01
   8.72502E-02 -1.40832E-01 -1.10344E-01  1.14857E-01  5.22894E-01  9.99241E-01  1.40634E+00  1.43920E+00  9.78796E-01  2.94168E-01
  -3.69808E-01 -8.69215E-01 -1.01168E+00 -6.30958E-01  2.25763E-01  1.24586E+00  2.15293E+00  2.90279E+00  3.44026E+00  3.70510E+00
   3.98570E+00  4.56422E+00  5.79155E+00  7.50328E+00  1.03067E+01  1.48148E+01  2.02497E+01  2.73714E+01  3.40428E+01  3.84844E+01
   4.05416E+01  3.94036E+01  3.60916E+01  3.14133E+01  2.37535E+01  1.39911E+01  6.74168E+00  4.23373E+00  3.87726E+00  3.68797E+00
   3.60410E+00  3.66882E+00  3.77675E+00  3.90608E+00  4.06139E+00  4.20134E+00  4.31571E+00  4.39901E+00  4.41894E+00  4.38679E+00
   4.36579E+00  4.39704E+00  4.46676E+00  4.54272E+00  4.62054E+00  4.71146E+00  4.80632E+00  4.88604E+00  4.95929E+00  5.04479E+00
   5.14660E+00  5.26111E+00  5.38406E+00  5.51297E+00  5.64652E+00  5.77590E+00  5.89643E+00  6.01315E+00  6.13288E+00  6.25916E+00
   6.39100E+00  6.52517E+00  6.66083E+00  6.79662E+00  6.92657E+00  7.04586E+00  7.15513E+00  7.25554E+00  7.34696E+00  7.43062E+00
   7.50818E+00  7.58064E+00  7.64861E+00  7.71323E+00  7.77604E+00  7.83900E+00  7.90406E+00  7.97349E+00  8.04990E+00  8.13729E+00
   8.24364E+00  8.38066E+00  8.52361E+00  8.66581E+00  8.78178E+00  8.82125E+00  8.79529E+00  8.70702E+00  8.56495E+00  8.44030E+00
   8.35032E+00  8.31013E+00  8.42787E+00  8.71154E+00  9.06204E+00  9.38937E+00  9.64653E+00  9.84655E+00  9.99816E+00  1.00516E+01
   9.99893E+00  9.93369E+00  9.92701E+00  9.96295E+00  1.00131E+01  1.00655E+01  1.01229E+01  1.01881E+01  1.02641E+01  1.03641E+01
   1.04861E+01  1.06285E+01  1.07970E+01  1.09815E+01  1.11558E+01  1.12906E+01  1.13710E+01  1.13991E+01  1.13758E+01  1.13003E+01
   1.11870E+01  1.10654E+01  1.09537E+01  1.08561E+01  1.07752E+01  1.07135E+01  1.06707E+01  1.06448E+01  1.06325E+01  1.06305E+01
   1.06359E+01  1.06464E+01  1.06604E+01  1.06770E+01  1.06956E+01  1.07165E+01  1.07399E+01  1.07664E+01  1.07965E+01  1.08310E+01
   1.08702E+01  1.09149E+01  1.09655E+01  1.10225E+01  1.10860E+01  1.11563E+01  1.12331E+01  1.13161E+01  1.14047E+01  1.14982E+01
   1.15952E+01  1.16943E+01  1.17936E+01  1.18914E+01  1.19853E+01  1.20733E+01  1.21528E+01  1.22217E+01  1.22781E+01  1.23202E+01
   1.23466E+01  1.23566E+01  1.23497E+01  1.23260E+01  1.22864E+01  1.22320E+01  1.21645E+01  1.20858E+01  1.19981E+01  1.19039E+01
   1.18054E+01  1.17050E+01  1.16048E+01  1.15068E+01  1.14125E+01  1.13233E+01  1.12404E+01  1.11644E+01  1.10957E+01  1.10345E+01
   1.09806E+01  1.09341E+01  1.08944E+01  1.08612E+01  1.08337E+01  1.08116E+01  1.07942E+01  1.07811E+01  1.07717E+01  1.07655E+01
   1.07620E+01  1.07610E+01  1.07619E+01  1.07647E+01  1.07688E+01  1.07742E+01  1.07806E+01  1.07877E+01  1.07956E+01  1.08039E+01
   1.08127E+01  1.08217E+01  1.08308E+01  1.08401E+01  1.08493E+01  1.08586E+01  1.08677E+01  1.08765E+01  1.08851E+01  1.08934E+01
   1.09013E+01  1.09089E+01  1.09159E+01  1.09225E+01  1.09285E+01  1.09341E+01  1.09392E+01  1.09437E+01  1.09477E+01  1.09511E+01
   1.09540E+01  1.09564E+01  1.09583E+01  1.09595E+01  1.09602E+01  1.09604E+01  1.09601E+01  1.09592E+01  1.09577E+01  1.09558E+01
   1.09532E+01  1.09501E+01  1.09465E+01  1.09424E+01  1.09377E+01  1.09325E+01  1.09267E+01  1.09205E+01  1.09137E+01  1.09065E+01
   1.08987E+01  1.08903E+01  1.08815E+01  1.08722E+01  1.08624E+01  1.08522E+01  1.08414E+01  1.08301E+01  1.08184E+01  1.08063E+01
   1.07937E+01  1.07807E+01  1.07672E+01  1.07533E+01  1.07390E+01  1.07243E+01  1.07093E+01  1.06939E+01
 NY background values follow
    -1.096E+02   -1.085E+02   -1.075E+02   -1.065E+02   -1.054E+02   -1.044E+02   -1.033E+02   -1.023E+02   -1.012E+02   -1.002E+02
    -9.918E+01   -9.815E+01   -9.713E+01   -9.610E+01   -9.509E+01   -9.407E+01   -9.306E+01   -9.205E+01   -9.105E+01   -9.005E+01
    -8.905E+01   -8.806E+01   -8.708E+01   -8.609E+01   -8.512E+01   -8.415E+01   -8.318E+01   -8.223E+01   -8.127E+01   -8.033E+01
    -7.939E+01   -7.845E+01   -7.753E+01   -7.661E+01   -7.569E+01   -7.479E+01   -7.389E+01   -7.300E+01   -7.212E+01   -7.124E+01
    -7.037E+01   -6.952E+01   -6.867E+01   -6.782E+01   -6.699E+01   -6.617E+01   -6.535E+01   -6.455E+01   -6.375E+01   -6.297E+01
    -6.219E+01   -6.142E+01   -6.066E+01   -5.991E+01   -5.917E+01   -5.843E+01   -5.770E+01   -5.699E+01   -5.628E+01   -5.557E+01
    -5.488E+01   -5.419E+01   -5.352E+01   -5.285E+01   -5.218E+01   -5.153E+01   -5.088E+01   -5.024E+01   -4.960E+01   -4.898E+01
    -4.836E+01   -4.774E+01   -4.714E+01   -4.654E+01   -4.595E+01   -4.536E+01   -4.478E+01   -4.421E+01   -4.364E+01   -4.308E+01
    -4.252E+01   -4.197E+01   -4.143E+01   -4.089E+01   -4.036E+01   -3.983E+01   -3.931E+01   -3.879E+01   -3.828E+01   -3.778E+01
    -3.727E+01   -3.678E+01   -3.629E+01   -3.580E+01   -3.532E+01   -3.484E+01   -3.437E+01   -3.391E+01   -3.345E+01   -3.299E+01
    -3.254E+01   -3.209E+01   -3.165E+01   -3.122E+01   -3.079E+01   -3.036E+01   -2.994E+01   -2.953E+01   -2.912E+01   -2.871E+01
    -2.831E+01   -2.792E+01   -2.753E+01   -2.715E+01   -2.677E+01   -2.640E+01   -2.604E+01   -2.568E+01   -2.532E+01   -2.497E+01
    -2.463E+01   -2.429E+01   -2.396E+01   -2.363E+01   -2.331E+01   -2.300E+01   -2.269E+01   -2.238E+01   -2.209E+01   -2.179E+01
    -2.151E+01   -2.123E+01   -2.095E+01   -2.069E+01   -2.042E+01   -2.017E+01   -1.992E+01   -1.967E+01   -1.943E+01   -1.920E+01
    -1.897E+01   -1.875E+01   -1.853E+01   -1.832E+01   -1.811E+01   -1.791E+01   -1.771E+01   -1.751E+01   -1.732E+01   -1.714E+01
    -1.695E+01   -1.677E+01   -1.659E+01   -1.642E+01   -1.625E+01   -1.608E+01   -1.591E+01   -1.575E+01   -1.558E+01   -1.542E+01
    -1.526E+01   -1.510E+01   -1.495E+01   -1.479E+01   -1.464E+01   -1.448E+01   -1.433E+01   -1.418E+01   -1.402E+01   -1.387E+01
    -1.372E+01   -1.356E+01   -1.341E+01   -1.325E+01   -1.310E+01   -1.294E+01   -1.278E+01   -1.262E+01   -1.246E+01   -1.229E+01
    -1.213E+01   -1.196E+01   -1.179E+01   -1.161E+01   -1.144E+01   -1.126E+01   -1.108E+01   -1.090E+01   -1.072E+01   -1.053E+01
    -1.034E+01   -1.016E+01   -9.967E+00   -9.776E+00   -9.584E+00   -9.391E+00   -9.197E+00   -9.002E+00   -8.806E+00   -8.609E+00
    -8.412E+00   -8.215E+00   -8.017E+00   -7.819E+00   -7.621E+00   -7.423E+00   -7.225E+00   -7.027E+00   -6.829E+00   -6.632E+00
    -6.435E+00   -6.239E+00   -6.043E+00   -5.848E+00   -5.654E+00   -5.461E+00   -5.269E+00   -5.079E+00   -4.889E+00   -4.701E+00
    -4.515E+00   -4.330E+00   -4.147E+00   -3.966E+00   -3.787E+00   -3.609E+00   -3.434E+00   -3.261E+00   -3.090E+00   -2.922E+00
    -2.755E+00   -2.591E+00   -2.429E+00   -2.268E+00   -2.110E+00   -1.954E+00   -1.799E+00   -1.647E+00   -1.496E+00   -1.348E+00
    -1.201E+00   -1.055E+00   -9.121E-01   -7.704E-01   -6.303E-01   -4.920E-01   -3.552E-01   -2.200E-01   -8.642E-02    4.568E-02
     1.763E-01    3.054E-01    4.332E-01    5.595E-01    6.845E-01    8.081E-01    9.305E-01    1.052E+00    1.171E+00    1.290E+00
     1.408E+00    1.524E+00    1.639E+00    1.753E+00    1.866E+00    1.978E+00    2.090E+00    2.200E+00    2.309E+00    2.417E+00
     2.525E+00    2.632E+00    2.738E+00    2.843E+00    2.947E+00    3.051E+00    3.154E+00    3.256E+00    3.358E+00    3.458E+00
     3.558E+00    3.658E+00    3.757E+00    3.855E+00    3.952E+00    4.049E+00    4.145E+00    4.241E+00    4.336E+00    4.430E+00
     4.524E+00    4.617E+00    4.710E+00    4.802E+00    4.894E+00    4.985E+00    5.075E+00    5.166E+00    5.255E+00    5.344E+00
     5.433E+00    5.521E+00    5.609E+00    5.697E+00    5.784E+00    5.870E+00    5.957E+00    6.042E+00    6.128E+00    6.213E+00
     6.298E+00    6.382E+00    6.466E+00    6.550E+00    6.634E+00    6.717E+00    6.800E+00    6.883E+00    6.965E+00    7.047E+00
     7.129E+00    7.210E+00    7.291E+00    7.372E+00    7.452E+00    7.531E+00    7.610E+00    7.689E+00    7.766E+00    7.843E+00
     7.920E+00    7.995E+00    8.070E+00    8.144E+00    8.217E+00    8.290E+00    8.361E+00    8.432E+00    8.501E+00    8.570E+00
     8.637E+00    8.703E+00    8.769E+00    8.833E+00    8.896E+00    8.957E+00    9.018E+00    9.077E+00    9.135E+00    9.191E+00
     9.246E+00    9.300E+00    9.352E+00    9.403E+00    9.452E+00    9.500E+00    9.546E+00    9.590E+00    9.633E+00    9.674E+00
     9.713E+00    9.750E+00    9.786E+00    9.820E+00    9.852E+00    9.882E+00    9.911E+00    9.939E+00    9.964E+00    9.989E+00
     1.001E+01    1.003E+01    1.005E+01    1.007E+01    1.009E+01    1.011E+01    1.012E+01    1.014E+01    1.015E+01    1.016E+01
     1.017E+01    1.019E+01    1.020E+01    1.021E+01    1.021E+01    1.022E+01    1.023E+01    1.024E+01    1.024E+01    1.025E+01
     1.026E+01    1.026E+01    1.027E+01    1.027E+01    1.028E+01    1.029E+01    1.029E+01    1.030E+01    1.030E+01    1.031E+01
     1.031E+01    1.032E+01    1.033E+01    1.033E+01    1.034E+01    1.035E+01    1.036E+01    1.037E+01    1.038E+01    1.039E+01
     1.040E+01    1.041E+01    1.042E+01    1.044E+01    1.045E+01    1.046E+01    1.048E+01    1.049E+01    1.051E+01    1.052E+01
     1.054E+01    1.055E+01    1.057E+01    1.058E+01    1.060E+01    1.062E+01    1.063E+01    1.065E+01    1.067E+01    1.068E+01
     1.070E+01    1.072E+01    1.073E+01    1.075E+01    1.077E+01    1.078E+01    1.080E+01    1.081E+01    1.083E+01    1.084E+01
     1.086E+01    1.087E+01    1.089E+01    1.090E+01    1.092E+01    1.093E+01    1.094E+01    1.095E+01    1.097E+01    1.098E+01
     1.099E+01    1.100E+01    1.101E+01    1.102E+01    1.102E+01    1.103E+01    1.104E+01    1.104E+01    1.105E+01    1.105E+01
     1.106E+01    1.106E+01    1.106E+01    1.107E+01    1.107E+01    1.107E+01    1.107E+01    1.107E+01    1.107E+01    1.107E+01
     1.107E+01    1.106E+01    1.106E+01    1.106E+01    1.105E+01    1.105E+01    1.104E+01    1.104E+01    1.103E+01    1.102E+01
     1.101E+01    1.101E+01    1.100E+01    1.099E+01    1.098E+01    1.097E+01    1.096E+01    1.094E+01    1.093E+01    1.092E+01
     1.091E+01    1.089E+01    1.088E+01    1.086E+01    1.085E+01    1.083E+01    1.082E+01    1.080E+01
 Ala      Conc. = 4.48E+01
