 LCModel (Version 6.3-1L) Copyright: S.W. Provencher.          Ref.: Magn. Reson. Med. 30:672-679 (1993).                
 Slice#2 Row#10 Col#11  K_02_press_1_raw_act
 36 lines in following concentration table = NCONC+1
    Conc.  %SD /Cr+PCr  Metabolite                                         
  310.182  41%   0.169 Ala                                                 
    0.000 999%   0.000 Asp                                                 
  139.091 263% 7.6E-02 Cr                                                  
 1.70E+03  22%   0.924 PCr                                                 
    0.000 999%   0.000 GABA                                                
    0.000 999%   0.000 Glc                                                 
  911.026  29%   0.496 Gln                                                 
 1.98E+03  15%   1.078 Glu                                                 
  611.699   4%   0.333 GPC                                                 
    0.000 999%   0.000 PCh                                                 
  287.073  29%   0.156 GSH                                                 
 1.09E+03  27%   0.593 Ins                                                 
  118.198 115% 6.4E-02 Lac                                                 
 3.24E+03   5%   1.765 NAA                                                 
  333.835  53%   0.182 NAAG                                                
  122.240  27% 6.7E-02 Scyllo                                              
    0.000 999%   0.000 Tau                                                 
 1.39E+03  10%   0.757 -CrCH2                                              
  611.699   4%   0.333 GPC+PCh                                             
 3.57E+03   3%   1.947 NAA+NAAG                                            
 1.84E+03   4%   1.000 Cr+PCr                                              
 2.89E+03  14%   1.574 Glu+Gln                                             
 4.73E+03  25%   2.574 Lip13a                                              
    0.000 999%   0.000 Lip13b                                              
 1.22E+03  42%   0.665 Lip09                                               
 1.64E+03  32%   0.892 MM09                                                
 1.03E+03  32%   0.562 Lip20                                               
 4.06E+03  15%   2.211 MM20                                                
  429.852  90%   0.234 MM12                                                
 1.78E+03  35%   0.970 MM14                                                
  607.541  52%   0.331 MM17                                                
 4.73E+03  25%   2.574 Lip13a+Lip13b                                       
 6.94E+03  12%   3.778 MM14+Lip13a+Lip13b+MM12                             
 2.86E+03  12%   1.557 MM09+Lip09                                          
 5.09E+03  11%   2.773 MM20+Lip20                                          
   6 lines in following misc. output table
  FWHM = 0.046 ppm    S/N =  16                                            
  Data shift = 0.008 ppm                                                   
  Ph: -10 deg      -8.4 deg/ppm                                            
  alphaB,S = 6.3E-01,   1.3E+02                                            
   14 spline knots.   Ns = 7(1)                                            
  (11) 3 infls.   ( 7) 1 extrs.                                            
  498 points on ppm-axis = NY
      4.000000     3.992357     3.984714     3.977070     3.969427     3.961784     3.954141     3.946497     3.938854     3.931211
      3.923568     3.915925     3.908281     3.900638     3.892995     3.885352     3.877708     3.870065     3.862422     3.854779
      3.847136     3.839492     3.831849     3.824206     3.816563     3.808919     3.801276     3.793633     3.785990     3.778347
      3.770703     3.763060     3.755417     3.747774     3.740130     3.732487     3.724844     3.717201     3.709558     3.701914
      3.694271     3.686628     3.678985     3.671341     3.663698     3.656055     3.648412     3.640769     3.633125     3.625482
      3.617839     3.610196     3.602552     3.594909     3.587266     3.579623     3.571980     3.564336     3.556693     3.549050
      3.541407     3.533763     3.526120     3.518477     3.510834     3.503191     3.495547     3.487904     3.480261     3.472618
      3.464974     3.457331     3.449688     3.442045     3.434402     3.426758     3.419115     3.411472     3.403829     3.396185
      3.388542     3.380899     3.373256     3.365613     3.357969     3.350326     3.342683     3.335040     3.327396     3.319753
      3.312110     3.304467     3.296824     3.289180     3.281537     3.273894     3.266251     3.258607     3.250964     3.243321
      3.235678     3.228034     3.220391     3.212748     3.205105     3.197462     3.189818     3.182175     3.174532     3.166889
      3.159245     3.151602     3.143959     3.136316     3.128673     3.121029     3.113386     3.105743     3.098100     3.090456
      3.082813     3.075170     3.067527     3.059884     3.052240     3.044597     3.036954     3.029311     3.021667     3.014024
      3.006381     2.998738     2.991095     2.983451     2.975808     2.968165     2.960522     2.952878     2.945235     2.937592
      2.929949     2.922306     2.914662     2.907019     2.899376     2.891733     2.884089     2.876446     2.868803     2.861160
      2.853517     2.845873     2.838230     2.830587     2.822944     2.815300     2.807657     2.800014     2.792371     2.784728
      2.777084     2.769441     2.761798     2.754155     2.746511     2.738868     2.731225     2.723582     2.715939     2.708295
      2.700652     2.693009     2.685366     2.677722     2.670079     2.662436     2.654793     2.647150     2.639506     2.631863
      2.624220     2.616577     2.608933     2.601290     2.593647     2.586004     2.578361     2.570717     2.563074     2.555431
      2.547788     2.540144     2.532501     2.524858     2.517215     2.509572     2.501928     2.494285     2.486642     2.478999
      2.471355     2.463712     2.456069     2.448426     2.440783     2.433139     2.425496     2.417853     2.410210     2.402566
      2.394923     2.387280     2.379637     2.371994     2.364350     2.356707     2.349064     2.341421     2.333777     2.326134
      2.318491     2.310848     2.303205     2.295561     2.287918     2.280275     2.272632     2.264988     2.257345     2.249702
      2.242059     2.234416     2.226772     2.219129     2.211486     2.203843     2.196199     2.188556     2.180913     2.173270
      2.165627     2.157983     2.150340     2.142697     2.135054     2.127410     2.119767     2.112124     2.104481     2.096838
      2.089194     2.081551     2.073908     2.066265     2.058621     2.050978     2.043335     2.035692     2.028049     2.020405
      2.012762     2.005119     1.997476     1.989833     1.982190     1.974546     1.966903     1.959260     1.951617     1.943974
      1.936331     1.928688     1.921045     1.913402     1.905759     1.898115     1.890472     1.882829     1.875186     1.867543
      1.859900     1.852257     1.844614     1.836971     1.829327     1.821684     1.814041     1.806398     1.798755     1.791112
      1.783469     1.775826     1.768183     1.760540     1.752896     1.745253     1.737610     1.729967     1.722324     1.714681
      1.707038     1.699395     1.691752     1.684108     1.676465     1.668822     1.661179     1.653536     1.645893     1.638250
      1.630607     1.622964     1.615321     1.607677     1.600034     1.592391     1.584748     1.577105     1.569462     1.561819
      1.554176     1.546533     1.538890     1.531246     1.523603     1.515960     1.508317     1.500674     1.493031     1.485388
      1.477745     1.470102     1.462458     1.454815     1.447172     1.439529     1.431886     1.424243     1.416600     1.408957
      1.401314     1.393671     1.386027     1.378384     1.370741     1.363098     1.355455     1.347812     1.340169     1.332526
      1.324883     1.317240     1.309596     1.301953     1.294310     1.286667     1.279024     1.271381     1.263738     1.256095
      1.248452     1.240808     1.233165     1.225522     1.217879     1.210236     1.202593     1.194950     1.187307     1.179664
      1.172021     1.164377     1.156734     1.149091     1.141448     1.133805     1.126162     1.118519     1.110876     1.103233
      1.095590     1.087946     1.080303     1.072660     1.065017     1.057374     1.049731     1.042088     1.034445     1.026802
      1.019158     1.011515     1.003872     0.996229     0.988586     0.980943     0.973300     0.965657     0.958014     0.950371
      0.942727     0.935084     0.927441     0.919798     0.912155     0.904512     0.896869     0.889226     0.881583     0.873940
      0.866296     0.858653     0.851010     0.843367     0.835724     0.828081     0.820438     0.812795     0.805152     0.797508
      0.789865     0.782222     0.774579     0.766936     0.759293     0.751650     0.744007     0.736364     0.728721     0.721077
      0.713434     0.705791     0.698148     0.690505     0.682862     0.675219     0.667576     0.659933     0.652290     0.644646
      0.637003     0.629360     0.621717     0.614074     0.606431     0.598788     0.591145     0.583502     0.575858     0.568215
      0.560572     0.552929     0.545286     0.537643     0.530000     0.522357     0.514714     0.507071     0.499427     0.491784
      0.484141     0.476498     0.468855     0.461212     0.453569     0.445925     0.438282     0.430639     0.422996     0.415353
      0.407710     0.400067     0.392424     0.384780     0.377137     0.369494     0.361851     0.354208     0.346565     0.338922
      0.331278     0.323635     0.315992     0.308349     0.300706     0.293063     0.285420     0.277777     0.270133     0.262490
      0.254847     0.247204     0.239561     0.231918     0.224275     0.216631     0.208988     0.201345
 NY phased data points follow
   1.67217E+01  1.96006E+01  1.71016E+01  1.63597E+01  1.90827E+01  1.50086E+01  2.18427E+01  2.27671E+01  1.98313E+01  2.95655E+01
   2.50394E+01  2.63362E+01  2.43341E+01  2.64749E+01  2.27273E+01  2.34561E+01  1.93054E+01  1.81478E+01  1.76788E+01  1.66534E+01
   1.85288E+01  1.56699E+01  1.61528E+01  1.76332E+01  1.67329E+01  1.41609E+01  1.67795E+01  1.63811E+01  1.54560E+01  1.71159E+01
   1.48246E+01  1.89423E+01  1.68621E+01  1.76440E+01  1.89221E+01  1.74899E+01  1.73234E+01  1.62236E+01  2.01414E+01  1.84173E+01
   2.09393E+01  1.62590E+01  1.91711E+01  1.97210E+01  1.93825E+01  2.09885E+01  2.37009E+01  2.34343E+01  2.45094E+01  2.25627E+01
   2.16752E+01  1.92865E+01  1.92786E+01  1.75607E+01  1.68955E+01  1.84646E+01  1.61612E+01  1.98165E+01  1.77300E+01  1.13777E+01
   1.28315E+01  8.10539E+00  7.56017E+00  7.91315E+00  4.82308E+00  6.13740E+00  5.68322E+00  4.57486E+00  3.70782E+00  5.88232E+00
   6.87592E+00  1.03757E+01  7.82755E+00  8.80323E+00  9.77732E+00  7.60677E+00  8.09050E+00  9.96359E+00  1.08657E+01  6.85066E+00
   9.18530E+00  8.92304E+00  1.04584E+01  1.00120E+01  1.19651E+01  7.12182E+00  1.00518E+01  1.19304E+01  1.05746E+01  1.17439E+01
   1.51507E+01  1.13598E+01  1.24525E+01  1.12653E+01  1.50379E+01  1.81370E+01  2.28858E+01  1.70594E+01  2.01668E+01  2.34640E+01
   3.66892E+01  4.80124E+01  5.83254E+01  6.27668E+01  5.95492E+01  5.06806E+01  4.42289E+01  3.36954E+01  2.56619E+01  2.13373E+01
   1.64364E+01  1.28526E+01  9.98585E+00  1.04514E+01  7.37042E+00  7.45472E+00  8.13505E+00  8.88372E+00  1.05691E+01  1.33465E+01
   1.17605E+01  1.51622E+01  1.30423E+01  1.89706E+01  3.03008E+01  4.69634E+01  6.39512E+01  6.84450E+01  6.89376E+01  6.20778E+01
   4.69576E+01  3.94406E+01  3.14306E+01  2.07531E+01  1.55992E+01  1.26658E+01  1.04134E+01  6.54672E+00  9.95151E+00  5.42859E+00
   7.06907E+00  7.75757E+00  7.95872E+00  8.22737E+00  7.81084E+00  5.79346E+00  5.45553E+00  6.40074E+00  6.30939E+00  4.41317E+00
   4.73660E+00  5.52701E+00  6.09666E+00  7.07751E+00  6.39952E+00  5.30891E+00  2.81819E+00  6.15395E+00  8.44227E+00  1.08504E+01
   1.42404E+00  3.17047E+00 -4.29713E-02 -2.88341E-01 -2.61178E-01  2.87360E+00 -2.81185E-01 -1.94705E+00 -8.72384E+00 -7.88458E+00
  -1.05524E+01 -9.92505E+00 -1.06926E+01 -1.51000E+01 -1.64107E+01 -1.90962E+01 -2.05917E+01 -1.98577E+01 -1.48916E+01 -1.07298E+01
  -1.16910E+01 -1.04621E+01 -8.11618E+00 -7.84772E+00 -5.76468E+00 -8.35520E+00 -7.76391E+00 -9.42644E+00 -9.37664E+00 -8.29300E+00
  -2.60959E+00  1.29950E+00  1.42948E+00  6.15895E-01  1.46824E+00 -3.82126E+00 -4.91160E+00 -1.11762E+01 -1.27908E+01 -8.96463E+00
  -5.47689E+00 -4.13325E+00  1.39356E-01  5.68439E+00  4.79264E+00  6.13188E+00  3.54759E+00  2.09610E+00  1.50508E+00 -5.86074E-02
   8.08699E-01 -2.82211E-01  4.94698E+00  1.31621E+01  1.76208E+01  2.24433E+01  2.16785E+01  2.26376E+01  1.26929E+01  1.10548E+01
   5.77385E+00 -2.79678E-02 -2.42841E+00 -9.26538E-01  2.61703E+00  8.18109E+00  1.04381E+01  1.40315E+01  1.41835E+01  1.01479E+01
   7.98408E+00  1.09019E+01  9.78403E+00  1.03507E+01  9.17023E+00  1.30070E+01  1.36894E+01  1.17265E+01  1.11336E+01  9.84100E+00
   5.47657E+00  3.24430E+00  7.48867E+00  4.56405E+00  4.44471E+00  9.23826E+00  1.30523E+01  1.58504E+01  1.73316E+01  2.39840E+01
   2.07893E+01  2.22320E+01  2.74872E+01  3.54116E+01  4.62232E+01  5.28226E+01  6.00591E+01  7.03088E+01  8.96058E+01  1.21443E+02
   1.42799E+02  1.37956E+02  1.16267E+02  8.84226E+01  7.10278E+01  5.18335E+01  3.71565E+01  2.57466E+01  1.83922E+01  1.69520E+01
   1.27862E+01  9.58312E+00  8.42977E+00  7.98185E+00  9.53419E+00  9.00195E+00  8.38510E+00  1.04920E+01  8.64990E+00  7.96738E+00
   8.24273E+00  8.20782E+00  1.05546E+01  6.00527E+00  4.63516E+00  5.57767E+00  6.03149E+00  4.85515E+00  7.70887E+00  5.24676E+00
   5.36609E+00  6.59051E+00  6.86387E+00  6.70093E+00  3.79630E+00  3.45365E+00  3.78601E+00  5.20997E+00  2.37307E+00  3.94328E+00
   2.68566E+00  1.72395E+00  3.59551E+00  5.18462E+00  2.80228E+00  1.80433E+00  2.57313E+00  5.03179E+00  3.22623E+00  7.73281E+00
   8.66654E+00  1.19664E+01  9.92957E+00  1.04518E+01  1.20068E+01  1.45670E+01  1.55366E+01  1.56148E+01  1.22816E+01  1.71378E+01
   1.41458E+01  1.54827E+01  1.26007E+01  1.14954E+01  1.14374E+01  1.02259E+01  1.08023E+01  1.06713E+01  1.10873E+01  9.67875E+00
   1.23273E+01  1.15249E+01  1.32990E+01  1.41277E+01  1.72927E+01  1.66396E+01  2.18259E+01  2.21199E+01  2.16214E+01  2.30991E+01
   2.44351E+01  2.26965E+01  2.35588E+01  2.37981E+01  2.71604E+01  3.05365E+01  2.71427E+01  2.76229E+01  2.63482E+01  2.98295E+01
   2.48397E+01  2.41513E+01  2.15713E+01  2.23477E+01  2.13278E+01  2.34863E+01  2.25104E+01  2.12606E+01  2.21510E+01  2.23349E+01
   1.97706E+01  2.55910E+01  1.70494E+01  2.09451E+01  2.12457E+01  1.90527E+01  1.91513E+01  2.12371E+01  1.93089E+01  1.78474E+01
   1.96063E+01  2.18813E+01  2.12411E+01  1.40691E+01  1.69750E+01  1.77867E+01  1.85072E+01  1.57459E+01  1.48126E+01  1.76503E+01
   1.68200E+01  1.16583E+01  1.61558E+01  1.32144E+01  1.20577E+01  1.49737E+01  1.45713E+01  1.42458E+01  1.64899E+01  1.61668E+01
   1.53673E+01  1.99311E+01  1.94010E+01  1.88739E+01  1.55839E+01  2.36164E+01  2.43043E+01  2.54442E+01  1.92603E+01  2.20497E+01
   1.89844E+01  2.31985E+01  2.35699E+01  2.11683E+01  2.15449E+01  1.94614E+01  2.52351E+01  2.37327E+01  2.37011E+01  2.20458E+01
   2.37217E+01  2.37990E+01  2.34999E+01  2.44229E+01  1.93678E+01  1.96907E+01  2.07778E+01  2.13178E+01  1.61090E+01  1.83260E+01
   1.71939E+01  1.15447E+01  1.37409E+01  1.67212E+01  1.27868E+01  1.24731E+01  1.44531E+01  9.68893E+00  1.19167E+01  1.20486E+01
   1.11395E+01  1.22523E+01  8.93454E+00  1.16914E+01  1.07078E+01  9.94977E+00  1.08137E+01  9.24692E+00  1.11712E+01  1.02329E+01
   9.41770E+00  8.37572E+00  7.06111E+00  1.21262E+01  9.75024E+00  7.65549E+00  9.11160E+00  8.11352E+00  1.08033E+01  7.07448E+00
   9.73899E+00  1.14932E+01  9.10044E+00  6.67987E+00  6.51429E+00  1.14610E+01  5.70667E+00  7.84219E+00  1.00107E+01  1.03484E+01
   8.17941E+00  7.14270E+00  9.42834E+00  7.26711E+00  7.67698E+00  5.14878E+00  7.74097E+00  6.62949E+00  7.23218E+00  5.22774E+00
   7.32887E+00  6.96507E+00  7.21902E+00  1.04962E+01  8.29765E+00  1.11026E+01  4.67641E+00  6.95334E+00  4.94199E+00  7.74786E+00
   5.24516E+00  5.54252E+00  8.82871E+00  6.88125E+00  1.05051E+01  8.20655E+00  7.69348E+00  5.98845E+00  7.03494E+00  4.50746E+00
   6.45544E+00  5.98182E+00  8.38768E+00  6.07038E+00  5.38065E+00  5.82134E+00  5.62089E+00  6.69106E+00
 NY points of the fit to the data follow
   1.66054E+01  1.62714E+01  1.62900E+01  1.69048E+01  1.77645E+01  1.87773E+01  2.00384E+01  2.17151E+01  2.38434E+01  2.59690E+01
   2.73456E+01  2.74351E+01  2.63605E+01  2.47154E+01  2.30507E+01  2.16273E+01  2.04373E+01  1.94157E+01  1.85205E+01  1.79373E+01
   1.75939E+01  1.72616E+01  1.70063E+01  1.69265E+01  1.66491E+01  1.59641E+01  1.52456E+01  1.51556E+01  1.61763E+01  1.81779E+01
   2.06265E+01  2.27569E+01  2.38979E+01  2.38002E+01  2.24521E+01  2.02386E+01  1.79011E+01  1.58558E+01  1.44736E+01  1.40620E+01
   1.44939E+01  1.53466E+01  1.62315E+01  1.71616E+01  1.83585E+01  1.98770E+01  2.14132E+01  2.23188E+01  2.20672E+01  2.07052E+01
   1.86814E+01  1.65715E+01  1.48521E+01  1.35998E+01  1.27120E+01  1.21612E+01  1.19790E+01  1.21673E+01  1.26034E+01  1.30529E+01
   1.32524E+01  1.30022E+01  1.23202E+01  1.13975E+01  1.05336E+01  9.96840E+00  9.71231E+00  9.67689E+00  9.82397E+00  1.01015E+01
   1.04341E+01  1.07080E+01  1.07992E+01  1.06591E+01  1.03456E+01  9.96151E+00  9.60394E+00  9.30353E+00  9.07930E+00  8.97731E+00
   9.15987E+00  9.38006E+00  9.50807E+00  9.83775E+00  1.06166E+01  1.17225E+01  1.26619E+01  1.28723E+01  1.21848E+01  1.09804E+01
   9.80174E+00  8.94815E+00  8.46300E+00  8.28420E+00  8.44592E+00  9.71816E+00  1.31544E+01  1.66444E+01  1.98896E+01  2.54013E+01
   3.51308E+01  4.80069E+01  5.96472E+01  6.49876E+01  6.20827E+01  5.32008E+01  4.24287E+01  3.25786E+01  2.44658E+01  1.79327E+01
   1.26622E+01  8.88315E+00  7.22260E+00  6.66405E+00  6.42028E+00  6.31167E+00  6.28808E+00  6.35015E+00  6.58503E+00  7.51292E+00
   1.08084E+01  1.51837E+01  1.88707E+01  2.38447E+01  3.28330E+01  4.60600E+01  5.99282E+01  6.86471E+01  6.84921E+01  6.05853E+01
   4.93059E+01  3.84607E+01  2.94132E+01  2.19452E+01  1.55475E+01  1.02310E+01  7.11002E+00  5.93768E+00  5.58186E+00  5.66978E+00
   5.95157E+00  6.20370E+00  6.31249E+00  6.24754E+00  6.03004E+00  5.73452E+00  5.42228E+00  5.09799E+00  4.78498E+00  4.50315E+00
   4.25121E+00  4.02093E+00  3.80060E+00  3.54461E+00  3.18088E+00  2.91740E+00  2.81711E+00  2.70401E+00  2.37259E+00  1.54815E+00
   5.16439E-01 -1.08496E-01 -1.94459E-02  5.15341E-01  9.09664E-01  7.11426E-01 -9.44241E-02 -1.18272E+00 -2.21551E+00 -3.13209E+00
  -3.88499E+00 -4.38774E+00 -4.93172E+00 -5.72979E+00 -6.68784E+00 -7.35329E+00 -7.32401E+00 -6.73901E+00 -6.17681E+00 -6.10360E+00
  -6.47863E+00 -6.64644E+00 -6.32222E+00 -5.80894E+00 -5.44645E+00 -5.24556E+00 -4.79120E+00 -3.62830E+00 -1.82347E+00  1.37303E-01
   1.66184E+00  2.34210E+00  2.35707E+00  2.07104E+00  1.73012E+00  1.37599E+00  1.03840E+00  1.02404E+00  1.40191E+00  2.21234E+00
   3.40803E+00  4.79100E+00  5.97073E+00  6.57720E+00  6.41815E+00  5.06842E+00  2.39733E+00 -8.81425E-01 -3.74627E+00 -5.24084E+00
  -5.37772E+00 -4.43906E+00 -2.25393E+00  1.30679E+00  5.58348E+00  9.12622E+00  1.06394E+01  9.91520E+00  7.36101E+00  3.50334E+00
  -6.84664E-01 -4.17775E+00 -5.94350E+00 -5.26956E+00 -2.53738E+00  1.29834E+00  5.08718E+00  8.03308E+00  9.85647E+00  1.07144E+01
   1.09472E+01  1.07102E+01  1.02381E+01  9.95048E+00  1.01245E+01  1.07309E+01  1.17046E+01  1.28483E+01  1.37073E+01  1.38501E+01
   1.31381E+01  1.19950E+01  1.11246E+01  1.10161E+01  1.16923E+01  1.29111E+01  1.44002E+01  1.58480E+01  1.72152E+01  1.87198E+01
   2.01065E+01  2.14838E+01  2.43223E+01  3.26939E+01  4.35948E+01  5.18800E+01  6.05267E+01  7.51114E+01  9.72127E+01  1.20987E+02
   1.35677E+02  1.33855E+02  1.17320E+02  9.43530E+01  7.24589E+01  5.45177E+01  4.02022E+01  2.84577E+01  1.89386E+01  1.36110E+01
   1.16478E+01  1.05440E+01  9.84646E+00  9.41826E+00  9.07589E+00  8.67859E+00  8.22029E+00  7.71593E+00  7.19553E+00  6.68868E+00
   6.22559E+00  5.82475E+00  5.50570E+00  5.26347E+00  5.06886E+00  4.89477E+00  4.72921E+00  4.57512E+00  4.44619E+00  4.35157E+00
   4.29917E+00  4.29417E+00  4.33221E+00  4.40308E+00  4.49669E+00  4.60539E+00  4.72830E+00  4.86581E+00  5.02551E+00  5.21415E+00
   5.43683E+00  5.69193E+00  5.97266E+00  6.26939E+00  6.57656E+00  6.88757E+00  7.19875E+00  7.50458E+00  7.80238E+00  8.09158E+00
   8.37376E+00  8.64764E+00  8.91501E+00  9.17735E+00  9.44084E+00  9.71215E+00  1.00022E+01  1.03230E+01  1.06983E+01  1.11772E+01
   1.17984E+01  1.23535E+01  1.28529E+01  1.35025E+01  1.43128E+01  1.50075E+01  1.51755E+01  1.46020E+01  1.36632E+01  1.28192E+01
   1.22661E+01  1.21495E+01  1.26437E+01  1.39068E+01  1.58827E+01  1.81950E+01  2.03413E+01  2.18858E+01  2.28123E+01  2.33769E+01
   2.37993E+01  2.41289E+01  2.43170E+01  2.44319E+01  2.46432E+01  2.49427E+01  2.51217E+01  2.50092E+01  2.46472E+01  2.41883E+01
   2.37391E+01  2.34034E+01  2.32694E+01  2.33930E+01  2.37535E+01  2.42090E+01  2.45758E+01  2.47084E+01  2.45649E+01  2.42322E+01
   2.37938E+01  2.32892E+01  2.27321E+01  2.21248E+01  2.15115E+01  2.09237E+01  2.03467E+01  1.97731E+01  1.92049E+01  1.86447E+01
   1.80987E+01  1.75717E+01  1.70697E+01  1.65966E+01  1.61579E+01  1.57575E+01  1.54009E+01  1.50916E+01  1.48340E+01  1.46299E+01
   1.44832E+01  1.43961E+01  1.43724E+01  1.44132E+01  1.45209E+01  1.46953E+01  1.49381E+01  1.52484E+01  1.56264E+01  1.60688E+01
   1.65723E+01  1.71306E+01  1.77383E+01  1.83861E+01  1.90650E+01  1.97617E+01  2.04634E+01  2.11544E+01  2.18207E+01  2.24457E+01
   2.30148E+01  2.35118E+01  2.39238E+01  2.42385E+01  2.44482E+01  2.45455E+01  2.45279E+01  2.43939E+01  2.41473E+01  2.37935E+01
   2.33422E+01  2.28031E+01  2.21893E+01  2.15131E+01  2.07895E+01  2.00321E+01  1.92557E+01  1.84717E+01  1.76923E+01  1.69264E+01
   1.61837E+01  1.54704E+01  1.47926E+01  1.41529E+01  1.35541E+01  1.29965E+01  1.24815E+01  1.20076E+01  1.15742E+01  1.11781E+01
   1.08179E+01  1.04906E+01  1.01947E+01  9.92713E+00  9.68587E+00  9.46747E+00  9.27055E+00  9.09254E+00  8.93259E+00  8.78805E+00
   8.65782E+00  8.53951E+00  8.43281E+00  8.33610E+00  8.24925E+00  8.17032E+00  8.09898E+00  8.03370E+00  7.97489E+00  7.92144E+00
   7.87358E+00  7.82975E+00  7.79013E+00  7.75368E+00  7.72119E+00  7.69172E+00  7.66561E+00  7.64153E+00  7.62000E+00  7.60027E+00
   7.58323E+00  7.56793E+00  7.55475E+00  7.54254E+00  7.53206E+00  7.52272E+00  7.51535E+00  7.50895E+00  7.50392E+00  7.49930E+00
   7.49602E+00  7.49351E+00  7.49252E+00  7.49199E+00  7.49240E+00  7.49298E+00  7.49473E+00  7.49703E+00  7.50052E+00  7.50411E+00
   7.50840E+00  7.51277E+00  7.51825E+00  7.52412E+00  7.53090E+00  7.53756E+00  7.54485E+00  7.55225E+00  7.56072E+00  7.56943E+00
   7.57885E+00  7.58805E+00  7.59790E+00  7.60795E+00  7.61903E+00  7.63022E+00  7.64198E+00  7.65355E+00
 NY background values follow
     1.312E+01    1.304E+01    1.296E+01    1.288E+01    1.279E+01    1.271E+01    1.263E+01    1.254E+01    1.246E+01    1.238E+01
     1.230E+01    1.221E+01    1.213E+01    1.205E+01    1.197E+01    1.188E+01    1.180E+01    1.172E+01    1.164E+01    1.155E+01
     1.147E+01    1.139E+01    1.131E+01    1.122E+01    1.114E+01    1.106E+01    1.098E+01    1.089E+01    1.081E+01    1.073E+01
     1.064E+01    1.056E+01    1.048E+01    1.040E+01    1.031E+01    1.023E+01    1.015E+01    1.006E+01    9.980E+00    9.897E+00
     9.813E+00    9.730E+00    9.646E+00    9.563E+00    9.479E+00    9.396E+00    9.312E+00    9.228E+00    9.144E+00    9.060E+00
     8.976E+00    8.892E+00    8.808E+00    8.723E+00    8.639E+00    8.554E+00    8.470E+00    8.385E+00    8.300E+00    8.215E+00
     8.130E+00    8.045E+00    7.960E+00    7.874E+00    7.789E+00    7.704E+00    7.618E+00    7.532E+00    7.446E+00    7.360E+00
     7.274E+00    7.188E+00    7.102E+00    7.015E+00    6.929E+00    6.842E+00    6.755E+00    6.669E+00    6.582E+00    6.494E+00
     6.407E+00    6.320E+00    6.232E+00    6.145E+00    6.057E+00    5.969E+00    5.881E+00    5.793E+00    5.704E+00    5.616E+00
     5.527E+00    5.439E+00    5.350E+00    5.261E+00    5.172E+00    5.083E+00    4.993E+00    4.904E+00    4.814E+00    4.725E+00
     4.635E+00    4.545E+00    4.456E+00    4.366E+00    4.276E+00    4.186E+00    4.096E+00    4.007E+00    3.917E+00    3.827E+00
     3.737E+00    3.647E+00    3.557E+00    3.468E+00    3.378E+00    3.288E+00    3.199E+00    3.109E+00    3.020E+00    2.931E+00
     2.842E+00    2.752E+00    2.664E+00    2.575E+00    2.486E+00    2.397E+00    2.309E+00    2.221E+00    2.133E+00    2.045E+00
     1.957E+00    1.870E+00    1.782E+00    1.695E+00    1.609E+00    1.522E+00    1.436E+00    1.349E+00    1.264E+00    1.178E+00
     1.093E+00    1.008E+00    9.239E-01    8.401E-01    7.567E-01    6.739E-01    5.916E-01    5.100E-01    4.289E-01    3.486E-01
     2.689E-01    1.900E-01    1.118E-01    3.441E-02   -4.213E-02   -1.178E-01   -1.926E-01   -2.664E-01   -3.393E-01   -4.111E-01
    -4.820E-01   -5.517E-01   -6.204E-01   -6.879E-01   -7.542E-01   -8.194E-01   -8.833E-01   -9.459E-01   -1.007E+00   -1.067E+00
    -1.126E+00   -1.183E+00   -1.239E+00   -1.293E+00   -1.346E+00   -1.397E+00   -1.447E+00   -1.495E+00   -1.541E+00   -1.586E+00
    -1.629E+00   -1.670E+00   -1.710E+00   -1.747E+00   -1.784E+00   -1.818E+00   -1.851E+00   -1.882E+00   -1.911E+00   -1.939E+00
    -1.966E+00   -1.991E+00   -2.015E+00   -2.037E+00   -2.057E+00   -2.077E+00   -2.095E+00   -2.112E+00   -2.127E+00   -2.141E+00
    -2.154E+00   -2.166E+00   -2.177E+00   -2.186E+00   -2.195E+00   -2.202E+00   -2.208E+00   -2.214E+00   -2.218E+00   -2.221E+00
    -2.224E+00   -2.225E+00   -2.226E+00   -2.226E+00   -2.225E+00   -2.224E+00   -2.221E+00   -2.218E+00   -2.215E+00   -2.210E+00
    -2.205E+00   -2.200E+00   -2.194E+00   -2.187E+00   -2.180E+00   -2.173E+00   -2.165E+00   -2.156E+00   -2.147E+00   -2.138E+00
    -2.129E+00   -2.119E+00   -2.108E+00   -2.098E+00   -2.087E+00   -2.075E+00   -2.063E+00   -2.051E+00   -2.038E+00   -2.025E+00
    -2.011E+00   -1.997E+00   -1.982E+00   -1.968E+00   -1.952E+00   -1.937E+00   -1.921E+00   -1.904E+00   -1.887E+00   -1.870E+00
    -1.852E+00   -1.834E+00   -1.815E+00   -1.796E+00   -1.777E+00   -1.757E+00   -1.737E+00   -1.716E+00   -1.695E+00   -1.673E+00
    -1.651E+00   -1.629E+00   -1.606E+00   -1.582E+00   -1.559E+00   -1.535E+00   -1.510E+00   -1.485E+00   -1.459E+00   -1.434E+00
    -1.407E+00   -1.380E+00   -1.353E+00   -1.326E+00   -1.297E+00   -1.269E+00   -1.240E+00   -1.211E+00   -1.181E+00   -1.151E+00
    -1.120E+00   -1.089E+00   -1.058E+00   -1.026E+00   -9.943E-01   -9.619E-01   -9.291E-01   -8.959E-01   -8.624E-01   -8.286E-01
    -7.944E-01   -7.599E-01   -7.250E-01   -6.899E-01   -6.544E-01   -6.186E-01   -5.825E-01   -5.461E-01   -5.094E-01   -4.724E-01
    -4.351E-01   -3.975E-01   -3.597E-01   -3.216E-01   -2.832E-01   -2.446E-01   -2.058E-01   -1.666E-01   -1.273E-01   -8.769E-02
    -4.787E-02   -7.822E-03    3.244E-02    7.292E-02    1.136E-01    1.545E-01    1.956E-01    2.368E-01    2.783E-01    3.199E-01
     3.618E-01    4.037E-01    4.459E-01    4.882E-01    5.307E-01    5.734E-01    6.162E-01    6.591E-01    7.022E-01    7.455E-01
     7.888E-01    8.323E-01    8.760E-01    9.197E-01    9.636E-01    1.008E+00    1.052E+00    1.096E+00    1.140E+00    1.185E+00
     1.229E+00    1.274E+00    1.319E+00    1.363E+00    1.408E+00    1.453E+00    1.498E+00    1.543E+00    1.588E+00    1.634E+00
     1.679E+00    1.724E+00    1.770E+00    1.815E+00    1.861E+00    1.906E+00    1.952E+00    1.997E+00    2.043E+00    2.088E+00
     2.134E+00    2.180E+00    2.225E+00    2.271E+00    2.316E+00    2.362E+00    2.408E+00    2.453E+00    2.499E+00    2.544E+00
     2.590E+00    2.635E+00    2.681E+00    2.726E+00    2.772E+00    2.817E+00    2.862E+00    2.908E+00    2.953E+00    2.998E+00
     3.043E+00    3.088E+00    3.132E+00    3.177E+00    3.222E+00    3.266E+00    3.311E+00    3.355E+00    3.399E+00    3.443E+00
     3.487E+00    3.531E+00    3.575E+00    3.619E+00    3.662E+00    3.705E+00    3.749E+00    3.792E+00    3.834E+00    3.877E+00
     3.920E+00    3.962E+00    4.004E+00    4.046E+00    4.088E+00    4.129E+00    4.171E+00    4.212E+00    4.253E+00    4.294E+00
     4.335E+00    4.375E+00    4.415E+00    4.455E+00    4.495E+00    4.534E+00    4.574E+00    4.613E+00    4.651E+00    4.690E+00
     4.728E+00    4.767E+00    4.804E+00    4.842E+00    4.880E+00    4.917E+00    4.954E+00    4.990E+00    5.027E+00    5.063E+00
     5.099E+00    5.134E+00    5.170E+00    5.205E+00    5.240E+00    5.274E+00    5.308E+00    5.342E+00    5.376E+00    5.410E+00
     5.443E+00    5.476E+00    5.508E+00    5.541E+00    5.573E+00    5.604E+00    5.636E+00    5.667E+00    5.698E+00    5.728E+00
     5.758E+00    5.788E+00    5.818E+00    5.847E+00    5.876E+00    5.904E+00    5.933E+00    5.961E+00    5.989E+00    6.016E+00
     6.043E+00    6.070E+00    6.097E+00    6.124E+00    6.150E+00    6.176E+00    6.202E+00    6.228E+00    6.253E+00    6.278E+00
     6.304E+00    6.328E+00    6.353E+00    6.378E+00    6.402E+00    6.427E+00    6.451E+00    6.475E+00    6.499E+00    6.523E+00
     6.546E+00    6.570E+00    6.594E+00    6.617E+00    6.641E+00    6.664E+00    6.687E+00    6.710E+00    6.734E+00    6.757E+00
     6.780E+00    6.803E+00    6.826E+00    6.850E+00    6.873E+00    6.896E+00    6.919E+00    6.942E+00
 Ala      Conc. = 3.10E+02
