 LCModel (Version 6.3-1L) Copyright: S.W. Provencher.          Ref.: Magn. Reson. Med. 30:672-679 (1993).                
 Slice#3 Row#1 Col#6  K_02_press_1_raw_act
 36 lines in following concentration table = NCONC+1
    Conc.  %SD /Cr+PCr  Metabolite                                         
   78.673  36%   0.861 Ala                                                 
   14.043  94%   0.154 Asp                                                 
   37.948  85%   0.415 Cr                                                  
   53.388  64%   0.585 PCr                                                 
    9.877  80%   0.108 GABA                                                
    9.673  83%   0.106 Glc                                                 
   18.073 258%   0.198 Gln                                                 
  148.805  38%   1.629 Glu                                                 
   34.029  23%   0.373 GPC                                                 
    0.000 999%   0.000 PCh                                                 
   49.311  43%   0.540 GSH                                                 
   78.309  77%   0.857 Ins                                                 
    6.120 406% 6.7E-02 Lac                                                 
  113.271  22%   1.240 NAA                                                 
    0.000 999%   0.000 NAAG                                                
    3.259  79% 3.6E-02 Scyllo                                              
   17.315  75%   0.190 Tau                                                 
   24.989  69%   0.274 -CrCH2                                              
   34.029  23%   0.373 GPC+PCh                                             
  113.271  22%   1.240 NAA+NAAG                                            
   91.336  23%   1.000 Cr+PCr                                              
  166.877  42%   1.827 Glu+Gln                                             
 1.96E+03  18%  21.467 Lip13a                                              
    0.000 999%   0.000 Lip13b                                              
  436.008  39%   4.774 Lip09                                               
  223.654  65%   2.449 MM09                                                
  173.604  71%   1.901 Lip20                                               
  140.112 133%   1.534 MM20                                                
   64.932 108%   0.711 MM12                                                
  469.719  45%   5.143 MM14                                                
  580.297  21%   6.353 MM17                                                
 1.96E+03  18%  21.467 Lip13a+Lip13b                                       
 2.50E+03  10%  27.321 MM14+Lip13a+Lip13b+MM12                             
  659.661  17%   7.222 MM09+Lip09                                          
  313.716  51%   3.435 MM20+Lip20                                          
   6 lines in following misc. output table
  FWHM = 0.031 ppm    S/N =   2                                            
  Data shift = 0.054 ppm                                                   
  Ph: -35 deg     -23.7 deg/ppm                                            
  alphaB,S = 8.5E+01,   1.3E+01                                            
   14 spline knots.   Ns = 5(1)                                            
   2 inflections.     2 extrema                                            
  498 points on ppm-axis = NY
      4.000000     3.992357     3.984714     3.977070     3.969427     3.961784     3.954141     3.946497     3.938854     3.931211
      3.923568     3.915925     3.908281     3.900638     3.892995     3.885352     3.877708     3.870065     3.862422     3.854779
      3.847136     3.839492     3.831849     3.824206     3.816563     3.808919     3.801276     3.793633     3.785990     3.778347
      3.770703     3.763060     3.755417     3.747774     3.740130     3.732487     3.724844     3.717201     3.709558     3.701914
      3.694271     3.686628     3.678985     3.671341     3.663698     3.656055     3.648412     3.640769     3.633125     3.625482
      3.617839     3.610196     3.602552     3.594909     3.587266     3.579623     3.571980     3.564336     3.556693     3.549050
      3.541407     3.533763     3.526120     3.518477     3.510834     3.503191     3.495547     3.487904     3.480261     3.472618
      3.464974     3.457331     3.449688     3.442045     3.434402     3.426758     3.419115     3.411472     3.403829     3.396185
      3.388542     3.380899     3.373256     3.365613     3.357969     3.350326     3.342683     3.335040     3.327396     3.319753
      3.312110     3.304467     3.296824     3.289180     3.281537     3.273894     3.266251     3.258607     3.250964     3.243321
      3.235678     3.228034     3.220391     3.212748     3.205105     3.197462     3.189818     3.182175     3.174532     3.166889
      3.159245     3.151602     3.143959     3.136316     3.128673     3.121029     3.113386     3.105743     3.098100     3.090456
      3.082813     3.075170     3.067527     3.059884     3.052240     3.044597     3.036954     3.029311     3.021667     3.014024
      3.006381     2.998738     2.991095     2.983451     2.975808     2.968165     2.960522     2.952878     2.945235     2.937592
      2.929949     2.922306     2.914662     2.907019     2.899376     2.891733     2.884089     2.876446     2.868803     2.861160
      2.853517     2.845873     2.838230     2.830587     2.822944     2.815300     2.807657     2.800014     2.792371     2.784728
      2.777084     2.769441     2.761798     2.754155     2.746511     2.738868     2.731225     2.723582     2.715939     2.708295
      2.700652     2.693009     2.685366     2.677722     2.670079     2.662436     2.654793     2.647150     2.639506     2.631863
      2.624220     2.616577     2.608933     2.601290     2.593647     2.586004     2.578361     2.570717     2.563074     2.555431
      2.547788     2.540144     2.532501     2.524858     2.517215     2.509572     2.501928     2.494285     2.486642     2.478999
      2.471355     2.463712     2.456069     2.448426     2.440783     2.433139     2.425496     2.417853     2.410210     2.402566
      2.394923     2.387280     2.379637     2.371994     2.364350     2.356707     2.349064     2.341421     2.333777     2.326134
      2.318491     2.310848     2.303205     2.295561     2.287918     2.280275     2.272632     2.264988     2.257345     2.249702
      2.242059     2.234416     2.226772     2.219129     2.211486     2.203843     2.196199     2.188556     2.180913     2.173270
      2.165627     2.157983     2.150340     2.142697     2.135054     2.127410     2.119767     2.112124     2.104481     2.096838
      2.089194     2.081551     2.073908     2.066265     2.058621     2.050978     2.043335     2.035692     2.028049     2.020405
      2.012762     2.005119     1.997476     1.989833     1.982190     1.974546     1.966903     1.959260     1.951617     1.943974
      1.936331     1.928688     1.921045     1.913402     1.905759     1.898115     1.890472     1.882829     1.875186     1.867543
      1.859900     1.852257     1.844614     1.836971     1.829327     1.821684     1.814041     1.806398     1.798755     1.791112
      1.783469     1.775826     1.768183     1.760540     1.752896     1.745253     1.737610     1.729967     1.722324     1.714681
      1.707038     1.699395     1.691752     1.684108     1.676465     1.668822     1.661179     1.653536     1.645893     1.638250
      1.630607     1.622964     1.615321     1.607677     1.600034     1.592391     1.584748     1.577105     1.569462     1.561819
      1.554176     1.546533     1.538890     1.531246     1.523603     1.515960     1.508317     1.500674     1.493031     1.485388
      1.477745     1.470102     1.462458     1.454815     1.447172     1.439529     1.431886     1.424243     1.416600     1.408957
      1.401314     1.393671     1.386027     1.378384     1.370741     1.363098     1.355455     1.347812     1.340169     1.332526
      1.324883     1.317240     1.309596     1.301953     1.294310     1.286667     1.279024     1.271381     1.263738     1.256095
      1.248452     1.240808     1.233165     1.225522     1.217879     1.210236     1.202593     1.194950     1.187307     1.179664
      1.172021     1.164377     1.156734     1.149091     1.141448     1.133805     1.126162     1.118519     1.110876     1.103233
      1.095590     1.087946     1.080303     1.072660     1.065017     1.057374     1.049731     1.042088     1.034445     1.026802
      1.019158     1.011515     1.003872     0.996229     0.988586     0.980943     0.973300     0.965657     0.958014     0.950371
      0.942727     0.935084     0.927441     0.919798     0.912155     0.904512     0.896869     0.889226     0.881583     0.873940
      0.866296     0.858653     0.851010     0.843367     0.835724     0.828081     0.820438     0.812795     0.805152     0.797508
      0.789865     0.782222     0.774579     0.766936     0.759293     0.751650     0.744007     0.736364     0.728721     0.721077
      0.713434     0.705791     0.698148     0.690505     0.682862     0.675219     0.667576     0.659933     0.652290     0.644646
      0.637003     0.629360     0.621717     0.614074     0.606431     0.598788     0.591145     0.583502     0.575858     0.568215
      0.560572     0.552929     0.545286     0.537643     0.530000     0.522357     0.514714     0.507071     0.499427     0.491784
      0.484141     0.476498     0.468855     0.461212     0.453569     0.445925     0.438282     0.430639     0.422996     0.415353
      0.407710     0.400067     0.392424     0.384780     0.377137     0.369494     0.361851     0.354208     0.346565     0.338922
      0.331278     0.323635     0.315992     0.308349     0.300706     0.293063     0.285420     0.277777     0.270133     0.262490
      0.254847     0.247204     0.239561     0.231918     0.224275     0.216631     0.208988     0.201345
 NY phased data points follow
  -2.33056E+00 -7.18746E-01 -1.27514E+00 -4.38731E+00 -2.75967E+00 -5.87863E+00 -2.67703E+00 -4.05247E+00 -1.46367E+00 -3.89688E+00
  -8.11378E-01 -2.30031E+00  2.43144E+00 -2.53989E+00  1.96819E+00 -3.52977E+00 -4.75009E+00 -6.77363E-01 -3.56962E+00 -4.14188E+00
  -1.36065E+00 -1.46689E+00 -6.16092E-01 -3.13742E+00  1.37466E+00 -4.55450E+00  3.34254E-01  2.76617E-01 -4.76037E-01 -3.32058E+00
  -9.43015E-02  2.58282E-02 -4.63002E-01 -1.73794E+00  8.11956E-01 -1.87863E+00  3.14892E-01 -2.71668E+00  1.73002E+00  1.51994E-01
  -2.78340E+00  1.07723E+00 -4.82194E+00 -4.26687E+00  1.38349E+00  1.92367E+00 -2.08345E+00  1.61656E+00  3.94476E+00 -1.58487E+00
  -2.19616E+00 -2.68223E+00 -1.38406E+00  6.87646E-01  7.33605E-01  3.08282E-01 -5.61547E-01 -5.03356E-01  7.48234E-01 -1.08852E+00
  -9.18445E-01  2.76085E-01  3.66800E-01 -4.74243E-01 -3.43511E-01 -1.33689E+00  2.67164E+00 -2.47356E+00  2.97113E+00 -3.37639E+00
   1.21992E+00  1.63220E-01 -1.90773E+00 -1.10057E+00 -2.99812E+00  2.69531E+00  2.62920E+00  7.43851E-01 -4.29353E+00 -3.25509E+00
  -5.96451E-01 -2.24542E+00  1.07254E+00  4.88197E+00 -1.14745E+00 -2.99631E+00 -3.14885E-01  3.44647E+00  3.87489E-02 -1.02595E+00
  -3.11759E+00 -9.04948E-01 -2.02250E+00  3.40540E+00  3.12649E+00 -1.25540E+00  2.08368E+00  1.85710E-01  6.70968E-02 -8.58387E-01
  -6.04792E+00 -2.27068E+00  9.59192E-01  1.02359E+01  6.89500E+00  4.31899E+00  9.58978E-01  2.89472E+00 -2.00865E+00  4.38097E+00
  -9.81032E-01 -1.70703E+00  1.55496E+00 -9.11570E-01 -6.99595E-01 -3.76307E-01  1.03426E+00 -4.17582E-01  3.64331E+00  3.10426E+00
   1.91083E+00  3.50310E+00 -9.95942E-01  1.13827E-01 -8.79283E+00 -4.10488E+00  1.29319E+00  6.56568E+00  7.03520E+00  6.32233E+00
   3.79297E+00  2.58525E+00 -5.93726E-01  1.34301E+00  3.15713E+00  1.08749E-01  1.12727E+00 -2.61392E+00 -2.20319E+00 -3.78242E-01
   1.74200E+00 -3.52323E+00 -4.58740E-01  1.42684E+00  1.34729E+00 -1.99760E+00 -2.58799E+00 -2.30770E-01  1.23241E+00 -1.79066E+00
   1.15828E-01  7.46872E-02  9.80580E-01  8.36795E-02 -1.40204E+00 -1.05671E+00 -1.56104E+00 -1.22469E+00 -3.69179E-01 -2.62414E+00
  -1.96252E+00  2.36228E-01  1.49501E+00  1.17881E+00 -2.05492E+00 -6.93075E-01  1.79420E-01 -2.58357E+00  1.61410E+00  4.37016E+00
  -2.09767E-01  9.57162E-01  9.76076E-01  4.03528E+00 -3.67211E+00  4.92732E-01 -2.82660E+00 -1.40133E+00  1.08576E+00  3.32672E+00
  -1.57708E+00 -2.08200E+00  5.67049E-01 -3.09717E+00 -1.74207E+00  2.35174E+00 -2.22461E+00 -4.91834E+00 -4.52126E+00  9.15075E-01
  -1.38404E+00 -6.88916E-01 -1.72367E-01 -9.67460E-02  4.61419E+00  2.29089E+00  4.06832E+00  1.99875E+00  2.55701E+00 -3.98939E+00
  -1.27516E+00 -5.49592E-01 -3.34919E-01 -5.72649E-01  3.25019E+00  2.79352E+00  2.52880E-01  2.07195E+00  3.92702E+00 -1.07001E+00
   2.62239E+00  1.14120E+00 -1.26978E+00 -1.07147E-01  5.59650E-01  3.96301E+00  1.40043E+00  5.22694E+00  4.00905E+00  6.82846E+00
   2.55731E+00 -8.61645E-01  6.70586E-01  3.11456E+00 -1.37690E+00  8.55062E-01  1.06298E+00 -8.73159E-01  2.48236E+00  2.90572E+00
   4.11923E+00  1.51246E+00  1.83713E+00  5.20183E-01  7.22470E-01 -9.93296E-01  3.65833E+00  8.39397E-01 -3.28141E-01  2.71527E+00
   2.96057E+00  2.66995E+00  1.54272E+00  5.67856E-01 -3.28389E+00  1.12450E+00 -1.62837E-02  1.80548E+00  4.50251E+00  2.10540E+00
   1.75165E+00  3.31517E+00  3.28282E+00  3.83196E+00  2.12985E+00  3.67931E+00  1.86696E+00 -2.74921E+00 -5.38908E+00 -5.14299E-01
   2.28159E+00  1.03831E+01  1.13807E+01  8.66811E+00  4.72682E+00  3.94068E+00  5.35620E+00  7.83242E+00  3.30722E+00  4.30285E+00
   1.03733E+00  2.31519E+00  4.55661E+00  3.24603E+00  1.27210E-01  2.04319E-01  5.66966E+00  4.64515E+00  2.86848E+00  6.48231E+00
   3.22059E+00  4.96105E+00  3.50867E+00  1.48886E+00  1.30250E+00  6.20614E-01  2.78198E+00  5.92683E+00  9.49701E-01  2.04088E+00
   4.88860E+00  1.38015E+00  4.99798E+00  5.24821E+00  9.64059E-01  1.30427E+00  3.45296E+00  4.25958E+00  4.29642E+00  6.37680E+00
   3.55455E+00  5.47658E+00  5.91798E+00  2.39462E+00  5.54201E+00  5.84804E+00  5.98776E+00  4.66542E+00  7.55101E+00  7.94341E+00
   2.39091E+00  7.82949E+00  1.45853E+01  8.28885E+00  1.04446E+01  1.11600E+01  7.16133E+00  8.18040E+00  1.00337E+01  1.14412E+01
   8.00510E+00  7.07495E+00  6.49754E+00  1.12410E+01  9.22686E+00  9.14842E+00  5.90082E+00  9.98974E+00  1.03714E+01  8.85233E+00
   3.90760E+00  8.70104E+00  3.68883E+00  4.94291E+00  6.66535E+00  4.18668E+00  2.67322E+00  6.53043E+00  1.05492E+01  7.30357E+00
   9.60435E+00  9.25023E+00  1.09842E+01  1.01891E+01  1.59998E+01  1.00169E+01  1.44200E+01  1.05041E+01  9.90835E+00  1.50628E+01
   9.72387E+00  9.53243E+00  9.43821E+00  1.41169E+01  9.14559E+00  1.34630E+01  9.95724E+00  9.40468E+00  1.17393E+01  8.91813E+00
   9.71983E+00  9.12754E+00  1.21652E+01  1.03065E+01  7.01490E+00  1.05552E+01  9.16684E+00  7.63485E+00  7.94699E+00  7.30295E+00
   2.55486E+00  6.43292E+00  5.95019E+00  9.08548E+00  8.10522E+00  1.58050E+00  1.08169E+01  5.78852E+00  7.10660E+00  6.75986E+00
   6.40208E+00  6.25005E+00  7.31245E+00  9.22803E+00  7.95589E+00  9.78546E+00  9.13694E+00  4.86307E+00  7.78088E+00  6.26835E+00
   6.94547E+00  6.65588E+00  7.37312E+00  6.83243E+00  7.35003E+00  9.58849E+00  7.32299E+00  6.65846E+00  7.37598E+00  6.14053E+00
   7.79317E+00  7.26453E+00  8.32251E+00  9.65108E+00  8.87257E+00  5.68076E+00  7.30564E+00  5.59177E+00  4.70929E+00  5.79622E+00
   3.45393E+00  7.36385E+00  5.69454E+00  6.49356E+00  8.98015E+00  5.86369E+00  5.26511E+00  5.43650E+00  6.22276E+00  4.77163E+00
   5.61503E+00  5.01605E+00  8.56819E+00  7.52247E+00  7.45653E+00  7.90575E+00  5.47849E+00  5.90642E+00  5.80605E+00  2.97788E+00
   2.14245E+00  4.95807E+00  4.20853E+00  1.59861E+00  5.83454E+00  1.18464E+00  2.31106E+00  4.82874E+00  6.07152E-01  5.86398E-01
   3.59426E+00  4.78190E+00  1.50287E+00  4.41641E+00  3.80760E+00  7.36704E+00  6.53211E+00  5.14539E+00  5.97553E+00  6.06046E+00
   4.24758E+00  6.17863E+00  5.75250E+00  4.71876E+00  4.73139E+00  4.30557E+00  7.45016E+00  4.16941E+00  3.15112E+00  2.59649E+00
   8.74709E+00  5.28888E+00  3.76625E+00  4.12680E+00  3.75453E+00  3.52919E+00  3.70012E+00  1.32287E+00  3.87855E+00  2.77464E+00
   2.56863E+00  4.70721E+00  2.73222E+00  3.20588E+00  5.65497E+00  2.83323E+00  5.14648E+00  1.60721E+00  4.60233E+00  2.38590E+00
   4.12174E+00  3.50003E+00  4.51712E+00  1.10220E+00  3.29778E+00  6.72991E+00  6.70296E+00  5.31772E+00  1.65872E+00  4.97559E+00
   2.06741E+00  4.98527E+00 -9.96420E-01  3.04728E+00  3.13527E+00  3.44927E+00  3.67870E+00  3.27858E+00
 NY points of the fit to the data follow
  -1.80981E+00 -1.90093E+00 -1.96753E+00 -2.00939E+00 -2.07823E+00 -2.22427E+00 -2.33306E+00 -2.27058E+00 -1.90592E+00 -1.12774E+00
  -9.81937E-02  7.80346E-01  1.13165E+00  8.58844E-01  2.32133E-01 -3.73252E-01 -7.89737E-01 -1.15592E+00 -1.48310E+00 -1.71000E+00
  -1.79124E+00 -1.72809E+00 -1.58913E+00 -1.36534E+00 -1.02509E+00 -7.71555E-01 -1.02654E+00 -1.77210E+00 -2.33386E+00 -2.12840E+00
  -1.27405E+00 -3.80529E-01  1.76844E-01  4.79276E-01  6.52001E-01  5.86372E-01  1.65392E-01 -3.81081E-01 -8.66961E-01 -1.28610E+00
  -1.55259E+00 -1.60381E+00 -1.55041E+00 -1.56707E+00 -1.61702E+00 -1.48778E+00 -1.04911E+00 -4.16153E-01  8.07223E-02  2.12044E-01
   4.49674E-03 -3.87641E-01 -7.94572E-01 -1.09469E+00 -1.24570E+00 -1.30086E+00 -1.33207E+00 -1.33812E+00 -1.26173E+00 -1.06399E+00
  -8.08078E-01 -6.20013E-01 -5.88190E-01 -7.08888E-01 -9.02317E-01 -1.07870E+00 -1.16213E+00 -1.15116E+00 -1.10227E+00 -1.04678E+00
  -9.83036E-01 -9.16008E-01 -8.63589E-01 -8.17429E-01 -7.47036E-01 -6.49278E-01 -5.55375E-01 -5.38407E-01 -6.22371E-01 -7.51407E-01
  -8.62440E-01 -9.28080E-01 -9.50398E-01 -9.11356E-01 -7.81328E-01 -5.86867E-01 -4.38261E-01 -4.52853E-01 -6.36480E-01 -8.57297E-01
  -9.76515E-01 -9.67967E-01 -8.99664E-01 -8.22193E-01 -7.69231E-01 -7.60837E-01 -7.88976E-01 -9.63286E-01 -1.67050E+00 -2.88693E+00
  -3.25811E+00 -1.48468E+00  2.06336E+00  5.48451E+00  6.86610E+00  5.97046E+00  4.04628E+00  2.22857E+00  8.27052E-01 -5.88453E-02
  -3.28739E-01 -3.99803E-01 -4.23550E-01 -4.27785E-01 -4.26019E-01 -4.15296E-01 -3.90507E-01 -3.58593E-01 -3.41604E-01 -3.55376E-01
  -4.09772E-01 -5.65192E-01 -1.07534E+00 -2.13660E+00 -2.83433E+00 -1.79102E+00  1.15448E+00  4.56619E+00  6.52135E+00  6.25869E+00
   4.62968E+00  2.93522E+00  1.77749E+00  1.13967E+00  9.78212E-01  7.97303E-01  3.43588E-01 -2.14933E-01 -6.36571E-01 -7.63305E-01
  -5.68339E-01 -1.67368E-01  2.25648E-01  4.68103E-01  5.48980E-01  5.18840E-01  4.44123E-01  3.76526E-01  3.24068E-01  3.02849E-01
   2.94117E-01  2.83230E-01  2.62180E-01  2.30639E-01  1.97400E-01  1.81363E-01  2.08924E-01  2.88108E-01  3.75745E-01  3.95423E-01
   3.07277E-01  1.44966E-01  1.62791E-02  2.20316E-02  1.53031E-01  3.10307E-01  4.02698E-01  4.08167E-01  3.58489E-01  3.00634E-01
   2.61749E-01  2.50243E-01  2.83009E-01  3.28514E-01  3.05863E-01  1.89106E-01  5.12762E-02  9.58289E-03  9.81626E-02  2.14335E-01
   2.41050E-01  1.86319E-01  1.55385E-01  2.02392E-01  2.53781E-01  2.01305E-01  2.05731E-02 -1.74238E-01 -2.26469E-01 -4.05722E-02
   3.48963E-01  7.89828E-01  1.11511E+00  1.24779E+00  1.22185E+00  1.06982E+00  7.93694E-01  4.42997E-01  1.53905E-01  5.89254E-02
   1.65046E-01  3.77084E-01  6.26646E-01  9.19027E-01  1.25194E+00  1.51767E+00  1.66874E+00  1.67601E+00  1.49412E+00  1.14689E+00
   6.96347E-01  2.23929E-01 -1.94835E-01 -3.49745E-01  6.60020E-02  1.08051E+00  2.30969E+00  3.16812E+00  3.39880E+00  3.11051E+00
   2.37132E+00  1.19237E+00 -1.43619E-01 -1.03645E+00 -1.08976E+00 -4.33488E-01  5.11061E-01  1.39109E+00  2.06687E+00  2.40840E+00
   2.31893E+00  1.93126E+00  1.52925E+00  1.29080E+00  1.26885E+00  1.47394E+00  1.89945E+00  2.44511E+00  2.86487E+00  2.95307E+00
   2.69316E+00  2.19219E+00  1.61526E+00  1.16882E+00  1.05017E+00  1.32340E+00  1.84866E+00  2.39469E+00  2.77740E+00  2.90825E+00
   2.75389E+00  2.43472E+00  2.15848E+00  2.07366E+00  2.14965E+00  2.12483E+00  1.41163E+00 -1.49770E-02 -5.53673E-01  1.36252E+00
   5.36641E+00  9.28292E+00  1.09409E+01  1.00388E+01  7.92824E+00  5.85215E+00  4.16897E+00  3.06393E+00  2.67028E+00  2.49252E+00
   2.32766E+00  2.17093E+00  2.06410E+00  2.02864E+00  2.07757E+00  2.17625E+00  2.27261E+00  2.33669E+00  2.36220E+00  2.34680E+00
   2.30146E+00  2.24800E+00  2.20366E+00  2.17927E+00  2.17948E+00  2.20115E+00  2.23766E+00  2.28203E+00  2.32785E+00  2.37663E+00
   2.43260E+00  2.49788E+00  2.57465E+00  2.66666E+00  2.77756E+00  2.91032E+00  3.06819E+00  3.25437E+00  3.47045E+00  3.71659E+00
   3.99274E+00  4.29771E+00  4.62967E+00  4.98503E+00  5.35797E+00  5.74066E+00  6.12429E+00  6.49977E+00  6.85789E+00  7.18929E+00
   7.48514E+00  7.73765E+00  7.94064E+00  8.09010E+00  8.18459E+00  8.22511E+00  8.21515E+00  8.16013E+00  8.06708E+00  7.94352E+00
   7.79597E+00  7.62535E+00  7.41402E+00  7.13763E+00  6.95949E+00  7.32063E+00  8.30163E+00  9.32771E+00  9.65203E+00  9.01042E+00
   7.85802E+00  6.75593E+00  5.70535E+00  4.71152E+00  4.30238E+00  4.99748E+00  6.56671E+00  8.30213E+00  9.51631E+00  1.00576E+01
   1.01884E+01  1.01384E+01  1.00065E+01  9.98020E+00  1.00787E+01  1.02702E+01  1.05135E+01  1.07365E+01  1.08786E+01  1.09339E+01
   1.09416E+01  1.09235E+01  1.08839E+01  1.08513E+01  1.08687E+01  1.09340E+01  1.09915E+01  1.09835E+01  1.08897E+01  1.07284E+01
   1.05233E+01  1.02860E+01  1.00334E+01  9.77349E+00  9.50471E+00  9.22876E+00  8.94875E+00  8.66809E+00  8.39029E+00  8.11858E+00
   7.85595E+00  7.60500E+00  7.36802E+00  7.14695E+00  6.94340E+00  6.75862E+00  6.59361E+00  6.44905E+00  6.32550E+00  6.22330E+00
   6.14271E+00  6.08377E+00  6.04644E+00  6.03052E+00  6.03573E+00  6.06160E+00  6.10751E+00  6.17250E+00  6.25540E+00  6.35467E+00
   6.46847E+00  6.59455E+00  6.73030E+00  6.87265E+00  7.01826E+00  7.16350E+00  7.30461E+00  7.43771E+00  7.55900E+00  7.66480E+00
   7.75187E+00  7.81736E+00  7.85908E+00  7.87545E+00  7.86565E+00  7.82956E+00  7.76787E+00  7.68194E+00  7.57380E+00  7.44590E+00
   7.30114E+00  7.14261E+00  6.97362E+00  6.79739E+00  6.61710E+00  6.43563E+00  6.25560E+00  6.07927E+00  5.90861E+00  5.74514E+00
   5.59002E+00  5.44405E+00  5.30773E+00  5.18127E+00  5.06471E+00  4.95784E+00  4.86034E+00  4.77171E+00  4.69146E+00  4.61903E+00
   4.55386E+00  4.49534E+00  4.44292E+00  4.39603E+00  4.35417E+00  4.31687E+00  4.28371E+00  4.25426E+00  4.22816E+00  4.20506E+00
   4.18470E+00  4.16680E+00  4.15115E+00  4.13750E+00  4.12568E+00  4.11549E+00  4.10682E+00  4.09954E+00  4.09352E+00  4.08863E+00
   4.08479E+00  4.08189E+00  4.07991E+00  4.07874E+00  4.07833E+00  4.07860E+00  4.07952E+00  4.08103E+00  4.08312E+00  4.08573E+00
   4.08882E+00  4.09234E+00  4.09629E+00  4.10062E+00  4.10535E+00  4.11042E+00  4.11581E+00  4.12149E+00  4.12747E+00  4.13372E+00
   4.14024E+00  4.14699E+00  4.15397E+00  4.16115E+00  4.16855E+00  4.17615E+00  4.18395E+00  4.19190E+00  4.20003E+00  4.20829E+00
   4.21673E+00  4.22531E+00  4.23404E+00  4.24288E+00  4.25184E+00  4.26092E+00  4.27014E+00  4.27945E+00  4.28888E+00  4.29839E+00
   4.30800E+00  4.31770E+00  4.32751E+00  4.33739E+00  4.34736E+00  4.35739E+00  4.36751E+00  4.37770E+00
 NY background values follow
    -2.108E+00   -2.095E+00   -2.082E+00   -2.070E+00   -2.057E+00   -2.044E+00   -2.031E+00   -2.019E+00   -2.006E+00   -1.993E+00
    -1.980E+00   -1.968E+00   -1.955E+00   -1.942E+00   -1.929E+00   -1.917E+00   -1.904E+00   -1.891E+00   -1.879E+00   -1.866E+00
    -1.853E+00   -1.840E+00   -1.828E+00   -1.815E+00   -1.802E+00   -1.789E+00   -1.777E+00   -1.764E+00   -1.751E+00   -1.738E+00
    -1.726E+00   -1.713E+00   -1.700E+00   -1.687E+00   -1.675E+00   -1.662E+00   -1.649E+00   -1.636E+00   -1.624E+00   -1.611E+00
    -1.598E+00   -1.585E+00   -1.573E+00   -1.560E+00   -1.547E+00   -1.534E+00   -1.522E+00   -1.509E+00   -1.496E+00   -1.483E+00
    -1.471E+00   -1.458E+00   -1.445E+00   -1.432E+00   -1.420E+00   -1.407E+00   -1.394E+00   -1.381E+00   -1.369E+00   -1.356E+00
    -1.343E+00   -1.330E+00   -1.318E+00   -1.305E+00   -1.292E+00   -1.279E+00   -1.267E+00   -1.254E+00   -1.241E+00   -1.228E+00
    -1.216E+00   -1.203E+00   -1.190E+00   -1.177E+00   -1.165E+00   -1.152E+00   -1.139E+00   -1.126E+00   -1.114E+00   -1.101E+00
    -1.088E+00   -1.075E+00   -1.063E+00   -1.050E+00   -1.037E+00   -1.024E+00   -1.012E+00   -9.989E-01   -9.861E-01   -9.734E-01
    -9.606E-01   -9.479E-01   -9.351E-01   -9.224E-01   -9.097E-01   -8.969E-01   -8.842E-01   -8.714E-01   -8.587E-01   -8.459E-01
    -8.332E-01   -8.204E-01   -8.077E-01   -7.949E-01   -7.822E-01   -7.694E-01   -7.567E-01   -7.439E-01   -7.312E-01   -7.184E-01
    -7.057E-01   -6.929E-01   -6.802E-01   -6.674E-01   -6.547E-01   -6.419E-01   -6.292E-01   -6.165E-01   -6.037E-01   -5.910E-01
    -5.782E-01   -5.655E-01   -5.527E-01   -5.400E-01   -5.272E-01   -5.145E-01   -5.017E-01   -4.890E-01   -4.762E-01   -4.635E-01
    -4.507E-01   -4.380E-01   -4.252E-01   -4.125E-01   -3.997E-01   -3.870E-01   -3.742E-01   -3.615E-01   -3.488E-01   -3.360E-01
    -3.233E-01   -3.105E-01   -2.978E-01   -2.850E-01   -2.723E-01   -2.595E-01   -2.468E-01   -2.340E-01   -2.213E-01   -2.085E-01
    -1.958E-01   -1.830E-01   -1.703E-01   -1.575E-01   -1.448E-01   -1.320E-01   -1.193E-01   -1.065E-01   -9.380E-02   -8.105E-02
    -6.831E-02   -5.556E-02   -4.281E-02   -3.006E-02   -1.732E-02   -4.569E-03    8.179E-03    2.093E-02    3.367E-02    4.642E-02
     5.917E-02    7.192E-02    8.466E-02    9.741E-02    1.102E-01    1.229E-01    1.357E-01    1.484E-01    1.611E-01    1.739E-01
     1.866E-01    1.994E-01    2.121E-01    2.249E-01    2.376E-01    2.504E-01    2.631E-01    2.759E-01    2.886E-01    3.014E-01
     3.141E-01    3.269E-01    3.396E-01    3.524E-01    3.651E-01    3.779E-01    3.906E-01    4.034E-01    4.161E-01    4.288E-01
     4.416E-01    4.543E-01    4.671E-01    4.798E-01    4.926E-01    5.053E-01    5.181E-01    5.308E-01    5.436E-01    5.563E-01
     5.691E-01    5.818E-01    5.946E-01    6.073E-01    6.201E-01    6.328E-01    6.456E-01    6.583E-01    6.711E-01    6.838E-01
     6.965E-01    7.093E-01    7.220E-01    7.348E-01    7.475E-01    7.603E-01    7.730E-01    7.858E-01    7.985E-01    8.113E-01
     8.240E-01    8.368E-01    8.495E-01    8.623E-01    8.750E-01    8.878E-01    9.005E-01    9.133E-01    9.260E-01    9.387E-01
     9.515E-01    9.642E-01    9.770E-01    9.897E-01    1.002E+00    1.015E+00    1.028E+00    1.041E+00    1.053E+00    1.066E+00
     1.079E+00    1.092E+00    1.104E+00    1.117E+00    1.130E+00    1.143E+00    1.155E+00    1.168E+00    1.181E+00    1.194E+00
     1.206E+00    1.219E+00    1.232E+00    1.245E+00    1.257E+00    1.270E+00    1.283E+00    1.296E+00    1.308E+00    1.321E+00
     1.334E+00    1.347E+00    1.359E+00    1.372E+00    1.385E+00    1.398E+00    1.410E+00    1.423E+00    1.436E+00    1.449E+00
     1.461E+00    1.474E+00    1.487E+00    1.500E+00    1.512E+00    1.525E+00    1.538E+00    1.551E+00    1.563E+00    1.576E+00
     1.589E+00    1.602E+00    1.614E+00    1.627E+00    1.640E+00    1.653E+00    1.665E+00    1.678E+00    1.691E+00    1.704E+00
     1.716E+00    1.729E+00    1.742E+00    1.755E+00    1.767E+00    1.780E+00    1.793E+00    1.806E+00    1.818E+00    1.831E+00
     1.844E+00    1.857E+00    1.869E+00    1.882E+00    1.895E+00    1.908E+00    1.920E+00    1.933E+00    1.946E+00    1.959E+00
     1.971E+00    1.984E+00    1.997E+00    2.009E+00    2.022E+00    2.035E+00    2.048E+00    2.060E+00    2.073E+00    2.086E+00
     2.099E+00    2.111E+00    2.124E+00    2.137E+00    2.150E+00    2.162E+00    2.175E+00    2.188E+00    2.201E+00    2.213E+00
     2.226E+00    2.239E+00    2.252E+00    2.264E+00    2.277E+00    2.290E+00    2.303E+00    2.315E+00    2.328E+00    2.341E+00
     2.354E+00    2.366E+00    2.379E+00    2.392E+00    2.405E+00    2.417E+00    2.430E+00    2.443E+00    2.456E+00    2.468E+00
     2.481E+00    2.494E+00    2.507E+00    2.519E+00    2.532E+00    2.545E+00    2.558E+00    2.570E+00    2.583E+00    2.596E+00
     2.609E+00    2.621E+00    2.634E+00    2.647E+00    2.660E+00    2.672E+00    2.685E+00    2.698E+00    2.711E+00    2.723E+00
     2.736E+00    2.749E+00    2.762E+00    2.774E+00    2.787E+00    2.800E+00    2.812E+00    2.825E+00    2.838E+00    2.851E+00
     2.863E+00    2.876E+00    2.889E+00    2.902E+00    2.914E+00    2.927E+00    2.940E+00    2.953E+00    2.965E+00    2.978E+00
     2.991E+00    3.004E+00    3.016E+00    3.029E+00    3.042E+00    3.055E+00    3.067E+00    3.080E+00    3.093E+00    3.106E+00
     3.118E+00    3.131E+00    3.144E+00    3.157E+00    3.169E+00    3.182E+00    3.195E+00    3.208E+00    3.220E+00    3.233E+00
     3.246E+00    3.259E+00    3.271E+00    3.284E+00    3.297E+00    3.310E+00    3.322E+00    3.335E+00    3.348E+00    3.361E+00
     3.373E+00    3.386E+00    3.399E+00    3.412E+00    3.424E+00    3.437E+00    3.450E+00    3.463E+00    3.475E+00    3.488E+00
     3.501E+00    3.514E+00    3.526E+00    3.539E+00    3.552E+00    3.564E+00    3.577E+00    3.590E+00    3.603E+00    3.615E+00
     3.628E+00    3.641E+00    3.654E+00    3.666E+00    3.679E+00    3.692E+00    3.705E+00    3.717E+00    3.730E+00    3.743E+00
     3.756E+00    3.768E+00    3.781E+00    3.794E+00    3.807E+00    3.819E+00    3.832E+00    3.845E+00    3.858E+00    3.870E+00
     3.883E+00    3.896E+00    3.909E+00    3.921E+00    3.934E+00    3.947E+00    3.960E+00    3.972E+00    3.985E+00    3.998E+00
     4.011E+00    4.023E+00    4.036E+00    4.049E+00    4.062E+00    4.074E+00    4.087E+00    4.100E+00    4.113E+00    4.125E+00
     4.138E+00    4.151E+00    4.164E+00    4.176E+00    4.189E+00    4.202E+00    4.215E+00    4.227E+00
 Ala      Conc. = 7.87E+01
