 LCModel (Version 6.3-1L) Copyright: S.W. Provencher.          Ref.: Magn. Reson. Med. 30:672-679 (1993).                
 Slice#2 Row#13 Col#5  K_02_press_1_raw_act
 36 lines in following concentration table = NCONC+1
    Conc.  %SD /Cr+PCr  Metabolite                                         
    0.000 999%   0.000 Ala                                                 
    0.000 999%   0.000 Asp                                                 
  355.268  12%   1.000 Cr                                                  
    0.000 999%   0.000 PCr                                                 
   55.054 116%   0.155 GABA                                                
    0.000 999%   0.000 Glc                                                 
 1.03E+03  35%   2.890 Gln                                                 
 1.20E+03  34%   3.374 Glu                                                 
  207.862   8%   0.585 GPC                                                 
    0.000 999%   0.000 PCh                                                 
  299.581  23%   0.843 GSH                                                 
 1.99E+03  15%   5.610 Ins                                                 
    0.000 999%   0.000 Lac                                                 
  690.374   7%   1.943 NAA                                                 
    0.000 999%   0.000 NAAG                                                
   62.436  29%   0.176 Scyllo                                              
    0.000 999%   0.000 Tau                                                 
    0.000 999%   0.000 -CrCH2                                              
  207.862   8%   0.585 GPC+PCh                                             
  690.374   7%   1.943 NAA+NAAG                                            
  355.268  12%   1.000 Cr+PCr                                              
 2.23E+03  32%   6.264 Glu+Gln                                             
 1.52E+03  35%   4.291 Lip13a                                              
   70.509 132%   0.198 Lip13b                                              
  421.586  35%   1.187 Lip09                                               
   28.074 556% 7.9E-02 MM09                                                
  450.717  35%   1.269 Lip20                                               
    0.000 999%   0.000 MM20                                                
   21.251 425% 6.0E-02 MM12                                                
  327.426  59%   0.922 MM14                                                
    0.000 999%   0.000 MM17                                                
 1.60E+03  29%   4.490 Lip13a+Lip13b                                       
 1.94E+03  24%   5.471 MM14+Lip13a+Lip13b+MM12                             
  449.660  28%   1.266 MM09+Lip09                                          
  450.717  35%   1.269 MM20+Lip20                                          
   6 lines in following misc. output table
  FWHM = 0.092 ppm    S/N =   4                                            
  Data shift = 0.015 ppm                                                   
  Ph: -31 deg     -14.1 deg/ppm                                            
  alphaB,S = 6.3E-01,   8.9E+01                                            
   14 spline knots.   Ns =10(1)                                            
  (14) 5 infls.   (13) 1 extrs.                                            
  498 points on ppm-axis = NY
      4.000000     3.992357     3.984714     3.977070     3.969427     3.961784     3.954141     3.946497     3.938854     3.931211
      3.923568     3.915925     3.908281     3.900638     3.892995     3.885352     3.877708     3.870065     3.862422     3.854779
      3.847136     3.839492     3.831849     3.824206     3.816563     3.808919     3.801276     3.793633     3.785990     3.778347
      3.770703     3.763060     3.755417     3.747774     3.740130     3.732487     3.724844     3.717201     3.709558     3.701914
      3.694271     3.686628     3.678985     3.671341     3.663698     3.656055     3.648412     3.640769     3.633125     3.625482
      3.617839     3.610196     3.602552     3.594909     3.587266     3.579623     3.571980     3.564336     3.556693     3.549050
      3.541407     3.533763     3.526120     3.518477     3.510834     3.503191     3.495547     3.487904     3.480261     3.472618
      3.464974     3.457331     3.449688     3.442045     3.434402     3.426758     3.419115     3.411472     3.403829     3.396185
      3.388542     3.380899     3.373256     3.365613     3.357969     3.350326     3.342683     3.335040     3.327396     3.319753
      3.312110     3.304467     3.296824     3.289180     3.281537     3.273894     3.266251     3.258607     3.250964     3.243321
      3.235678     3.228034     3.220391     3.212748     3.205105     3.197462     3.189818     3.182175     3.174532     3.166889
      3.159245     3.151602     3.143959     3.136316     3.128673     3.121029     3.113386     3.105743     3.098100     3.090456
      3.082813     3.075170     3.067527     3.059884     3.052240     3.044597     3.036954     3.029311     3.021667     3.014024
      3.006381     2.998738     2.991095     2.983451     2.975808     2.968165     2.960522     2.952878     2.945235     2.937592
      2.929949     2.922306     2.914662     2.907019     2.899376     2.891733     2.884089     2.876446     2.868803     2.861160
      2.853517     2.845873     2.838230     2.830587     2.822944     2.815300     2.807657     2.800014     2.792371     2.784728
      2.777084     2.769441     2.761798     2.754155     2.746511     2.738868     2.731225     2.723582     2.715939     2.708295
      2.700652     2.693009     2.685366     2.677722     2.670079     2.662436     2.654793     2.647150     2.639506     2.631863
      2.624220     2.616577     2.608933     2.601290     2.593647     2.586004     2.578361     2.570717     2.563074     2.555431
      2.547788     2.540144     2.532501     2.524858     2.517215     2.509572     2.501928     2.494285     2.486642     2.478999
      2.471355     2.463712     2.456069     2.448426     2.440783     2.433139     2.425496     2.417853     2.410210     2.402566
      2.394923     2.387280     2.379637     2.371994     2.364350     2.356707     2.349064     2.341421     2.333777     2.326134
      2.318491     2.310848     2.303205     2.295561     2.287918     2.280275     2.272632     2.264988     2.257345     2.249702
      2.242059     2.234416     2.226772     2.219129     2.211486     2.203843     2.196199     2.188556     2.180913     2.173270
      2.165627     2.157983     2.150340     2.142697     2.135054     2.127410     2.119767     2.112124     2.104481     2.096838
      2.089194     2.081551     2.073908     2.066265     2.058621     2.050978     2.043335     2.035692     2.028049     2.020405
      2.012762     2.005119     1.997476     1.989833     1.982190     1.974546     1.966903     1.959260     1.951617     1.943974
      1.936331     1.928688     1.921045     1.913402     1.905759     1.898115     1.890472     1.882829     1.875186     1.867543
      1.859900     1.852257     1.844614     1.836971     1.829327     1.821684     1.814041     1.806398     1.798755     1.791112
      1.783469     1.775826     1.768183     1.760540     1.752896     1.745253     1.737610     1.729967     1.722324     1.714681
      1.707038     1.699395     1.691752     1.684108     1.676465     1.668822     1.661179     1.653536     1.645893     1.638250
      1.630607     1.622964     1.615321     1.607677     1.600034     1.592391     1.584748     1.577105     1.569462     1.561819
      1.554176     1.546533     1.538890     1.531246     1.523603     1.515960     1.508317     1.500674     1.493031     1.485388
      1.477745     1.470102     1.462458     1.454815     1.447172     1.439529     1.431886     1.424243     1.416600     1.408957
      1.401314     1.393671     1.386027     1.378384     1.370741     1.363098     1.355455     1.347812     1.340169     1.332526
      1.324883     1.317240     1.309596     1.301953     1.294310     1.286667     1.279024     1.271381     1.263738     1.256095
      1.248452     1.240808     1.233165     1.225522     1.217879     1.210236     1.202593     1.194950     1.187307     1.179664
      1.172021     1.164377     1.156734     1.149091     1.141448     1.133805     1.126162     1.118519     1.110876     1.103233
      1.095590     1.087946     1.080303     1.072660     1.065017     1.057374     1.049731     1.042088     1.034445     1.026802
      1.019158     1.011515     1.003872     0.996229     0.988586     0.980943     0.973300     0.965657     0.958014     0.950371
      0.942727     0.935084     0.927441     0.919798     0.912155     0.904512     0.896869     0.889226     0.881583     0.873940
      0.866296     0.858653     0.851010     0.843367     0.835724     0.828081     0.820438     0.812795     0.805152     0.797508
      0.789865     0.782222     0.774579     0.766936     0.759293     0.751650     0.744007     0.736364     0.728721     0.721077
      0.713434     0.705791     0.698148     0.690505     0.682862     0.675219     0.667576     0.659933     0.652290     0.644646
      0.637003     0.629360     0.621717     0.614074     0.606431     0.598788     0.591145     0.583502     0.575858     0.568215
      0.560572     0.552929     0.545286     0.537643     0.530000     0.522357     0.514714     0.507071     0.499427     0.491784
      0.484141     0.476498     0.468855     0.461212     0.453569     0.445925     0.438282     0.430639     0.422996     0.415353
      0.407710     0.400067     0.392424     0.384780     0.377137     0.369494     0.361851     0.354208     0.346565     0.338922
      0.331278     0.323635     0.315992     0.308349     0.300706     0.293063     0.285420     0.277777     0.270133     0.262490
      0.254847     0.247204     0.239561     0.231918     0.224275     0.216631     0.208988     0.201345
 NY phased data points follow
  -2.41218E+02 -2.36050E+02 -2.32253E+02 -2.26457E+02 -2.25442E+02 -2.20944E+02 -2.16359E+02 -2.14784E+02 -2.12521E+02 -2.06848E+02
  -2.03100E+02 -2.01496E+02 -1.98153E+02 -1.96731E+02 -1.93959E+02 -1.95973E+02 -1.93652E+02 -1.91730E+02 -1.89349E+02 -1.86595E+02
  -1.88056E+02 -1.83510E+02 -1.81814E+02 -1.78407E+02 -1.76794E+02 -1.73144E+02 -1.70689E+02 -1.69178E+02 -1.63273E+02 -1.62608E+02
  -1.60594E+02 -1.57832E+02 -1.54500E+02 -1.52997E+02 -1.50497E+02 -1.48266E+02 -1.48397E+02 -1.45548E+02 -1.40952E+02 -1.41117E+02
  -1.36367E+02 -1.34793E+02 -1.33934E+02 -1.30692E+02 -1.31631E+02 -1.26228E+02 -1.22265E+02 -1.25115E+02 -1.24433E+02 -1.21616E+02
  -1.18873E+02 -1.20694E+02 -1.17918E+02 -1.16285E+02 -1.18423E+02 -1.14567E+02 -1.14626E+02 -1.13159E+02 -1.12453E+02 -1.13841E+02
  -1.08671E+02 -1.12996E+02 -1.10278E+02 -1.06183E+02 -1.06180E+02 -1.06723E+02 -1.07080E+02 -1.06291E+02 -1.03408E+02 -1.02520E+02
  -1.03365E+02 -1.00093E+02 -9.86732E+01 -9.97779E+01 -9.69458E+01 -9.66147E+01 -9.71583E+01 -9.29062E+01 -9.13344E+01 -9.09409E+01
  -8.98662E+01 -8.98014E+01 -8.85782E+01 -8.97654E+01 -8.48885E+01 -8.80541E+01 -8.48568E+01 -8.35331E+01 -8.19600E+01 -8.35000E+01
  -7.82838E+01 -7.91030E+01 -7.82218E+01 -7.73709E+01 -7.47058E+01 -7.53809E+01 -7.43292E+01 -7.10308E+01 -7.05356E+01 -6.56636E+01
  -6.62584E+01 -6.18293E+01 -6.22548E+01 -5.90570E+01 -5.84520E+01 -5.88988E+01 -6.10152E+01 -6.01225E+01 -6.26595E+01 -6.07351E+01
  -6.05632E+01 -6.19447E+01 -6.07343E+01 -6.03100E+01 -6.12891E+01 -5.93129E+01 -5.86195E+01 -6.02499E+01 -5.82441E+01 -5.83780E+01
  -5.78235E+01 -5.37993E+01 -5.20811E+01 -5.16178E+01 -5.03554E+01 -4.91451E+01 -4.84603E+01 -4.34824E+01 -4.28838E+01 -4.22972E+01
  -4.54108E+01 -4.20182E+01 -4.28042E+01 -4.60844E+01 -4.62877E+01 -4.58114E+01 -4.49625E+01 -4.50286E+01 -4.58389E+01 -4.59187E+01
  -4.80988E+01 -4.40516E+01 -4.20711E+01 -4.43889E+01 -4.17631E+01 -3.99086E+01 -3.98834E+01 -4.08407E+01 -4.02821E+01 -4.06192E+01
  -3.93059E+01 -3.97839E+01 -4.04042E+01 -3.85904E+01 -3.64620E+01 -3.63749E+01 -3.50133E+01 -3.31320E+01 -3.21506E+01 -3.19723E+01
  -3.61256E+01 -3.05815E+01 -2.83686E+01 -2.94149E+01 -3.33383E+01 -3.43734E+01 -3.40855E+01 -3.16834E+01 -3.31987E+01 -3.17895E+01
  -3.46061E+01 -3.27806E+01 -3.11478E+01 -3.40078E+01 -3.56231E+01 -3.50492E+01 -3.20981E+01 -3.44365E+01 -3.31445E+01 -3.23009E+01
  -3.19441E+01 -2.99099E+01 -3.12218E+01 -2.96742E+01 -2.81678E+01 -2.98114E+01 -3.25192E+01 -2.91340E+01 -2.88046E+01 -2.60252E+01
  -2.40616E+01 -2.56100E+01 -2.43548E+01 -2.63523E+01 -2.40914E+01 -2.40689E+01 -2.34265E+01 -2.16212E+01 -2.32638E+01 -2.23467E+01
  -2.45957E+01 -2.20487E+01 -2.04573E+01 -2.11092E+01 -2.31049E+01 -2.34105E+01 -1.84581E+01 -1.87502E+01 -2.14959E+01 -1.88040E+01
  -1.85868E+01 -1.92889E+01 -1.85653E+01 -1.64418E+01 -1.96575E+01 -1.65331E+01 -1.61206E+01 -1.69187E+01 -1.46528E+01 -1.48620E+01
  -1.58338E+01 -1.44277E+01 -1.69128E+01 -1.89381E+01 -1.38504E+01 -1.32856E+01 -1.25369E+01 -1.30831E+01 -1.32226E+01 -1.64079E+01
  -9.46357E+00 -1.10712E+01 -1.34239E+01 -1.05432E+01 -1.19177E+01 -9.23088E+00 -1.10191E+01 -1.34610E+01 -9.54555E+00 -1.42913E+01
  -1.10871E+01 -1.15843E+01 -1.12471E+01 -1.12203E+01 -1.16541E+01 -1.10369E+01 -1.23129E+01 -7.89801E+00 -8.38437E+00 -5.65232E+00
  -6.74583E+00 -6.22147E+00 -7.10809E+00 -5.23381E+00 -3.31914E+00  1.43239E+00  5.55595E+00  5.72390E+00  6.90107E+00  8.95305E+00
   9.65543E+00  7.04936E+00  1.16146E+01  6.74709E+00  3.97509E+00  6.57319E+00  4.05611E-01 -2.38365E-02 -7.96492E-01 -5.66838E+00
  -1.24820E+00 -5.80334E+00 -1.83256E+00 -4.32860E+00 -4.78262E+00 -1.66009E+00 -1.87211E+00 -2.69289E+00 -2.35234E+00 -1.08736E+00
  -3.37949E+00 -2.45513E+00 -6.33708E-01 -2.60753E+00 -1.87820E+00  1.48496E+00 -1.65054E+00 -1.70695E+00 -2.72417E+00 -2.44669E+00
  -2.18506E+00  1.07700E+00 -1.13465E+00  2.18972E+00 -3.72929E+00  4.84677E-01  5.73339E-01  1.88162E+00  1.12380E+00 -1.65742E+00
   4.43360E-01  1.64497E+00  1.60348E+00  1.16601E+00  1.63444E+00 -6.18133E-01  3.63568E+00  3.45273E+00  5.40973E+00  6.06233E+00
   5.10003E+00  8.85881E+00  6.26346E+00  6.21256E+00  6.65919E+00  5.89923E+00  7.30373E+00  6.67110E+00  8.23690E+00  6.87794E+00
   6.84434E+00  7.28588E+00  7.39065E+00  9.66098E+00  1.03964E+01  8.45795E+00  1.13510E+01  1.01182E+01  8.99668E+00  1.18365E+01
   9.71642E+00  1.05846E+01  9.54805E+00  1.05499E+01  1.18103E+01  1.44308E+01  1.08136E+01  1.15960E+01  1.28432E+01  1.26725E+01
   1.35596E+01  1.18551E+01  1.38205E+01  1.09775E+01  1.18363E+01  1.28086E+01  1.11693E+01  1.22095E+01  1.55998E+01  1.60634E+01
   1.60834E+01  1.65741E+01  1.68225E+01  1.91268E+01  1.70845E+01  1.74799E+01  1.50271E+01  1.50261E+01  1.41517E+01  1.45256E+01
   1.35078E+01  1.47330E+01  1.46922E+01  1.24808E+01  1.08113E+01  1.23525E+01  1.32666E+01  1.59845E+01  1.47210E+01  1.64160E+01
   1.11871E+01  1.43461E+01  1.52311E+01  1.62236E+01  1.49844E+01  1.40095E+01  1.41783E+01  1.45222E+01  1.38343E+01  1.01341E+01
   1.37380E+01  1.22638E+01  1.18836E+01  1.13274E+01  7.81766E+00  8.00204E+00  1.17410E+01  1.00117E+01  1.19007E+01  9.46511E+00
   1.08396E+01  8.64887E+00  1.24311E+01  1.23186E+01  1.07148E+01  1.32224E+01  1.22355E+01  1.21494E+01  1.21433E+01  1.40319E+01
   1.47460E+01  1.46663E+01  1.34748E+01  1.45774E+01  1.52116E+01  1.32366E+01  1.39749E+01  1.45048E+01  1.26350E+01  1.37651E+01
   1.07772E+01  1.20781E+01  1.36058E+01  1.48837E+01  1.31172E+01  1.19641E+01  1.47446E+01  1.29699E+01  1.09872E+01  1.10359E+01
   1.08679E+01  1.24282E+01  9.53443E+00  6.71787E+00  9.52969E+00  8.10141E+00  6.79129E+00  8.54121E+00  1.00155E+01  8.95919E+00
   1.02691E+01  9.14355E+00  1.20760E+01  1.48943E+01  1.35671E+01  1.09169E+01  8.70599E+00  1.18908E+01  1.24321E+01  1.21512E+01
   1.20496E+01  9.21569E+00  1.10249E+01  9.28736E+00  1.11993E+01  1.31468E+01  9.28190E+00  1.38508E+01  1.31361E+01  1.08796E+01
   9.52142E+00  1.00622E+01  1.30137E+01  9.67551E+00  1.28544E+01  1.09552E+01  9.91104E+00  1.28071E+01  9.55240E+00  1.16959E+01
   1.51515E+01  1.44048E+01  1.65371E+01  1.34816E+01  1.25147E+01  1.59899E+01  1.16894E+01  1.14901E+01  1.12790E+01  1.07192E+01
   1.07031E+01  8.99053E+00  1.08414E+01  1.15031E+01  1.15925E+01  1.05581E+01  1.05549E+01  1.33669E+01  1.09170E+01  1.08890E+01
   1.07431E+01  1.16204E+01  1.29463E+01  1.19640E+01  9.52413E+00  1.28159E+01  1.19043E+01  1.28623E+01  1.21207E+01  9.80583E+00
   1.03896E+01  1.20787E+01  1.29809E+01  1.25125E+01  1.45258E+01  1.23511E+01  1.07917E+01  1.28454E+01
 NY points of the fit to the data follow
  -2.33065E+02 -2.31087E+02 -2.28884E+02 -2.26451E+02 -2.23738E+02 -2.20823E+02 -2.17768E+02 -2.14703E+02 -2.11737E+02 -2.08835E+02
  -2.05959E+02 -2.03165E+02 -2.00572E+02 -1.98264E+02 -1.96212E+02 -1.94277E+02 -1.92396E+02 -1.90598E+02 -1.88877E+02 -1.87180E+02
  -1.85395E+02 -1.83425E+02 -1.81341E+02 -1.79021E+02 -1.76270E+02 -1.73250E+02 -1.70187E+02 -1.67247E+02 -1.64478E+02 -1.61758E+02
  -1.59026E+02 -1.56461E+02 -1.54250E+02 -1.52420E+02 -1.50897E+02 -1.49546E+02 -1.48138E+02 -1.46536E+02 -1.44720E+02 -1.42571E+02
  -1.40038E+02 -1.37434E+02 -1.35079E+02 -1.32868E+02 -1.30645E+02 -1.28420E+02 -1.26425E+02 -1.24913E+02 -1.23881E+02 -1.23149E+02
  -1.22569E+02 -1.21961E+02 -1.21194E+02 -1.20259E+02 -1.19162E+02 -1.17924E+02 -1.16669E+02 -1.15470E+02 -1.14133E+02 -1.12616E+02
  -1.11130E+02 -1.09803E+02 -1.08619E+02 -1.07509E+02 -1.06376E+02 -1.05190E+02 -1.03966E+02 -1.02692E+02 -1.01422E+02 -1.00189E+02
  -9.89657E+01 -9.77818E+01 -9.66657E+01 -9.56362E+01 -9.46894E+01 -9.38246E+01 -9.30320E+01 -9.22773E+01 -9.15847E+01 -9.09289E+01
  -9.02566E+01 -8.96039E+01 -8.89579E+01 -8.82608E+01 -8.75079E+01 -8.66811E+01 -8.58110E+01 -8.49264E+01 -8.40357E+01 -8.31370E+01
  -8.22226E+01 -8.12914E+01 -8.02279E+01 -7.87386E+01 -7.70036E+01 -7.51743E+01 -7.30716E+01 -7.07444E+01 -6.84947E+01 -6.64936E+01
  -6.46901E+01 -6.29101E+01 -6.11912E+01 -5.97970E+01 -5.90043E+01 -5.89066E+01 -5.92566E+01 -5.97385E+01 -6.03073E+01 -6.08953E+01
  -6.14018E+01 -6.17240E+01 -6.18031E+01 -6.18590E+01 -6.19033E+01 -6.15056E+01 -6.07582E+01 -5.97547E+01 -5.84762E+01 -5.70905E+01
  -5.55640E+01 -5.38159E+01 -5.19933E+01 -5.03165E+01 -4.87999E+01 -4.73432E+01 -4.59442E+01 -4.47197E+01 -4.38500E+01 -4.34812E+01
  -4.35486E+01 -4.38219E+01 -4.41635E+01 -4.45238E+01 -4.48360E+01 -4.50648E+01 -4.51588E+01 -4.51485E+01 -4.51275E+01 -4.49116E+01
  -4.43665E+01 -4.37094E+01 -4.30375E+01 -4.23882E+01 -4.17962E+01 -4.12776E+01 -4.07908E+01 -4.03145E+01 -3.98720E+01 -3.94595E+01
  -3.90749E+01 -3.87255E+01 -3.83922E+01 -3.80659E+01 -3.77327E+01 -3.73804E+01 -3.70192E+01 -3.66518E+01 -3.62773E+01 -3.59111E+01
  -3.55745E+01 -3.52645E+01 -3.49574E+01 -3.46397E+01 -3.43211E+01 -3.40245E+01 -3.37653E+01 -3.35417E+01 -3.33276E+01 -3.31151E+01
  -3.29141E+01 -3.27115E+01 -3.24831E+01 -3.22413E+01 -3.20068E+01 -3.17859E+01 -3.15658E+01 -3.13114E+01 -3.10188E+01 -3.07140E+01
  -3.04134E+01 -3.00877E+01 -2.96942E+01 -2.92302E+01 -2.87381E+01 -2.82415E+01 -2.77531E+01 -2.72850E+01 -2.68749E+01 -2.65334E+01
  -2.62170E+01 -2.59001E+01 -2.55717E+01 -2.52333E+01 -2.48488E+01 -2.43535E+01 -2.37499E+01 -2.30992E+01 -2.24293E+01 -2.17784E+01
  -2.12757E+01 -2.09125E+01 -2.06833E+01 -2.06850E+01 -2.08603E+01 -2.10080E+01 -2.09947E+01 -2.09246E+01 -2.08406E+01 -2.05860E+01
  -2.00965E+01 -1.94615E+01 -1.87852E+01 -1.81229E+01 -1.74594E+01 -1.68657E+01 -1.65207E+01 -1.63977E+01 -1.63868E+01 -1.64443E+01
  -1.64714E+01 -1.64582E+01 -1.64750E+01 -1.63234E+01 -1.58529E+01 -1.52123E+01 -1.46360E+01 -1.40979E+01 -1.34400E+01 -1.28165E+01
  -1.23580E+01 -1.19691E+01 -1.15575E+01 -1.11926E+01 -1.09629E+01 -1.08954E+01 -1.09019E+01 -1.08871E+01 -1.08203E+01 -1.07497E+01
  -1.07617E+01 -1.08434E+01 -1.09407E+01 -1.10232E+01 -1.10525E+01 -1.09410E+01 -1.06272E+01 -1.01510E+01 -9.63041E+00 -9.03046E+00
  -8.01512E+00 -6.46472E+00 -4.76306E+00 -2.80132E+00 -4.23033E-01  1.95846E+00  3.91309E+00  5.42182E+00  6.71840E+00  7.90916E+00
   8.83652E+00  9.15952E+00  8.61851E+00  7.34635E+00  5.75498E+00  4.04946E+00  2.29407E+00  6.56391E-01 -7.46472E-01 -1.81434E+00
  -2.66828E+00 -3.55660E+00 -4.13939E+00 -4.14122E+00 -3.96747E+00 -3.76303E+00 -3.53595E+00 -3.30942E+00 -3.10269E+00 -2.90401E+00
  -2.70900E+00 -2.51553E+00 -2.31824E+00 -2.11339E+00 -1.90815E+00 -1.69864E+00 -1.47645E+00 -1.24475E+00 -1.00733E+00 -7.65450E-01
  -5.20930E-01 -2.74258E-01 -2.77793E-02  2.16205E-01  4.59968E-01  7.04366E-01  9.49217E-01  1.19500E+00  1.44290E+00  1.69319E+00
   1.94467E+00  2.19720E+00  2.45168E+00  2.70756E+00  2.96443E+00  3.22264E+00  3.48191E+00  3.74243E+00  4.00442E+00  4.26811E+00
   4.53378E+00  4.80167E+00  5.07205E+00  5.34503E+00  5.62065E+00  5.89921E+00  6.18076E+00  6.46513E+00  6.75226E+00  7.04200E+00
   7.33404E+00  7.62805E+00  7.92353E+00  8.21991E+00  8.51655E+00  8.81272E+00  9.10767E+00  9.40065E+00  9.69088E+00  9.97766E+00
   1.02604E+01  1.05384E+01  1.08115E+01  1.10793E+01  1.13416E+01  1.15985E+01  1.18501E+01  1.20967E+01  1.23388E+01  1.25771E+01
   1.28124E+01  1.30461E+01  1.32797E+01  1.35152E+01  1.37544E+01  1.39996E+01  1.42518E+01  1.45112E+01  1.47757E+01  1.50404E+01
   1.52976E+01  1.55366E+01  1.57450E+01  1.59101E+01  1.60206E+01  1.60691E+01  1.60525E+01  1.59736E+01  1.58396E+01  1.56615E+01
   1.54517E+01  1.52225E+01  1.49843E+01  1.47450E+01  1.45096E+01  1.42804E+01  1.40583E+01  1.38426E+01  1.36328E+01  1.34280E+01
   1.32281E+01  1.30333E+01  1.28442E+01  1.26616E+01  1.24867E+01  1.23203E+01  1.21637E+01  1.20177E+01  1.18832E+01  1.17612E+01
   1.16524E+01  1.15578E+01  1.14783E+01  1.14149E+01  1.13686E+01  1.13406E+01  1.13322E+01  1.13446E+01  1.13790E+01  1.14363E+01
   1.15174E+01  1.16224E+01  1.17512E+01  1.19026E+01  1.20748E+01  1.22648E+01  1.24686E+01  1.26813E+01  1.28969E+01  1.31087E+01
   1.33095E+01  1.34919E+01  1.36485E+01  1.37728E+01  1.38592E+01  1.39035E+01  1.39029E+01  1.38568E+01  1.37663E+01  1.36341E+01
   1.34646E+01  1.32637E+01  1.30383E+01  1.27958E+01  1.25439E+01  1.22900E+01  1.20409E+01  1.18028E+01  1.15804E+01  1.13775E+01
   1.11968E+01  1.10397E+01  1.09066E+01  1.07972E+01  1.07103E+01  1.06443E+01  1.05975E+01  1.05677E+01  1.05527E+01  1.05506E+01
   1.05593E+01  1.05771E+01  1.06024E+01  1.06338E+01  1.06701E+01  1.07103E+01  1.07534E+01  1.07989E+01  1.08460E+01  1.08943E+01
   1.09432E+01  1.09925E+01  1.10418E+01  1.10908E+01  1.11392E+01  1.11869E+01  1.12335E+01  1.12790E+01  1.13231E+01  1.13657E+01
   1.14065E+01  1.14455E+01  1.14825E+01  1.15173E+01  1.15501E+01  1.15808E+01  1.16097E+01  1.16366E+01  1.16617E+01  1.16850E+01
   1.17067E+01  1.17268E+01  1.17454E+01  1.17625E+01  1.17783E+01  1.17927E+01  1.18060E+01  1.18181E+01  1.18291E+01  1.18391E+01
   1.18483E+01  1.18566E+01  1.18641E+01  1.18710E+01  1.18773E+01  1.18831E+01  1.18884E+01  1.18934E+01  1.18981E+01  1.19027E+01
   1.19071E+01  1.19116E+01  1.19160E+01  1.19207E+01  1.19255E+01  1.19307E+01  1.19363E+01  1.19424E+01  1.19490E+01  1.19563E+01
   1.19644E+01  1.19733E+01  1.19831E+01  1.19939E+01  1.20059E+01  1.20191E+01  1.20337E+01  1.20497E+01
 NY background values follow
    -2.380E+02   -2.355E+02   -2.331E+02   -2.306E+02   -2.282E+02   -2.257E+02   -2.233E+02   -2.209E+02   -2.185E+02   -2.161E+02
    -2.137E+02   -2.113E+02   -2.089E+02   -2.065E+02   -2.041E+02   -2.018E+02   -1.994E+02   -1.971E+02   -1.948E+02   -1.925E+02
    -1.902E+02   -1.879E+02   -1.857E+02   -1.834E+02   -1.812E+02   -1.790E+02   -1.768E+02   -1.746E+02   -1.725E+02   -1.703E+02
    -1.682E+02   -1.661E+02   -1.640E+02   -1.620E+02   -1.600E+02   -1.579E+02   -1.560E+02   -1.540E+02   -1.521E+02   -1.502E+02
    -1.483E+02   -1.464E+02   -1.446E+02   -1.428E+02   -1.410E+02   -1.393E+02   -1.376E+02   -1.359E+02   -1.342E+02   -1.326E+02
    -1.310E+02   -1.294E+02   -1.279E+02   -1.264E+02   -1.249E+02   -1.234E+02   -1.220E+02   -1.205E+02   -1.191E+02   -1.178E+02
    -1.164E+02   -1.151E+02   -1.138E+02   -1.125E+02   -1.112E+02   -1.100E+02   -1.087E+02   -1.075E+02   -1.063E+02   -1.051E+02
    -1.040E+02   -1.028E+02   -1.017E+02   -1.006E+02   -9.949E+01   -9.841E+01   -9.734E+01   -9.627E+01   -9.523E+01   -9.419E+01
    -9.316E+01   -9.215E+01   -9.114E+01   -9.015E+01   -8.916E+01   -8.818E+01   -8.721E+01   -8.624E+01   -8.529E+01   -8.433E+01
    -8.339E+01   -8.245E+01   -8.151E+01   -8.058E+01   -7.965E+01   -7.873E+01   -7.781E+01   -7.690E+01   -7.600E+01   -7.510E+01
    -7.420E+01   -7.332E+01   -7.243E+01   -7.156E+01   -7.069E+01   -6.983E+01   -6.897E+01   -6.812E+01   -6.728E+01   -6.645E+01
    -6.562E+01   -6.480E+01   -6.399E+01   -6.319E+01   -6.239E+01   -6.160E+01   -6.082E+01   -6.005E+01   -5.929E+01   -5.853E+01
    -5.779E+01   -5.705E+01   -5.632E+01   -5.560E+01   -5.490E+01   -5.420E+01   -5.351E+01   -5.283E+01   -5.215E+01   -5.149E+01
    -5.084E+01   -5.020E+01   -4.957E+01   -4.896E+01   -4.835E+01   -4.775E+01   -4.716E+01   -4.659E+01   -4.602E+01   -4.547E+01
    -4.493E+01   -4.439E+01   -4.387E+01   -4.335E+01   -4.285E+01   -4.235E+01   -4.187E+01   -4.139E+01   -4.092E+01   -4.046E+01
    -4.001E+01   -3.956E+01   -3.912E+01   -3.869E+01   -3.827E+01   -3.785E+01   -3.744E+01   -3.704E+01   -3.664E+01   -3.625E+01
    -3.586E+01   -3.548E+01   -3.511E+01   -3.474E+01   -3.437E+01   -3.401E+01   -3.366E+01   -3.330E+01   -3.296E+01   -3.261E+01
    -3.227E+01   -3.193E+01   -3.160E+01   -3.126E+01   -3.093E+01   -3.060E+01   -3.028E+01   -2.995E+01   -2.963E+01   -2.931E+01
    -2.899E+01   -2.867E+01   -2.835E+01   -2.803E+01   -2.772E+01   -2.740E+01   -2.709E+01   -2.677E+01   -2.646E+01   -2.615E+01
    -2.583E+01   -2.552E+01   -2.521E+01   -2.491E+01   -2.460E+01   -2.429E+01   -2.399E+01   -2.369E+01   -2.338E+01   -2.308E+01
    -2.279E+01   -2.249E+01   -2.219E+01   -2.190E+01   -2.161E+01   -2.131E+01   -2.103E+01   -2.074E+01   -2.045E+01   -2.017E+01
    -1.989E+01   -1.961E+01   -1.933E+01   -1.905E+01   -1.878E+01   -1.851E+01   -1.824E+01   -1.797E+01   -1.771E+01   -1.744E+01
    -1.718E+01   -1.693E+01   -1.667E+01   -1.642E+01   -1.617E+01   -1.592E+01   -1.567E+01   -1.543E+01   -1.519E+01   -1.495E+01
    -1.471E+01   -1.448E+01   -1.425E+01   -1.402E+01   -1.379E+01   -1.357E+01   -1.334E+01   -1.312E+01   -1.290E+01   -1.268E+01
    -1.246E+01   -1.224E+01   -1.203E+01   -1.181E+01   -1.160E+01   -1.139E+01   -1.117E+01   -1.096E+01   -1.075E+01   -1.054E+01
    -1.033E+01   -1.012E+01   -9.909E+00   -9.699E+00   -9.489E+00   -9.279E+00   -9.068E+00   -8.857E+00   -8.646E+00   -8.435E+00
    -8.222E+00   -8.009E+00   -7.795E+00   -7.580E+00   -7.365E+00   -7.148E+00   -6.929E+00   -6.710E+00   -6.489E+00   -6.267E+00
    -6.042E+00   -5.817E+00   -5.589E+00   -5.360E+00   -5.129E+00   -4.897E+00   -4.663E+00   -4.428E+00   -4.192E+00   -3.955E+00
    -3.716E+00   -3.478E+00   -3.238E+00   -2.998E+00   -2.757E+00   -2.517E+00   -2.276E+00   -2.034E+00   -1.793E+00   -1.552E+00
    -1.311E+00   -1.071E+00   -8.312E-01   -5.918E-01   -3.532E-01   -1.154E-01    1.215E-01    3.573E-01    5.919E-01    8.252E-01
     1.057E+00    1.288E+00    1.516E+00    1.743E+00    1.969E+00    2.192E+00    2.413E+00    2.632E+00    2.849E+00    3.063E+00
     3.274E+00    3.483E+00    3.689E+00    3.893E+00    4.093E+00    4.290E+00    4.484E+00    4.674E+00    4.862E+00    5.045E+00
     5.226E+00    5.402E+00    5.576E+00    5.746E+00    5.913E+00    6.076E+00    6.235E+00    6.391E+00    6.544E+00    6.693E+00
     6.839E+00    6.981E+00    7.119E+00    7.254E+00    7.386E+00    7.513E+00    7.638E+00    7.758E+00    7.875E+00    7.989E+00
     8.099E+00    8.205E+00    8.307E+00    8.406E+00    8.502E+00    8.593E+00    8.681E+00    8.765E+00    8.846E+00    8.923E+00
     8.996E+00    9.065E+00    9.130E+00    9.192E+00    9.250E+00    9.305E+00    9.355E+00    9.402E+00    9.445E+00    9.484E+00
     9.519E+00    9.551E+00    9.578E+00    9.602E+00    9.622E+00    9.639E+00    9.652E+00    9.663E+00    9.670E+00    9.675E+00
     9.677E+00    9.676E+00    9.673E+00    9.668E+00    9.661E+00    9.653E+00    9.642E+00    9.630E+00    9.617E+00    9.602E+00
     9.586E+00    9.570E+00    9.552E+00    9.535E+00    9.516E+00    9.498E+00    9.479E+00    9.461E+00    9.443E+00    9.425E+00
     9.407E+00    9.391E+00    9.375E+00    9.360E+00    9.347E+00    9.335E+00    9.324E+00    9.315E+00    9.308E+00    9.303E+00
     9.300E+00    9.299E+00    9.301E+00    9.305E+00    9.312E+00    9.322E+00    9.335E+00    9.352E+00    9.372E+00    9.395E+00
     9.421E+00    9.449E+00    9.481E+00    9.516E+00    9.553E+00    9.592E+00    9.634E+00    9.678E+00    9.724E+00    9.771E+00
     9.821E+00    9.872E+00    9.925E+00    9.979E+00    1.003E+01    1.009E+01    1.015E+01    1.021E+01    1.027E+01    1.033E+01
     1.039E+01    1.045E+01    1.051E+01    1.057E+01    1.063E+01    1.069E+01    1.075E+01    1.081E+01    1.087E+01    1.093E+01
     1.099E+01    1.105E+01    1.111E+01    1.116E+01    1.122E+01    1.127E+01    1.132E+01    1.137E+01    1.142E+01    1.147E+01
     1.151E+01    1.155E+01    1.159E+01    1.163E+01    1.166E+01    1.170E+01    1.173E+01    1.176E+01    1.178E+01    1.181E+01
     1.183E+01    1.185E+01    1.187E+01    1.189E+01    1.191E+01    1.192E+01    1.194E+01    1.195E+01    1.196E+01    1.197E+01
     1.198E+01    1.199E+01    1.200E+01    1.200E+01    1.201E+01    1.202E+01    1.202E+01    1.203E+01    1.203E+01    1.203E+01
     1.204E+01    1.204E+01    1.205E+01    1.205E+01    1.206E+01    1.206E+01    1.206E+01    1.207E+01    1.208E+01    1.208E+01
     1.209E+01    1.210E+01    1.211E+01    1.211E+01    1.212E+01    1.214E+01    1.215E+01    1.216E+01
 Cr       Conc. = 3.55E+02
