 LCModel (Version 6.3-1L) Copyright: S.W. Provencher.          Ref.: Magn. Reson. Med. 30:672-679 (1993).                
 Slice#2 Row#4 Col#8  K_02_press_1_raw_act
 36 lines in following concentration table = NCONC+1
    Conc.  %SD /Cr+PCr  Metabolite                                         
  108.341 125% 4.1E-02 Ala                                                 
    0.000 999%   0.000 Asp                                                 
 1.66E+03  17%   0.626 Cr                                                  
  995.673  29%   0.374 PCr                                                 
    0.000 999%   0.000 GABA                                                
    0.000 999%   0.000 Glc                                                 
  381.160  72%   0.143 Gln                                                 
 2.31E+03  13%   0.868 Glu                                                 
  858.818   4%   0.323 GPC                                                 
    0.000 999%   0.000 PCh                                                 
  805.952  12%   0.303 GSH                                                 
 2.18E+03  14%   0.818 Ins                                                 
  253.141  58% 9.5E-02 Lac                                                 
 3.05E+03   5%   1.147 NAA                                                 
  311.835  53%   0.117 NAAG                                                
    0.000 999%   0.000 Scyllo                                              
    0.000 999%   0.000 Tau                                                 
   43.881 357% 1.7E-02 -CrCH2                                              
  858.818   4%   0.323 GPC+PCh                                             
 3.36E+03   4%   1.264 NAA+NAAG                                            
 2.66E+03   3%   1.000 Cr+PCr                                              
 2.69E+03  16%   1.012 Glu+Gln                                             
 1.12E+04  20%   4.218 Lip13a                                              
    0.000 999%   0.000 Lip13b                                              
 3.67E+03  21%   1.378 Lip09                                               
 3.02E+03  27%   1.135 MM09                                                
 1.82E+03  27%   0.685 Lip20                                               
 4.27E+03  17%   1.606 MM20                                                
 1.33E+03  66%   0.502 MM12                                                
 3.81E+03  25%   1.433 MM14                                                
 1.09E+03  44%   0.410 MM17                                                
 1.12E+04  20%   4.218 Lip13a+Lip13b                                       
 1.64E+04   9%   6.153 MM14+Lip13a+Lip13b+MM12                             
 6.68E+03   9%   2.514 MM09+Lip09                                          
 6.09E+03  11%   2.290 MM20+Lip20                                          
   6 lines in following misc. output table
  FWHM = 0.046 ppm    S/N =  14                                            
  Data shift = 0.015 ppm                                                   
  Ph:   0 deg      -2.0 deg/ppm                                            
  alphaB,S = 7.6E-01,   8.3E+01                                            
   14 spline knots.   Ns = 6(1)                                            
  (11) 3 infls.   ( 5) 1 extrs.                                            
  498 points on ppm-axis = NY
      4.000000     3.992357     3.984714     3.977070     3.969427     3.961784     3.954141     3.946497     3.938854     3.931211
      3.923568     3.915925     3.908281     3.900638     3.892995     3.885352     3.877708     3.870065     3.862422     3.854779
      3.847136     3.839492     3.831849     3.824206     3.816563     3.808919     3.801276     3.793633     3.785990     3.778347
      3.770703     3.763060     3.755417     3.747774     3.740130     3.732487     3.724844     3.717201     3.709558     3.701914
      3.694271     3.686628     3.678985     3.671341     3.663698     3.656055     3.648412     3.640769     3.633125     3.625482
      3.617839     3.610196     3.602552     3.594909     3.587266     3.579623     3.571980     3.564336     3.556693     3.549050
      3.541407     3.533763     3.526120     3.518477     3.510834     3.503191     3.495547     3.487904     3.480261     3.472618
      3.464974     3.457331     3.449688     3.442045     3.434402     3.426758     3.419115     3.411472     3.403829     3.396185
      3.388542     3.380899     3.373256     3.365613     3.357969     3.350326     3.342683     3.335040     3.327396     3.319753
      3.312110     3.304467     3.296824     3.289180     3.281537     3.273894     3.266251     3.258607     3.250964     3.243321
      3.235678     3.228034     3.220391     3.212748     3.205105     3.197462     3.189818     3.182175     3.174532     3.166889
      3.159245     3.151602     3.143959     3.136316     3.128673     3.121029     3.113386     3.105743     3.098100     3.090456
      3.082813     3.075170     3.067527     3.059884     3.052240     3.044597     3.036954     3.029311     3.021667     3.014024
      3.006381     2.998738     2.991095     2.983451     2.975808     2.968165     2.960522     2.952878     2.945235     2.937592
      2.929949     2.922306     2.914662     2.907019     2.899376     2.891733     2.884089     2.876446     2.868803     2.861160
      2.853517     2.845873     2.838230     2.830587     2.822944     2.815300     2.807657     2.800014     2.792371     2.784728
      2.777084     2.769441     2.761798     2.754155     2.746511     2.738868     2.731225     2.723582     2.715939     2.708295
      2.700652     2.693009     2.685366     2.677722     2.670079     2.662436     2.654793     2.647150     2.639506     2.631863
      2.624220     2.616577     2.608933     2.601290     2.593647     2.586004     2.578361     2.570717     2.563074     2.555431
      2.547788     2.540144     2.532501     2.524858     2.517215     2.509572     2.501928     2.494285     2.486642     2.478999
      2.471355     2.463712     2.456069     2.448426     2.440783     2.433139     2.425496     2.417853     2.410210     2.402566
      2.394923     2.387280     2.379637     2.371994     2.364350     2.356707     2.349064     2.341421     2.333777     2.326134
      2.318491     2.310848     2.303205     2.295561     2.287918     2.280275     2.272632     2.264988     2.257345     2.249702
      2.242059     2.234416     2.226772     2.219129     2.211486     2.203843     2.196199     2.188556     2.180913     2.173270
      2.165627     2.157983     2.150340     2.142697     2.135054     2.127410     2.119767     2.112124     2.104481     2.096838
      2.089194     2.081551     2.073908     2.066265     2.058621     2.050978     2.043335     2.035692     2.028049     2.020405
      2.012762     2.005119     1.997476     1.989833     1.982190     1.974546     1.966903     1.959260     1.951617     1.943974
      1.936331     1.928688     1.921045     1.913402     1.905759     1.898115     1.890472     1.882829     1.875186     1.867543
      1.859900     1.852257     1.844614     1.836971     1.829327     1.821684     1.814041     1.806398     1.798755     1.791112
      1.783469     1.775826     1.768183     1.760540     1.752896     1.745253     1.737610     1.729967     1.722324     1.714681
      1.707038     1.699395     1.691752     1.684108     1.676465     1.668822     1.661179     1.653536     1.645893     1.638250
      1.630607     1.622964     1.615321     1.607677     1.600034     1.592391     1.584748     1.577105     1.569462     1.561819
      1.554176     1.546533     1.538890     1.531246     1.523603     1.515960     1.508317     1.500674     1.493031     1.485388
      1.477745     1.470102     1.462458     1.454815     1.447172     1.439529     1.431886     1.424243     1.416600     1.408957
      1.401314     1.393671     1.386027     1.378384     1.370741     1.363098     1.355455     1.347812     1.340169     1.332526
      1.324883     1.317240     1.309596     1.301953     1.294310     1.286667     1.279024     1.271381     1.263738     1.256095
      1.248452     1.240808     1.233165     1.225522     1.217879     1.210236     1.202593     1.194950     1.187307     1.179664
      1.172021     1.164377     1.156734     1.149091     1.141448     1.133805     1.126162     1.118519     1.110876     1.103233
      1.095590     1.087946     1.080303     1.072660     1.065017     1.057374     1.049731     1.042088     1.034445     1.026802
      1.019158     1.011515     1.003872     0.996229     0.988586     0.980943     0.973300     0.965657     0.958014     0.950371
      0.942727     0.935084     0.927441     0.919798     0.912155     0.904512     0.896869     0.889226     0.881583     0.873940
      0.866296     0.858653     0.851010     0.843367     0.835724     0.828081     0.820438     0.812795     0.805152     0.797508
      0.789865     0.782222     0.774579     0.766936     0.759293     0.751650     0.744007     0.736364     0.728721     0.721077
      0.713434     0.705791     0.698148     0.690505     0.682862     0.675219     0.667576     0.659933     0.652290     0.644646
      0.637003     0.629360     0.621717     0.614074     0.606431     0.598788     0.591145     0.583502     0.575858     0.568215
      0.560572     0.552929     0.545286     0.537643     0.530000     0.522357     0.514714     0.507071     0.499427     0.491784
      0.484141     0.476498     0.468855     0.461212     0.453569     0.445925     0.438282     0.430639     0.422996     0.415353
      0.407710     0.400067     0.392424     0.384780     0.377137     0.369494     0.361851     0.354208     0.346565     0.338922
      0.331278     0.323635     0.315992     0.308349     0.300706     0.293063     0.285420     0.277777     0.270133     0.262490
      0.254847     0.247204     0.239561     0.231918     0.224275     0.216631     0.208988     0.201345
 NY phased data points follow
   1.05233E+01  1.50611E+01  9.92164E+00  1.87360E+01  1.86719E+01  2.94494E+01  4.51048E+01  5.26652E+01  6.74301E+01  7.21866E+01
   7.98627E+01  7.50997E+01  7.54992E+01  5.97511E+01  4.48979E+01  3.50893E+01  2.72862E+01  2.52053E+01  1.71134E+01  1.38406E+01
   1.46534E+01  1.65443E+01  2.24068E+01  2.51439E+01  1.93243E+01  2.15945E+01  2.20855E+01  2.44867E+01  2.82863E+01  2.96480E+01
   3.40786E+01  3.32089E+01  3.80763E+01  3.45885E+01  2.18696E+01  2.17378E+01  2.34072E+01  2.14434E+01  2.24865E+01  2.02200E+01
   2.08790E+01  2.36773E+01  1.92670E+01  2.00547E+01  2.72796E+01  2.95068E+01  3.81463E+01  3.68388E+01  3.62220E+01  2.96527E+01
   2.66583E+01  2.25282E+01  2.17433E+01  2.29925E+01  2.16540E+01  1.77762E+01  2.29365E+01  2.22655E+01  2.20096E+01  1.94060E+01
   2.07165E+01  1.88983E+01  6.53914E+00  7.62442E+00  9.71831E+00  2.02196E+00 -2.91958E+00  4.52838E+00 -3.39117E+00  3.39175E+00
   4.75099E+00  7.81706E+00  8.43915E+00  8.55737E+00  6.82772E+00 -4.89542E-01  8.11924E+00  1.93842E+00  6.96263E+00  3.83047E+00
  -1.01732E+01  3.91112E-01  2.60107E+00  1.76757E+00 -1.57954E+00 -1.35796E+00 -1.36022E+00  2.70777E+00 -5.54774E-01  4.10207E-01
   4.13299E+00  8.34327E+00  7.76074E+00  7.98773E+00  1.28714E+01  1.41421E+01  1.78590E+01  2.21906E+01  2.52662E+01  2.78954E+01
   5.33631E+01  6.97766E+01  9.27288E+01  9.67890E+01  8.71722E+01  6.76566E+01  4.56093E+01  3.36556E+01  2.26269E+01  1.80189E+01
   9.02052E+00  4.00249E+00  9.57775E+00  9.93483E+00  4.47466E+00  1.48195E+01  8.94898E+00  8.45581E+00  1.09447E+01  1.62418E+01
   2.05075E+01  2.76201E+01  2.85593E+01  4.36211E+01  5.55288E+01  7.40639E+01  9.69014E+01  1.00681E+02  9.62315E+01  8.02394E+01
   5.91582E+01  4.22640E+01  3.02328E+01  1.87889E+01  7.18645E+00  6.44059E+00  4.36895E+00  1.07684E+01  7.55724E+00  5.87133E-01
   7.11031E+00  8.97271E+00  6.78651E+00  6.39063E+00  1.00951E+01  8.17107E+00  5.83071E+00 -7.89247E-01  5.88243E+00  2.85458E+00
   5.72664E-01  4.75392E+00  2.30482E-01  1.80341E+00  2.28636E+00  2.01644E+00  2.87507E+00  4.24527E+00  4.91951E+00  4.59031E+00
  -6.13084E+00 -7.17149E+00 -3.57075E+00  3.26704E-01 -7.43001E-01  2.45257E+00  3.75300E+00 -2.26622E-01 -7.25833E+00 -6.33938E+00
  -1.46781E+01 -1.40383E+01 -1.24758E+01 -1.46091E+01 -2.01422E+01 -1.87458E+01 -2.33072E+01 -1.84125E+01 -1.44356E+01 -1.19574E+01
  -1.58298E+01 -1.72801E+01 -1.98122E+01 -2.15110E+01 -1.81293E+01 -1.80156E+01 -1.06719E+01 -9.66539E+00 -1.26211E+01 -4.15770E-01
  -1.27745E+00  6.14448E+00  5.68830E+00  3.03586E+00  5.66695E-01 -6.11513E+00  1.23640E+00 -3.31610E+00 -1.03132E+01 -1.13429E+01
  -1.18289E+01 -7.25763E+00 -7.82650E+00 -3.99553E+00  4.29233E+00  2.90702E+00 -4.04463E+00 -7.53490E+00 -1.16504E+01 -1.09809E+01
  -1.55183E+01 -1.01713E+01  3.73948E+00  9.83101E+00  1.02567E+01  1.11808E+01  1.44976E+01  1.21954E+01  2.30951E+00 -4.87659E+00
  -1.20879E+01 -1.49937E+01 -1.36911E+01 -1.09053E+01  1.69310E+00  8.61355E+00  2.66324E+00  9.36002E+00  9.63760E+00  7.15771E+00
   9.75562E+00  1.41559E+00  5.08085E+00  3.20978E+00  9.57017E+00  3.46921E+00  5.69814E+00  2.13838E+00  3.70756E+00 -2.75086E-01
  -8.13261E-01  4.01100E+00  4.08018E+00  2.94194E-01  3.15327E+00  1.27126E+01  1.00254E+01  2.07301E+01  2.25991E+01  2.49427E+01
   2.33129E+01  2.33887E+01  3.07457E+01  3.24457E+01  4.08874E+01  5.11283E+01  6.15419E+01  7.89357E+01  1.04944E+02  1.31919E+02
   1.32656E+02  1.32861E+02  1.07781E+02  7.85678E+01  4.60235E+01  2.55272E+01  7.90340E+00  4.04718E+00  3.28640E+00  1.13055E+00
  -2.32873E+00  1.41100E+00  9.26772E+00  2.87530E+00  6.89046E+00 -1.35644E+00  3.85769E+00 -2.16878E+00 -2.79727E+00 -3.43467E+00
  -2.38828E+00  2.94700E+00 -1.03711E+01 -3.40453E+00 -1.09224E+01 -7.09552E+00  8.66472E-01 -8.63423E+00 -8.82122E+00 -4.92469E+00
   5.21767E-01 -3.91611E+00 -5.93948E+00 -3.03262E+00 -1.35630E+00  6.42212E-01 -2.55476E+00 -4.14338E+00  3.74870E+00 -2.32491E+00
   2.52938E+00  3.58761E+00  5.71123E+00  3.99109E+00  3.70065E+00  6.08435E+00  1.16531E+01  1.12134E+01  4.80003E+00  9.08546E+00
   1.12401E+01  5.94597E+00  4.98909E+00  1.10700E+01  9.49025E+00  1.45342E+01  1.03579E+01  1.59739E+01  1.60292E+01  1.89689E+01
   1.64837E+01  2.07426E+01  1.48020E+01  2.06290E+01  1.71747E+01  2.31416E+01  2.57844E+01  2.40150E+01  2.47118E+01  2.73686E+01
   2.38122E+01  3.08736E+01  3.02621E+01  2.58805E+01  2.52233E+01  3.86550E+01  3.36327E+01  3.01058E+01  3.81587E+01  3.33544E+01
   2.81654E+01  3.30595E+01  3.76014E+01  4.04718E+01  4.19336E+01  4.51771E+01  4.37443E+01  3.91490E+01  3.65585E+01  3.20116E+01
   3.30106E+01  2.95835E+01  3.76175E+01  3.08658E+01  3.35517E+01  3.56401E+01  3.68046E+01  3.29665E+01  3.37146E+01  3.21448E+01
   3.91776E+01  3.37001E+01  3.54928E+01  3.98854E+01  4.02121E+01  3.53369E+01  3.56104E+01  3.48109E+01  3.82945E+01  4.12207E+01
   3.76447E+01  3.77375E+01  3.27430E+01  3.85975E+01  3.44427E+01  2.82723E+01  3.11084E+01  2.85608E+01  3.32968E+01  3.29288E+01
   3.49496E+01  3.82542E+01  3.22324E+01  3.47543E+01  4.05763E+01  3.17949E+01  2.55196E+01  3.16068E+01  2.85655E+01  3.75876E+01
   3.86712E+01  3.39146E+01  3.93735E+01  3.98534E+01  4.41929E+01  3.79407E+01  3.50755E+01  3.45437E+01  3.86081E+01  4.37919E+01
   4.18292E+01  4.07693E+01  4.14573E+01  4.01599E+01  4.10584E+01  3.52575E+01  4.10591E+01  4.03467E+01  4.16533E+01  4.26517E+01
   3.89801E+01  3.75055E+01  3.56302E+01  4.09895E+01  3.78734E+01  3.47579E+01  3.41784E+01  3.38656E+01  2.30606E+01  2.40106E+01
   2.74692E+01  2.96709E+01  2.72963E+01  2.22140E+01  2.58310E+01  2.17924E+01  2.22592E+01  2.53250E+01  2.43268E+01  2.13334E+01
   2.19913E+01  1.27934E+01  1.73799E+01  2.35497E+01  1.58823E+01  2.15919E+01  1.95325E+01  2.50712E+01  1.93395E+01  1.72858E+01
   1.83272E+01  1.54695E+01  2.23776E+01  2.06391E+01  2.26629E+01  1.86079E+01  1.59414E+01  1.77808E+01  1.38746E+01  1.88783E+01
   1.53036E+01  1.15673E+01  1.66751E+01  1.52882E+01  1.34679E+01  1.35280E+01  1.06193E+01  1.31144E+01  1.43968E+01  1.90472E+01
   2.03563E+01  1.22757E+01  1.03863E+01  1.80817E+01  1.39826E+01  1.20258E+01  1.33717E+01  1.28746E+01  1.36132E+01  1.63808E+01
   9.81152E+00  1.28815E+01  9.79409E+00  1.38510E+01  1.16888E+01  1.23686E+01  1.50530E+01  1.51657E+01  1.41421E+01  1.26461E+01
   1.41395E+01  9.36502E+00  1.26648E+01  1.80603E+01  1.18320E+01  1.42923E+01  5.64466E+00  1.17495E+01  1.52208E+01  1.48807E+01
   1.38275E+01  1.22306E+01  1.07409E+01  1.71747E+01  9.43779E+00  9.01020E+00  8.60901E+00  1.11972E+01
 NY points of the fit to the data follow
   1.84344E+01  1.83212E+01  1.91749E+01  2.17438E+01  2.59773E+01  3.26369E+01  4.13742E+01  5.16119E+01  6.30440E+01  7.35434E+01
   7.96720E+01  7.88704E+01  7.12348E+01  5.93291E+01  4.66705E+01  3.60383E+01  2.85708E+01  2.39641E+01  2.13398E+01  1.99937E+01
   1.92682E+01  1.85373E+01  1.76382E+01  1.70918E+01  1.75861E+01  1.83257E+01  1.95154E+01  2.24169E+01  2.73260E+01  3.28690E+01
   3.72012E+01  3.90153E+01  3.76131E+01  3.35384E+01  2.82414E+01  2.28166E+01  1.83644E+01  1.56597E+01  1.44980E+01  1.43769E+01
   1.53127E+01  1.72916E+01  1.96483E+01  2.20664E+01  2.50380E+01  2.85089E+01  3.13977E+01  3.23344E+01  3.05974E+01  2.65814E+01
   2.15531E+01  1.68503E+01  1.33948E+01  1.16273E+01  1.12889E+01  1.19016E+01  1.30423E+01  1.43982E+01  1.57175E+01  1.65883E+01
   1.65950E+01  1.55904E+01  1.37595E+01  1.16794E+01  9.92363E+00  9.00611E+00  9.05888E+00  9.74352E+00  1.07304E+01  1.17564E+01
   1.25867E+01  1.30035E+01  1.29054E+01  1.23501E+01  1.15177E+01  1.06459E+01  9.90747E+00  9.35402E+00  8.95675E+00  8.65416E+00
   8.27683E+00  7.69171E+00  6.88556E+00  5.84182E+00  4.50361E+00  2.88668E+00  1.25351E+00  6.21519E-02 -2.92294E-01  2.88183E-01
   1.69134E+00  3.46081E+00  5.18583E+00  6.63656E+00  7.71218E+00  8.60235E+00  1.09405E+01  1.76797E+01  2.61513E+01  3.68908E+01
   5.29474E+01  7.25558E+01  8.88953E+01  9.49929E+01  8.83686E+01  7.16111E+01  5.09256E+01  3.23628E+01  1.88391E+01  1.04844E+01
   6.37303E+00  4.92697E+00  4.52251E+00  4.41553E+00  4.40959E+00  4.47572E+00  4.61781E+00  4.85623E+00  5.29428E+00  6.28279E+00
   9.35774E+00  1.75047E+01  2.78521E+01  4.01731E+01  5.75130E+01  7.83858E+01  9.60010E+01  1.03175E+02  9.71413E+01  8.02138E+01
   5.88270E+01  3.94555E+01  2.49605E+01  1.51722E+01  9.03781E+00  5.22779E+00  2.76995E+00  1.46566E+00  1.50661E+00  2.70578E+00
   4.46082E+00  6.04816E+00  6.92771E+00  6.96531E+00  6.34526E+00  5.42283E+00  4.52249E+00  3.80159E+00  3.24144E+00  2.77553E+00
   2.36844E+00  1.97262E+00  1.58840E+00  1.28043E+00  1.02519E+00  7.09942E-01  4.83696E-01  2.09523E-01 -3.17598E-01 -1.05626E+00
  -1.94810E+00 -2.51227E+00 -2.46182E+00 -2.05234E+00 -1.85324E+00 -2.24846E+00 -3.23146E+00 -4.53542E+00 -5.81673E+00 -6.89168E+00
  -7.81586E+00 -8.49708E+00 -9.02227E+00 -9.74081E+00 -1.06339E+01 -1.13999E+01 -1.15493E+01 -1.11811E+01 -1.07656E+01 -1.07329E+01
  -1.11149E+01 -1.16509E+01 -1.18558E+01 -1.17891E+01 -1.16208E+01 -1.11483E+01 -1.00036E+01 -8.03597E+00 -5.46325E+00 -2.72856E+00
  -4.91608E-01  6.01363E-01  1.83905E-01 -1.17164E+00 -2.97745E+00 -4.92484E+00 -6.57924E+00 -7.36948E+00 -7.01095E+00 -5.68460E+00
  -3.63740E+00 -1.39958E+00  6.13777E-01  1.77219E+00  1.57826E+00  1.56656E-01 -2.28433E+00 -5.39333E+00 -8.19444E+00 -9.81221E+00
  -9.61298E+00 -7.98541E+00 -4.74184E+00 -1.20309E-01  4.52695E+00  7.30087E+00  6.79153E+00  3.24655E+00 -2.08544E+00 -8.03709E+00
  -1.33003E+01 -1.62238E+01 -1.57965E+01 -1.21208E+01 -6.45218E+00 -6.55142E-01  3.88624E+00  6.65712E+00  7.61519E+00  7.07276E+00
   5.77256E+00  4.78628E+00  4.77117E+00  5.62373E+00  7.04315E+00  8.71973E+00  9.93207E+00  1.00144E+01  8.99533E+00  7.26498E+00
   5.43329E+00  4.28590E+00  4.56931E+00  6.36216E+00  9.18567E+00  1.23616E+01  1.51475E+01  1.69874E+01  1.77533E+01  1.80639E+01
   1.88463E+01  2.01745E+01  2.24328E+01  2.72784E+01  3.89995E+01  5.28494E+01  6.61323E+01  8.39812E+01  1.06859E+02  1.27380E+02
   1.36172E+02  1.28672E+02  1.06855E+02  7.82740E+01  5.15078E+01  3.11661E+01  1.77430E+01  1.02412E+01  6.77021E+00  4.98334E+00
   3.74082E+00  2.89087E+00  2.36526E+00  2.02139E+00  1.68603E+00  1.24374E+00  6.72281E-01  1.80267E-02 -6.47782E-01 -1.25556E+00
  -1.74327E+00 -2.08494E+00 -2.29785E+00 -2.42141E+00 -2.50124E+00 -2.56612E+00 -2.61484E+00 -2.63877E+00 -2.62157E+00 -2.54072E+00
  -2.37967E+00 -2.13689E+00 -1.82530E+00 -1.46283E+00 -1.05916E+00 -6.22334E-01 -1.55947E-01  3.44582E-01  8.86118E-01  1.47526E+00
   2.11289E+00  2.79108E+00  3.49519E+00  4.20906E+00  4.91977E+00  5.61841E+00  6.29929E+00  6.95979E+00  7.59969E+00  8.22086E+00
   8.82724E+00  9.42446E+00  1.00196E+01  1.06218E+01  1.12426E+01  1.18951E+01  1.25927E+01  1.33487E+01  1.41754E+01  1.50867E+01
   1.61044E+01  1.72597E+01  1.84815E+01  1.97218E+01  2.10218E+01  2.23070E+01  2.34216E+01  2.42627E+01  2.48581E+01  2.54007E+01
   2.60856E+01  2.69364E+01  2.79915E+01  2.92836E+01  3.07580E+01  3.22469E+01  3.35469E+01  3.45285E+01  3.51777E+01  3.55929E+01
   3.59302E+01  3.63601E+01  3.68241E+01  3.71944E+01  3.76080E+01  3.79604E+01  3.79140E+01  3.72091E+01  3.59098E+01  3.45329E+01
   3.35096E+01  3.30110E+01  3.32426E+01  3.42753E+01  3.59063E+01  3.76885E+01  3.91365E+01  3.99575E+01  4.01391E+01  3.98821E+01
   3.94232E+01  3.89134E+01  3.84307E+01  3.80004E+01  3.75907E+01  3.71623E+01  3.67001E+01  3.62014E+01  3.56685E+01  3.51078E+01
   3.45285E+01  3.39415E+01  3.33592E+01  3.27943E+01  3.22598E+01  3.17687E+01  3.13340E+01  3.09681E+01  3.06823E+01  3.04862E+01
   3.03879E+01  3.03939E+01  3.05088E+01  3.07350E+01  3.10721E+01  3.15169E+01  3.20637E+01  3.27043E+01  3.34277E+01  3.42207E+01
   3.50672E+01  3.59489E+01  3.68467E+01  3.77402E+01  3.86090E+01  3.94326E+01  4.01912E+01  4.08666E+01  4.14429E+01  4.19070E+01
   4.22487E+01  4.24607E+01  4.25386E+01  4.24815E+01  4.22918E+01  4.19745E+01  4.15365E+01  4.09865E+01  4.03346E+01  3.95919E+01
   3.87704E+01  3.78820E+01  3.69382E+01  3.59502E+01  3.49286E+01  3.38837E+01  3.28251E+01  3.17616E+01  3.07007E+01  2.96495E+01
   2.86143E+01  2.76011E+01  2.66151E+01  2.56603E+01  2.47403E+01  2.38578E+01  2.30153E+01  2.22147E+01  2.14572E+01  2.07432E+01
   2.00725E+01  1.94448E+01  1.88595E+01  1.83156E+01  1.78118E+01  1.73462E+01  1.69170E+01  1.65224E+01  1.61605E+01  1.58297E+01
   1.55278E+01  1.52526E+01  1.50024E+01  1.47754E+01  1.45702E+01  1.43850E+01  1.42183E+01  1.40684E+01  1.39341E+01  1.38144E+01
   1.37082E+01  1.36144E+01  1.35319E+01  1.34596E+01  1.33971E+01  1.33436E+01  1.32986E+01  1.32613E+01  1.32309E+01  1.32071E+01
   1.31894E+01  1.31777E+01  1.31713E+01  1.31699E+01  1.31729E+01  1.31803E+01  1.31918E+01  1.32072E+01  1.32263E+01  1.32486E+01
   1.32738E+01  1.33021E+01  1.33333E+01  1.33673E+01  1.34038E+01  1.34424E+01  1.34832E+01  1.35262E+01  1.35713E+01  1.36185E+01
   1.36673E+01  1.37177E+01  1.37698E+01  1.38236E+01  1.38791E+01  1.39360E+01  1.39942E+01  1.40536E+01  1.41143E+01  1.41766E+01
   1.42401E+01  1.43046E+01  1.43702E+01  1.44369E+01  1.45048E+01  1.45739E+01  1.46441E+01  1.47152E+01
 NY background values follow
     1.174E+01    1.165E+01    1.156E+01    1.146E+01    1.137E+01    1.128E+01    1.119E+01    1.110E+01    1.101E+01    1.092E+01
     1.083E+01    1.074E+01    1.064E+01    1.055E+01    1.046E+01    1.037E+01    1.028E+01    1.018E+01    1.009E+01    9.999E+00
     9.906E+00    9.813E+00    9.720E+00    9.627E+00    9.533E+00    9.439E+00    9.345E+00    9.251E+00    9.156E+00    9.062E+00
     8.967E+00    8.871E+00    8.776E+00    8.680E+00    8.584E+00    8.487E+00    8.391E+00    8.294E+00    8.196E+00    8.099E+00
     8.001E+00    7.902E+00    7.804E+00    7.705E+00    7.605E+00    7.506E+00    7.405E+00    7.305E+00    7.204E+00    7.103E+00
     7.001E+00    6.899E+00    6.797E+00    6.695E+00    6.592E+00    6.489E+00    6.385E+00    6.282E+00    6.178E+00    6.073E+00
     5.969E+00    5.864E+00    5.759E+00    5.654E+00    5.548E+00    5.443E+00    5.337E+00    5.231E+00    5.125E+00    5.018E+00
     4.911E+00    4.805E+00    4.698E+00    4.590E+00    4.483E+00    4.376E+00    4.268E+00    4.161E+00    4.053E+00    3.945E+00
     3.837E+00    3.729E+00    3.621E+00    3.513E+00    3.404E+00    3.296E+00    3.188E+00    3.079E+00    2.971E+00    2.863E+00
     2.754E+00    2.646E+00    2.537E+00    2.429E+00    2.320E+00    2.212E+00    2.103E+00    1.995E+00    1.886E+00    1.777E+00
     1.669E+00    1.560E+00    1.451E+00    1.342E+00    1.233E+00    1.124E+00    1.015E+00    9.055E-01    7.961E-01    6.865E-01
     5.769E-01    4.671E-01    3.572E-01    2.471E-01    1.369E-01    2.651E-02   -8.402E-02   -1.947E-01   -3.056E-01   -4.167E-01
    -5.279E-01   -6.394E-01   -7.510E-01   -8.629E-01   -9.750E-01   -1.087E+00   -1.200E+00   -1.313E+00   -1.426E+00   -1.539E+00
    -1.652E+00   -1.766E+00   -1.880E+00   -1.995E+00   -2.109E+00   -2.224E+00   -2.339E+00   -2.455E+00   -2.571E+00   -2.687E+00
    -2.803E+00   -2.919E+00   -3.035E+00   -3.152E+00   -3.269E+00   -3.385E+00   -3.502E+00   -3.618E+00   -3.735E+00   -3.851E+00
    -3.967E+00   -4.083E+00   -4.199E+00   -4.315E+00   -4.430E+00   -4.545E+00   -4.660E+00   -4.774E+00   -4.888E+00   -5.001E+00
    -5.114E+00   -5.227E+00   -5.339E+00   -5.450E+00   -5.561E+00   -5.671E+00   -5.781E+00   -5.889E+00   -5.997E+00   -6.105E+00
    -6.211E+00   -6.317E+00   -6.422E+00   -6.526E+00   -6.629E+00   -6.731E+00   -6.832E+00   -6.931E+00   -7.030E+00   -7.128E+00
    -7.225E+00   -7.320E+00   -7.415E+00   -7.508E+00   -7.600E+00   -7.691E+00   -7.780E+00   -7.869E+00   -7.956E+00   -8.042E+00
    -8.127E+00   -8.210E+00   -8.293E+00   -8.374E+00   -8.454E+00   -8.533E+00   -8.611E+00   -8.688E+00   -8.763E+00   -8.837E+00
    -8.910E+00   -8.982E+00   -9.053E+00   -9.122E+00   -9.191E+00   -9.258E+00   -9.324E+00   -9.389E+00   -9.452E+00   -9.515E+00
    -9.576E+00   -9.636E+00   -9.695E+00   -9.753E+00   -9.809E+00   -9.864E+00   -9.919E+00   -9.972E+00   -1.002E+01   -1.007E+01
    -1.012E+01   -1.017E+01   -1.022E+01   -1.026E+01   -1.031E+01   -1.035E+01   -1.040E+01   -1.044E+01   -1.048E+01   -1.052E+01
    -1.055E+01   -1.059E+01   -1.062E+01   -1.066E+01   -1.069E+01   -1.072E+01   -1.075E+01   -1.078E+01   -1.081E+01   -1.084E+01
    -1.086E+01   -1.088E+01   -1.091E+01   -1.093E+01   -1.095E+01   -1.096E+01   -1.098E+01   -1.100E+01   -1.101E+01   -1.102E+01
    -1.103E+01   -1.104E+01   -1.105E+01   -1.106E+01   -1.106E+01   -1.107E+01   -1.107E+01   -1.107E+01   -1.107E+01   -1.106E+01
    -1.106E+01   -1.105E+01   -1.105E+01   -1.104E+01   -1.103E+01   -1.102E+01   -1.100E+01   -1.099E+01   -1.097E+01   -1.095E+01
    -1.093E+01   -1.091E+01   -1.088E+01   -1.086E+01   -1.083E+01   -1.080E+01   -1.077E+01   -1.074E+01   -1.071E+01   -1.067E+01
    -1.063E+01   -1.060E+01   -1.056E+01   -1.051E+01   -1.047E+01   -1.043E+01   -1.038E+01   -1.033E+01   -1.028E+01   -1.023E+01
    -1.018E+01   -1.013E+01   -1.007E+01   -1.001E+01   -9.956E+00   -9.896E+00   -9.835E+00   -9.773E+00   -9.709E+00   -9.644E+00
    -9.577E+00   -9.509E+00   -9.440E+00   -9.370E+00   -9.298E+00   -9.225E+00   -9.150E+00   -9.075E+00   -8.998E+00   -8.919E+00
    -8.840E+00   -8.759E+00   -8.678E+00   -8.594E+00   -8.510E+00   -8.425E+00   -8.338E+00   -8.250E+00   -8.161E+00   -8.071E+00
    -7.980E+00   -7.888E+00   -7.795E+00   -7.700E+00   -7.605E+00   -7.509E+00   -7.411E+00   -7.313E+00   -7.213E+00   -7.113E+00
    -7.011E+00   -6.909E+00   -6.806E+00   -6.702E+00   -6.596E+00   -6.491E+00   -6.384E+00   -6.276E+00   -6.168E+00   -6.058E+00
    -5.948E+00   -5.837E+00   -5.726E+00   -5.613E+00   -5.500E+00   -5.386E+00   -5.271E+00   -5.156E+00   -5.040E+00   -4.923E+00
    -4.806E+00   -4.688E+00   -4.569E+00   -4.450E+00   -4.330E+00   -4.210E+00   -4.089E+00   -3.968E+00   -3.846E+00   -3.723E+00
    -3.600E+00   -3.476E+00   -3.352E+00   -3.228E+00   -3.103E+00   -2.978E+00   -2.852E+00   -2.726E+00   -2.599E+00   -2.472E+00
    -2.345E+00   -2.217E+00   -2.090E+00   -1.961E+00   -1.833E+00   -1.704E+00   -1.575E+00   -1.445E+00   -1.316E+00   -1.186E+00
    -1.056E+00   -9.254E-01   -7.949E-01   -6.643E-01   -5.335E-01   -4.025E-01   -2.714E-01   -1.402E-01   -8.854E-03    1.226E-01
     2.541E-01    3.856E-01    5.172E-01    6.489E-01    7.805E-01    9.122E-01    1.044E+00    1.176E+00    1.307E+00    1.439E+00
     1.570E+00    1.702E+00    1.833E+00    1.964E+00    2.095E+00    2.226E+00    2.357E+00    2.488E+00    2.618E+00    2.748E+00
     2.879E+00    3.009E+00    3.138E+00    3.268E+00    3.397E+00    3.526E+00    3.655E+00    3.783E+00    3.912E+00    4.040E+00
     4.167E+00    4.295E+00    4.422E+00    4.549E+00    4.675E+00    4.801E+00    4.927E+00    5.052E+00    5.178E+00    5.302E+00
     5.427E+00    5.551E+00    5.674E+00    5.798E+00    5.920E+00    6.043E+00    6.165E+00    6.286E+00    6.408E+00    6.528E+00
     6.648E+00    6.768E+00    6.887E+00    7.006E+00    7.124E+00    7.242E+00    7.359E+00    7.476E+00    7.592E+00    7.708E+00
     7.823E+00    7.938E+00    8.051E+00    8.165E+00    8.278E+00    8.390E+00    8.502E+00    8.613E+00    8.724E+00    8.834E+00
     8.944E+00    9.053E+00    9.162E+00    9.270E+00    9.379E+00    9.486E+00    9.593E+00    9.700E+00    9.807E+00    9.913E+00
     1.002E+01    1.012E+01    1.023E+01    1.033E+01    1.044E+01    1.054E+01    1.065E+01    1.075E+01    1.086E+01    1.096E+01
     1.106E+01    1.117E+01    1.127E+01    1.137E+01    1.147E+01    1.158E+01    1.168E+01    1.178E+01    1.188E+01    1.199E+01
     1.209E+01    1.219E+01    1.229E+01    1.240E+01    1.250E+01    1.260E+01    1.270E+01    1.281E+01
 Ala      Conc. = 1.08E+02
