 LCModel (Version 6.3-1L) Copyright: S.W. Provencher.          Ref.: Magn. Reson. Med. 30:672-679 (1993).                
 Slice#2 Row#9 Col#6  K_02_press_1_raw_act
 36 lines in following concentration table = NCONC+1
    Conc.  %SD /Cr+PCr  Metabolite                                         
   53.639 199% 2.5E-02 Ala                                                 
    0.000 999%   0.000 Asp                                                 
 1.04E+03  21%   0.488 Cr                                                  
 1.10E+03  21%   0.512 PCr                                                 
    0.000 999%   0.000 GABA                                                
    0.000 999%   0.000 Glc                                                 
  666.928  33%   0.312 Gln                                                 
 2.09E+03  12%   0.977 Glu                                                 
  834.099   3%   0.390 GPC                                                 
    0.000 999%   0.000 PCh                                                 
  692.022  12%   0.323 GSH                                                 
 1.81E+03  16%   0.845 Ins                                                 
    0.000 999%   0.000 Lac                                                 
 3.25E+03   4%   1.518 NAA                                                 
  783.280  15%   0.366 NAAG                                                
   93.862  35% 4.4E-02 Scyllo                                              
    0.000 999%   0.000 Tau                                                 
   17.990 747% 8.4E-03 -CrCH2                                              
  834.099   3%   0.390 GPC+PCh                                             
 4.03E+03   3%   1.884 NAA+NAAG                                            
 2.14E+03   3%   1.000 Cr+PCr                                              
 2.76E+03  12%   1.288 Glu+Gln                                             
 2.30E+03  33%   1.073 Lip13a                                              
    0.000 999%   0.000 Lip13b                                              
  518.824  69%   0.242 Lip09                                               
 1.57E+03  25%   0.734 MM09                                                
  449.476  53%   0.210 Lip20                                               
 3.05E+03  19%   1.425 MM20                                                
  497.602  54%   0.233 MM12                                                
  779.142  59%   0.364 MM14                                                
  645.162  53%   0.301 MM17                                                
 2.30E+03  33%   1.073 Lip13a+Lip13b                                       
 3.57E+03  22%   1.670 MM14+Lip13a+Lip13b+MM12                             
 2.09E+03  16%   0.976 MM09+Lip09                                          
 3.50E+03  16%   1.635 MM20+Lip20                                          
   6 lines in following misc. output table
  FWHM = 0.046 ppm    S/N =  17                                            
  Data shift = 0.023 ppm                                                   
  Ph: -22 deg     -12.0 deg/ppm                                            
  alphaB,S = 1.0E+00,   5.9E+01                                            
   14 spline knots.   Ns = 6(1)                                            
  (11) 3 infls.   ( 9) 1 extrs.                                            
  498 points on ppm-axis = NY
      4.000000     3.992357     3.984714     3.977070     3.969427     3.961784     3.954141     3.946497     3.938854     3.931211
      3.923568     3.915925     3.908281     3.900638     3.892995     3.885352     3.877708     3.870065     3.862422     3.854779
      3.847136     3.839492     3.831849     3.824206     3.816563     3.808919     3.801276     3.793633     3.785990     3.778347
      3.770703     3.763060     3.755417     3.747774     3.740130     3.732487     3.724844     3.717201     3.709558     3.701914
      3.694271     3.686628     3.678985     3.671341     3.663698     3.656055     3.648412     3.640769     3.633125     3.625482
      3.617839     3.610196     3.602552     3.594909     3.587266     3.579623     3.571980     3.564336     3.556693     3.549050
      3.541407     3.533763     3.526120     3.518477     3.510834     3.503191     3.495547     3.487904     3.480261     3.472618
      3.464974     3.457331     3.449688     3.442045     3.434402     3.426758     3.419115     3.411472     3.403829     3.396185
      3.388542     3.380899     3.373256     3.365613     3.357969     3.350326     3.342683     3.335040     3.327396     3.319753
      3.312110     3.304467     3.296824     3.289180     3.281537     3.273894     3.266251     3.258607     3.250964     3.243321
      3.235678     3.228034     3.220391     3.212748     3.205105     3.197462     3.189818     3.182175     3.174532     3.166889
      3.159245     3.151602     3.143959     3.136316     3.128673     3.121029     3.113386     3.105743     3.098100     3.090456
      3.082813     3.075170     3.067527     3.059884     3.052240     3.044597     3.036954     3.029311     3.021667     3.014024
      3.006381     2.998738     2.991095     2.983451     2.975808     2.968165     2.960522     2.952878     2.945235     2.937592
      2.929949     2.922306     2.914662     2.907019     2.899376     2.891733     2.884089     2.876446     2.868803     2.861160
      2.853517     2.845873     2.838230     2.830587     2.822944     2.815300     2.807657     2.800014     2.792371     2.784728
      2.777084     2.769441     2.761798     2.754155     2.746511     2.738868     2.731225     2.723582     2.715939     2.708295
      2.700652     2.693009     2.685366     2.677722     2.670079     2.662436     2.654793     2.647150     2.639506     2.631863
      2.624220     2.616577     2.608933     2.601290     2.593647     2.586004     2.578361     2.570717     2.563074     2.555431
      2.547788     2.540144     2.532501     2.524858     2.517215     2.509572     2.501928     2.494285     2.486642     2.478999
      2.471355     2.463712     2.456069     2.448426     2.440783     2.433139     2.425496     2.417853     2.410210     2.402566
      2.394923     2.387280     2.379637     2.371994     2.364350     2.356707     2.349064     2.341421     2.333777     2.326134
      2.318491     2.310848     2.303205     2.295561     2.287918     2.280275     2.272632     2.264988     2.257345     2.249702
      2.242059     2.234416     2.226772     2.219129     2.211486     2.203843     2.196199     2.188556     2.180913     2.173270
      2.165627     2.157983     2.150340     2.142697     2.135054     2.127410     2.119767     2.112124     2.104481     2.096838
      2.089194     2.081551     2.073908     2.066265     2.058621     2.050978     2.043335     2.035692     2.028049     2.020405
      2.012762     2.005119     1.997476     1.989833     1.982190     1.974546     1.966903     1.959260     1.951617     1.943974
      1.936331     1.928688     1.921045     1.913402     1.905759     1.898115     1.890472     1.882829     1.875186     1.867543
      1.859900     1.852257     1.844614     1.836971     1.829327     1.821684     1.814041     1.806398     1.798755     1.791112
      1.783469     1.775826     1.768183     1.760540     1.752896     1.745253     1.737610     1.729967     1.722324     1.714681
      1.707038     1.699395     1.691752     1.684108     1.676465     1.668822     1.661179     1.653536     1.645893     1.638250
      1.630607     1.622964     1.615321     1.607677     1.600034     1.592391     1.584748     1.577105     1.569462     1.561819
      1.554176     1.546533     1.538890     1.531246     1.523603     1.515960     1.508317     1.500674     1.493031     1.485388
      1.477745     1.470102     1.462458     1.454815     1.447172     1.439529     1.431886     1.424243     1.416600     1.408957
      1.401314     1.393671     1.386027     1.378384     1.370741     1.363098     1.355455     1.347812     1.340169     1.332526
      1.324883     1.317240     1.309596     1.301953     1.294310     1.286667     1.279024     1.271381     1.263738     1.256095
      1.248452     1.240808     1.233165     1.225522     1.217879     1.210236     1.202593     1.194950     1.187307     1.179664
      1.172021     1.164377     1.156734     1.149091     1.141448     1.133805     1.126162     1.118519     1.110876     1.103233
      1.095590     1.087946     1.080303     1.072660     1.065017     1.057374     1.049731     1.042088     1.034445     1.026802
      1.019158     1.011515     1.003872     0.996229     0.988586     0.980943     0.973300     0.965657     0.958014     0.950371
      0.942727     0.935084     0.927441     0.919798     0.912155     0.904512     0.896869     0.889226     0.881583     0.873940
      0.866296     0.858653     0.851010     0.843367     0.835724     0.828081     0.820438     0.812795     0.805152     0.797508
      0.789865     0.782222     0.774579     0.766936     0.759293     0.751650     0.744007     0.736364     0.728721     0.721077
      0.713434     0.705791     0.698148     0.690505     0.682862     0.675219     0.667576     0.659933     0.652290     0.644646
      0.637003     0.629360     0.621717     0.614074     0.606431     0.598788     0.591145     0.583502     0.575858     0.568215
      0.560572     0.552929     0.545286     0.537643     0.530000     0.522357     0.514714     0.507071     0.499427     0.491784
      0.484141     0.476498     0.468855     0.461212     0.453569     0.445925     0.438282     0.430639     0.422996     0.415353
      0.407710     0.400067     0.392424     0.384780     0.377137     0.369494     0.361851     0.354208     0.346565     0.338922
      0.331278     0.323635     0.315992     0.308349     0.300706     0.293063     0.285420     0.277777     0.270133     0.262490
      0.254847     0.247204     0.239561     0.231918     0.224275     0.216631     0.208988     0.201345
 NY phased data points follow
  -2.31402E+01 -1.84275E+01 -1.89681E+01 -1.71638E+01 -7.70223E+00  8.79293E-02  8.25250E+00  1.52239E+01  2.68551E+01  3.37783E+01
   3.90402E+01  4.01197E+01  3.12282E+01  2.04841E+01  1.43561E+01  7.53274E+00 -8.77300E+00 -1.08897E+00 -7.17113E+00 -1.10206E+01
  -8.47916E+00 -9.14847E+00 -4.99178E+00 -3.82518E+00 -5.74857E+00 -2.07306E+00  1.28129E+00  7.29133E+00  5.93704E+00  1.09252E+01
   9.18962E+00  8.30838E+00  1.07331E+01  8.02607E+00  1.12610E+01  2.75866E+00  3.61908E+00  5.44465E+00  4.56252E+00  6.36680E+00
   5.38004E+00  7.18488E+00  9.01364E+00  8.33528E+00  8.43517E+00  1.73379E+01  2.18019E+01  2.86253E+01  1.84293E+01  1.42048E+01
   1.06723E+01  1.04896E+01  1.09093E+01  1.30540E+00  6.43392E+00  4.93572E+00  5.97390E+00  1.25297E+01  7.56268E+00  7.38137E+00
   6.65060E+00  2.19804E+00 -5.28606E+00 -6.59814E-01  9.34554E-01  1.57241E+00  9.80210E-01  6.01823E-01 -7.07801E+00  1.20075E+00
   4.53639E+00  3.90073E+00  5.09672E+00  8.20802E+00  3.44215E+00  9.68366E+00  1.01942E+01  2.73591E+00  9.06182E+00  6.39955E+00
   3.03187E-01  1.02145E+01  6.37555E+00  3.86206E+00  5.95062E+00  6.22575E+00  7.82548E+00  1.14867E+01  1.23167E+01  9.17829E+00
   1.18948E+01  1.56341E+01  1.56918E+01  1.54176E+01  1.71174E+01  1.56313E+01  1.95592E+01  2.56218E+01  2.97952E+01  4.35474E+01
   6.37665E+01  8.85852E+01  8.69465E+01  9.54504E+01  7.93138E+01  6.96030E+01  5.35870E+01  4.34594E+01  3.43358E+01  2.65580E+01
   2.47907E+01  2.12221E+01  1.51382E+01  1.72858E+01  1.17441E+01  1.58651E+01  1.79848E+01  2.04235E+01  1.54220E+01  2.54842E+01
   2.06326E+01  2.35980E+01  2.66002E+01  3.88866E+01  5.82941E+01  8.37851E+01  9.12901E+01  9.64901E+01  8.77521E+01  7.83412E+01
   5.70908E+01  5.03909E+01  3.50906E+01  3.12804E+01  2.64117E+01  1.56049E+01  1.92672E+01  1.25798E+01  1.54808E+01  1.77374E+01
   1.65925E+01  2.07551E+01  2.05135E+01  1.54242E+01  1.72462E+01  1.66358E+01  2.00192E+01  1.52245E+01  1.60262E+01  2.34498E+01
   1.53956E+01  1.61758E+01  1.81377E+01  1.64668E+01  1.78311E+01  1.79721E+01  1.71749E+01  1.45780E+01  1.70657E+01  2.08650E+01
   1.60857E+01  1.44452E+01  1.19326E+01  1.84182E+01  2.08779E+01  2.05055E+01  1.87791E+01  1.41566E+01  1.62890E+01  8.27533E+00
   9.53693E+00  1.01270E+01 -4.02777E+00 -3.30057E+00 -4.59001E+00 -6.30847E+00 -4.71076E-02 -1.81167E+00  1.53245E+00  9.74836E-01
   3.01311E+00  5.37701E-01  1.79898E+00  4.03429E+00  7.71318E+00  6.89236E+00  5.07215E+00  1.09852E+01  1.08804E+01  1.89723E+01
   2.01861E+01  2.34355E+01  2.39041E+01  2.79374E+01  2.06310E+01  2.06636E+01  1.76344E+01  1.26464E+01  1.05044E+01  1.07990E+01
   2.07381E+01  2.37331E+01  2.51787E+01  2.02702E+01  2.43202E+01  2.21185E+01  1.85340E+01  1.35128E+01  1.52369E+01  1.40029E+01
   1.05232E+01  1.42182E+01  2.12677E+01  2.37446E+01  2.97886E+01  3.67295E+01  4.12008E+01  3.45004E+01  3.32416E+01  2.69553E+01
   1.54175E+01  2.05939E+01  1.46652E+01  1.75659E+01  1.68415E+01  1.82867E+01  2.82292E+01  3.02974E+01  3.33226E+01  3.21253E+01
   3.27291E+01  3.37474E+01  3.07401E+01  2.82768E+01  3.41810E+01  3.20129E+01  3.09329E+01  2.60008E+01  2.60205E+01  3.10712E+01
   2.34352E+01  2.48414E+01  2.36868E+01  2.28033E+01  2.75186E+01  2.85153E+01  3.69260E+01  4.60195E+01  3.64006E+01  3.59498E+01
   3.84650E+01  3.64016E+01  5.05999E+01  6.46784E+01  7.90248E+01  7.89110E+01  8.43049E+01  1.05155E+02  1.36190E+02  1.65033E+02
   1.72803E+02  1.58572E+02  1.34961E+02  1.08425E+02  8.40928E+01  6.14724E+01  4.92328E+01  4.49497E+01  3.43551E+01  3.20862E+01
   3.07787E+01  3.52769E+01  3.84480E+01  2.61456E+01  2.65138E+01  3.28551E+01  3.35297E+01  2.77803E+01  3.25521E+01  3.32228E+01
   3.19576E+01  3.40307E+01  2.93363E+01  3.21697E+01  2.58069E+01  2.63178E+01  2.88596E+01  2.90290E+01  2.50568E+01  2.91199E+01
   2.80018E+01  2.64707E+01  2.82461E+01  2.95545E+01  3.00802E+01  2.61701E+01  2.50346E+01  3.07397E+01  2.46888E+01  3.06861E+01
   2.95317E+01  2.60266E+01  3.41251E+01  3.29419E+01  2.77333E+01  2.94284E+01  3.26366E+01  3.34237E+01  3.06892E+01  2.92730E+01
   3.01898E+01  3.22230E+01  3.36863E+01  3.35013E+01  2.64607E+01  2.89210E+01  2.90665E+01  2.73678E+01  2.79419E+01  3.53786E+01
   2.84389E+01  3.19223E+01  2.54536E+01  2.68042E+01  3.04259E+01  2.72620E+01  3.12145E+01  3.39989E+01  2.88199E+01  2.85121E+01
   3.31478E+01  3.10510E+01  3.20377E+01  3.02952E+01  3.68658E+01  3.47759E+01  3.76865E+01  3.82892E+01  3.76098E+01  3.86750E+01
   3.36943E+01  3.04838E+01  3.40904E+01  3.66607E+01  3.76129E+01  3.28801E+01  3.82408E+01  3.92991E+01  3.61134E+01  3.54578E+01
   3.48104E+01  3.93346E+01  4.25328E+01  4.44033E+01  4.18302E+01  3.62247E+01  3.86582E+01  3.68136E+01  3.66498E+01  4.14468E+01
   3.74654E+01  4.03032E+01  4.19699E+01  3.96754E+01  3.88362E+01  4.20577E+01  3.58348E+01  3.86129E+01  4.12539E+01  3.65110E+01
   3.55339E+01  3.58945E+01  3.12842E+01  3.67789E+01  3.26103E+01  3.85392E+01  3.03247E+01  2.68621E+01  3.25477E+01  3.22317E+01
   3.05010E+01  3.71636E+01  3.55291E+01  2.32795E+01  2.78888E+01  3.40830E+01  3.27317E+01  3.24721E+01  3.86332E+01  3.28246E+01
   4.24647E+01  3.44418E+01  3.52266E+01  3.41744E+01  3.37201E+01  3.99932E+01  4.32431E+01  4.07732E+01  3.81744E+01  3.97700E+01
   3.91433E+01  3.96126E+01  3.85028E+01  4.40987E+01  4.68389E+01  4.22482E+01  4.07314E+01  4.32346E+01  4.58995E+01  4.09887E+01
   4.21801E+01  4.10055E+01  4.06043E+01  4.23352E+01  3.79624E+01  3.56755E+01  3.70653E+01  3.54776E+01  3.33812E+01  3.47181E+01
   3.61012E+01  2.90886E+01  3.09827E+01  3.74389E+01  3.37427E+01  3.12603E+01  3.00082E+01  2.96335E+01  3.23891E+01  2.72635E+01
   3.62193E+01  3.00630E+01  3.03627E+01  2.86182E+01  3.08714E+01  3.23897E+01  2.42867E+01  3.08226E+01  2.72081E+01  2.79870E+01
   2.64703E+01  2.92083E+01  2.68572E+01  3.03555E+01  2.94201E+01  3.19150E+01  3.04906E+01  3.15355E+01  2.88409E+01  2.48731E+01
   2.70057E+01  3.06519E+01  2.43918E+01  3.02091E+01  3.10212E+01  2.35915E+01  2.85924E+01  2.45588E+01  2.38769E+01  2.88654E+01
   2.31427E+01  2.59854E+01  2.87862E+01  2.50599E+01  2.47505E+01  2.22510E+01  2.99085E+01  2.58678E+01  2.81805E+01  2.46853E+01
   2.68053E+01  2.64663E+01  2.77149E+01  3.27034E+01  2.40163E+01  2.73985E+01  2.74944E+01  2.77139E+01  2.90084E+01  2.79942E+01
   2.60376E+01  2.58091E+01  2.78992E+01  3.01923E+01  2.83492E+01  3.10182E+01  2.43438E+01  2.79887E+01  2.40698E+01  3.16604E+01
   2.50684E+01  2.82689E+01  2.54478E+01  2.54565E+01  2.29105E+01  2.59462E+01  2.92643E+01  2.34966E+01
 NY points of the fit to the data follow
  -1.63292E+01 -1.60366E+01 -1.50255E+01 -1.26268E+01 -9.21789E+00 -3.33942E+00  5.77054E+00  1.66818E+01  2.77425E+01  3.61109E+01
   3.90732E+01  3.62131E+01  2.93664E+01  2.11431E+01  1.35293E+01  7.26623E+00  2.24544E+00 -1.11907E+00 -3.42283E+00 -4.82995E+00
  -5.40380E+00 -5.77108E+00 -6.10980E+00 -5.95790E+00 -5.08156E+00 -4.04847E+00 -1.44240E+00  3.01647E+00  7.66809E+00  1.09953E+01
   1.26637E+01  1.31293E+01  1.24893E+01  1.07505E+01  8.30598E+00  5.68389E+00  2.79442E+00 -6.47995E-03 -1.58748E+00 -1.82765E+00
  -7.56914E-01  1.11851E+00  3.25889E+00  6.18680E+00  1.02684E+01  1.45302E+01  1.72653E+01  1.74755E+01  1.54569E+01  1.22164E+01
   8.72062E+00  5.78780E+00  3.86013E+00  2.89111E+00  2.51294E+00  2.87634E+00  4.07971E+00  5.75520E+00  7.36568E+00  8.32526E+00
   8.32600E+00  7.47603E+00  6.11400E+00  4.81013E+00  4.01246E+00  3.94507E+00  4.40434E+00  5.18688E+00  6.22077E+00  7.39139E+00
   8.40639E+00  8.98524E+00  9.11484E+00  8.94415E+00  8.63688E+00  8.35617E+00  8.16559E+00  8.11650E+00  8.12042E+00  8.16397E+00
   8.28035E+00  8.58978E+00  8.84239E+00  9.15374E+00  9.76400E+00  1.03225E+01  1.03778E+01  9.97183E+00  9.45435E+00  9.15504E+00
   9.29682E+00  9.77927E+00  1.05269E+01  1.13841E+01  1.20467E+01  1.28531E+01  1.53300E+01  2.06513E+01  2.80417E+01  4.23568E+01
   6.41784E+01  8.51279E+01  9.60532E+01  9.44854E+01  8.36460E+01  6.84506E+01  5.29316E+01  3.98763E+01  3.03809E+01  2.33600E+01
   1.78489E+01  1.53822E+01  1.46298E+01  1.43692E+01  1.43018E+01  1.43348E+01  1.44045E+01  1.45087E+01  1.47444E+01  1.53180E+01
   1.71525E+01  2.22702E+01  2.86526E+01  3.97050E+01  5.91468E+01  8.08304E+01  9.46718E+01  9.63681E+01  8.80450E+01  7.46180E+01
   6.04318E+01  4.79055E+01  3.79122E+01  2.98600E+01  2.22235E+01  1.74134E+01  1.56010E+01  1.53762E+01  1.62982E+01  1.77355E+01
   1.89531E+01  1.96596E+01  1.98584E+01  1.95946E+01  1.90778E+01  1.85296E+01  1.80006E+01  1.75413E+01  1.70488E+01  1.66005E+01
   1.61797E+01  1.57009E+01  1.52868E+01  1.51013E+01  1.51828E+01  1.53591E+01  1.55661E+01  1.54923E+01  1.47407E+01  1.36054E+01
   1.25868E+01  1.22977E+01  1.28928E+01  1.36906E+01  1.39645E+01  1.35332E+01  1.25600E+01  1.14649E+01  1.06855E+01  1.02274E+01
   9.90786E+00  9.51314E+00  8.87456E+00  7.82463E+00  6.81101E+00  6.39186E+00  6.85877E+00  7.76012E+00  8.18920E+00  8.00560E+00
   7.80227E+00  7.86279E+00  8.27548E+00  8.83517E+00  9.19290E+00  9.72547E+00  1.12845E+01  1.39013E+01  1.71330E+01  2.00971E+01
   2.18315E+01  2.21389E+01  2.12519E+01  1.97969E+01  1.82774E+01  1.69925E+01  1.63037E+01  1.65763E+01  1.77474E+01  1.93665E+01
   2.13516E+01  2.35852E+01  2.55167E+01  2.66635E+01  2.64155E+01  2.48477E+01  2.20536E+01  1.83415E+01  1.49169E+01  1.27684E+01
   1.20734E+01  1.30248E+01  1.56472E+01  2.03747E+01  2.61516E+01  3.07626E+01  3.23964E+01  3.09470E+01  2.72240E+01  2.20777E+01
   1.63586E+01  1.16688E+01  9.89941E+00  1.14188E+01  1.50844E+01  1.97869E+01  2.41809E+01  2.73882E+01  2.89354E+01  2.91352E+01
   2.89166E+01  2.89717E+01  2.93056E+01  3.00308E+01  3.12798E+01  3.25270E+01  3.31460E+01  3.28452E+01  3.18284E+01  3.03253E+01
   2.84775E+01  2.69712E+01  2.67913E+01  2.81686E+01  3.03085E+01  3.25221E+01  3.44514E+01  3.58046E+01  3.66152E+01  3.77158E+01
   3.96644E+01  4.26599E+01  4.89631E+01  5.83817E+01  7.04140E+01  8.18976E+01  9.06949E+01  1.09575E+02  1.38716E+02  1.62942E+02
   1.69567E+02  1.58482E+02  1.36010E+02  1.09714E+02  8.56474E+01  6.68501E+01  5.39108E+01  4.36385E+01  3.54822E+01  3.27138E+01
   3.16303E+01  3.10297E+01  3.07404E+01  3.06295E+01  3.04492E+01  3.01386E+01  2.97829E+01  2.94249E+01  2.90423E+01  2.87144E+01
   2.85030E+01  2.83732E+01  2.82830E+01  2.82258E+01  2.81635E+01  2.80856E+01  2.79901E+01  2.78917E+01  2.78523E+01  2.79053E+01
   2.80379E+01  2.82333E+01  2.84443E+01  2.86439E+01  2.88241E+01  2.89644E+01  2.90737E+01  2.91846E+01  2.93115E+01  2.94590E+01
   2.96278E+01  2.98036E+01  2.99713E+01  3.01159E+01  3.02284E+01  3.03096E+01  3.03601E+01  3.03771E+01  3.03697E+01  3.03433E+01
   3.03014E+01  3.02480E+01  3.01888E+01  3.01302E+01  3.00782E+01  3.00378E+01  3.00135E+01  3.00106E+01  3.00343E+01  3.00911E+01
   3.01905E+01  3.03439E+01  3.05226E+01  3.07464E+01  3.10210E+01  3.12367E+01  3.13015E+01  3.12382E+01  3.11362E+01  3.11006E+01
   3.11637E+01  3.13231E+01  3.16619E+01  3.22009E+01  3.28398E+01  3.34765E+01  3.40331E+01  3.44743E+01  3.48267E+01  3.51268E+01
   3.54143E+01  3.57165E+01  3.60223E+01  3.63344E+01  3.66774E+01  3.70383E+01  3.74066E+01  3.77750E+01  3.81367E+01  3.84842E+01
   3.88103E+01  3.91078E+01  3.93698E+01  3.95898E+01  3.97610E+01  3.98777E+01  3.99356E+01  3.99323E+01  3.98665E+01  3.97386E+01
   3.95498E+01  3.93033E+01  3.90039E+01  3.86578E+01  3.82721E+01  3.78542E+01  3.74118E+01  3.69530E+01  3.64863E+01  3.60201E+01
   3.55618E+01  3.51182E+01  3.46954E+01  3.42992E+01  3.39348E+01  3.36069E+01  3.33192E+01  3.30745E+01  3.28758E+01  3.27257E+01
   3.26269E+01  3.25818E+01  3.25922E+01  3.26598E+01  3.27866E+01  3.29746E+01  3.32252E+01  3.35393E+01  3.39168E+01  3.43565E+01
   3.48565E+01  3.54136E+01  3.60222E+01  3.66748E+01  3.73617E+01  3.80712E+01  3.87899E+01  3.95027E+01  4.01929E+01  4.08428E+01
   4.14347E+01  4.19515E+01  4.23781E+01  4.27008E+01  4.29089E+01  4.29947E+01  4.29545E+01  4.27888E+01  4.25018E+01  4.21013E+01
   4.15982E+01  4.10057E+01  4.03395E+01  3.96163E+01  3.88535E+01  3.80675E+01  3.72738E+01  3.64865E+01  3.57180E+01  3.49788E+01
   3.42768E+01  3.36178E+01  3.30053E+01  3.24412E+01  3.19262E+01  3.14594E+01  3.10388E+01  3.06617E+01  3.03246E+01  3.00244E+01
   2.97578E+01  2.95212E+01  2.93114E+01  2.91250E+01  2.89592E+01  2.88114E+01  2.86797E+01  2.85619E+01  2.84560E+01  2.83605E+01
   2.82739E+01  2.81953E+01  2.81238E+01  2.80585E+01  2.79983E+01  2.79426E+01  2.78909E+01  2.78430E+01  2.77984E+01  2.77565E+01
   2.77170E+01  2.76795E+01  2.76441E+01  2.76105E+01  2.75785E+01  2.75478E+01  2.75183E+01  2.74897E+01  2.74623E+01  2.74360E+01
   2.74104E+01  2.73855E+01  2.73611E+01  2.73373E+01  2.73143E+01  2.72918E+01  2.72698E+01  2.72480E+01  2.72265E+01  2.72054E+01
   2.71849E+01  2.71647E+01  2.71446E+01  2.71247E+01  2.71050E+01  2.70858E+01  2.70668E+01  2.70481E+01  2.70294E+01  2.70108E+01
   2.69925E+01  2.69746E+01  2.69569E+01  2.69392E+01  2.69217E+01  2.69043E+01  2.68872E+01  2.68705E+01  2.68539E+01  2.68374E+01
   2.68211E+01  2.68050E+01  2.67894E+01  2.67740E+01  2.67589E+01  2.67439E+01  2.67292E+01  2.67150E+01
 NY background values follow
    -2.076E+01   -2.039E+01   -2.002E+01   -1.965E+01   -1.927E+01   -1.890E+01   -1.853E+01   -1.816E+01   -1.779E+01   -1.742E+01
    -1.705E+01   -1.668E+01   -1.631E+01   -1.594E+01   -1.557E+01   -1.521E+01   -1.484E+01   -1.448E+01   -1.411E+01   -1.375E+01
    -1.339E+01   -1.303E+01   -1.267E+01   -1.231E+01   -1.195E+01   -1.159E+01   -1.124E+01   -1.089E+01   -1.053E+01   -1.018E+01
    -9.834E+00   -9.486E+00   -9.140E+00   -8.795E+00   -8.453E+00   -8.111E+00   -7.772E+00   -7.435E+00   -7.099E+00   -6.765E+00
    -6.433E+00   -6.104E+00   -5.776E+00   -5.451E+00   -5.127E+00   -4.806E+00   -4.487E+00   -4.170E+00   -3.856E+00   -3.544E+00
    -3.234E+00   -2.927E+00   -2.622E+00   -2.319E+00   -2.019E+00   -1.721E+00   -1.425E+00   -1.132E+00   -8.408E-01   -5.524E-01
    -2.664E-01    1.711E-02    2.982E-01    5.768E-01    8.529E-01    1.127E+00    1.398E+00    1.666E+00    1.932E+00    2.196E+00
     2.457E+00    2.716E+00    2.971E+00    3.225E+00    3.475E+00    3.723E+00    3.969E+00    4.212E+00    4.452E+00    4.690E+00
     4.924E+00    5.157E+00    5.386E+00    5.613E+00    5.837E+00    6.058E+00    6.277E+00    6.493E+00    6.706E+00    6.916E+00
     7.124E+00    7.329E+00    7.530E+00    7.730E+00    7.926E+00    8.119E+00    8.309E+00    8.497E+00    8.681E+00    8.863E+00
     9.042E+00    9.217E+00    9.390E+00    9.559E+00    9.725E+00    9.888E+00    1.005E+01    1.021E+01    1.036E+01    1.051E+01
     1.066E+01    1.080E+01    1.094E+01    1.108E+01    1.121E+01    1.134E+01    1.147E+01    1.159E+01    1.171E+01    1.183E+01
     1.194E+01    1.205E+01    1.216E+01    1.226E+01    1.236E+01    1.246E+01    1.255E+01    1.264E+01    1.272E+01    1.281E+01
     1.288E+01    1.296E+01    1.303E+01    1.309E+01    1.315E+01    1.321E+01    1.327E+01    1.332E+01    1.337E+01    1.341E+01
     1.345E+01    1.349E+01    1.352E+01    1.355E+01    1.358E+01    1.361E+01    1.363E+01    1.366E+01    1.368E+01    1.369E+01
     1.371E+01    1.373E+01    1.374E+01    1.375E+01    1.377E+01    1.378E+01    1.379E+01    1.380E+01    1.381E+01    1.382E+01
     1.383E+01    1.384E+01    1.385E+01    1.386E+01    1.387E+01    1.389E+01    1.390E+01    1.392E+01    1.394E+01    1.395E+01
     1.397E+01    1.400E+01    1.402E+01    1.405E+01    1.408E+01    1.411E+01    1.414E+01    1.418E+01    1.422E+01    1.427E+01
     1.431E+01    1.437E+01    1.442E+01    1.448E+01    1.454E+01    1.461E+01    1.468E+01    1.475E+01    1.482E+01    1.490E+01
     1.498E+01    1.506E+01    1.515E+01    1.524E+01    1.533E+01    1.542E+01    1.552E+01    1.562E+01    1.572E+01    1.582E+01
     1.592E+01    1.603E+01    1.613E+01    1.624E+01    1.635E+01    1.646E+01    1.657E+01    1.668E+01    1.679E+01    1.691E+01
     1.702E+01    1.714E+01    1.725E+01    1.737E+01    1.748E+01    1.760E+01    1.771E+01    1.783E+01    1.794E+01    1.806E+01
     1.817E+01    1.828E+01    1.840E+01    1.851E+01    1.862E+01    1.873E+01    1.884E+01    1.894E+01    1.905E+01    1.916E+01
     1.926E+01    1.936E+01    1.946E+01    1.956E+01    1.966E+01    1.976E+01    1.985E+01    1.995E+01    2.004E+01    2.014E+01
     2.023E+01    2.032E+01    2.041E+01    2.049E+01    2.058E+01    2.067E+01    2.075E+01    2.084E+01    2.092E+01    2.100E+01
     2.108E+01    2.116E+01    2.124E+01    2.132E+01    2.140E+01    2.147E+01    2.155E+01    2.162E+01    2.169E+01    2.177E+01
     2.184E+01    2.191E+01    2.198E+01    2.204E+01    2.211E+01    2.218E+01    2.224E+01    2.231E+01    2.237E+01    2.244E+01
     2.250E+01    2.256E+01    2.262E+01    2.268E+01    2.274E+01    2.280E+01    2.286E+01    2.292E+01    2.297E+01    2.303E+01
     2.309E+01    2.314E+01    2.319E+01    2.325E+01    2.330E+01    2.335E+01    2.340E+01    2.345E+01    2.350E+01    2.355E+01
     2.360E+01    2.365E+01    2.369E+01    2.374E+01    2.379E+01    2.383E+01    2.388E+01    2.392E+01    2.396E+01    2.401E+01
     2.405E+01    2.409E+01    2.413E+01    2.417E+01    2.421E+01    2.425E+01    2.429E+01    2.433E+01    2.436E+01    2.440E+01
     2.444E+01    2.447E+01    2.451E+01    2.454E+01    2.458E+01    2.461E+01    2.464E+01    2.468E+01    2.471E+01    2.474E+01
     2.477E+01    2.480E+01    2.483E+01    2.486E+01    2.489E+01    2.492E+01    2.495E+01    2.498E+01    2.501E+01    2.504E+01
     2.506E+01    2.509E+01    2.512E+01    2.514E+01    2.517E+01    2.519E+01    2.522E+01    2.524E+01    2.527E+01    2.529E+01
     2.532E+01    2.534E+01    2.537E+01    2.539E+01    2.541E+01    2.543E+01    2.546E+01    2.548E+01    2.550E+01    2.552E+01
     2.555E+01    2.557E+01    2.559E+01    2.561E+01    2.563E+01    2.565E+01    2.568E+01    2.570E+01    2.572E+01    2.574E+01
     2.576E+01    2.578E+01    2.580E+01    2.582E+01    2.584E+01    2.586E+01    2.588E+01    2.590E+01    2.592E+01    2.594E+01
     2.596E+01    2.598E+01    2.600E+01    2.602E+01    2.604E+01    2.606E+01    2.608E+01    2.610E+01    2.612E+01    2.614E+01
     2.616E+01    2.618E+01    2.620E+01    2.622E+01    2.624E+01    2.626E+01    2.627E+01    2.629E+01    2.631E+01    2.633E+01
     2.635E+01    2.636E+01    2.638E+01    2.640E+01    2.641E+01    2.643E+01    2.645E+01    2.646E+01    2.648E+01    2.650E+01
     2.651E+01    2.653E+01    2.654E+01    2.656E+01    2.657E+01    2.659E+01    2.660E+01    2.662E+01    2.663E+01    2.664E+01
     2.666E+01    2.667E+01    2.668E+01    2.669E+01    2.671E+01    2.672E+01    2.673E+01    2.674E+01    2.675E+01    2.676E+01
     2.677E+01    2.678E+01    2.679E+01    2.680E+01    2.681E+01    2.682E+01    2.683E+01    2.684E+01    2.685E+01    2.686E+01
     2.686E+01    2.687E+01    2.688E+01    2.688E+01    2.689E+01    2.689E+01    2.690E+01    2.690E+01    2.691E+01    2.691E+01
     2.691E+01    2.692E+01    2.692E+01    2.692E+01    2.692E+01    2.693E+01    2.693E+01    2.693E+01    2.693E+01    2.693E+01
     2.693E+01    2.693E+01    2.692E+01    2.692E+01    2.692E+01    2.692E+01    2.691E+01    2.691E+01    2.691E+01    2.690E+01
     2.690E+01    2.689E+01    2.689E+01    2.688E+01    2.687E+01    2.687E+01    2.686E+01    2.685E+01    2.685E+01    2.684E+01
     2.683E+01    2.682E+01    2.681E+01    2.681E+01    2.680E+01    2.679E+01    2.678E+01    2.677E+01    2.676E+01    2.675E+01
     2.674E+01    2.673E+01    2.672E+01    2.671E+01    2.670E+01    2.669E+01    2.668E+01    2.667E+01    2.666E+01    2.665E+01
     2.664E+01    2.662E+01    2.661E+01    2.660E+01    2.659E+01    2.658E+01    2.657E+01    2.656E+01
 Ala      Conc. = 5.36E+01
