 LCModel (Version 6.3-1L) Copyright: S.W. Provencher.          Ref.: Magn. Reson. Med. 30:672-679 (1993).                
 Slice#2 Row#12 Col#10  K_02_press_1_raw_act
 36 lines in following concentration table = NCONC+1
    Conc.  %SD /Cr+PCr  Metabolite                                         
    0.000 999%   0.000 Ala                                                 
    0.000 999%   0.000 Asp                                                 
  298.754  69%   0.211 Cr                                                  
 1.12E+03  19%   0.789 PCr                                                 
    0.000 999%   0.000 GABA                                                
    0.000 999%   0.000 Glc                                                 
  527.003  36%   0.372 Gln                                                 
 1.18E+03  18%   0.833 Glu                                                 
  490.656   4%   0.346 GPC                                                 
    0.000 999%   0.000 PCh                                                 
  345.925  17%   0.244 GSH                                                 
 1.26E+03  18%   0.886 Ins                                                 
  236.333  43%   0.167 Lac                                                 
 2.15E+03   5%   1.518 NAA                                                 
  209.225  57%   0.148 NAAG                                                
  102.457  23% 7.2E-02 Scyllo                                              
    0.000 999%   0.000 Tau                                                 
  364.042  25%   0.257 -CrCH2                                              
  490.656   4%   0.346 GPC+PCh                                             
 2.36E+03   3%   1.666 NAA+NAAG                                            
 1.42E+03   3%   1.000 Cr+PCr                                              
 1.71E+03  19%   1.205 Glu+Gln                                             
 1.10E+03  48%   0.774 Lip13a                                              
   40.280 427% 2.8E-02 Lip13b                                              
  187.346 106%   0.132 Lip09                                               
 1.40E+03  19%   0.989 MM09                                                
  197.880  65%   0.140 Lip20                                               
 3.33E+03  12%   2.348 MM20                                                
  502.802  41%   0.355 MM12                                                
 1.40E+03  23%   0.987 MM14                                                
  503.997  42%   0.356 MM17                                                
 1.14E+03  39%   0.802 Lip13a+Lip13b                                       
 3.04E+03  15%   2.144 MM14+Lip13a+Lip13b+MM12                             
 1.59E+03  14%   1.121 MM09+Lip09                                          
 3.53E+03  11%   2.488 MM20+Lip20                                          
   6 lines in following misc. output table
  FWHM = 0.061 ppm    S/N =  16                                            
  Data shift = 0.015 ppm                                                   
  Ph: -49 deg     -12.5 deg/ppm                                            
  alphaB,S = 5.8E-01,   1.8E+02                                            
   14 spline knots.   Ns = 8(1)                                            
  (14) 5 infls.   ( 5) 1 extrs.                                            
  498 points on ppm-axis = NY
      4.000000     3.992357     3.984714     3.977070     3.969427     3.961784     3.954141     3.946497     3.938854     3.931211
      3.923568     3.915925     3.908281     3.900638     3.892995     3.885352     3.877708     3.870065     3.862422     3.854779
      3.847136     3.839492     3.831849     3.824206     3.816563     3.808919     3.801276     3.793633     3.785990     3.778347
      3.770703     3.763060     3.755417     3.747774     3.740130     3.732487     3.724844     3.717201     3.709558     3.701914
      3.694271     3.686628     3.678985     3.671341     3.663698     3.656055     3.648412     3.640769     3.633125     3.625482
      3.617839     3.610196     3.602552     3.594909     3.587266     3.579623     3.571980     3.564336     3.556693     3.549050
      3.541407     3.533763     3.526120     3.518477     3.510834     3.503191     3.495547     3.487904     3.480261     3.472618
      3.464974     3.457331     3.449688     3.442045     3.434402     3.426758     3.419115     3.411472     3.403829     3.396185
      3.388542     3.380899     3.373256     3.365613     3.357969     3.350326     3.342683     3.335040     3.327396     3.319753
      3.312110     3.304467     3.296824     3.289180     3.281537     3.273894     3.266251     3.258607     3.250964     3.243321
      3.235678     3.228034     3.220391     3.212748     3.205105     3.197462     3.189818     3.182175     3.174532     3.166889
      3.159245     3.151602     3.143959     3.136316     3.128673     3.121029     3.113386     3.105743     3.098100     3.090456
      3.082813     3.075170     3.067527     3.059884     3.052240     3.044597     3.036954     3.029311     3.021667     3.014024
      3.006381     2.998738     2.991095     2.983451     2.975808     2.968165     2.960522     2.952878     2.945235     2.937592
      2.929949     2.922306     2.914662     2.907019     2.899376     2.891733     2.884089     2.876446     2.868803     2.861160
      2.853517     2.845873     2.838230     2.830587     2.822944     2.815300     2.807657     2.800014     2.792371     2.784728
      2.777084     2.769441     2.761798     2.754155     2.746511     2.738868     2.731225     2.723582     2.715939     2.708295
      2.700652     2.693009     2.685366     2.677722     2.670079     2.662436     2.654793     2.647150     2.639506     2.631863
      2.624220     2.616577     2.608933     2.601290     2.593647     2.586004     2.578361     2.570717     2.563074     2.555431
      2.547788     2.540144     2.532501     2.524858     2.517215     2.509572     2.501928     2.494285     2.486642     2.478999
      2.471355     2.463712     2.456069     2.448426     2.440783     2.433139     2.425496     2.417853     2.410210     2.402566
      2.394923     2.387280     2.379637     2.371994     2.364350     2.356707     2.349064     2.341421     2.333777     2.326134
      2.318491     2.310848     2.303205     2.295561     2.287918     2.280275     2.272632     2.264988     2.257345     2.249702
      2.242059     2.234416     2.226772     2.219129     2.211486     2.203843     2.196199     2.188556     2.180913     2.173270
      2.165627     2.157983     2.150340     2.142697     2.135054     2.127410     2.119767     2.112124     2.104481     2.096838
      2.089194     2.081551     2.073908     2.066265     2.058621     2.050978     2.043335     2.035692     2.028049     2.020405
      2.012762     2.005119     1.997476     1.989833     1.982190     1.974546     1.966903     1.959260     1.951617     1.943974
      1.936331     1.928688     1.921045     1.913402     1.905759     1.898115     1.890472     1.882829     1.875186     1.867543
      1.859900     1.852257     1.844614     1.836971     1.829327     1.821684     1.814041     1.806398     1.798755     1.791112
      1.783469     1.775826     1.768183     1.760540     1.752896     1.745253     1.737610     1.729967     1.722324     1.714681
      1.707038     1.699395     1.691752     1.684108     1.676465     1.668822     1.661179     1.653536     1.645893     1.638250
      1.630607     1.622964     1.615321     1.607677     1.600034     1.592391     1.584748     1.577105     1.569462     1.561819
      1.554176     1.546533     1.538890     1.531246     1.523603     1.515960     1.508317     1.500674     1.493031     1.485388
      1.477745     1.470102     1.462458     1.454815     1.447172     1.439529     1.431886     1.424243     1.416600     1.408957
      1.401314     1.393671     1.386027     1.378384     1.370741     1.363098     1.355455     1.347812     1.340169     1.332526
      1.324883     1.317240     1.309596     1.301953     1.294310     1.286667     1.279024     1.271381     1.263738     1.256095
      1.248452     1.240808     1.233165     1.225522     1.217879     1.210236     1.202593     1.194950     1.187307     1.179664
      1.172021     1.164377     1.156734     1.149091     1.141448     1.133805     1.126162     1.118519     1.110876     1.103233
      1.095590     1.087946     1.080303     1.072660     1.065017     1.057374     1.049731     1.042088     1.034445     1.026802
      1.019158     1.011515     1.003872     0.996229     0.988586     0.980943     0.973300     0.965657     0.958014     0.950371
      0.942727     0.935084     0.927441     0.919798     0.912155     0.904512     0.896869     0.889226     0.881583     0.873940
      0.866296     0.858653     0.851010     0.843367     0.835724     0.828081     0.820438     0.812795     0.805152     0.797508
      0.789865     0.782222     0.774579     0.766936     0.759293     0.751650     0.744007     0.736364     0.728721     0.721077
      0.713434     0.705791     0.698148     0.690505     0.682862     0.675219     0.667576     0.659933     0.652290     0.644646
      0.637003     0.629360     0.621717     0.614074     0.606431     0.598788     0.591145     0.583502     0.575858     0.568215
      0.560572     0.552929     0.545286     0.537643     0.530000     0.522357     0.514714     0.507071     0.499427     0.491784
      0.484141     0.476498     0.468855     0.461212     0.453569     0.445925     0.438282     0.430639     0.422996     0.415353
      0.407710     0.400067     0.392424     0.384780     0.377137     0.369494     0.361851     0.354208     0.346565     0.338922
      0.331278     0.323635     0.315992     0.308349     0.300706     0.293063     0.285420     0.277777     0.270133     0.262490
      0.254847     0.247204     0.239561     0.231918     0.224275     0.216631     0.208988     0.201345
 NY phased data points follow
  -2.86704E+01 -3.16539E+01 -2.96919E+01 -2.82642E+01 -2.39619E+01 -1.82267E+01 -1.97139E+01 -1.63287E+01 -8.38238E+00 -4.63355E+00
  -5.70275E+00 -7.93356E+00 -8.53287E+00 -1.58032E+01 -1.77295E+01 -2.23001E+01 -2.55008E+01 -2.69245E+01 -2.54415E+01 -2.61149E+01
  -2.88260E+01 -2.62765E+01 -2.57893E+01 -2.37715E+01 -2.66755E+01 -2.33167E+01 -2.20938E+01 -2.24807E+01 -2.05055E+01 -2.12413E+01
  -1.89209E+01 -1.40298E+01 -1.81246E+01 -2.06929E+01 -1.99152E+01 -2.03446E+01 -2.03795E+01 -1.72532E+01 -1.86987E+01 -1.86963E+01
  -1.76156E+01 -2.03941E+01 -1.95779E+01 -1.65087E+01 -1.40376E+01 -1.21031E+01 -1.28712E+01 -1.46989E+01 -1.25241E+01 -1.25764E+01
  -1.49303E+01 -1.57481E+01 -1.52991E+01 -1.75175E+01 -1.64943E+01 -1.59198E+01 -1.30499E+01 -1.52664E+01 -1.80559E+01 -1.71987E+01
  -1.71298E+01 -1.98757E+01 -2.14171E+01 -2.08085E+01 -2.56244E+01 -2.15409E+01 -2.25170E+01 -2.03931E+01 -2.06089E+01 -2.22830E+01
  -1.90412E+01 -1.92461E+01 -2.12447E+01 -1.68551E+01 -1.74670E+01 -1.63272E+01 -1.98630E+01 -1.67303E+01 -1.82743E+01 -1.90054E+01
  -1.53447E+01 -1.92096E+01 -1.87698E+01 -1.65639E+01 -1.39345E+01 -1.46393E+01 -1.60789E+01 -1.51840E+01 -1.27791E+01 -1.33147E+01
  -1.50323E+01 -1.41130E+01 -1.13236E+01 -1.32262E+01 -9.42982E+00 -7.45655E+00 -6.47639E+00 -5.07139E+00  1.57662E+00  6.38679E+00
   1.47025E+01  1.91558E+01  2.41880E+01  2.72648E+01  1.99330E+01  1.31403E+01  6.20208E+00  2.06214E+00 -2.31056E+00 -6.12356E+00
  -8.96478E+00 -6.76233E+00 -8.19079E+00 -1.37926E+01 -1.04952E+01 -1.12656E+01 -1.07513E+01 -8.99604E+00 -8.49095E+00 -8.31021E+00
  -4.80857E+00  3.02309E+00  4.59682E+00  9.31705E+00  1.52747E+01  2.57560E+01  3.14237E+01  2.98629E+01  2.51523E+01  2.37373E+01
   1.55106E+01  8.00376E+00  4.28160E+00  1.16129E-02 -6.62672E+00 -5.88577E+00 -7.69938E+00 -9.40440E+00 -1.07590E+01 -7.96436E+00
  -8.69281E+00 -8.98531E+00 -1.09811E+01 -7.33921E+00 -1.06462E+01 -7.78965E+00 -9.94235E+00 -1.01891E+01 -9.89949E+00 -8.99131E+00
  -9.39999E+00 -1.13260E+01 -7.33199E+00 -1.02401E+01 -1.17697E+01 -1.18994E+01 -1.15115E+01 -1.09657E+01 -5.52815E+00 -1.09332E+01
  -9.45605E+00 -1.18497E+01 -1.38880E+01 -1.45752E+01 -1.31316E+01 -1.09340E+01 -1.27260E+01 -1.66705E+01 -1.66118E+01 -1.80443E+01
  -1.82969E+01 -1.85349E+01 -1.96607E+01 -2.19560E+01 -2.26657E+01 -2.16925E+01 -2.24381E+01 -1.91599E+01 -1.83871E+01 -1.92224E+01
  -1.71729E+01 -1.75046E+01 -1.59660E+01 -1.30900E+01 -1.68971E+01 -1.87266E+01 -1.43643E+01 -1.56310E+01 -1.21465E+01 -9.25875E+00
  -7.15709E+00 -7.40924E+00 -6.34515E+00 -7.67777E+00 -5.43259E+00 -1.04088E+01 -7.95116E+00 -8.59321E+00 -1.29605E+01 -8.47459E+00
  -9.24735E+00 -8.74526E+00 -6.69714E+00 -8.62049E+00 -4.72656E+00 -7.91762E+00 -8.99896E+00 -8.86613E+00 -9.36367E+00 -9.01524E+00
  -8.15557E+00 -6.14014E+00 -5.22853E+00 -8.02547E-01  1.58062E+00  8.86774E-01  9.42139E-01 -8.02968E-01 -3.62549E+00 -4.79341E+00
  -8.08095E+00 -8.71195E+00 -7.37532E+00 -5.39119E+00 -2.78048E+00 -2.61044E+00 -1.15091E+00 -3.84410E-01 -2.79260E-01  1.31954E-01
   2.75327E+00  5.06919E-01 -8.33050E-01  2.92500E+00  1.96914E+00  3.14091E+00 -2.76485E-01 -2.26430E+00  3.79854E-01 -1.42853E+00
  -1.15358E+00 -1.47938E+00 -1.18174E+00 -1.11305E-01 -7.01408E-01  9.12136E-01  5.79488E+00  4.36137E+00  5.39096E+00  8.64359E+00
   1.12665E+01  1.37014E+01  1.78190E+01  2.23096E+01  2.78124E+01  3.50425E+01  4.09795E+01  5.00556E+01  6.34943E+01  7.08140E+01
   7.46434E+01  6.97827E+01  5.73838E+01  4.44304E+01  3.67043E+01  2.45842E+01  1.82492E+01  9.98860E+00  9.83331E+00  6.79838E+00
   5.29047E+00  2.20704E+00  1.84518E+00  7.84803E-01 -1.02133E+00  3.45398E+00  8.44086E-02  1.49221E+00  3.97121E-01  6.85847E-01
   9.78088E-01 -7.90165E-01 -4.33607E+00  2.89797E-01 -3.79027E+00 -4.06460E+00 -4.29945E+00 -2.61089E+00 -2.94191E+00 -1.62649E+00
  -1.07784E+00 -1.71499E+00  1.35024E+00  1.56599E+00  7.33359E-01 -4.75619E-01 -1.67279E+00 -1.36980E+00 -7.76945E-02  4.01962E-01
  -2.87732E+00  2.54784E+00 -9.45984E-01 -1.43556E+00 -1.75127E+00  7.63272E-01 -1.07401E-01 -4.42504E-03  1.05253E+00  1.29182E-01
  -3.38147E+00  3.67062E+00 -1.99976E+00  2.85863E-01 -2.42674E+00 -1.50812E+00 -1.29824E+00  8.52141E-01 -2.14480E+00 -1.98685E+00
  -8.47050E-01 -1.36878E+00  4.89589E-01  6.39041E-01  4.53221E+00  4.90095E+00  3.77997E+00  3.29726E+00  5.51212E+00  5.49679E+00
   7.21368E+00  7.79140E+00  7.50127E+00  7.40144E+00  9.46280E+00  7.07031E+00  5.67719E+00  6.71443E+00  5.06491E+00  6.20464E+00
   9.19007E+00  9.90446E+00  1.01919E+01  7.86084E+00  7.12126E+00  4.96789E+00  7.66861E+00  5.68087E+00  5.17283E+00  2.89900E+00
   4.74190E+00  6.12258E+00  6.83434E+00  5.18298E+00  7.39500E+00  9.74990E+00  9.97446E+00  1.04135E+01  7.54809E+00  7.40457E+00
   8.42488E+00  7.72228E+00  6.45171E+00  5.32149E+00  6.14893E+00  7.11694E+00  5.96040E+00  6.48386E+00  6.82663E+00  6.41850E+00
   8.71476E+00  9.26388E+00  5.58108E+00  5.22807E+00  6.12578E+00  1.01810E+00  3.63000E-01  1.99483E+00  2.19652E+00  1.17415E+00
   4.06086E-01 -4.06798E+00  4.42390E-01  2.98983E+00 -2.41951E+00  3.13116E+00  2.88897E+00  3.42079E+00  1.70964E+00  4.33953E+00
   4.05467E+00  8.27113E+00  4.61277E+00  6.11987E+00  8.61141E+00  8.23971E+00  5.72647E+00  7.24875E+00  9.73373E+00  5.84890E+00
   9.28764E+00  8.12690E+00  6.43770E+00  6.25575E+00  9.98190E+00  1.22031E+01  1.15878E+01  7.72781E+00  1.30750E+01  1.11531E+01
   1.23905E+01  1.20954E+01  9.77609E+00  1.19091E+01  9.16850E+00  9.83923E+00  9.56684E+00  7.52042E+00  4.96717E+00  9.44533E+00
   4.58008E+00  7.94151E+00  5.86063E+00  3.98904E+00  5.30077E+00  1.34970E+00  6.93000E+00  4.99050E+00  6.21930E+00  4.15735E+00
   6.14364E+00  4.05938E+00  4.08203E+00  4.60680E+00  4.71236E+00  5.82783E+00  3.34334E+00  4.25216E+00  1.01639E+00  1.94234E+00
  -4.58907E-01  2.93804E+00  3.12378E+00  4.18812E+00  3.70898E-01  1.97646E+00  3.93972E+00  2.13424E+00  2.41882E+00  2.64789E+00
   4.24537E+00  3.42636E+00  5.58042E+00  1.41261E+00  1.28217E+00  4.01321E+00  2.01945E+00  5.05839E+00  1.90570E+00  3.80094E+00
   5.06106E+00  1.97250E+00  1.00414E+00  2.14773E+00  3.23302E+00  2.15905E+00  8.37675E-01  4.64064E+00  2.56476E+00 -1.11851E+00
   2.89520E+00  1.63596E+00  1.86639E+00  4.54228E+00  3.24659E+00  1.27376E+00  2.82529E+00  7.90904E-01  4.41633E+00  4.58007E-01
   2.01326E+00  3.65654E+00  1.94124E+00  2.67966E+00  3.09871E+00  3.26522E+00  1.33950E+00  4.04633E+00  4.68283E+00  2.68047E+00
   3.54829E+00  1.78354E+00  3.92009E+00  2.89548E+00  2.13154E+00  4.06464E+00 -2.25284E-01  2.27432E+00
 NY points of the fit to the data follow
  -3.02958E+01 -2.97804E+01 -2.81662E+01 -2.59287E+01 -2.34865E+01 -2.07178E+01 -1.73069E+01 -1.33651E+01 -9.63865E+00 -7.18281E+00
  -6.76300E+00 -8.35936E+00 -1.12265E+01 -1.44309E+01 -1.73300E+01 -1.96642E+01 -2.14129E+01 -2.26961E+01 -2.38413E+01 -2.47949E+01
  -2.53810E+01 -2.57123E+01 -2.56551E+01 -2.52766E+01 -2.47874E+01 -2.41744E+01 -2.32088E+01 -2.17229E+01 -1.98415E+01 -1.79145E+01
  -1.64111E+01 -1.57648E+01 -1.60444E+01 -1.70590E+01 -1.84430E+01 -1.98207E+01 -2.09651E+01 -2.17131E+01 -2.19841E+01 -2.17163E+01
  -2.09194E+01 -1.98437E+01 -1.86692E+01 -1.73627E+01 -1.58832E+01 -1.44416E+01 -1.34763E+01 -1.33303E+01 -1.40584E+01 -1.54449E+01
  -1.70414E+01 -1.84276E+01 -1.93763E+01 -1.98257E+01 -1.98869E+01 -1.97425E+01 -1.94534E+01 -1.90030E+01 -1.84846E+01 -1.81022E+01
  -1.80181E+01 -1.82504E+01 -1.86960E+01 -1.91505E+01 -1.94164E+01 -1.94312E+01 -1.92055E+01 -1.88224E+01 -1.83749E+01 -1.79109E+01
  -1.75002E+01 -1.72058E+01 -1.70583E+01 -1.70529E+01 -1.71303E+01 -1.72303E+01 -1.73114E+01 -1.73412E+01 -1.72870E+01 -1.70118E+01
  -1.66469E+01 -1.63317E+01 -1.59867E+01 -1.55323E+01 -1.49742E+01 -1.44494E+01 -1.41496E+01 -1.41972E+01 -1.45174E+01 -1.49397E+01
  -1.52866E+01 -1.54492E+01 -1.53971E+01 -1.50652E+01 -1.38601E+01 -1.08757E+01 -7.16838E+00 -3.28454E+00  1.31806E+00  7.26093E+00
   1.43196E+01  2.09100E+01  2.48643E+01  2.47743E+01  2.08178E+01  1.45331E+01  7.77729E+00  1.76522E+00 -3.03944E+00 -6.57056E+00
  -9.03430E+00 -1.09977E+01 -1.26050E+01 -1.32351E+01 -1.33020E+01 -1.32035E+01 -1.29992E+01 -1.26234E+01 -1.16209E+01 -8.82632E+00
  -4.70247E+00 -3.64385E-01  4.40836E+00  1.03316E+01  1.74971E+01  2.46869E+01  2.97758E+01  3.09545E+01  2.79098E+01  2.19678E+01
   1.50596E+01  8.62165E+00  3.25213E+00 -1.00167E+00 -4.24940E+00 -6.91527E+00 -9.22802E+00 -1.04726E+01 -1.06728E+01 -1.04622E+01
  -1.01216E+01 -9.82950E+00 -9.70229E+00 -9.75070E+00 -9.89486E+00 -1.00881E+01 -1.03080E+01 -1.05292E+01 -1.07422E+01 -1.09419E+01
  -1.11188E+01 -1.12776E+01 -1.14127E+01 -1.15907E+01 -1.17758E+01 -1.19059E+01 -1.19855E+01 -1.20491E+01 -1.22202E+01 -1.25125E+01
  -1.27784E+01 -1.28753E+01 -1.27824E+01 -1.26166E+01 -1.25541E+01 -1.27081E+01 -1.30609E+01 -1.35284E+01 -1.40433E+01 -1.44948E+01
  -1.47644E+01 -1.49551E+01 -1.51819E+01 -1.55196E+01 -1.58566E+01 -1.59622E+01 -1.57997E+01 -1.55170E+01 -1.52948E+01 -1.52436E+01
  -1.52452E+01 -1.51197E+01 -1.48355E+01 -1.44405E+01 -1.39499E+01 -1.33274E+01 -1.25409E+01 -1.15653E+01 -1.04368E+01 -9.32117E+00
  -8.51056E+00 -8.13852E+00 -8.12078E+00 -8.30597E+00 -8.56499E+00 -8.76596E+00 -8.73326E+00 -8.45181E+00 -7.92006E+00 -7.18601E+00
  -6.38358E+00 -5.70903E+00 -5.35462E+00 -5.34594E+00 -5.79493E+00 -6.80475E+00 -8.14332E+00 -9.36980E+00 -1.00661E+01 -1.01485E+01
  -9.66598E+00 -8.62609E+00 -7.13468E+00 -5.46815E+00 -4.07631E+00 -3.39803E+00 -3.54735E+00 -4.42200E+00 -5.81470E+00 -7.39670E+00
  -8.78686E+00 -9.48168E+00 -9.20018E+00 -8.08640E+00 -6.50676E+00 -4.83450E+00 -3.28999E+00 -2.13639E+00 -1.47416E+00 -1.14730E+00
  -9.42418E-01 -7.05019E-01 -3.99584E-01 -8.38403E-03  4.89396E-01  1.05787E+00  1.59890E+00  1.98122E+00  2.08579E+00  1.88203E+00
   1.53984E+00  1.28271E+00  1.29595E+00  1.70509E+00  2.48903E+00  3.48455E+00  4.48826E+00  5.47130E+00  6.58010E+00  7.72188E+00
   8.87235E+00  1.05833E+01  1.47837E+01  2.17711E+01  2.90261E+01  3.60404E+01  4.38281E+01  5.31130E+01  6.29067E+01  7.03926E+01
   7.25711E+01  6.82449E+01  5.87936E+01  4.71359E+01  3.58054E+01  2.61356E+01  1.86273E+01  1.31914E+01  9.10570E+00  5.44375E+00
   2.83015E+00  1.81177E+00  1.30503E+00  9.37779E-01  6.29124E-01  3.30473E-01  1.42092E-02 -3.01429E-01 -6.01347E-01 -8.70882E-01
  -1.09672E+00 -1.27306E+00 -1.40973E+00 -1.51594E+00 -1.59137E+00 -1.63817E+00 -1.66025E+00 -1.66024E+00 -1.63472E+00 -1.57816E+00
  -1.49157E+00 -1.38427E+00 -1.26245E+00 -1.13253E+00 -1.00174E+00 -8.77148E-01 -7.62039E-01 -6.57966E-01 -5.65200E-01 -4.83856E-01
  -4.15464E-01 -3.63177E-01 -3.27887E-01 -3.10564E-01 -3.10769E-01 -3.26594E-01 -3.54313E-01 -3.88634E-01 -4.23548E-01 -4.54123E-01
  -4.74027E-01 -4.77329E-01 -4.58497E-01 -4.12223E-01 -3.33583E-01 -2.18819E-01 -6.49616E-02  1.29689E-01  3.66079E-01  6.43918E-01
   9.61928E-01  1.31730E+00  1.70620E+00  2.12349E+00  2.56336E+00  3.01900E+00  3.48310E+00  3.94765E+00  4.40467E+00  4.84628E+00
   5.26551E+00  5.65623E+00  6.01384E+00  6.33529E+00  6.62012E+00  6.87099E+00  7.09562E+00  7.31074E+00  7.55747E+00  7.87560E+00
   8.13356E+00  8.27793E+00  8.37245E+00  8.44140E+00  8.40917E+00  8.12291E+00  7.51578E+00  6.76095E+00  6.00042E+00  5.37516E+00
   5.03985E+00  5.10409E+00  5.59494E+00  6.41683E+00  7.35289E+00  8.13806E+00  8.62114E+00  8.83245E+00  8.79354E+00  8.56600E+00
   8.23469E+00  7.86077E+00  7.48308E+00  7.08369E+00  6.64385E+00  6.23879E+00  5.87190E+00  5.52332E+00  5.18711E+00  4.86224E+00
   4.54980E+00  4.25165E+00  3.97028E+00  3.70831E+00  3.46856E+00  3.25358E+00  3.06577E+00  2.90703E+00  2.77912E+00  2.68350E+00
   2.62158E+00  2.59447E+00  2.60326E+00  2.64874E+00  2.73188E+00  2.85348E+00  3.01447E+00  3.21548E+00  3.45700E+00  3.73906E+00
   4.06144E+00  4.42325E+00  4.82298E+00  5.25799E+00  5.72471E+00  6.21821E+00  6.73257E+00  7.26049E+00  7.79359E+00  8.32225E+00
   8.83614E+00  9.32435E+00  9.77600E+00  1.01804E+01  1.05276E+01  1.08089E+01  1.10169E+01  1.11466E+01  1.11949E+01  1.11611E+01
   1.10471E+01  1.08566E+01  1.05959E+01  1.02726E+01  9.89616E+00  9.47656E+00  9.02442E+00  8.55026E+00  8.06437E+00  7.57623E+00
   7.09444E+00  6.62621E+00  6.17757E+00  5.75307E+00  5.35615E+00  4.98896E+00  4.65265E+00  4.34727E+00  4.07224E+00  3.82632E+00
   3.60798E+00  3.41532E+00  3.24635E+00  3.09885E+00  2.97073E+00  2.85995E+00  2.76470E+00  2.68318E+00  2.61383E+00  2.55510E+00
   2.50572E+00  2.46454E+00  2.43064E+00  2.40309E+00  2.38110E+00  2.36393E+00  2.35103E+00  2.34187E+00  2.33609E+00  2.33321E+00
   2.33289E+00  2.33476E+00  2.33861E+00  2.34422E+00  2.35144E+00  2.36002E+00  2.36984E+00  2.38070E+00  2.39258E+00  2.40536E+00
   2.41900E+00  2.43331E+00  2.44826E+00  2.46375E+00  2.47982E+00  2.49639E+00  2.51343E+00  2.53081E+00  2.54854E+00  2.56659E+00
   2.58501E+00  2.60371E+00  2.62270E+00  2.64188E+00  2.66129E+00  2.68092E+00  2.70082E+00  2.72092E+00  2.74120E+00  2.76161E+00
   2.78222E+00  2.80302E+00  2.82405E+00  2.84524E+00  2.86659E+00  2.88807E+00  2.90976E+00  2.93166E+00  2.95379E+00  2.97608E+00
   2.99855E+00  3.02120E+00  3.04411E+00  3.06728E+00  3.09070E+00  3.11434E+00  3.13822E+00  3.16238E+00
 NY background values follow
    -3.400E+01   -3.381E+01   -3.361E+01   -3.342E+01   -3.323E+01   -3.303E+01   -3.284E+01   -3.264E+01   -3.245E+01   -3.225E+01
    -3.206E+01   -3.186E+01   -3.167E+01   -3.148E+01   -3.128E+01   -3.109E+01   -3.089E+01   -3.070E+01   -3.051E+01   -3.031E+01
    -3.012E+01   -2.993E+01   -2.974E+01   -2.954E+01   -2.935E+01   -2.916E+01   -2.897E+01   -2.878E+01   -2.859E+01   -2.840E+01
    -2.821E+01   -2.802E+01   -2.784E+01   -2.765E+01   -2.746E+01   -2.728E+01   -2.709E+01   -2.690E+01   -2.672E+01   -2.654E+01
    -2.635E+01   -2.617E+01   -2.599E+01   -2.581E+01   -2.563E+01   -2.545E+01   -2.527E+01   -2.510E+01   -2.492E+01   -2.474E+01
    -2.457E+01   -2.440E+01   -2.422E+01   -2.405E+01   -2.388E+01   -2.371E+01   -2.354E+01   -2.338E+01   -2.321E+01   -2.304E+01
    -2.288E+01   -2.271E+01   -2.255E+01   -2.239E+01   -2.223E+01   -2.207E+01   -2.191E+01   -2.175E+01   -2.160E+01   -2.144E+01
    -2.129E+01   -2.114E+01   -2.099E+01   -2.083E+01   -2.069E+01   -2.054E+01   -2.039E+01   -2.024E+01   -2.010E+01   -1.996E+01
    -1.981E+01   -1.967E+01   -1.953E+01   -1.940E+01   -1.926E+01   -1.912E+01   -1.899E+01   -1.886E+01   -1.872E+01   -1.859E+01
    -1.846E+01   -1.834E+01   -1.821E+01   -1.808E+01   -1.796E+01   -1.784E+01   -1.772E+01   -1.760E+01   -1.748E+01   -1.736E+01
    -1.725E+01   -1.713E+01   -1.702E+01   -1.691E+01   -1.680E+01   -1.669E+01   -1.658E+01   -1.648E+01   -1.637E+01   -1.627E+01
    -1.617E+01   -1.607E+01   -1.597E+01   -1.587E+01   -1.578E+01   -1.568E+01   -1.559E+01   -1.550E+01   -1.541E+01   -1.532E+01
    -1.523E+01   -1.514E+01   -1.506E+01   -1.497E+01   -1.489E+01   -1.481E+01   -1.473E+01   -1.465E+01   -1.458E+01   -1.450E+01
    -1.443E+01   -1.436E+01   -1.428E+01   -1.421E+01   -1.415E+01   -1.408E+01   -1.401E+01   -1.395E+01   -1.389E+01   -1.383E+01
    -1.377E+01   -1.371E+01   -1.365E+01   -1.359E+01   -1.354E+01   -1.348E+01   -1.343E+01   -1.338E+01   -1.333E+01   -1.327E+01
    -1.322E+01   -1.317E+01   -1.312E+01   -1.308E+01   -1.303E+01   -1.298E+01   -1.293E+01   -1.288E+01   -1.284E+01   -1.279E+01
    -1.274E+01   -1.270E+01   -1.265E+01   -1.260E+01   -1.256E+01   -1.251E+01   -1.246E+01   -1.242E+01   -1.237E+01   -1.232E+01
    -1.227E+01   -1.223E+01   -1.218E+01   -1.213E+01   -1.208E+01   -1.203E+01   -1.197E+01   -1.192E+01   -1.187E+01   -1.181E+01
    -1.176E+01   -1.170E+01   -1.165E+01   -1.159E+01   -1.153E+01   -1.147E+01   -1.141E+01   -1.135E+01   -1.128E+01   -1.122E+01
    -1.116E+01   -1.109E+01   -1.103E+01   -1.096E+01   -1.090E+01   -1.083E+01   -1.076E+01   -1.069E+01   -1.063E+01   -1.056E+01
    -1.049E+01   -1.042E+01   -1.035E+01   -1.028E+01   -1.021E+01   -1.014E+01   -1.007E+01   -1.001E+01   -9.936E+00   -9.866E+00
    -9.797E+00   -9.728E+00   -9.659E+00   -9.590E+00   -9.522E+00   -9.454E+00   -9.386E+00   -9.319E+00   -9.252E+00   -9.185E+00
    -9.119E+00   -9.054E+00   -8.989E+00   -8.925E+00   -8.861E+00   -8.799E+00   -8.736E+00   -8.675E+00   -8.615E+00   -8.555E+00
    -8.496E+00   -8.438E+00   -8.380E+00   -8.323E+00   -8.267E+00   -8.211E+00   -8.156E+00   -8.102E+00   -8.049E+00   -7.995E+00
    -7.943E+00   -7.891E+00   -7.840E+00   -7.789E+00   -7.739E+00   -7.689E+00   -7.640E+00   -7.591E+00   -7.542E+00   -7.494E+00
    -7.447E+00   -7.400E+00   -7.353E+00   -7.307E+00   -7.261E+00   -7.215E+00   -7.170E+00   -7.125E+00   -7.080E+00   -7.036E+00
    -6.992E+00   -6.948E+00   -6.904E+00   -6.861E+00   -6.818E+00   -6.775E+00   -6.732E+00   -6.689E+00   -6.647E+00   -6.604E+00
    -6.562E+00   -6.520E+00   -6.478E+00   -6.436E+00   -6.394E+00   -6.352E+00   -6.310E+00   -6.269E+00   -6.227E+00   -6.185E+00
    -6.144E+00   -6.102E+00   -6.061E+00   -6.019E+00   -5.978E+00   -5.937E+00   -5.895E+00   -5.854E+00   -5.813E+00   -5.772E+00
    -5.731E+00   -5.689E+00   -5.648E+00   -5.607E+00   -5.566E+00   -5.525E+00   -5.484E+00   -5.443E+00   -5.402E+00   -5.361E+00
    -5.320E+00   -5.279E+00   -5.238E+00   -5.196E+00   -5.155E+00   -5.114E+00   -5.073E+00   -5.032E+00   -4.990E+00   -4.949E+00
    -4.908E+00   -4.867E+00   -4.825E+00   -4.784E+00   -4.742E+00   -4.701E+00   -4.659E+00   -4.618E+00   -4.576E+00   -4.534E+00
    -4.492E+00   -4.450E+00   -4.408E+00   -4.366E+00   -4.324E+00   -4.282E+00   -4.240E+00   -4.198E+00   -4.155E+00   -4.113E+00
    -4.070E+00   -4.027E+00   -3.985E+00   -3.942E+00   -3.899E+00   -3.856E+00   -3.813E+00   -3.770E+00   -3.727E+00   -3.683E+00
    -3.640E+00   -3.596E+00   -3.553E+00   -3.509E+00   -3.465E+00   -3.421E+00   -3.377E+00   -3.333E+00   -3.289E+00   -3.245E+00
    -3.200E+00   -3.156E+00   -3.111E+00   -3.066E+00   -3.021E+00   -2.976E+00   -2.931E+00   -2.886E+00   -2.840E+00   -2.795E+00
    -2.749E+00   -2.703E+00   -2.658E+00   -2.612E+00   -2.565E+00   -2.519E+00   -2.473E+00   -2.426E+00   -2.380E+00   -2.333E+00
    -2.286E+00   -2.239E+00   -2.192E+00   -2.145E+00   -2.098E+00   -2.050E+00   -2.003E+00   -1.955E+00   -1.908E+00   -1.860E+00
    -1.813E+00   -1.765E+00   -1.717E+00   -1.669E+00   -1.621E+00   -1.573E+00   -1.525E+00   -1.476E+00   -1.428E+00   -1.380E+00
    -1.332E+00   -1.283E+00   -1.235E+00   -1.186E+00   -1.138E+00   -1.089E+00   -1.041E+00   -9.924E-01   -9.438E-01   -8.952E-01
    -8.466E-01   -7.980E-01   -7.494E-01   -7.007E-01   -6.521E-01   -6.035E-01   -5.548E-01   -5.062E-01   -4.576E-01   -4.090E-01
    -3.605E-01   -3.119E-01   -2.635E-01   -2.151E-01   -1.668E-01   -1.186E-01   -7.044E-02   -2.242E-02    2.549E-02    7.326E-02
     1.209E-01    1.684E-01    2.157E-01    2.628E-01    3.098E-01    3.566E-01    4.032E-01    4.495E-01    4.957E-01    5.416E-01
     5.872E-01    6.326E-01    6.778E-01    7.226E-01    7.672E-01    8.115E-01    8.554E-01    8.991E-01    9.424E-01    9.854E-01
     1.028E+00    1.070E+00    1.112E+00    1.154E+00    1.195E+00    1.235E+00    1.276E+00    1.316E+00    1.355E+00    1.394E+00
     1.433E+00    1.471E+00    1.508E+00    1.545E+00    1.582E+00    1.618E+00    1.654E+00    1.689E+00    1.724E+00    1.759E+00
     1.793E+00    1.826E+00    1.860E+00    1.893E+00    1.925E+00    1.958E+00    1.990E+00    2.021E+00    2.053E+00    2.084E+00
     2.114E+00    2.145E+00    2.175E+00    2.206E+00    2.235E+00    2.265E+00    2.295E+00    2.324E+00    2.353E+00    2.382E+00
     2.411E+00    2.440E+00    2.468E+00    2.497E+00    2.525E+00    2.554E+00    2.582E+00    2.610E+00    2.638E+00    2.666E+00
     2.695E+00    2.723E+00    2.751E+00    2.779E+00    2.807E+00    2.836E+00    2.864E+00    2.893E+00
 Cr       Conc. = 2.99E+02
