 LCModel (Version 6.3-1L) Copyright: S.W. Provencher.          Ref.: Magn. Reson. Med. 30:672-679 (1993).                
 Slice#3 Row#8 Col#10  K_02_press_1_raw_act
 36 lines in following concentration table = NCONC+1
    Conc.  %SD /Cr+PCr  Metabolite                                         
  126.981  68% 6.8E-02 Ala                                                 
    0.000 999%   0.000 Asp                                                 
  957.961  18%   0.509 Cr                                                  
  922.685  20%   0.491 PCr                                                 
    0.000 999%   0.000 GABA                                                
    0.000 999%   0.000 Glc                                                 
  470.273  37%   0.250 Gln                                                 
 1.49E+03  13%   0.790 Glu                                                 
  651.016   4%   0.346 GPC                                                 
    0.000 999%   0.000 PCh                                                 
  519.100  13%   0.276 GSH                                                 
 1.03E+03  21%   0.547 Ins                                                 
  115.194  81% 6.1E-02 Lac                                                 
 2.41E+03   4%   1.283 NAA                                                 
  700.473  13%   0.372 NAAG                                                
   42.995  60% 2.3E-02 Scyllo                                              
    0.000 999%   0.000 Tau                                                 
   28.465 390% 1.5E-02 -CrCH2                                              
  651.016   4%   0.346 GPC+PCh                                             
 3.11E+03   3%   1.655 NAA+NAAG                                            
 1.88E+03   3%   1.000 Cr+PCr                                              
 1.96E+03  13%   1.040 Glu+Gln                                             
 1.24E+03  46%   0.658 Lip13a                                              
    0.000 999%   0.000 Lip13b                                              
    0.000 999%   0.000 Lip09                                               
 1.81E+03  15%   0.964 MM09                                                
  183.260 130% 9.7E-02 Lip20                                               
 2.86E+03  17%   1.523 MM20                                                
 1.19E+03  23%   0.634 MM12                                                
 1.54E+03  27%   0.816 MM14                                                
 1.24E+03  26%   0.660 MM17                                                
 1.24E+03  46%   0.658 Lip13a+Lip13b                                       
 3.96E+03  14%   2.108 MM14+Lip13a+Lip13b+MM12                             
 1.81E+03  15%   0.964 MM09+Lip09                                          
 3.05E+03  16%   1.621 MM20+Lip20                                          
   6 lines in following misc. output table
  FWHM = 0.038 ppm    S/N =  16                                            
  Data shift = 0.008 ppm                                                   
  Ph: -27 deg     -10.3 deg/ppm                                            
  alphaB,S = 1.1E+00,   5.5E+01                                            
   14 spline knots.   Ns = 5(1)                                            
  (10) 2 infls.   ( 5) 1 extrs.                                            
  498 points on ppm-axis = NY
      4.000000     3.992357     3.984714     3.977070     3.969427     3.961784     3.954141     3.946497     3.938854     3.931211
      3.923568     3.915925     3.908281     3.900638     3.892995     3.885352     3.877708     3.870065     3.862422     3.854779
      3.847136     3.839492     3.831849     3.824206     3.816563     3.808919     3.801276     3.793633     3.785990     3.778347
      3.770703     3.763060     3.755417     3.747774     3.740130     3.732487     3.724844     3.717201     3.709558     3.701914
      3.694271     3.686628     3.678985     3.671341     3.663698     3.656055     3.648412     3.640769     3.633125     3.625482
      3.617839     3.610196     3.602552     3.594909     3.587266     3.579623     3.571980     3.564336     3.556693     3.549050
      3.541407     3.533763     3.526120     3.518477     3.510834     3.503191     3.495547     3.487904     3.480261     3.472618
      3.464974     3.457331     3.449688     3.442045     3.434402     3.426758     3.419115     3.411472     3.403829     3.396185
      3.388542     3.380899     3.373256     3.365613     3.357969     3.350326     3.342683     3.335040     3.327396     3.319753
      3.312110     3.304467     3.296824     3.289180     3.281537     3.273894     3.266251     3.258607     3.250964     3.243321
      3.235678     3.228034     3.220391     3.212748     3.205105     3.197462     3.189818     3.182175     3.174532     3.166889
      3.159245     3.151602     3.143959     3.136316     3.128673     3.121029     3.113386     3.105743     3.098100     3.090456
      3.082813     3.075170     3.067527     3.059884     3.052240     3.044597     3.036954     3.029311     3.021667     3.014024
      3.006381     2.998738     2.991095     2.983451     2.975808     2.968165     2.960522     2.952878     2.945235     2.937592
      2.929949     2.922306     2.914662     2.907019     2.899376     2.891733     2.884089     2.876446     2.868803     2.861160
      2.853517     2.845873     2.838230     2.830587     2.822944     2.815300     2.807657     2.800014     2.792371     2.784728
      2.777084     2.769441     2.761798     2.754155     2.746511     2.738868     2.731225     2.723582     2.715939     2.708295
      2.700652     2.693009     2.685366     2.677722     2.670079     2.662436     2.654793     2.647150     2.639506     2.631863
      2.624220     2.616577     2.608933     2.601290     2.593647     2.586004     2.578361     2.570717     2.563074     2.555431
      2.547788     2.540144     2.532501     2.524858     2.517215     2.509572     2.501928     2.494285     2.486642     2.478999
      2.471355     2.463712     2.456069     2.448426     2.440783     2.433139     2.425496     2.417853     2.410210     2.402566
      2.394923     2.387280     2.379637     2.371994     2.364350     2.356707     2.349064     2.341421     2.333777     2.326134
      2.318491     2.310848     2.303205     2.295561     2.287918     2.280275     2.272632     2.264988     2.257345     2.249702
      2.242059     2.234416     2.226772     2.219129     2.211486     2.203843     2.196199     2.188556     2.180913     2.173270
      2.165627     2.157983     2.150340     2.142697     2.135054     2.127410     2.119767     2.112124     2.104481     2.096838
      2.089194     2.081551     2.073908     2.066265     2.058621     2.050978     2.043335     2.035692     2.028049     2.020405
      2.012762     2.005119     1.997476     1.989833     1.982190     1.974546     1.966903     1.959260     1.951617     1.943974
      1.936331     1.928688     1.921045     1.913402     1.905759     1.898115     1.890472     1.882829     1.875186     1.867543
      1.859900     1.852257     1.844614     1.836971     1.829327     1.821684     1.814041     1.806398     1.798755     1.791112
      1.783469     1.775826     1.768183     1.760540     1.752896     1.745253     1.737610     1.729967     1.722324     1.714681
      1.707038     1.699395     1.691752     1.684108     1.676465     1.668822     1.661179     1.653536     1.645893     1.638250
      1.630607     1.622964     1.615321     1.607677     1.600034     1.592391     1.584748     1.577105     1.569462     1.561819
      1.554176     1.546533     1.538890     1.531246     1.523603     1.515960     1.508317     1.500674     1.493031     1.485388
      1.477745     1.470102     1.462458     1.454815     1.447172     1.439529     1.431886     1.424243     1.416600     1.408957
      1.401314     1.393671     1.386027     1.378384     1.370741     1.363098     1.355455     1.347812     1.340169     1.332526
      1.324883     1.317240     1.309596     1.301953     1.294310     1.286667     1.279024     1.271381     1.263738     1.256095
      1.248452     1.240808     1.233165     1.225522     1.217879     1.210236     1.202593     1.194950     1.187307     1.179664
      1.172021     1.164377     1.156734     1.149091     1.141448     1.133805     1.126162     1.118519     1.110876     1.103233
      1.095590     1.087946     1.080303     1.072660     1.065017     1.057374     1.049731     1.042088     1.034445     1.026802
      1.019158     1.011515     1.003872     0.996229     0.988586     0.980943     0.973300     0.965657     0.958014     0.950371
      0.942727     0.935084     0.927441     0.919798     0.912155     0.904512     0.896869     0.889226     0.881583     0.873940
      0.866296     0.858653     0.851010     0.843367     0.835724     0.828081     0.820438     0.812795     0.805152     0.797508
      0.789865     0.782222     0.774579     0.766936     0.759293     0.751650     0.744007     0.736364     0.728721     0.721077
      0.713434     0.705791     0.698148     0.690505     0.682862     0.675219     0.667576     0.659933     0.652290     0.644646
      0.637003     0.629360     0.621717     0.614074     0.606431     0.598788     0.591145     0.583502     0.575858     0.568215
      0.560572     0.552929     0.545286     0.537643     0.530000     0.522357     0.514714     0.507071     0.499427     0.491784
      0.484141     0.476498     0.468855     0.461212     0.453569     0.445925     0.438282     0.430639     0.422996     0.415353
      0.407710     0.400067     0.392424     0.384780     0.377137     0.369494     0.361851     0.354208     0.346565     0.338922
      0.331278     0.323635     0.315992     0.308349     0.300706     0.293063     0.285420     0.277777     0.270133     0.262490
      0.254847     0.247204     0.239561     0.231918     0.224275     0.216631     0.208988     0.201345
 NY phased data points follow
  -2.18946E+00 -2.33617E+00 -4.19817E+00 -5.10946E-01  3.89227E+00  9.55999E+00  1.26846E+01  1.72345E+01  3.47836E+01  4.03132E+01
   4.72615E+01  5.12999E+01  4.56002E+01  3.55986E+01  2.77390E+01  1.59365E+01  4.51034E+00  6.69366E+00  1.66407E+00  1.48587E+00
   2.42465E+00  1.48688E+00  2.77506E+00  6.41904E+00  4.87222E+00  8.48100E+00  7.39790E+00  6.87352E+00  1.01285E+01  1.47685E+01
   1.20230E+01  1.58639E+01  1.19242E+01  1.23263E+01  1.26848E+01  6.72429E+00  6.21059E+00  3.94708E+00  9.49489E+00  5.51403E+00
   5.95799E+00  5.65534E+00  9.51612E+00 -1.09709E-01  1.11535E+01  1.43651E+01  1.55152E+01  1.77693E+01  1.89293E+01  1.70307E+01
   1.57611E+01  9.53293E+00  4.13411E+00  7.88075E+00  6.67009E+00  4.92093E+00  8.04804E+00  5.94494E+00  9.93628E+00  8.61467E+00
   9.87536E-01  3.83671E-02 -2.39996E+00 -5.67199E+00 -6.69344E+00 -5.56398E+00 -8.44697E+00 -4.90516E+00 -3.01295E+00  6.21817E-01
  -1.77994E+00 -3.37817E-01  5.20081E-01 -2.35370E+00 -1.91697E+00  8.92812E-01 -1.91101E+00 -1.66502E+00 -1.30113E+00 -6.06772E-01
   4.66189E+00 -2.31755E-02  3.20627E+00  1.76949E+00  1.25898E+00  6.88199E-01 -2.05404E+00  1.23475E+00  4.00026E+00  6.45419E+00
   2.75665E+00  8.32782E+00  9.03807E+00  5.04327E+00  7.62278E+00  9.54136E+00  1.36937E+01  1.25125E+01  1.54380E+01  1.96772E+01
   3.05339E+01  4.45089E+01  6.75078E+01  7.45913E+01  7.80120E+01  6.07284E+01  4.48237E+01  3.15589E+01  2.07372E+01  1.80043E+01
   1.14486E+01  7.14850E+00  5.24971E+00  5.30083E+00  3.78146E+00  4.56671E+00  6.29093E+00  5.18836E+00  9.50942E+00  4.02086E+00
   6.94617E+00  1.13820E+01  1.34338E+01  1.26176E+01  2.61024E+01  5.00720E+01  6.94793E+01  8.51577E+01  8.35636E+01  6.77743E+01
   5.32546E+01  3.99341E+01  2.70836E+01  1.90008E+01  9.13154E+00  1.07141E+01  8.19621E+00  7.11907E+00  6.61800E+00  6.53264E+00
   4.10024E+00  5.32768E+00  5.90108E+00  8.79820E+00  5.07544E+00  6.42172E+00  8.30535E+00  9.94007E+00  6.41057E+00  1.02373E+00
   8.28158E+00  7.01977E+00  4.78114E+00  4.81557E+00  4.70631E+00  4.11271E+00  4.89700E-01  1.81208E+00  7.21927E+00  6.20892E+00
   7.68782E+00  2.52675E+00 -1.41360E+00 -1.12079E+00  1.89963E+00  8.50025E+00  7.94550E-01  2.73051E+00  1.06189E+00  8.81832E-01
  -8.12161E+00 -3.84409E+00 -1.57074E+00 -6.72524E+00 -7.84568E+00 -1.49070E+01 -1.77320E+01 -9.25623E+00 -5.42381E+00 -3.94490E-01
  -4.71725E+00 -6.46890E+00 -6.34873E+00 -7.77033E+00 -8.63951E+00 -6.17247E+00 -6.45185E+00 -3.79813E+00 -4.43246E+00  2.52483E+00
   9.79714E+00  1.11068E+01  1.06820E+01  1.23110E+01  9.16898E+00  1.14180E+01  5.11077E+00  6.41662E+00  5.78911E-01  2.74373E+00
  -8.44136E-01  6.35100E+00  5.62017E+00  1.26194E+01  1.37294E+01  1.12732E+01  5.91144E+00  3.60873E+00 -2.15642E-01 -1.41291E-01
   1.62245E+00  4.99997E+00  5.07427E+00  9.56490E+00  1.71870E+01  2.26250E+01  2.46689E+01  2.10817E+01  1.72259E+01  1.69512E+01
   8.89419E+00  5.27505E+00  7.40361E-01  1.78067E+00  7.95172E+00  6.22493E+00  1.23483E+01  1.72503E+01  1.67751E+01  1.65873E+01
   2.16404E+01  1.60961E+01  1.22381E+01  1.14681E+01  1.61741E+01  1.56916E+01  1.55524E+01  1.50749E+01  1.52537E+01  2.03973E+01
   1.18091E+01  5.83922E+00  6.20325E+00  5.34024E+00  9.03502E+00  1.71461E+01  1.80768E+01  1.95662E+01  1.81707E+01  2.10112E+01
   2.25848E+01  1.92737E+01  2.02746E+01  2.95383E+01  4.50206E+01  6.20877E+01  6.52786E+01  6.35227E+01  8.05795E+01  1.12593E+02
   1.39706E+02  1.40419E+02  1.13247E+02  7.09572E+01  5.06781E+01  3.59991E+01  2.69172E+01  2.22945E+01  1.79922E+01  1.69192E+01
   1.87361E+01  2.00940E+01  2.14557E+01  1.35756E+01  1.43718E+01  1.29925E+01  1.31850E+01  1.60921E+01  1.26780E+01  1.08203E+01
   9.11551E+00  9.93633E+00  1.61350E+01  1.40294E+01  1.06698E+01  1.17872E+01  1.15449E+01  1.20292E+01  1.59922E+01  1.41527E+01
   1.70159E+01  1.56159E+01  1.47813E+01  1.35100E+01  1.72000E+01  1.52112E+01  1.69643E+01  1.52397E+01  1.44617E+01  1.65651E+01
   1.58272E+01  1.79619E+01  1.66221E+01  2.18877E+01  2.22106E+01  1.52332E+01  1.98344E+01  2.05925E+01  1.98029E+01  2.07267E+01
   2.28563E+01  2.40224E+01  2.31656E+01  2.26688E+01  2.25357E+01  2.25521E+01  2.27041E+01  2.01465E+01  1.51341E+01  1.72199E+01
   1.54909E+01  1.58292E+01  2.04847E+01  1.90752E+01  1.66061E+01  1.57360E+01  1.68570E+01  2.33916E+01  1.76676E+01  1.83141E+01
   1.75920E+01  2.11976E+01  2.18069E+01  2.32650E+01  1.95513E+01  3.19818E+01  3.07156E+01  3.05013E+01  2.85957E+01  2.88745E+01
   2.57783E+01  2.57985E+01  2.15206E+01  2.25335E+01  2.00468E+01  2.27249E+01  1.88136E+01  2.04924E+01  1.76473E+01  2.13123E+01
   1.68574E+01  1.98990E+01  1.93639E+01  2.20112E+01  2.28560E+01  2.14407E+01  2.61940E+01  2.27492E+01  2.81748E+01  2.42843E+01
   2.57425E+01  2.94611E+01  2.53114E+01  2.86548E+01  2.95736E+01  2.88665E+01  2.76764E+01  2.37429E+01  2.78608E+01  2.51837E+01
   2.63440E+01  2.34522E+01  2.55861E+01  2.68351E+01  2.52290E+01  2.51798E+01  2.40537E+01  2.23156E+01  2.47832E+01  2.42972E+01
   2.51247E+01  2.62721E+01  2.07151E+01  2.25887E+01  2.12141E+01  2.17284E+01  2.21585E+01  1.49560E+01  2.07828E+01  2.02519E+01
   2.41084E+01  2.04438E+01  2.30611E+01  2.39478E+01  2.72203E+01  2.64777E+01  2.11504E+01  2.67887E+01  2.48000E+01  2.59714E+01
   2.54211E+01  2.22572E+01  2.68827E+01  2.49318E+01  2.40280E+01  1.83507E+01  2.35389E+01  2.42562E+01  2.93598E+01  2.35381E+01
   2.54911E+01  2.43921E+01  2.20524E+01  2.59907E+01  2.22382E+01  2.35470E+01  2.48528E+01  2.35821E+01  2.26741E+01  2.09383E+01
   2.07000E+01  2.14392E+01  1.83090E+01  1.45982E+01  1.71513E+01  1.97511E+01  1.96076E+01  1.74452E+01  2.00456E+01  1.95513E+01
   1.95748E+01  1.91865E+01  1.43287E+01  2.20745E+01  1.78556E+01  1.90719E+01  2.29715E+01  1.52632E+01  2.07445E+01  1.92401E+01
   1.88682E+01  1.97728E+01  1.81820E+01  1.31611E+01  1.87653E+01  1.58291E+01  1.76579E+01  1.85708E+01  1.48247E+01  1.44588E+01
   1.59666E+01  1.24047E+01  1.53146E+01  1.45722E+01  1.77221E+01  1.75221E+01  1.25812E+01  1.40362E+01  1.54206E+01  1.58964E+01
   1.50651E+01  1.75594E+01  1.10766E+01  1.30596E+01  1.51242E+01  1.32577E+01  1.77224E+01  1.38751E+01  1.40240E+01  1.18207E+01
   1.55605E+01  1.81514E+01  1.84430E+01  9.64073E+00  9.90865E+00  1.16654E+01  1.45616E+01  1.29150E+01  1.57557E+01  1.14626E+01
   1.62513E+01  1.56654E+01  1.57862E+01  1.49382E+01  1.52852E+01  1.18563E+01  1.29774E+01  1.16878E+01  1.14184E+01  1.50788E+01
   1.10138E+01  1.93276E+01  1.25697E+01  1.36491E+01  1.06724E+01  9.89180E+00  1.58319E+01  1.09205E+01
 NY points of the fit to the data follow
   2.58862E-01  2.85123E-01  6.59143E-01  1.66205E+00  3.94202E+00  7.19836E+00  1.22031E+01  2.07660E+01  3.11390E+01  4.14425E+01
   4.87443E+01  4.99958E+01  4.47370E+01  3.53160E+01  2.51094E+01  1.68035E+01  1.15211E+01  8.21502E+00  5.76612E+00  4.63683E+00
   4.17664E+00  3.84595E+00  3.48104E+00  2.88394E+00  2.53354E+00  2.89503E+00  3.21280E+00  4.64890E+00  8.35872E+00  1.32564E+01
   1.70112E+01  1.79367E+01  1.65852E+01  1.42975E+01  1.16691E+01  8.55856E+00  5.25705E+00  3.06810E+00  2.14281E+00  2.00744E+00
   2.42575E+00  3.52084E+00  5.07665E+00  6.39688E+00  7.75509E+00  9.94060E+00  1.25466E+01  1.41427E+01  1.35305E+01  1.09694E+01
   7.99370E+00  5.69018E+00  4.00497E+00  2.79546E+00  2.33201E+00  2.47665E+00  2.86690E+00  3.47617E+00  4.31598E+00  5.18080E+00
   5.58641E+00  5.16420E+00  4.07511E+00  2.78508E+00  1.74776E+00  1.17438E+00  1.19389E+00  1.66990E+00  2.26893E+00  2.89618E+00
   3.50441E+00  3.98600E+00  4.16089E+00  3.94857E+00  3.51741E+00  3.10675E+00  2.85495E+00  2.70062E+00  2.59361E+00  2.56518E+00
   2.58079E+00  2.64698E+00  2.76609E+00  2.84328E+00  3.05250E+00  3.33378E+00  3.28319E+00  2.68262E+00  1.80850E+00  1.20090E+00
   1.18869E+00  1.71688E+00  2.40981E+00  3.09794E+00  3.82452E+00  4.42470E+00  4.95080E+00  6.34923E+00  1.06873E+01  1.71021E+01
   2.75626E+01  4.58654E+01  6.71550E+01  8.03307E+01  7.79709E+01  6.25779E+01  4.38079E+01  2.91781E+01  1.90812E+01  1.12878E+01
   6.71353E+00  5.14763E+00  4.59107E+00  4.37052E+00  4.29099E+00  4.28387E+00  4.33892E+00  4.42875E+00  4.54448E+00  4.76286E+00
   5.28028E+00  6.78220E+00  1.14927E+01  1.83626E+01  2.80500E+01  4.61740E+01  6.94202E+01  8.57588E+01  8.57306E+01  7.05503E+01
   5.05330E+01  3.51727E+01  2.52051E+01  1.67709E+01  1.02180E+01  6.51094E+00  4.11100E+00  3.07558E+00  3.33009E+00  4.48951E+00
   6.03054E+00  7.33574E+00  7.87673E+00  7.66994E+00  7.07304E+00  6.38556E+00  5.82420E+00  5.41008E+00  5.08220E+00  4.78950E+00
   4.48109E+00  4.12350E+00  3.68966E+00  3.30789E+00  3.16581E+00  3.34287E+00  3.66170E+00  4.01863E+00  3.91226E+00  2.98578E+00
   1.72144E+00  7.13718E-01  8.00762E-01  2.00731E+00  3.14756E+00  3.21164E+00  2.28208E+00  9.90898E-01 -8.41177E-02 -5.79844E-01
  -6.61682E-01 -6.83590E-01 -7.31490E-01 -1.12899E+00 -2.22607E+00 -3.27756E+00 -3.46159E+00 -2.50336E+00 -1.18294E+00 -7.62609E-01
  -1.43173E+00 -2.06107E+00 -1.89632E+00 -1.04523E+00 -4.43154E-01 -4.26066E-01 -1.72903E-01  1.37333E+00  4.07722E+00  7.12674E+00
   9.53381E+00  1.05516E+01  1.01688E+01  8.70580E+00  6.98373E+00  5.51009E+00  4.43663E+00  3.88343E+00  4.22769E+00  5.66712E+00
   7.52724E+00  9.39419E+00  1.11524E+01  1.25131E+01  1.30895E+01  1.20473E+01  9.70450E+00  6.57563E+00  3.21926E+00  8.06975E-01
  -1.38852E-01  4.83524E-01  2.33742E+00  5.30644E+00  9.85982E+00  1.48626E+01  1.79493E+01  1.73506E+01  1.37531E+01  9.16951E+00
   4.54665E+00  1.75386E-01 -2.73121E+00 -2.46850E+00  1.15883E+00  6.15371E+00  1.04015E+01  1.30845E+01  1.45094E+01  1.47430E+01
   1.37567E+01  1.24373E+01  1.20708E+01  1.27990E+01  1.40818E+01  1.55857E+01  1.69659E+01  1.77498E+01  1.74000E+01  1.58826E+01
   1.37615E+01  1.17863E+01  1.06140E+01  1.08951E+01  1.27810E+01  1.54527E+01  1.77184E+01  1.90551E+01  1.96036E+01  1.97385E+01
   2.04318E+01  2.22477E+01  2.50975E+01  3.15746E+01  4.17158E+01  5.49666E+01  6.48972E+01  7.00025E+01  8.60600E+01  1.14445E+02
   1.37093E+02  1.35866E+02  1.10987E+02  7.94092E+01  5.57651E+01  4.09829E+01  2.86804E+01  2.01219E+01  1.77179E+01  1.66888E+01
   1.59910E+01  1.55085E+01  1.53016E+01  1.52587E+01  1.52181E+01  1.49952E+01  1.45599E+01  1.40762E+01  1.37115E+01  1.34295E+01
   1.31969E+01  1.30770E+01  1.31065E+01  1.31950E+01  1.32349E+01  1.32029E+01  1.31664E+01  1.31642E+01  1.31819E+01  1.32666E+01
   1.34976E+01  1.38724E+01  1.43314E+01  1.47999E+01  1.52450E+01  1.56855E+01  1.61170E+01  1.65275E+01  1.69452E+01  1.74104E+01
   1.79222E+01  1.84481E+01  1.89465E+01  1.93932E+01  1.97805E+01  2.00952E+01  2.03226E+01  2.04691E+01  2.05410E+01  2.05458E+01
   2.04919E+01  2.03873E+01  2.02416E+01  2.00684E+01  1.98848E+01  1.97083E+01  1.95535E+01  1.94327E+01  1.93584E+01  1.93458E+01
   1.94136E+01  1.95929E+01  1.99097E+01  2.02586E+01  2.07251E+01  2.12931E+01  2.16036E+01  2.13588E+01  2.06465E+01  1.98722E+01
   1.95039E+01  1.95269E+01  1.97394E+01  2.03247E+01  2.14788E+01  2.28658E+01  2.39532E+01  2.44699E+01  2.45304E+01  2.44382E+01
   2.43491E+01  2.42449E+01  2.42231E+01  2.42749E+01  2.44221E+01  2.46818E+01  2.47470E+01  2.43107E+01  2.34055E+01  2.24089E+01
   2.17940E+01  2.15707E+01  2.16516E+01  2.21763E+01  2.32238E+01  2.44388E+01  2.53375E+01  2.57494E+01  2.58397E+01  2.58542E+01
   2.58593E+01  2.57989E+01  2.57453E+01  2.57193E+01  2.56804E+01  2.56100E+01  2.54987E+01  2.53420E+01  2.51389E+01  2.48925E+01
   2.46082E+01  2.42925E+01  2.39521E+01  2.35946E+01  2.32292E+01  2.28660E+01  2.25152E+01  2.21853E+01  2.18835E+01  2.16167E+01
   2.13915E+01  2.12144E+01  2.10898E+01  2.10201E+01  2.10063E+01  2.10489E+01  2.11484E+01  2.13043E+01  2.15138E+01  2.17727E+01
   2.20754E+01  2.24167E+01  2.27906E+01  2.31898E+01  2.36050E+01  2.40259E+01  2.44422E+01  2.48441E+01  2.52220E+01  2.55655E+01
   2.58645E+01  2.61095E+01  2.62933E+01  2.64111E+01  2.64592E+01  2.64354E+01  2.63387E+01  2.61707E+01  2.59357E+01  2.56400E+01
   2.52906E+01  2.48946E+01  2.44600E+01  2.39956E+01  2.35110E+01  2.30155E+01  2.25168E+01  2.20213E+01  2.15348E+01  2.10630E+01
   2.06107E+01  2.01814E+01  1.97768E+01  1.93973E+01  1.90434E+01  1.87157E+01  1.84142E+01  1.81378E+01  1.78843E+01  1.76519E+01
   1.74392E+01  1.72453E+01  1.70689E+01  1.69081E+01  1.67607E+01  1.66251E+01  1.65005E+01  1.63865E+01  1.62820E+01  1.61854E+01
   1.60954E+01  1.60113E+01  1.59331E+01  1.58607E+01  1.57932E+01  1.57295E+01  1.56688E+01  1.56113E+01  1.55572E+01  1.55064E+01
   1.54580E+01  1.54113E+01  1.53661E+01  1.53227E+01  1.52817E+01  1.52425E+01  1.52044E+01  1.51669E+01  1.51303E+01  1.50952E+01
   1.50616E+01  1.50289E+01  1.49966E+01  1.49645E+01  1.49332E+01  1.49031E+01  1.48739E+01  1.48452E+01  1.48163E+01  1.47877E+01
   1.47598E+01  1.47329E+01  1.47066E+01  1.46802E+01  1.46536E+01  1.46274E+01  1.46020E+01  1.45774E+01  1.45529E+01  1.45282E+01
   1.45034E+01  1.44790E+01  1.44556E+01  1.44325E+01  1.44094E+01  1.43860E+01  1.43627E+01  1.43401E+01  1.43182E+01  1.42964E+01
   1.42744E+01  1.42523E+01  1.42304E+01  1.42094E+01  1.41889E+01  1.41683E+01  1.41474E+01  1.41265E+01
 NY background values follow
    -3.274E+00   -3.225E+00   -3.176E+00   -3.128E+00   -3.079E+00   -3.030E+00   -2.981E+00   -2.932E+00   -2.884E+00   -2.835E+00
    -2.787E+00   -2.738E+00   -2.690E+00   -2.642E+00   -2.594E+00   -2.545E+00   -2.497E+00   -2.449E+00   -2.402E+00   -2.354E+00
    -2.306E+00   -2.258E+00   -2.211E+00   -2.163E+00   -2.116E+00   -2.069E+00   -2.022E+00   -1.975E+00   -1.928E+00   -1.881E+00
    -1.834E+00   -1.788E+00   -1.741E+00   -1.695E+00   -1.648E+00   -1.602E+00   -1.556E+00   -1.510E+00   -1.465E+00   -1.419E+00
    -1.373E+00   -1.328E+00   -1.283E+00   -1.238E+00   -1.193E+00   -1.148E+00   -1.103E+00   -1.059E+00   -1.014E+00   -9.699E-01
    -9.258E-01   -8.818E-01   -8.380E-01   -7.944E-01   -7.509E-01   -7.076E-01   -6.644E-01   -6.214E-01   -5.786E-01   -5.359E-01
    -4.934E-01   -4.511E-01   -4.089E-01   -3.669E-01   -3.251E-01   -2.834E-01   -2.420E-01   -2.007E-01   -1.596E-01   -1.187E-01
    -7.793E-02   -3.738E-02    2.981E-03    4.315E-02    8.313E-02    1.229E-01    1.625E-01    2.019E-01    2.411E-01    2.801E-01
     3.189E-01    3.575E-01    3.958E-01    4.340E-01    4.720E-01    5.097E-01    5.473E-01    5.846E-01    6.217E-01    6.586E-01
     6.953E-01    7.317E-01    7.680E-01    8.040E-01    8.397E-01    8.753E-01    9.106E-01    9.457E-01    9.805E-01    1.015E+00
     1.050E+00    1.084E+00    1.118E+00    1.151E+00    1.185E+00    1.218E+00    1.251E+00    1.283E+00    1.316E+00    1.348E+00
     1.380E+00    1.411E+00    1.443E+00    1.474E+00    1.505E+00    1.535E+00    1.565E+00    1.595E+00    1.625E+00    1.655E+00
     1.684E+00    1.713E+00    1.741E+00    1.770E+00    1.798E+00    1.825E+00    1.853E+00    1.880E+00    1.907E+00    1.934E+00
     1.960E+00    1.986E+00    2.012E+00    2.037E+00    2.062E+00    2.087E+00    2.111E+00    2.136E+00    2.159E+00    2.183E+00
     2.207E+00    2.230E+00    2.253E+00    2.276E+00    2.299E+00    2.321E+00    2.344E+00    2.366E+00    2.389E+00    2.411E+00
     2.434E+00    2.456E+00    2.479E+00    2.502E+00    2.524E+00    2.547E+00    2.570E+00    2.594E+00    2.617E+00    2.641E+00
     2.665E+00    2.689E+00    2.714E+00    2.739E+00    2.764E+00    2.789E+00    2.815E+00    2.842E+00    2.869E+00    2.896E+00
     2.924E+00    2.952E+00    2.981E+00    3.011E+00    3.041E+00    3.072E+00    3.103E+00    3.135E+00    3.168E+00    3.201E+00
     3.235E+00    3.270E+00    3.306E+00    3.342E+00    3.380E+00    3.418E+00    3.456E+00    3.495E+00    3.535E+00    3.576E+00
     3.617E+00    3.659E+00    3.702E+00    3.745E+00    3.788E+00    3.832E+00    3.877E+00    3.922E+00    3.967E+00    4.013E+00
     4.060E+00    4.106E+00    4.153E+00    4.201E+00    4.249E+00    4.297E+00    4.346E+00    4.395E+00    4.444E+00    4.493E+00
     4.543E+00    4.593E+00    4.643E+00    4.693E+00    4.743E+00    4.794E+00    4.844E+00    4.895E+00    4.946E+00    4.997E+00
     5.048E+00    5.099E+00    5.150E+00    5.200E+00    5.251E+00    5.302E+00    5.353E+00    5.404E+00    5.454E+00    5.505E+00
     5.555E+00    5.606E+00    5.656E+00    5.706E+00    5.756E+00    5.807E+00    5.857E+00    5.907E+00    5.957E+00    6.007E+00
     6.057E+00    6.107E+00    6.157E+00    6.207E+00    6.257E+00    6.307E+00    6.356E+00    6.406E+00    6.456E+00    6.506E+00
     6.556E+00    6.606E+00    6.656E+00    6.707E+00    6.757E+00    6.807E+00    6.857E+00    6.908E+00    6.958E+00    7.008E+00
     7.059E+00    7.110E+00    7.160E+00    7.211E+00    7.262E+00    7.313E+00    7.364E+00    7.415E+00    7.466E+00    7.518E+00
     7.569E+00    7.621E+00    7.673E+00    7.725E+00    7.777E+00    7.829E+00    7.881E+00    7.934E+00    7.986E+00    8.039E+00
     8.091E+00    8.144E+00    8.197E+00    8.250E+00    8.303E+00    8.356E+00    8.409E+00    8.462E+00    8.515E+00    8.569E+00
     8.622E+00    8.675E+00    8.728E+00    8.782E+00    8.835E+00    8.889E+00    8.942E+00    8.995E+00    9.049E+00    9.102E+00
     9.155E+00    9.209E+00    9.262E+00    9.315E+00    9.368E+00    9.421E+00    9.475E+00    9.528E+00    9.581E+00    9.633E+00
     9.686E+00    9.739E+00    9.792E+00    9.844E+00    9.897E+00    9.949E+00    1.000E+01    1.005E+01    1.011E+01    1.016E+01
     1.021E+01    1.026E+01    1.031E+01    1.036E+01    1.041E+01    1.047E+01    1.052E+01    1.057E+01    1.062E+01    1.067E+01
     1.072E+01    1.077E+01    1.082E+01    1.087E+01    1.092E+01    1.097E+01    1.101E+01    1.106E+01    1.111E+01    1.116E+01
     1.121E+01    1.125E+01    1.130E+01    1.135E+01    1.139E+01    1.144E+01    1.149E+01    1.153E+01    1.158E+01    1.162E+01
     1.167E+01    1.171E+01    1.175E+01    1.180E+01    1.184E+01    1.188E+01    1.192E+01    1.197E+01    1.201E+01    1.205E+01
     1.209E+01    1.213E+01    1.217E+01    1.221E+01    1.225E+01    1.229E+01    1.232E+01    1.236E+01    1.240E+01    1.243E+01
     1.247E+01    1.251E+01    1.254E+01    1.258E+01    1.261E+01    1.264E+01    1.268E+01    1.271E+01    1.274E+01    1.278E+01
     1.281E+01    1.284E+01    1.287E+01    1.290E+01    1.293E+01    1.296E+01    1.299E+01    1.301E+01    1.304E+01    1.307E+01
     1.310E+01    1.312E+01    1.315E+01    1.317E+01    1.320E+01    1.322E+01    1.324E+01    1.327E+01    1.329E+01    1.331E+01
     1.333E+01    1.336E+01    1.338E+01    1.340E+01    1.342E+01    1.343E+01    1.345E+01    1.347E+01    1.349E+01    1.351E+01
     1.352E+01    1.354E+01    1.355E+01    1.357E+01    1.358E+01    1.360E+01    1.361E+01    1.362E+01    1.363E+01    1.365E+01
     1.366E+01    1.367E+01    1.368E+01    1.369E+01    1.370E+01    1.371E+01    1.371E+01    1.372E+01    1.373E+01    1.374E+01
     1.374E+01    1.375E+01    1.375E+01    1.376E+01    1.376E+01    1.377E+01    1.377E+01    1.377E+01    1.378E+01    1.378E+01
     1.378E+01    1.378E+01    1.378E+01    1.378E+01    1.378E+01    1.378E+01    1.378E+01    1.378E+01    1.378E+01    1.378E+01
     1.377E+01    1.377E+01    1.377E+01    1.376E+01    1.376E+01    1.375E+01    1.375E+01    1.374E+01    1.374E+01    1.373E+01
     1.373E+01    1.372E+01    1.371E+01    1.370E+01    1.370E+01    1.369E+01    1.368E+01    1.367E+01    1.366E+01    1.365E+01
     1.364E+01    1.363E+01    1.362E+01    1.362E+01    1.361E+01    1.359E+01    1.358E+01    1.357E+01    1.356E+01    1.355E+01
     1.354E+01    1.353E+01    1.352E+01    1.351E+01    1.350E+01    1.349E+01    1.347E+01    1.346E+01    1.345E+01    1.344E+01
     1.343E+01    1.342E+01    1.341E+01    1.339E+01    1.338E+01    1.337E+01    1.336E+01    1.335E+01
 Ala      Conc. = 1.27E+02
