 LCModel (Version 6.3-1L) Copyright: S.W. Provencher.          Ref.: Magn. Reson. Med. 30:672-679 (1993).                
 Slice#2 Row#7 Col#2  K_02_press_1_raw_act
 36 lines in following concentration table = NCONC+1
    Conc.  %SD /Cr+PCr  Metabolite                                         
   41.815 430% 5.3E-02 Ala                                                 
    0.000 999%   0.000 Asp                                                 
  781.794   7%   1.000 Cr                                                  
    0.000 999%   0.000 PCr                                                 
   68.356 142% 8.7E-02 GABA                                                
    2.493 999% 3.2E-03 Glc                                                 
 1.97E+03  22%   2.526 Gln                                                 
 2.01E+03  26%   2.569 Glu                                                 
  254.565   9%   0.326 GPC                                                 
    0.000 999%   0.000 PCh                                                 
  314.016  30%   0.402 GSH                                                 
 1.20E+03  27%   1.538 Ins                                                 
    0.000 999%   0.000 Lac                                                 
 1.15E+03   5%   1.477 NAA                                                 
    0.000 999%   0.000 NAAG                                                
  108.764  23%   0.139 Scyllo                                              
    0.000 999%   0.000 Tau                                                 
  365.910  38%   0.468 -CrCH2                                              
  254.565   9%   0.326 GPC+PCh                                             
 1.15E+03   5%   1.477 NAA+NAAG                                            
  781.794   7%   1.000 Cr+PCr                                              
 3.98E+03  21%   5.095 Glu+Gln                                             
    0.000 999%   0.000 Lip13a                                              
    0.000 999%   0.000 Lip13b                                              
    0.000 999%   0.000 Lip09                                               
  325.570  31%   0.416 MM09                                                
    0.000 999%   0.000 Lip20                                               
  485.312  32%   0.621 MM20                                                
   96.739  33%   0.124 MM12                                                
  293.343  27%   0.375 MM14                                                
  123.167  38%   0.158 MM17                                                
    0.000 999%   0.000 Lip13a+Lip13b                                       
  390.082  28%   0.499 MM14+Lip13a+Lip13b+MM12                             
  325.570  31%   0.416 MM09+Lip09                                          
  485.312  32%   0.621 MM20+Lip20                                          
   6 lines in following misc. output table
  FWHM = 0.076 ppm    S/N =   6                                            
  Data shift =-0.008 ppm                                                   
  Ph: -58 deg     -18.0 deg/ppm                                            
  alphaB,S = 4.8E-01,   5.4E+01                                            
   14 spline knots.   Ns = 7(2)                                            
  ( 8) 8 infls.   ( 7) 1 extrs.                                            
  498 points on ppm-axis = NY
      4.000000     3.992357     3.984714     3.977070     3.969427     3.961784     3.954141     3.946497     3.938854     3.931211
      3.923568     3.915925     3.908281     3.900638     3.892995     3.885352     3.877708     3.870065     3.862422     3.854779
      3.847136     3.839492     3.831849     3.824206     3.816563     3.808919     3.801276     3.793633     3.785990     3.778347
      3.770703     3.763060     3.755417     3.747774     3.740130     3.732487     3.724844     3.717201     3.709558     3.701914
      3.694271     3.686628     3.678985     3.671341     3.663698     3.656055     3.648412     3.640769     3.633125     3.625482
      3.617839     3.610196     3.602552     3.594909     3.587266     3.579623     3.571980     3.564336     3.556693     3.549050
      3.541407     3.533763     3.526120     3.518477     3.510834     3.503191     3.495547     3.487904     3.480261     3.472618
      3.464974     3.457331     3.449688     3.442045     3.434402     3.426758     3.419115     3.411472     3.403829     3.396185
      3.388542     3.380899     3.373256     3.365613     3.357969     3.350326     3.342683     3.335040     3.327396     3.319753
      3.312110     3.304467     3.296824     3.289180     3.281537     3.273894     3.266251     3.258607     3.250964     3.243321
      3.235678     3.228034     3.220391     3.212748     3.205105     3.197462     3.189818     3.182175     3.174532     3.166889
      3.159245     3.151602     3.143959     3.136316     3.128673     3.121029     3.113386     3.105743     3.098100     3.090456
      3.082813     3.075170     3.067527     3.059884     3.052240     3.044597     3.036954     3.029311     3.021667     3.014024
      3.006381     2.998738     2.991095     2.983451     2.975808     2.968165     2.960522     2.952878     2.945235     2.937592
      2.929949     2.922306     2.914662     2.907019     2.899376     2.891733     2.884089     2.876446     2.868803     2.861160
      2.853517     2.845873     2.838230     2.830587     2.822944     2.815300     2.807657     2.800014     2.792371     2.784728
      2.777084     2.769441     2.761798     2.754155     2.746511     2.738868     2.731225     2.723582     2.715939     2.708295
      2.700652     2.693009     2.685366     2.677722     2.670079     2.662436     2.654793     2.647150     2.639506     2.631863
      2.624220     2.616577     2.608933     2.601290     2.593647     2.586004     2.578361     2.570717     2.563074     2.555431
      2.547788     2.540144     2.532501     2.524858     2.517215     2.509572     2.501928     2.494285     2.486642     2.478999
      2.471355     2.463712     2.456069     2.448426     2.440783     2.433139     2.425496     2.417853     2.410210     2.402566
      2.394923     2.387280     2.379637     2.371994     2.364350     2.356707     2.349064     2.341421     2.333777     2.326134
      2.318491     2.310848     2.303205     2.295561     2.287918     2.280275     2.272632     2.264988     2.257345     2.249702
      2.242059     2.234416     2.226772     2.219129     2.211486     2.203843     2.196199     2.188556     2.180913     2.173270
      2.165627     2.157983     2.150340     2.142697     2.135054     2.127410     2.119767     2.112124     2.104481     2.096838
      2.089194     2.081551     2.073908     2.066265     2.058621     2.050978     2.043335     2.035692     2.028049     2.020405
      2.012762     2.005119     1.997476     1.989833     1.982190     1.974546     1.966903     1.959260     1.951617     1.943974
      1.936331     1.928688     1.921045     1.913402     1.905759     1.898115     1.890472     1.882829     1.875186     1.867543
      1.859900     1.852257     1.844614     1.836971     1.829327     1.821684     1.814041     1.806398     1.798755     1.791112
      1.783469     1.775826     1.768183     1.760540     1.752896     1.745253     1.737610     1.729967     1.722324     1.714681
      1.707038     1.699395     1.691752     1.684108     1.676465     1.668822     1.661179     1.653536     1.645893     1.638250
      1.630607     1.622964     1.615321     1.607677     1.600034     1.592391     1.584748     1.577105     1.569462     1.561819
      1.554176     1.546533     1.538890     1.531246     1.523603     1.515960     1.508317     1.500674     1.493031     1.485388
      1.477745     1.470102     1.462458     1.454815     1.447172     1.439529     1.431886     1.424243     1.416600     1.408957
      1.401314     1.393671     1.386027     1.378384     1.370741     1.363098     1.355455     1.347812     1.340169     1.332526
      1.324883     1.317240     1.309596     1.301953     1.294310     1.286667     1.279024     1.271381     1.263738     1.256095
      1.248452     1.240808     1.233165     1.225522     1.217879     1.210236     1.202593     1.194950     1.187307     1.179664
      1.172021     1.164377     1.156734     1.149091     1.141448     1.133805     1.126162     1.118519     1.110876     1.103233
      1.095590     1.087946     1.080303     1.072660     1.065017     1.057374     1.049731     1.042088     1.034445     1.026802
      1.019158     1.011515     1.003872     0.996229     0.988586     0.980943     0.973300     0.965657     0.958014     0.950371
      0.942727     0.935084     0.927441     0.919798     0.912155     0.904512     0.896869     0.889226     0.881583     0.873940
      0.866296     0.858653     0.851010     0.843367     0.835724     0.828081     0.820438     0.812795     0.805152     0.797508
      0.789865     0.782222     0.774579     0.766936     0.759293     0.751650     0.744007     0.736364     0.728721     0.721077
      0.713434     0.705791     0.698148     0.690505     0.682862     0.675219     0.667576     0.659933     0.652290     0.644646
      0.637003     0.629360     0.621717     0.614074     0.606431     0.598788     0.591145     0.583502     0.575858     0.568215
      0.560572     0.552929     0.545286     0.537643     0.530000     0.522357     0.514714     0.507071     0.499427     0.491784
      0.484141     0.476498     0.468855     0.461212     0.453569     0.445925     0.438282     0.430639     0.422996     0.415353
      0.407710     0.400067     0.392424     0.384780     0.377137     0.369494     0.361851     0.354208     0.346565     0.338922
      0.331278     0.323635     0.315992     0.308349     0.300706     0.293063     0.285420     0.277777     0.270133     0.262490
      0.254847     0.247204     0.239561     0.231918     0.224275     0.216631     0.208988     0.201345
 NY phased data points follow
  -1.24408E+02 -1.24597E+02 -1.23644E+02 -1.19786E+02 -1.16736E+02 -1.12761E+02 -1.12235E+02 -1.09920E+02 -1.05080E+02 -1.04883E+02
  -1.01424E+02 -1.00138E+02 -9.91908E+01 -1.01353E+02 -1.02499E+02 -9.82255E+01 -1.00689E+02 -9.88109E+01 -9.44897E+01 -9.47966E+01
  -9.33196E+01 -9.36540E+01 -9.46555E+01 -9.16023E+01 -9.38829E+01 -9.07662E+01 -8.97186E+01 -8.58739E+01 -8.69249E+01 -8.91759E+01
  -8.66647E+01 -8.29261E+01 -8.17093E+01 -8.38577E+01 -8.07501E+01 -8.15776E+01 -7.91311E+01 -8.02433E+01 -7.78882E+01 -7.59375E+01
  -7.61238E+01 -7.36940E+01 -7.34600E+01 -7.46812E+01 -6.98202E+01 -7.08916E+01 -7.10450E+01 -6.93237E+01 -7.06427E+01 -6.85852E+01
  -6.79145E+01 -6.96902E+01 -6.90813E+01 -6.82196E+01 -6.96440E+01 -6.58686E+01 -6.71856E+01 -6.49419E+01 -6.73657E+01 -6.55552E+01
  -6.47541E+01 -6.64844E+01 -6.30791E+01 -6.23356E+01 -6.44499E+01 -6.36504E+01 -6.06034E+01 -6.27004E+01 -6.22637E+01 -5.87912E+01
  -6.08519E+01 -6.06852E+01 -5.63523E+01 -5.93508E+01 -5.75523E+01 -5.80486E+01 -5.54781E+01 -5.83757E+01 -5.35140E+01 -5.30723E+01
  -5.09468E+01 -5.05981E+01 -4.95707E+01 -5.05634E+01 -4.88729E+01 -4.80677E+01 -5.00028E+01 -5.02501E+01 -4.57230E+01 -4.61344E+01
  -4.55199E+01 -4.46219E+01 -4.33226E+01 -4.57547E+01 -4.18805E+01 -4.38021E+01 -3.80372E+01 -3.98393E+01 -3.92314E+01 -3.88140E+01
  -3.78087E+01 -3.25350E+01 -2.91461E+01 -3.18995E+01 -3.13833E+01 -3.30880E+01 -3.60322E+01 -3.64931E+01 -3.91464E+01 -3.62242E+01
  -3.57429E+01 -3.53839E+01 -3.47034E+01 -3.52416E+01 -3.49984E+01 -3.82087E+01 -3.45206E+01 -3.33764E+01 -3.26304E+01 -3.12380E+01
  -2.82435E+01 -3.17108E+01 -2.88620E+01 -2.65823E+01 -2.64295E+01 -2.54733E+01 -1.99825E+01 -1.98884E+01 -1.83303E+01 -1.97172E+01
  -2.60756E+01 -2.51025E+01 -2.49738E+01 -2.69873E+01 -2.21154E+01 -2.57317E+01 -2.37045E+01 -2.62588E+01 -2.84574E+01 -2.95220E+01
  -2.92638E+01 -3.03113E+01 -2.92961E+01 -2.91995E+01 -2.86922E+01 -2.87575E+01 -2.56518E+01 -2.58361E+01 -2.79046E+01 -2.62080E+01
  -2.56674E+01 -2.66980E+01 -2.80630E+01 -2.61695E+01 -2.75668E+01 -3.00067E+01 -2.61624E+01 -2.58224E+01 -2.72237E+01 -2.31439E+01
  -2.40730E+01 -2.42792E+01 -2.65982E+01 -2.63515E+01 -2.38022E+01 -2.36780E+01 -2.36015E+01 -2.43963E+01 -2.45922E+01 -1.89489E+01
  -2.25625E+01 -2.32274E+01 -2.46864E+01 -2.25119E+01 -2.40650E+01 -2.37602E+01 -2.18997E+01 -2.28086E+01 -2.52087E+01 -2.78502E+01
  -2.17385E+01 -2.39050E+01 -2.11189E+01 -2.40414E+01 -2.32753E+01 -2.30131E+01 -2.19548E+01 -2.10207E+01 -2.10934E+01 -1.87309E+01
  -1.23282E+01 -1.43000E+01 -1.48011E+01 -1.52046E+01 -1.46169E+01 -1.50204E+01 -1.55839E+01 -1.76365E+01 -1.39647E+01 -1.59429E+01
  -1.37665E+01 -1.46034E+01 -1.39185E+01 -1.23694E+01 -1.31456E+01 -1.61300E+01 -1.30513E+01 -1.60575E+01 -1.83863E+01 -1.62959E+01
  -1.66644E+01 -1.24319E+01 -1.26745E+01 -9.62164E+00 -1.06696E+01 -9.26715E+00 -8.53071E+00 -8.04850E+00 -1.20048E+01 -1.32917E+01
  -1.06611E+01 -1.27221E+01 -9.72683E+00 -1.34356E+01 -1.14303E+01 -1.23359E+01 -7.45850E+00 -5.79693E+00 -8.43616E+00 -8.63241E+00
  -8.92712E+00 -1.02754E+01 -8.26325E+00 -7.91213E+00 -1.15208E+01 -9.81622E+00 -8.06525E+00 -8.17938E+00 -8.36242E+00 -6.36579E+00
  -7.66435E+00 -9.17690E+00 -8.31521E+00 -8.46211E+00 -4.64747E+00 -5.72617E+00 -4.66511E+00 -4.59532E+00 -1.19640E+00 -3.37487E+00
  -3.93373E-01 -3.44418E-01  2.36605E+00  3.34435E+00  2.91888E+00  8.47491E+00  6.42747E+00  1.09365E+01  1.09392E+01  1.52844E+01
   1.83804E+01  2.00497E+01  1.34858E+01  8.31227E+00  5.87363E+00  2.25498E+00  3.76848E+00  5.22149E+00  5.82803E+00  3.41110E+00
   1.87873E+00 -1.26002E+00 -1.29226E+00  5.91922E-01 -1.23176E+00 -3.24196E+00 -4.43385E+00 -3.37102E+00 -2.51996E+00 -5.59510E+00
  -4.42543E+00 -5.41146E+00 -6.08334E+00 -5.70764E+00 -3.53124E+00 -5.38799E+00 -2.01246E+00 -5.06529E+00 -6.59444E+00 -3.70499E+00
  -3.13639E+00 -4.08473E+00 -1.93787E+00 -4.20788E+00 -4.92344E+00 -5.34258E+00 -3.22887E+00 -1.71308E+00 -1.66990E+00 -1.58432E+00
  -2.43813E+00 -4.01430E-01 -1.23746E+00 -2.05957E+00 -1.75905E+00 -1.35003E+00 -1.38430E+00  2.75462E-01 -4.91445E+00 -3.30849E+00
  -1.22530E+00 -6.49374E-01 -2.07219E-01 -7.38127E-01 -1.73895E+00 -1.48829E+00 -1.99231E+00 -7.23986E-02  4.25283E-01 -3.29519E-01
  -3.34852E+00 -5.00161E-01  1.39626E+00 -1.42706E+00 -2.56393E+00 -9.91872E-01 -5.94155E-02  2.80752E+00  1.11460E+00  4.38040E-01
   1.49535E+00  8.18605E-01  4.21940E+00  4.39367E+00  6.40166E-01  1.54996E+00  1.01500E+00  3.18292E-01 -1.06700E+00 -3.91605E+00
  -2.81336E+00  1.49799E+00 -1.62744E+00 -1.40217E+00 -3.10892E+00  2.27217E+00  5.06792E+00 -1.81144E-01  8.74788E-01  1.01916E-01
  -1.49834E+00 -1.93310E-01 -3.77702E+00 -4.33676E+00 -5.45221E+00 -5.28373E+00 -1.61164E+00 -4.70840E+00 -5.10584E+00 -6.36872E+00
  -2.05771E+00 -4.71697E+00 -4.65556E+00 -3.52178E+00 -3.26179E+00 -4.06684E+00 -2.29380E+00 -2.99643E+00 -4.14706E-01 -1.91981E+00
  -3.86683E+00 -5.33506E+00 -3.72327E+00 -3.54611E+00 -2.56179E+00 -2.76600E+00 -4.10406E+00 -2.06177E+00 -2.91334E+00 -5.09559E+00
  -3.83903E+00 -1.37278E+00 -4.58652E+00 -1.99537E+00 -4.81418E+00 -4.35704E+00 -3.90244E+00 -2.06639E+00 -1.12968E+00 -8.66898E-01
  -3.85409E+00 -2.39604E+00  6.68191E-01 -6.22823E+00 -6.60252E-01 -2.22942E+00 -2.81154E+00 -9.91294E-01 -9.73966E-01  3.24837E-01
  -3.29306E+00 -2.22029E+00 -2.74581E-01 -1.76724E+00 -3.94160E+00 -2.41294E-01 -3.01232E+00  1.73848E+00 -2.06038E+00  1.29184E-01
  -2.46396E+00 -2.56761E+00 -4.98152E+00 -1.52307E-01 -2.04834E+00 -2.60768E+00 -2.38036E+00 -1.55902E+00  6.04165E-01 -1.09151E+00
   3.87939E-02 -2.06853E+00 -3.93727E+00 -3.61588E+00 -2.29856E+00 -1.14623E+00 -2.31041E+00 -3.29463E+00 -3.23482E-01 -1.35418E+00
   7.24213E-01  1.64811E+00  1.73969E-01 -2.29011E+00  6.27680E-02  4.30447E-01  1.75893E+00 -1.59884E-02 -8.21751E-01  1.45606E+00
  -1.18506E+00 -2.17270E+00 -1.66866E+00  2.24300E+00  1.98994E+00  2.76413E+00 -6.33331E-02 -4.67466E-01  1.13431E+00 -1.77369E-01
  -1.83471E+00  1.12409E+00 -6.40021E-02  1.19562E+00 -3.30615E-01  1.28721E+00  3.38929E+00  7.32274E-01 -8.19344E-01  1.91285E+00
   3.71646E+00 -5.14838E-01  2.05188E+00  8.71265E-01  1.18672E+00  7.13054E-01  2.90334E+00  1.12395E+00  2.36392E+00  1.27211E+00
   1.48593E+00  3.43565E+00 -3.80000E-01 -1.66209E+00 -1.62619E-02  2.16199E+00  3.09614E+00  2.82040E+00 -1.09146E-01  3.89972E+00
   1.57398E+00  1.52232E+00  2.07974E+00 -2.10065E+00 -2.64114E-01  1.83093E+00  7.80412E-01 -1.22385E+00  1.86084E+00  6.28215E-01
   2.14489E+00  1.78768E+00 -4.46287E-01  5.37943E-01  3.31869E+00  3.63443E+00  3.85874E+00  2.54979E+00
 NY points of the fit to the data follow
  -1.19531E+02 -1.18194E+02 -1.17572E+02 -1.16092E+02 -1.14861E+02 -1.13456E+02 -1.12416E+02 -1.10920E+02 -1.09114E+02 -1.07303E+02
  -1.03850E+02 -1.02242E+02 -1.00253E+02 -9.97064E+01 -1.00088E+02 -1.00037E+02 -9.95452E+01 -9.87582E+01 -9.66631E+01 -9.57683E+01
  -9.41782E+01 -9.37246E+01 -9.28493E+01 -9.25479E+01 -9.13457E+01 -9.10296E+01 -8.94582E+01 -8.91871E+01 -8.73183E+01 -8.63642E+01
  -8.42306E+01 -8.27859E+01 -8.19978E+01 -8.10184E+01 -8.12580E+01 -8.13405E+01 -8.12708E+01 -8.07861E+01 -7.98107E+01 -7.80924E+01
  -7.70488E+01 -7.54527E+01 -7.47903E+01 -7.39073E+01 -7.32887E+01 -7.22061E+01 -7.15933E+01 -7.07933E+01 -7.06532E+01 -7.05757E+01
  -7.05961E+01 -7.03797E+01 -6.98997E+01 -6.90275E+01 -6.82371E+01 -6.74899E+01 -6.69593E+01 -6.64508E+01 -6.60189E+01 -6.54902E+01
  -6.50175E+01 -6.45842E+01 -6.41839E+01 -6.39347E+01 -6.34131E+01 -6.26831E+01 -6.19047E+01 -6.10363E+01 -6.02904E+01 -5.96408E+01
  -5.89430E+01 -5.84223E+01 -5.74765E+01 -5.71819E+01 -5.64494E+01 -5.61484E+01 -5.53156E+01 -5.49073E+01 -5.37870E+01 -5.35411E+01
  -5.24080E+01 -5.23380E+01 -5.11048E+01 -5.11233E+01 -4.96972E+01 -5.00854E+01 -4.89951E+01 -4.96492E+01 -4.88690E+01 -4.80363E+01
  -4.68338E+01 -4.62681E+01 -4.48246E+01 -4.42258E+01 -4.28120E+01 -4.17748E+01 -4.05384E+01 -3.95608E+01 -3.82707E+01 -3.69330E+01
  -3.52439E+01 -3.33197E+01 -3.19265E+01 -3.17792E+01 -3.13948E+01 -3.38879E+01 -3.42512E+01 -3.60091E+01 -3.58892E+01 -3.58604E+01
  -3.53922E+01 -3.57385E+01 -3.55447E+01 -3.62416E+01 -3.49148E+01 -3.54020E+01 -3.43867E+01 -3.42925E+01 -3.28374E+01 -3.28865E+01
  -3.04072E+01 -3.00944E+01 -2.74255E+01 -2.73200E+01 -2.42887E+01 -2.42039E+01 -2.02145E+01 -2.11831E+01 -1.89418E+01 -2.12993E+01
  -2.20552E+01 -2.41509E+01 -2.45864E+01 -2.57481E+01 -2.47075E+01 -2.58636E+01 -2.54311E+01 -2.67082E+01 -2.70331E+01 -2.78454E+01
  -2.77327E+01 -2.81686E+01 -2.77719E+01 -2.82874E+01 -2.86241E+01 -2.87338E+01 -2.84097E+01 -2.83355E+01 -2.78912E+01 -2.77878E+01
  -2.74256E+01 -2.72809E+01 -2.70173E+01 -2.69181E+01 -2.66555E+01 -2.64998E+01 -2.62436E+01 -2.60684E+01 -2.58773E+01 -2.57804E+01
  -2.55811E+01 -2.54389E+01 -2.52382E+01 -2.49314E+01 -2.47204E+01 -2.45168E+01 -2.44161E+01 -2.44629E+01 -2.43116E+01 -2.42653E+01
  -2.39744E+01 -2.38509E+01 -2.36130E+01 -2.36275E+01 -2.33562E+01 -2.33426E+01 -2.28609E+01 -2.27294E+01 -2.21448E+01 -2.20704E+01
  -2.17015E+01 -2.15650E+01 -2.12758E+01 -2.10130E+01 -2.07415E+01 -2.04168E+01 -2.00725E+01 -1.95017E+01 -1.90309E+01 -1.83228E+01
  -1.80823E+01 -1.74026E+01 -1.74091E+01 -1.69380E+01 -1.71182E+01 -1.67787E+01 -1.70248E+01 -1.62551E+01 -1.55827E+01 -1.46868E+01
  -1.40682E+01 -1.34298E+01 -1.34158E+01 -1.29982E+01 -1.36796E+01 -1.40620E+01 -1.49501E+01 -1.54053E+01 -1.61496E+01 -1.59665E+01
  -1.54355E+01 -1.40790E+01 -1.23779E+01 -1.08793E+01 -1.02918E+01 -9.24523E+00 -1.03364E+01 -1.02572E+01 -1.15125E+01 -1.22919E+01
  -1.25635E+01 -1.31062E+01 -1.30098E+01 -1.20198E+01 -1.10423E+01 -9.62868E+00 -8.40293E+00 -8.09045E+00 -8.18606E+00 -8.74450E+00
  -9.12758E+00 -9.15568E+00 -9.02981E+00 -8.81390E+00 -8.41641E+00 -8.09392E+00 -7.59288E+00 -7.36472E+00 -6.70186E+00 -6.81532E+00
  -6.72615E+00 -7.78468E+00 -8.36556E+00 -9.12497E+00 -8.88838E+00 -8.37061E+00 -5.88300E+00 -4.14225E+00 -2.96251E+00 -1.94991E+00
  -9.93901E-01  3.09122E-01  2.32848E+00  4.38908E+00  5.80892E+00  8.01849E+00  9.06955E+00  1.14729E+01  1.29071E+01  1.60118E+01
   1.46052E+01  1.63293E+01  1.11439E+01  1.07077E+01  6.72220E+00  6.17768E+00  4.93462E+00  5.20078E+00  3.54887E+00  3.50594E+00
   8.40101E-01  2.10024E-01 -1.50042E+00 -1.92829E+00 -2.46358E+00 -2.60964E+00 -3.58268E+00 -4.03955E+00 -4.08815E+00 -4.16763E+00
  -4.14781E+00 -4.13768E+00 -4.03808E+00 -3.92414E+00 -3.84143E+00 -3.74482E+00 -3.66256E+00 -3.59584E+00 -3.51767E+00 -3.43033E+00
  -3.35436E+00 -3.26575E+00 -3.17037E+00 -3.06839E+00 -2.95367E+00 -2.85085E+00 -2.73241E+00 -2.62428E+00 -2.50006E+00 -2.39945E+00
  -2.28168E+00 -2.18854E+00 -2.07827E+00 -1.99343E+00 -1.89132E+00 -1.81688E+00 -1.72699E+00 -1.66493E+00 -1.58652E+00 -1.53419E+00
  -1.46218E+00 -1.41278E+00 -1.33600E+00 -1.27713E+00 -1.23222E+00 -1.18767E+00 -1.13996E+00 -1.08415E+00 -1.03397E+00 -9.67158E-01
  -9.36119E-01 -8.36449E-01 -7.92026E-01 -6.91312E-01 -6.60422E-01 -5.56582E-01 -5.77508E-01 -4.94761E-01 -5.26741E-01 -4.74462E-01
  -4.55660E-01 -3.83015E-01 -3.40283E-01 -2.37518E-01 -2.17267E-01 -1.81472E-01 -2.03324E-01 -2.85288E-01 -3.58147E-01 -4.78911E-01
  -5.79219E-01 -6.86153E-01 -7.94430E-01 -9.26267E-01 -1.03114E+00 -1.18565E+00 -1.31385E+00 -1.47301E+00 -1.60011E+00 -1.73842E+00
  -1.84827E+00 -1.98481E+00 -2.08731E+00 -2.19689E+00 -2.27746E+00 -2.36848E+00 -2.43256E+00 -2.50869E+00 -2.55963E+00 -2.62422E+00
  -2.66535E+00 -2.72154E+00 -2.75574E+00 -2.80615E+00 -2.83580E+00 -2.88250E+00 -2.90917E+00 -2.95315E+00 -2.97730E+00 -3.01856E+00
  -3.03972E+00 -3.07733E+00 -3.09417E+00 -3.12640E+00 -3.13687E+00 -3.16149E+00 -3.16317E+00 -3.17757E+00 -3.16772E+00 -3.16905E+00
  -3.14481E+00 -3.13029E+00 -3.08896E+00 -3.05602E+00 -2.99524E+00 -2.94188E+00 -2.86017E+00 -2.78557E+00 -2.68290E+00 -2.58796E+00
  -2.46632E+00 -2.35427E+00 -2.21828E+00 -2.09516E+00 -1.95216E+00 -1.82650E+00 -1.68606E+00 -1.56821E+00 -1.44108E+00 -1.34174E+00
  -1.23804E+00 -1.16627E+00 -1.09362E+00 -1.05517E+00 -1.01711E+00 -1.01311E+00 -1.00824E+00 -1.03483E+00 -1.05716E+00 -1.10669E+00
  -1.14728E+00 -1.20985E+00 -1.25824E+00 -1.32333E+00 -1.36941E+00 -1.42770E+00 -1.46325E+00 -1.50778E+00 -1.52724E+00 -1.55394E+00
  -1.55465E+00 -1.56218E+00 -1.54393E+00 -1.53302E+00 -1.49732E+00 -1.47006E+00 -1.41945E+00 -1.37863E+00 -1.31595E+00 -1.26441E+00
  -1.19246E+00 -1.13289E+00 -1.05419E+00 -9.88905E-01 -9.05559E-01 -8.36477E-01 -7.50241E-01 -6.78973E-01 -5.91303E-01 -5.19144E-01
  -4.31207E-01 -3.59232E-01 -2.72039E-01 -2.01202E-01 -1.15626E-01 -4.67284E-02  3.64684E-02  1.02692E-01  1.82790E-01  2.45640E-01
   3.21998E-01  3.80866E-01  4.52883E-01  5.07221E-01  5.74580E-01  6.24421E-01  6.87360E-01  7.32973E-01  7.91756E-01  8.33390E-01
   8.88263E-01  9.26192E-01  9.77458E-01  1.01199E+00  1.05993E+00  1.09133E+00  1.13622E+00  1.16478E+00  1.20693E+00  1.23296E+00
   1.27267E+00  1.29646E+00  1.33402E+00  1.35589E+00  1.39163E+00  1.41189E+00  1.44610E+00  1.46504E+00  1.49804E+00  1.51599E+00
   1.54811E+00  1.56538E+00  1.59692E+00  1.61384E+00  1.64513E+00  1.66203E+00  1.69341E+00  1.71061E+00  1.74241E+00  1.76025E+00
   1.79282E+00  1.81167E+00  1.84538E+00  1.86559E+00  1.90080E+00  1.92278E+00  1.95992E+00  1.98412E+00
 NY background values follow
    -1.231E+02   -1.221E+02   -1.211E+02   -1.200E+02   -1.190E+02   -1.180E+02   -1.170E+02   -1.160E+02   -1.150E+02   -1.139E+02
    -1.129E+02   -1.119E+02   -1.109E+02   -1.099E+02   -1.089E+02   -1.079E+02   -1.069E+02   -1.059E+02   -1.050E+02   -1.040E+02
    -1.030E+02   -1.020E+02   -1.011E+02   -1.001E+02   -9.913E+01   -9.818E+01   -9.723E+01   -9.628E+01   -9.534E+01   -9.440E+01
    -9.348E+01   -9.255E+01   -9.163E+01   -9.072E+01   -8.982E+01   -8.892E+01   -8.803E+01   -8.714E+01   -8.627E+01   -8.540E+01
    -8.453E+01   -8.368E+01   -8.283E+01   -8.199E+01   -8.116E+01   -8.033E+01   -7.952E+01   -7.871E+01   -7.791E+01   -7.712E+01
    -7.634E+01   -7.557E+01   -7.480E+01   -7.404E+01   -7.329E+01   -7.255E+01   -7.181E+01   -7.109E+01   -7.037E+01   -6.966E+01
    -6.895E+01   -6.826E+01   -6.757E+01   -6.688E+01   -6.621E+01   -6.554E+01   -6.488E+01   -6.423E+01   -6.358E+01   -6.294E+01
    -6.231E+01   -6.168E+01   -6.106E+01   -6.044E+01   -5.984E+01   -5.924E+01   -5.864E+01   -5.805E+01   -5.747E+01   -5.690E+01
    -5.633E+01   -5.576E+01   -5.520E+01   -5.465E+01   -5.411E+01   -5.357E+01   -5.303E+01   -5.250E+01   -5.198E+01   -5.146E+01
    -5.095E+01   -5.044E+01   -4.993E+01   -4.944E+01   -4.894E+01   -4.846E+01   -4.797E+01   -4.750E+01   -4.702E+01   -4.656E+01
    -4.609E+01   -4.563E+01   -4.518E+01   -4.473E+01   -4.428E+01   -4.384E+01   -4.341E+01   -4.297E+01   -4.255E+01   -4.212E+01
    -4.170E+01   -4.129E+01   -4.087E+01   -4.047E+01   -4.006E+01   -3.966E+01   -3.927E+01   -3.887E+01   -3.848E+01   -3.810E+01
    -3.771E+01   -3.734E+01   -3.696E+01   -3.659E+01   -3.622E+01   -3.585E+01   -3.549E+01   -3.513E+01   -3.477E+01   -3.442E+01
    -3.407E+01   -3.372E+01   -3.337E+01   -3.303E+01   -3.269E+01   -3.235E+01   -3.202E+01   -3.168E+01   -3.135E+01   -3.103E+01
    -3.070E+01   -3.038E+01   -3.006E+01   -2.974E+01   -2.942E+01   -2.911E+01   -2.880E+01   -2.849E+01   -2.818E+01   -2.788E+01
    -2.758E+01   -2.728E+01   -2.698E+01   -2.668E+01   -2.639E+01   -2.610E+01   -2.581E+01   -2.553E+01   -2.524E+01   -2.496E+01
    -2.468E+01   -2.441E+01   -2.413E+01   -2.386E+01   -2.359E+01   -2.333E+01   -2.306E+01   -2.280E+01   -2.254E+01   -2.228E+01
    -2.202E+01   -2.177E+01   -2.152E+01   -2.127E+01   -2.102E+01   -2.078E+01   -2.053E+01   -2.029E+01   -2.005E+01   -1.982E+01
    -1.958E+01   -1.935E+01   -1.912E+01   -1.889E+01   -1.867E+01   -1.844E+01   -1.822E+01   -1.800E+01   -1.779E+01   -1.757E+01
    -1.736E+01   -1.715E+01   -1.694E+01   -1.673E+01   -1.653E+01   -1.633E+01   -1.613E+01   -1.593E+01   -1.574E+01   -1.554E+01
    -1.535E+01   -1.517E+01   -1.498E+01   -1.480E+01   -1.461E+01   -1.443E+01   -1.426E+01   -1.408E+01   -1.391E+01   -1.374E+01
    -1.357E+01   -1.340E+01   -1.324E+01   -1.308E+01   -1.292E+01   -1.276E+01   -1.261E+01   -1.246E+01   -1.231E+01   -1.216E+01
    -1.201E+01   -1.187E+01   -1.173E+01   -1.159E+01   -1.145E+01   -1.132E+01   -1.119E+01   -1.106E+01   -1.093E+01   -1.080E+01
    -1.068E+01   -1.056E+01   -1.044E+01   -1.032E+01   -1.021E+01   -1.009E+01   -9.983E+00   -9.872E+00   -9.763E+00   -9.655E+00
    -9.549E+00   -9.444E+00   -9.340E+00   -9.237E+00   -9.135E+00   -9.034E+00   -8.934E+00   -8.835E+00   -8.736E+00   -8.639E+00
    -8.541E+00   -8.444E+00   -8.348E+00   -8.252E+00   -8.156E+00   -8.061E+00   -7.965E+00   -7.870E+00   -7.774E+00   -7.678E+00
    -7.583E+00   -7.487E+00   -7.390E+00   -7.293E+00   -7.196E+00   -7.098E+00   -7.000E+00   -6.901E+00   -6.801E+00   -6.700E+00
    -6.598E+00   -6.495E+00   -6.391E+00   -6.286E+00   -6.180E+00   -6.074E+00   -5.967E+00   -5.859E+00   -5.751E+00   -5.643E+00
    -5.534E+00   -5.426E+00   -5.317E+00   -5.209E+00   -5.101E+00   -4.993E+00   -4.886E+00   -4.780E+00   -4.674E+00   -4.570E+00
    -4.466E+00   -4.364E+00   -4.262E+00   -4.162E+00   -4.064E+00   -3.967E+00   -3.872E+00   -3.779E+00   -3.688E+00   -3.599E+00
    -3.512E+00   -3.428E+00   -3.346E+00   -3.266E+00   -3.189E+00   -3.115E+00   -3.044E+00   -2.976E+00   -2.911E+00   -2.849E+00
    -2.791E+00   -2.736E+00   -2.685E+00   -2.638E+00   -2.594E+00   -2.555E+00   -2.519E+00   -2.488E+00   -2.461E+00   -2.438E+00
    -2.419E+00   -2.404E+00   -2.392E+00   -2.384E+00   -2.379E+00   -2.378E+00   -2.380E+00   -2.385E+00   -2.393E+00   -2.404E+00
    -2.418E+00   -2.434E+00   -2.452E+00   -2.473E+00   -2.497E+00   -2.522E+00   -2.549E+00   -2.579E+00   -2.610E+00   -2.642E+00
    -2.677E+00   -2.712E+00   -2.749E+00   -2.787E+00   -2.826E+00   -2.866E+00   -2.907E+00   -2.948E+00   -2.990E+00   -3.033E+00
    -3.075E+00   -3.118E+00   -3.161E+00   -3.204E+00   -3.247E+00   -3.290E+00   -3.332E+00   -3.373E+00   -3.414E+00   -3.455E+00
    -3.494E+00   -3.532E+00   -3.569E+00   -3.605E+00   -3.640E+00   -3.673E+00   -3.706E+00   -3.736E+00   -3.766E+00   -3.794E+00
    -3.820E+00   -3.845E+00   -3.868E+00   -3.890E+00   -3.910E+00   -3.928E+00   -3.945E+00   -3.960E+00   -3.973E+00   -3.984E+00
    -3.993E+00   -4.001E+00   -4.006E+00   -4.009E+00   -4.011E+00   -4.010E+00   -4.007E+00   -4.002E+00   -3.994E+00   -3.985E+00
    -3.973E+00   -3.958E+00   -3.942E+00   -3.923E+00   -3.901E+00   -3.877E+00   -3.850E+00   -3.821E+00   -3.789E+00   -3.755E+00
    -3.718E+00   -3.677E+00   -3.635E+00   -3.589E+00   -3.541E+00   -3.489E+00   -3.435E+00   -3.377E+00   -3.317E+00   -3.254E+00
    -3.188E+00   -3.119E+00   -3.048E+00   -2.975E+00   -2.899E+00   -2.821E+00   -2.742E+00   -2.660E+00   -2.577E+00   -2.492E+00
    -2.405E+00   -2.318E+00   -2.229E+00   -2.138E+00   -2.047E+00   -1.955E+00   -1.863E+00   -1.769E+00   -1.676E+00   -1.581E+00
    -1.487E+00   -1.393E+00   -1.298E+00   -1.204E+00   -1.110E+00   -1.016E+00   -9.227E-01   -8.301E-01   -7.383E-01   -6.474E-01
    -5.575E-01   -4.687E-01   -3.811E-01   -2.950E-01   -2.103E-01   -1.273E-01   -4.607E-02    3.331E-02    1.107E-01    1.859E-01
     2.589E-01    3.295E-01    3.977E-01    4.632E-01    5.262E-01    5.869E-01    6.451E-01    7.011E-01    7.549E-01    8.065E-01
     8.562E-01    9.038E-01    9.496E-01    9.936E-01    1.036E+00    1.076E+00    1.116E+00    1.153E+00    1.189E+00    1.224E+00
     1.258E+00    1.290E+00    1.321E+00    1.352E+00    1.381E+00    1.409E+00    1.437E+00    1.464E+00    1.491E+00    1.516E+00
     1.542E+00    1.567E+00    1.591E+00    1.616E+00    1.640E+00    1.664E+00    1.689E+00    1.713E+00    1.737E+00    1.762E+00
     1.787E+00    1.813E+00    1.839E+00    1.865E+00    1.892E+00    1.920E+00    1.948E+00    1.978E+00
 Ala      Conc. = 4.18E+01
