 LCModel (Version 6.3-1L) Copyright: S.W. Provencher.          Ref.: Magn. Reson. Med. 30:672-679 (1993).                
 Slice#3 Row#3 Col#12  K_02_press_1_raw_act
 36 lines in following concentration table = NCONC+1
    Conc.  %SD /Cr+PCr  Metabolite                                         
 6.53E+04  24%  92.348 Ala                                                 
   40.610 126% 5.7E-02 Asp                                                 
    0.000 999%   0.000 Cr                                                  
  706.714  35%   1.000 PCr                                                 
   29.744 103% 4.2E-02 GABA                                                
   29.790 104% 4.2E-02 Glc                                                 
 2.63E+04  12%  37.266 Gln                                                 
 1.10E+04  33%  15.579 Glu                                                 
    0.000 999%   0.000 GPC                                                 
   89.476  85%   0.127 PCh                                                 
    0.000 999%   0.000 GSH                                                 
    0.000 999%   0.000 Ins                                                 
 4.97E+03 176%   7.034 Lac                                                 
    0.000 999%   0.000 NAA                                                 
    0.000 999%   0.000 NAAG                                                
   10.559  98% 1.5E-02 Scyllo                                              
   52.589  98% 7.4E-02 Tau                                                 
   73.175  57%   0.104 -CrCH2                                              
   89.476  85%   0.127 GPC+PCh                                             
    0.000 999%   0.000 NAA+NAAG                                            
  706.714  35%   1.000 Cr+PCr                                              
 3.73E+04  17%  52.845 Glu+Gln                                             
 3.72E+05  11% 526.358 Lip13a                                              
 8.35E+03  86%  11.817 Lip13b                                              
 2.33E+04  42%  32.940-Lip09                                               
 3.64E+04  16%  51.497 MM09                                                
 4.16E+04  16%  58.910 Lip20                                               
    0.000 999%   0.000-MM20                                                
 1.65E+04  18%  23.352 MM12                                                
 1.46E+05  10% 207.089+MM14                                                
 7.07E+04  14% 100.043+MM17                                                
 3.80E+05  10% 538.175 Lip13a+Lip13b                                       
 5.43E+05   6% 768.616 MM14+Lip13a+Lip13b+MM12                             
 5.97E+04  18%  84.437 MM09+Lip09                                          
 4.16E+04  16%  58.910 MM20+Lip20                                          
   6 lines in following misc. output table
  FWHM = 0.153 ppm    S/N = 137                                            
  Data shift = 0.183 ppm                                                   
  Ph:  72 deg     119.4 deg/ppm                                            
  alphaB,S = 4.7E+00,   3.9E+02                                            
    8 spline knots.   Ns = 9(2)                                            
  ( 8) 2 infls.   ( 1) 1 extrs.                                            
  498 points on ppm-axis = NY
      4.000000     3.992357     3.984714     3.977070     3.969427     3.961784     3.954141     3.946497     3.938854     3.931211
      3.923568     3.915925     3.908281     3.900638     3.892995     3.885352     3.877708     3.870065     3.862422     3.854779
      3.847136     3.839492     3.831849     3.824206     3.816563     3.808919     3.801276     3.793633     3.785990     3.778347
      3.770703     3.763060     3.755417     3.747774     3.740130     3.732487     3.724844     3.717201     3.709558     3.701914
      3.694271     3.686628     3.678985     3.671341     3.663698     3.656055     3.648412     3.640769     3.633125     3.625482
      3.617839     3.610196     3.602552     3.594909     3.587266     3.579623     3.571980     3.564336     3.556693     3.549050
      3.541407     3.533763     3.526120     3.518477     3.510834     3.503191     3.495547     3.487904     3.480261     3.472618
      3.464974     3.457331     3.449688     3.442045     3.434402     3.426758     3.419115     3.411472     3.403829     3.396185
      3.388542     3.380899     3.373256     3.365613     3.357969     3.350326     3.342683     3.335040     3.327396     3.319753
      3.312110     3.304467     3.296824     3.289180     3.281537     3.273894     3.266251     3.258607     3.250964     3.243321
      3.235678     3.228034     3.220391     3.212748     3.205105     3.197462     3.189818     3.182175     3.174532     3.166889
      3.159245     3.151602     3.143959     3.136316     3.128673     3.121029     3.113386     3.105743     3.098100     3.090456
      3.082813     3.075170     3.067527     3.059884     3.052240     3.044597     3.036954     3.029311     3.021667     3.014024
      3.006381     2.998738     2.991095     2.983451     2.975808     2.968165     2.960522     2.952878     2.945235     2.937592
      2.929949     2.922306     2.914662     2.907019     2.899376     2.891733     2.884089     2.876446     2.868803     2.861160
      2.853517     2.845873     2.838230     2.830587     2.822944     2.815300     2.807657     2.800014     2.792371     2.784728
      2.777084     2.769441     2.761798     2.754155     2.746511     2.738868     2.731225     2.723582     2.715939     2.708295
      2.700652     2.693009     2.685366     2.677722     2.670079     2.662436     2.654793     2.647150     2.639506     2.631863
      2.624220     2.616577     2.608933     2.601290     2.593647     2.586004     2.578361     2.570717     2.563074     2.555431
      2.547788     2.540144     2.532501     2.524858     2.517215     2.509572     2.501928     2.494285     2.486642     2.478999
      2.471355     2.463712     2.456069     2.448426     2.440783     2.433139     2.425496     2.417853     2.410210     2.402566
      2.394923     2.387280     2.379637     2.371994     2.364350     2.356707     2.349064     2.341421     2.333777     2.326134
      2.318491     2.310848     2.303205     2.295561     2.287918     2.280275     2.272632     2.264988     2.257345     2.249702
      2.242059     2.234416     2.226772     2.219129     2.211486     2.203843     2.196199     2.188556     2.180913     2.173270
      2.165627     2.157983     2.150340     2.142697     2.135054     2.127410     2.119767     2.112124     2.104481     2.096838
      2.089194     2.081551     2.073908     2.066265     2.058621     2.050978     2.043335     2.035692     2.028049     2.020405
      2.012762     2.005119     1.997476     1.989833     1.982190     1.974546     1.966903     1.959260     1.951617     1.943974
      1.936331     1.928688     1.921045     1.913402     1.905759     1.898115     1.890472     1.882829     1.875186     1.867543
      1.859900     1.852257     1.844614     1.836971     1.829327     1.821684     1.814041     1.806398     1.798755     1.791112
      1.783469     1.775826     1.768183     1.760540     1.752896     1.745253     1.737610     1.729967     1.722324     1.714681
      1.707038     1.699395     1.691752     1.684108     1.676465     1.668822     1.661179     1.653536     1.645893     1.638250
      1.630607     1.622964     1.615321     1.607677     1.600034     1.592391     1.584748     1.577105     1.569462     1.561819
      1.554176     1.546533     1.538890     1.531246     1.523603     1.515960     1.508317     1.500674     1.493031     1.485388
      1.477745     1.470102     1.462458     1.454815     1.447172     1.439529     1.431886     1.424243     1.416600     1.408957
      1.401314     1.393671     1.386027     1.378384     1.370741     1.363098     1.355455     1.347812     1.340169     1.332526
      1.324883     1.317240     1.309596     1.301953     1.294310     1.286667     1.279024     1.271381     1.263738     1.256095
      1.248452     1.240808     1.233165     1.225522     1.217879     1.210236     1.202593     1.194950     1.187307     1.179664
      1.172021     1.164377     1.156734     1.149091     1.141448     1.133805     1.126162     1.118519     1.110876     1.103233
      1.095590     1.087946     1.080303     1.072660     1.065017     1.057374     1.049731     1.042088     1.034445     1.026802
      1.019158     1.011515     1.003872     0.996229     0.988586     0.980943     0.973300     0.965657     0.958014     0.950371
      0.942727     0.935084     0.927441     0.919798     0.912155     0.904512     0.896869     0.889226     0.881583     0.873940
      0.866296     0.858653     0.851010     0.843367     0.835724     0.828081     0.820438     0.812795     0.805152     0.797508
      0.789865     0.782222     0.774579     0.766936     0.759293     0.751650     0.744007     0.736364     0.728721     0.721077
      0.713434     0.705791     0.698148     0.690505     0.682862     0.675219     0.667576     0.659933     0.652290     0.644646
      0.637003     0.629360     0.621717     0.614074     0.606431     0.598788     0.591145     0.583502     0.575858     0.568215
      0.560572     0.552929     0.545286     0.537643     0.530000     0.522357     0.514714     0.507071     0.499427     0.491784
      0.484141     0.476498     0.468855     0.461212     0.453569     0.445925     0.438282     0.430639     0.422996     0.415353
      0.407710     0.400067     0.392424     0.384780     0.377137     0.369494     0.361851     0.354208     0.346565     0.338922
      0.331278     0.323635     0.315992     0.308349     0.300706     0.293063     0.285420     0.277777     0.270133     0.262490
      0.254847     0.247204     0.239561     0.231918     0.224275     0.216631     0.208988     0.201345
 NY phased data points follow
   8.13198E+01  8.22821E+01  8.57998E+01  8.73563E+01  9.07875E+01  8.89830E+01  9.03194E+01  9.34928E+01  9.36327E+01  9.28740E+01
   9.00321E+01  9.80518E+01  9.73931E+01  1.00271E+02  9.73229E+01  9.79146E+01  1.02895E+02  1.05687E+02  1.04674E+02  1.05709E+02
   1.05413E+02  1.07678E+02  1.10055E+02  1.11482E+02  1.09091E+02  1.12655E+02  1.10324E+02  1.12792E+02  1.17655E+02  1.16310E+02
   1.14194E+02  1.18323E+02  1.19671E+02  1.16958E+02  1.18770E+02  1.19574E+02  1.24831E+02  1.25774E+02  1.22528E+02  1.24625E+02
   1.24102E+02  1.23577E+02  1.27821E+02  1.30134E+02  1.27337E+02  1.28073E+02  1.32982E+02  1.30087E+02  1.29436E+02  1.32594E+02
   1.31891E+02  1.30929E+02  1.35474E+02  1.33083E+02  1.35277E+02  1.34752E+02  1.35689E+02  1.34374E+02  1.40925E+02  1.37797E+02
   1.37787E+02  1.35475E+02  1.35501E+02  1.39721E+02  1.42530E+02  1.40796E+02  1.40016E+02  1.36898E+02  1.40650E+02  1.40959E+02
   1.37459E+02  1.40247E+02  1.40508E+02  1.36571E+02  1.36871E+02  1.36514E+02  1.37434E+02  1.40047E+02  1.39439E+02  1.36505E+02
   1.33754E+02  1.33435E+02  1.32414E+02  1.33336E+02  1.32278E+02  1.34297E+02  1.33137E+02  1.29479E+02  1.27775E+02  1.26466E+02
   1.29724E+02  1.24817E+02  1.29404E+02  1.26325E+02  1.20976E+02  1.20941E+02  1.20383E+02  1.20819E+02  1.20639E+02  1.14373E+02
   1.17069E+02  1.16053E+02  1.06255E+02  1.02724E+02  1.01226E+02  9.69962E+01  9.55775E+01  9.23422E+01  9.36056E+01  9.12481E+01
   9.19429E+01  8.82940E+01  8.81910E+01  8.22767E+01  7.81446E+01  7.58535E+01  7.20508E+01  6.80452E+01  7.11332E+01  6.45040E+01
   6.37646E+01  6.18657E+01  5.81135E+01  5.44687E+01  5.26404E+01  4.69723E+01  4.56875E+01  4.68156E+01  4.32068E+01  3.59380E+01
   3.52244E+01  3.28723E+01  3.10855E+01  2.99859E+01  2.51969E+01  2.21315E+01  1.97301E+01  1.63688E+01  1.22118E+01  1.17536E+01
   8.31540E+00  6.41677E+00 -8.76899E-01 -3.01985E+00 -6.10177E+00 -1.10173E+01 -1.47988E+01 -1.78551E+01 -2.09646E+01 -2.75490E+01
  -3.15673E+01 -3.52030E+01 -4.22377E+01 -4.81416E+01 -5.08363E+01 -5.76618E+01 -6.04876E+01 -6.79035E+01 -7.53550E+01 -7.84846E+01
  -8.64120E+01 -9.12016E+01 -9.93724E+01 -1.10418E+02 -1.13990E+02 -1.21275E+02 -1.24801E+02 -1.31756E+02 -1.44849E+02 -1.49625E+02
  -1.62441E+02 -1.64710E+02 -1.76228E+02 -1.82019E+02 -1.89259E+02 -1.98513E+02 -2.04518E+02 -2.12578E+02 -2.21023E+02 -2.27874E+02
  -2.36917E+02 -2.43654E+02 -2.47033E+02 -2.57754E+02 -2.62130E+02 -2.72966E+02 -2.76136E+02 -2.82939E+02 -2.87849E+02 -2.93071E+02
  -2.96623E+02 -3.02010E+02 -3.08585E+02 -3.16087E+02 -3.16147E+02 -3.20352E+02 -3.22128E+02 -3.27225E+02 -3.33404E+02 -3.39021E+02
  -3.40541E+02 -3.47075E+02 -3.51410E+02 -3.54301E+02 -3.57768E+02 -3.61428E+02 -3.63212E+02 -3.63640E+02 -3.67482E+02 -3.66140E+02
  -3.69236E+02 -3.70750E+02 -3.72876E+02 -3.71321E+02 -3.72294E+02 -3.71361E+02 -3.73171E+02 -3.68128E+02 -3.69005E+02 -3.70867E+02
  -3.70439E+02 -3.69997E+02 -3.65962E+02 -3.68015E+02 -3.66298E+02 -3.66278E+02 -3.65085E+02 -3.64717E+02 -3.63797E+02 -3.69640E+02
  -3.64041E+02 -3.64116E+02 -3.67480E+02 -3.68995E+02 -3.71567E+02 -3.73398E+02 -3.73212E+02 -3.71195E+02 -3.72050E+02 -3.69521E+02
  -3.73318E+02 -3.74245E+02 -3.77666E+02 -3.83587E+02 -3.84164E+02 -3.89248E+02 -3.90482E+02 -3.95682E+02 -3.99222E+02 -4.00568E+02
  -4.01202E+02 -4.04634E+02 -4.04107E+02 -4.05721E+02 -4.08358E+02 -4.12819E+02 -4.10799E+02 -4.12405E+02 -4.13363E+02 -4.16979E+02
  -4.17902E+02 -4.16736E+02 -4.13526E+02 -4.14183E+02 -4.17419E+02 -4.16572E+02 -4.12926E+02 -4.16222E+02 -4.08178E+02 -4.06467E+02
  -4.03446E+02 -3.96938E+02 -3.93174E+02 -3.84500E+02 -3.77750E+02 -3.70135E+02 -3.58354E+02 -3.47429E+02 -3.33822E+02 -3.20699E+02
  -3.05680E+02 -2.84296E+02 -2.63803E+02 -2.37799E+02 -2.12239E+02 -1.84860E+02 -1.49491E+02 -1.16481E+02 -7.85052E+01 -3.52204E+01
   8.55816E+00  5.82799E+01  1.08940E+02  1.63478E+02  2.23443E+02  2.89302E+02  3.53279E+02  4.24054E+02  4.96896E+02  5.68015E+02
   6.47515E+02  7.23213E+02  7.98664E+02  8.74696E+02  9.48523E+02  1.02004E+03  1.08790E+03  1.15577E+03  1.21098E+03  1.27227E+03
   1.31376E+03  1.35132E+03  1.38487E+03  1.40725E+03  1.41099E+03  1.41283E+03  1.40140E+03  1.38022E+03  1.35135E+03  1.32120E+03
   1.27871E+03  1.23677E+03  1.18900E+03  1.13583E+03  1.08669E+03  1.03559E+03  9.83707E+02  9.36164E+02  8.88411E+02  8.40917E+02
   7.96813E+02  7.54484E+02  7.10789E+02  6.76051E+02  6.38071E+02  6.01935E+02  5.68700E+02  5.41955E+02  5.13527E+02  4.89245E+02
   4.64612E+02  4.39242E+02  4.15634E+02  3.91533E+02  3.71664E+02  3.47931E+02  3.30512E+02  3.10587E+02  2.92053E+02  2.72825E+02
   2.59488E+02  2.39769E+02  2.24870E+02  2.09803E+02  1.92897E+02  1.80253E+02  1.65690E+02  1.50506E+02  1.37547E+02  1.26289E+02
   1.15719E+02  1.02606E+02  9.24630E+01  8.31141E+01  7.03374E+01  6.12363E+01  4.86309E+01  3.62998E+01  2.87931E+01  1.89895E+01
   5.50267E+00 -1.11945E+00 -9.18824E+00 -2.05683E+01 -3.15003E+01 -4.05354E+01 -4.93151E+01 -5.73033E+01 -6.59191E+01 -7.71635E+01
  -8.61915E+01 -9.53247E+01 -1.02740E+02 -1.09876E+02 -1.17067E+02 -1.26544E+02 -1.32785E+02 -1.36460E+02 -1.41703E+02 -1.50506E+02
  -1.56195E+02 -1.62807E+02 -1.68203E+02 -1.74556E+02 -1.76461E+02 -1.82812E+02 -1.87560E+02 -1.91060E+02 -1.95582E+02 -1.99603E+02
  -2.01619E+02 -2.05862E+02 -2.07869E+02 -2.11053E+02 -2.12285E+02 -2.17368E+02 -2.19159E+02 -2.20098E+02 -2.26380E+02 -2.24375E+02
  -2.28706E+02 -2.29918E+02 -2.27982E+02 -2.30975E+02 -2.35992E+02 -2.31790E+02 -2.35231E+02 -2.37645E+02 -2.35106E+02 -2.34402E+02
  -2.38748E+02 -2.36757E+02 -2.36765E+02 -2.36106E+02 -2.36062E+02 -2.37965E+02 -2.37947E+02 -2.40492E+02 -2.35174E+02 -2.33234E+02
  -2.37488E+02 -2.37614E+02 -2.38165E+02 -2.36619E+02 -2.33285E+02 -2.33829E+02 -2.30581E+02 -2.31069E+02 -2.27191E+02 -2.27822E+02
  -2.25802E+02 -2.27787E+02 -2.25903E+02 -2.25084E+02 -2.21089E+02 -2.19443E+02 -2.20853E+02 -2.16766E+02 -2.13120E+02 -2.12647E+02
  -2.12425E+02 -2.09517E+02 -2.10113E+02 -2.08114E+02 -2.05741E+02 -2.04932E+02 -2.04279E+02 -2.03877E+02 -2.01294E+02 -1.98782E+02
  -1.94701E+02 -1.92947E+02 -1.91776E+02 -1.92433E+02 -1.86393E+02 -1.85898E+02 -1.82494E+02 -1.81196E+02 -1.76542E+02 -1.75664E+02
  -1.75793E+02 -1.74813E+02 -1.72562E+02 -1.70036E+02 -1.68332E+02 -1.63352E+02 -1.57896E+02 -1.59625E+02 -1.60506E+02 -1.54802E+02
  -1.49409E+02 -1.51960E+02 -1.47318E+02 -1.45696E+02 -1.44070E+02 -1.39584E+02 -1.38256E+02 -1.35106E+02 -1.36369E+02 -1.34536E+02
  -1.29644E+02 -1.25433E+02 -1.24390E+02 -1.21064E+02 -1.19485E+02 -1.15695E+02 -1.15594E+02 -1.14563E+02
 NY points of the fit to the data follow
   7.99228E+01  8.26816E+01  8.20736E+01  8.43198E+01  8.39656E+01  8.61086E+01  8.57605E+01  8.79503E+01  8.89989E+01  9.27516E+01
   9.40637E+01  9.78485E+01  9.87378E+01  1.02296E+02  1.02411E+02  1.05137E+02  1.04966E+02  1.08179E+02  1.07858E+02  1.10520E+02
   1.09712E+02  1.11234E+02  1.10495E+02  1.12040E+02  1.11690E+02  1.13347E+02  1.13448E+02  1.14550E+02  1.14560E+02  1.14775E+02
   1.15185E+02  1.15727E+02  1.16881E+02  1.17598E+02  1.19289E+02  1.20321E+02  1.22205E+02  1.23193E+02  1.25255E+02  1.25880E+02
   1.27444E+02  1.28848E+02  1.30309E+02  1.31508E+02  1.32566E+02  1.33449E+02  1.36031E+02  1.38570E+02  1.39031E+02  1.38793E+02
   1.37985E+02  1.36060E+02  1.34224E+02  1.31221E+02  1.30998E+02  1.31417E+02  1.33016E+02  1.34017E+02  1.35606E+02  1.35739E+02
   1.36768E+02  1.37568E+02  1.37842E+02  1.38016E+02  1.38069E+02  1.38164E+02  1.38172E+02  1.38231E+02  1.38195E+02  1.38211E+02
   1.38123E+02  1.38078E+02  1.37921E+02  1.37794E+02  1.37553E+02  1.37334E+02  1.37004E+02  1.36680E+02  1.36251E+02  1.35805E+02
   1.35265E+02  1.34688E+02  1.34034E+02  1.33321E+02  1.32540E+02  1.31669E+02  1.30751E+02  1.29804E+02  1.28806E+02  1.27760E+02
   1.26684E+02  1.25505E+02  1.24346E+02  1.23025E+02  1.21807E+02  1.20341E+02  1.19076E+02  1.17401E+02  1.16059E+02  1.14127E+02
   1.12685E+02  1.10484E+02  1.08928E+02  1.06444E+02  1.04750E+02  1.01991E+02  1.00132E+02  9.70995E+01  9.50374E+01  9.17144E+01
   8.95095E+01  8.62340E+01  8.39089E+01  8.07582E+01  7.82803E+01  7.52640E+01  7.26284E+01  6.98863E+01  6.71380E+01  6.47986E+01
   6.19326E+01  5.98728E+01  5.68373E+01  5.49491E+01  5.17579E+01  5.01617E+01  4.69122E+01  4.52859E+01  4.18892E+01  4.01450E+01
   3.65934E+01  3.45940E+01  3.09085E+01  2.85950E+01  2.48332E+01  2.22206E+01  1.84309E+01  1.55248E+01  1.17168E+01  8.47384E+00
   4.67267E+00  1.16599E+00 -2.60713E+00 -6.27367E+00 -1.00929E+01 -1.40103E+01 -1.79943E+01 -2.22766E+01 -2.63325E+01 -3.04981E+01
  -3.48643E+01 -3.94571E+01 -4.42862E+01 -4.93563E+01 -5.46766E+01 -6.02345E+01 -6.60396E+01 -7.20617E+01 -7.83130E+01 -8.47497E+01
  -9.13885E+01 -9.81682E+01 -1.05121E+02 -1.12168E+02 -1.19350E+02 -1.26572E+02 -1.33887E+02 -1.41193E+02 -1.48546E+02 -1.55849E+02
  -1.63166E+02 -1.70383E+02 -1.77580E+02 -1.84654E+02 -1.91675E+02 -1.98544E+02 -2.05295E+02 -2.11938E+02 -2.18534E+02 -2.24993E+02
  -2.31683E+02 -2.38236E+02 -2.45051E+02 -2.51879E+02 -2.58866E+02 -2.65678E+02 -2.72250E+02 -2.78813E+02 -2.84697E+02 -2.90626E+02
  -2.95575E+02 -3.00658E+02 -3.04457E+02 -3.09471E+02 -3.13604E+02 -3.18961E+02 -3.22892E+02 -3.28368E+02 -3.31364E+02 -3.36458E+02
  -3.38916E+02 -3.43897E+02 -3.46145E+02 -3.50675E+02 -3.52163E+02 -3.56428E+02 -3.57598E+02 -3.61278E+02 -3.62362E+02 -3.65456E+02
  -3.66167E+02 -3.68717E+02 -3.69041E+02 -3.70758E+02 -3.70206E+02 -3.70799E+02 -3.69577E+02 -3.69256E+02 -3.67568E+02 -3.67400E+02
  -3.65999E+02 -3.66005E+02 -3.64606E+02 -3.64451E+02 -3.62146E+02 -3.61769E+02 -3.60066E+02 -3.60056E+02 -3.58768E+02 -3.59997E+02
  -3.59295E+02 -3.62856E+02 -3.65223E+02 -3.70233E+02 -3.71543E+02 -3.76847E+02 -3.76842E+02 -3.81093E+02 -3.80726E+02 -3.84754E+02
  -3.83903E+02 -3.87960E+02 -3.86924E+02 -3.92016E+02 -3.91015E+02 -3.95759E+02 -3.93786E+02 -3.98339E+02 -3.95501E+02 -3.99827E+02
  -3.96447E+02 -4.00862E+02 -3.97629E+02 -4.02297E+02 -3.99079E+02 -4.03703E+02 -4.00141E+02 -4.05071E+02 -4.03065E+02 -4.08393E+02
  -4.06022E+02 -4.10966E+02 -4.07884E+02 -4.11131E+02 -4.07971E+02 -4.11369E+02 -4.08172E+02 -4.11000E+02 -4.07774E+02 -4.09003E+02
  -4.04810E+02 -4.04108E+02 -3.98553E+02 -3.94531E+02 -3.86283E+02 -3.78539E+02 -3.67224E+02 -3.55426E+02 -3.40867E+02 -3.25218E+02
  -3.06850E+02 -2.86800E+02 -2.63917E+02 -2.38872E+02 -2.11017E+02 -1.80553E+02 -1.47584E+02 -1.11634E+02 -7.30288E+01 -3.12965E+01
   1.32700E+01  6.11592E+01  1.12081E+02  1.66494E+02  2.24278E+02  2.85676E+02  3.50481E+02  4.18721E+02  4.90063E+02  5.64219E+02
   6.40592E+02  7.18481E+02  7.97021E+02  8.75170E+02  9.51764E+02  1.02555E+03  1.09523E+03  1.15954E+03  1.21730E+03  1.26825E+03
   1.31406E+03  1.35250E+03  1.38110E+03  1.40197E+03  1.40988E+03  1.41171E+03  1.39954E+03  1.38235E+03  1.35045E+03  1.32159E+03
   1.27596E+03  1.23884E+03  1.18459E+03  1.14216E+03  1.08337E+03  1.03970E+03  9.80478E+02  9.39096E+02  8.84114E+02  8.44967E+02
   7.94567E+02  7.56397E+02  7.11289E+02  6.74998E+02  6.37320E+02  6.03322E+02  5.72892E+02  5.40682E+02  5.16292E+02  4.84667E+02
   4.65218E+02  4.34664E+02  4.18783E+02  3.89992E+02  3.74555E+02  3.46279E+02  3.30557E+02  3.04230E+02  2.93774E+02  2.76314E+02
   2.60834E+02  2.42789E+02  2.26438E+02  2.11100E+02  1.94398E+02  1.77336E+02  1.57618E+02  1.49495E+02  1.36792E+02  1.30051E+02
   1.17000E+02  1.07903E+02  9.35588E+01  8.29404E+01  6.87508E+01  5.81965E+01  4.57561E+01  3.60280E+01  2.61980E+01  1.81734E+01
   8.73712E+00  2.10260E-02 -9.50379E+00 -1.91596E+01 -2.91128E+01 -4.01409E+01 -5.03458E+01 -6.00391E+01 -6.93511E+01 -7.82780E+01
  -8.68087E+01 -9.49314E+01 -1.02662E+02 -1.10023E+02 -1.17059E+02 -1.23812E+02 -1.30332E+02 -1.36657E+02 -1.42825E+02 -1.48853E+02
  -1.54758E+02 -1.60533E+02 -1.66172E+02 -1.71655E+02 -1.76962E+02 -1.82064E+02 -1.86941E+02 -1.91567E+02 -1.95926E+02 -2.00001E+02
  -2.03789E+02 -2.07280E+02 -2.10483E+02 -2.13400E+02 -2.16047E+02 -2.18434E+02 -2.20583E+02 -2.22509E+02 -2.24234E+02 -2.25774E+02
  -2.27153E+02 -2.28383E+02 -2.29485E+02 -2.30470E+02 -2.31354E+02 -2.32144E+02 -2.32853E+02 -2.33484E+02 -2.34046E+02 -2.34539E+02
  -2.34970E+02 -2.35335E+02 -2.35639E+02 -2.35878E+02 -2.36055E+02 -2.36163E+02 -2.36206E+02 -2.36177E+02 -2.36079E+02 -2.35906E+02
  -2.35661E+02 -2.35337E+02 -2.34940E+02 -2.34463E+02 -2.33911E+02 -2.33279E+02 -2.32572E+02 -2.31787E+02 -2.30928E+02 -2.29993E+02
  -2.28987E+02 -2.27908E+02 -2.26761E+02 -2.25545E+02 -2.24266E+02 -2.22922E+02 -2.21519E+02 -2.20055E+02 -2.18537E+02 -2.16962E+02
  -2.15339E+02 -2.13664E+02 -2.11944E+02 -2.10176E+02 -2.08369E+02 -2.06518E+02 -2.04632E+02 -2.02706E+02 -2.00749E+02 -1.98756E+02
  -1.96735E+02 -1.94682E+02 -1.92605E+02 -1.90499E+02 -1.88371E+02 -1.86218E+02 -1.84046E+02 -1.81851E+02 -1.79641E+02 -1.77410E+02
  -1.75166E+02 -1.72904E+02 -1.70631E+02 -1.68342E+02 -1.66044E+02 -1.63733E+02 -1.61414E+02 -1.59084E+02 -1.56748E+02 -1.54402E+02
  -1.52052E+02 -1.49695E+02 -1.47334E+02 -1.44967E+02 -1.42598E+02 -1.40225E+02 -1.37851E+02 -1.35473E+02 -1.33096E+02 -1.30717E+02
  -1.28339E+02 -1.25960E+02 -1.23583E+02 -1.21205E+02 -1.18832E+02 -1.16458E+02 -1.14088E+02 -1.11718E+02
 NY background values follow
     6.818E+01    6.871E+01    6.929E+01    6.990E+01    7.055E+01    7.124E+01    7.196E+01    7.272E+01    7.351E+01    7.433E+01
     7.518E+01    7.606E+01    7.696E+01    7.789E+01    7.885E+01    7.982E+01    8.082E+01    8.184E+01    8.287E+01    8.393E+01
     8.500E+01    8.608E+01    8.717E+01    8.828E+01    8.940E+01    9.052E+01    9.166E+01    9.280E+01    9.394E+01    9.509E+01
     9.623E+01    9.738E+01    9.853E+01    9.967E+01    1.008E+02    1.019E+02    1.031E+02    1.042E+02    1.053E+02    1.064E+02
     1.075E+02    1.086E+02    1.096E+02    1.107E+02    1.117E+02    1.127E+02    1.137E+02    1.146E+02    1.156E+02    1.165E+02
     1.174E+02    1.182E+02    1.191E+02    1.199E+02    1.206E+02    1.214E+02    1.221E+02    1.227E+02    1.234E+02    1.240E+02
     1.245E+02    1.250E+02    1.255E+02    1.259E+02    1.263E+02    1.266E+02    1.269E+02    1.271E+02    1.273E+02    1.274E+02
     1.275E+02    1.275E+02    1.274E+02    1.273E+02    1.272E+02    1.270E+02    1.267E+02    1.263E+02    1.259E+02    1.254E+02
     1.249E+02    1.243E+02    1.236E+02    1.228E+02    1.220E+02    1.211E+02    1.201E+02    1.190E+02    1.179E+02    1.166E+02
     1.153E+02    1.139E+02    1.125E+02    1.109E+02    1.092E+02    1.075E+02    1.057E+02    1.038E+02    1.017E+02    9.963E+01
     9.743E+01    9.513E+01    9.273E+01    9.024E+01    8.766E+01    8.499E+01    8.223E+01    7.938E+01    7.645E+01    7.343E+01
     7.033E+01    6.715E+01    6.388E+01    6.054E+01    5.712E+01    5.362E+01    5.005E+01    4.640E+01    4.268E+01    3.889E+01
     3.503E+01    3.110E+01    2.710E+01    2.304E+01    1.891E+01    1.472E+01    1.047E+01    6.158E+00    1.788E+00   -2.639E+00
    -7.123E+00   -1.166E+01   -1.625E+01   -2.090E+01   -2.559E+01   -3.034E+01   -3.513E+01   -3.996E+01   -4.485E+01   -4.978E+01
    -5.474E+01   -5.976E+01   -6.481E+01   -6.989E+01   -7.502E+01   -8.018E+01   -8.538E+01   -9.060E+01   -9.586E+01   -1.012E+02
    -1.065E+02   -1.118E+02   -1.172E+02   -1.226E+02   -1.280E+02   -1.334E+02   -1.389E+02   -1.444E+02   -1.499E+02   -1.554E+02
    -1.609E+02   -1.665E+02   -1.720E+02   -1.776E+02   -1.832E+02   -1.888E+02   -1.944E+02   -1.999E+02   -2.056E+02   -2.112E+02
    -2.168E+02   -2.224E+02   -2.280E+02   -2.336E+02   -2.392E+02   -2.448E+02   -2.503E+02   -2.559E+02   -2.615E+02   -2.670E+02
    -2.726E+02   -2.781E+02   -2.836E+02   -2.891E+02   -2.946E+02   -3.001E+02   -3.055E+02   -3.109E+02   -3.163E+02   -3.217E+02
    -3.270E+02   -3.324E+02   -3.376E+02   -3.429E+02   -3.481E+02   -3.533E+02   -3.585E+02   -3.636E+02   -3.687E+02   -3.737E+02
    -3.788E+02   -3.837E+02   -3.887E+02   -3.935E+02   -3.984E+02   -4.032E+02   -4.080E+02   -4.127E+02   -4.174E+02   -4.220E+02
    -4.266E+02   -4.312E+02   -4.357E+02   -4.402E+02   -4.446E+02   -4.490E+02   -4.534E+02   -4.577E+02   -4.619E+02   -4.661E+02
    -4.703E+02   -4.745E+02   -4.785E+02   -4.826E+02   -4.866E+02   -4.905E+02   -4.944E+02   -4.983E+02   -5.021E+02   -5.059E+02
    -5.096E+02   -5.133E+02   -5.169E+02   -5.205E+02   -5.240E+02   -5.275E+02   -5.310E+02   -5.344E+02   -5.377E+02   -5.410E+02
    -5.443E+02   -5.475E+02   -5.506E+02   -5.537E+02   -5.568E+02   -5.598E+02   -5.628E+02   -5.657E+02   -5.685E+02   -5.713E+02
    -5.741E+02   -5.768E+02   -5.795E+02   -5.821E+02   -5.846E+02   -5.871E+02   -5.896E+02   -5.920E+02   -5.943E+02   -5.966E+02
    -5.989E+02   -6.011E+02   -6.032E+02   -6.053E+02   -6.073E+02   -6.093E+02   -6.112E+02   -6.131E+02   -6.149E+02   -6.167E+02
    -6.184E+02   -6.200E+02   -6.216E+02   -6.232E+02   -6.246E+02   -6.261E+02   -6.275E+02   -6.288E+02   -6.300E+02   -6.312E+02
    -6.324E+02   -6.335E+02   -6.345E+02   -6.355E+02   -6.364E+02   -6.373E+02   -6.381E+02   -6.388E+02   -6.395E+02   -6.401E+02
    -6.407E+02   -6.412E+02   -6.417E+02   -6.420E+02   -6.424E+02   -6.426E+02   -6.429E+02   -6.430E+02   -6.431E+02   -6.431E+02
    -6.431E+02   -6.430E+02   -6.428E+02   -6.426E+02   -6.424E+02   -6.420E+02   -6.416E+02   -6.412E+02   -6.407E+02   -6.402E+02
    -6.396E+02   -6.389E+02   -6.382E+02   -6.374E+02   -6.366E+02   -6.357E+02   -6.348E+02   -6.338E+02   -6.328E+02   -6.317E+02
    -6.306E+02   -6.294E+02   -6.282E+02   -6.269E+02   -6.256E+02   -6.243E+02   -6.229E+02   -6.214E+02   -6.199E+02   -6.184E+02
    -6.168E+02   -6.152E+02   -6.135E+02   -6.118E+02   -6.101E+02   -6.083E+02   -6.065E+02   -6.046E+02   -6.027E+02   -6.007E+02
    -5.988E+02   -5.967E+02   -5.947E+02   -5.926E+02   -5.905E+02   -5.883E+02   -5.861E+02   -5.839E+02   -5.816E+02   -5.793E+02
    -5.770E+02   -5.747E+02   -5.723E+02   -5.699E+02   -5.674E+02   -5.649E+02   -5.624E+02   -5.599E+02   -5.574E+02   -5.548E+02
    -5.522E+02   -5.495E+02   -5.469E+02   -5.442E+02   -5.415E+02   -5.388E+02   -5.360E+02   -5.332E+02   -5.304E+02   -5.276E+02
    -5.248E+02   -5.219E+02   -5.191E+02   -5.162E+02   -5.133E+02   -5.103E+02   -5.074E+02   -5.044E+02   -5.015E+02   -4.985E+02
    -4.955E+02   -4.924E+02   -4.894E+02   -4.864E+02   -4.833E+02   -4.802E+02   -4.772E+02   -4.741E+02   -4.710E+02   -4.679E+02
    -4.648E+02   -4.616E+02   -4.585E+02   -4.554E+02   -4.522E+02   -4.491E+02   -4.459E+02   -4.428E+02   -4.396E+02   -4.364E+02
    -4.333E+02   -4.301E+02   -4.269E+02   -4.237E+02   -4.205E+02   -4.174E+02   -4.142E+02   -4.110E+02   -4.078E+02   -4.046E+02
    -4.014E+02   -3.982E+02   -3.950E+02   -3.918E+02   -3.886E+02   -3.854E+02   -3.822E+02   -3.790E+02   -3.758E+02   -3.726E+02
    -3.694E+02   -3.662E+02   -3.630E+02   -3.598E+02   -3.566E+02   -3.534E+02   -3.502E+02   -3.470E+02   -3.438E+02   -3.406E+02
    -3.374E+02   -3.342E+02   -3.310E+02   -3.278E+02   -3.246E+02   -3.214E+02   -3.183E+02   -3.151E+02   -3.119E+02   -3.087E+02
    -3.056E+02   -3.024E+02   -2.992E+02   -2.961E+02   -2.929E+02   -2.898E+02   -2.866E+02   -2.835E+02   -2.803E+02   -2.772E+02
    -2.741E+02   -2.709E+02   -2.678E+02   -2.647E+02   -2.616E+02   -2.585E+02   -2.554E+02   -2.523E+02   -2.492E+02   -2.462E+02
    -2.431E+02   -2.400E+02   -2.370E+02   -2.339E+02   -2.309E+02   -2.278E+02   -2.248E+02   -2.218E+02   -2.188E+02   -2.158E+02
    -2.128E+02   -2.098E+02   -2.068E+02   -2.038E+02   -2.009E+02   -1.979E+02   -1.950E+02   -1.920E+02   -1.891E+02   -1.862E+02
    -1.833E+02   -1.804E+02   -1.775E+02   -1.746E+02   -1.718E+02   -1.689E+02   -1.661E+02   -1.633E+02   -1.604E+02   -1.576E+02
    -1.548E+02   -1.520E+02   -1.493E+02   -1.465E+02   -1.438E+02   -1.410E+02   -1.383E+02   -1.356E+02
 Ala      Conc. = 6.53E+04
