 LCModel (Version 6.3-1L) Copyright: S.W. Provencher.          Ref.: Magn. Reson. Med. 30:672-679 (1993).                
 Slice#1 Row#10 Col#10  K_02_press_1_raw_act
 36 lines in following concentration table = NCONC+1
    Conc.  %SD /Cr+PCr  Metabolite                                         
  129.152  54%   0.130 Ala                                                 
    0.000 999%   0.000 Asp                                                 
  437.045  26%   0.440 Cr                                                  
  555.754  22%   0.560 PCr                                                 
    0.000 999%   0.000 GABA                                                
   81.879 153% 8.2E-02 Glc                                                 
  226.200  60%   0.228 Gln                                                 
 1.18E+03  14%   1.188 Glu                                                 
  441.842   5%   0.445 GPC                                                 
    0.000 999%   0.000 PCh                                                 
  241.417  22%   0.243 GSH                                                 
  916.634  18%   0.923 Ins                                                 
  126.168  58%   0.127 Lac                                                 
 1.76E+03   5%   1.771 NAA                                                 
  761.065   9%   0.767 NAAG                                                
   31.827  66% 3.2E-02 Scyllo                                              
   73.043 205% 7.4E-02 Tau                                                 
  355.323  23%   0.358 -CrCH2                                              
  441.842   5%   0.445 GPC+PCh                                             
 2.52E+03   3%   2.538 NAA+NAAG                                            
  992.799   5%   1.000 Cr+PCr                                              
 1.41E+03  14%   1.416 Glu+Gln                                             
   87.610 304% 8.8E-02 Lip13a                                              
    0.000 999%   0.000 Lip13b                                              
    0.000 999%   0.000 Lip09                                               
 1.22E+03  13%   1.229 MM09                                                
    4.544 999% 4.6E-03 Lip20                                               
 2.08E+03  15%   2.098 MM20                                                
  375.030  34%   0.378 MM12                                                
 1.73E+03  17%   1.740 MM14                                                
 1.11E+03  18%   1.120 MM17                                                
   87.610 304% 8.8E-02 Lip13a+Lip13b                                       
 2.19E+03  12%   2.206 MM14+Lip13a+Lip13b+MM12                             
 1.22E+03  13%   1.229 MM09+Lip09                                          
 2.09E+03  14%   2.103 MM20+Lip20                                          
   6 lines in following misc. output table
  FWHM = 0.031 ppm    S/N =  14                                            
  Data shift = 0.008 ppm                                                   
  Ph:   6 deg       3.9 deg/ppm                                            
  alphaB,S = 4.3E+00,   1.2E+01                                            
   14 spline knots.   Ns = 5(1)                                            
  ( 5) 2 infls.   ( 3) 1 extrs.                                            
  498 points on ppm-axis = NY
      4.000000     3.992357     3.984714     3.977070     3.969427     3.961784     3.954141     3.946497     3.938854     3.931211
      3.923568     3.915925     3.908281     3.900638     3.892995     3.885352     3.877708     3.870065     3.862422     3.854779
      3.847136     3.839492     3.831849     3.824206     3.816563     3.808919     3.801276     3.793633     3.785990     3.778347
      3.770703     3.763060     3.755417     3.747774     3.740130     3.732487     3.724844     3.717201     3.709558     3.701914
      3.694271     3.686628     3.678985     3.671341     3.663698     3.656055     3.648412     3.640769     3.633125     3.625482
      3.617839     3.610196     3.602552     3.594909     3.587266     3.579623     3.571980     3.564336     3.556693     3.549050
      3.541407     3.533763     3.526120     3.518477     3.510834     3.503191     3.495547     3.487904     3.480261     3.472618
      3.464974     3.457331     3.449688     3.442045     3.434402     3.426758     3.419115     3.411472     3.403829     3.396185
      3.388542     3.380899     3.373256     3.365613     3.357969     3.350326     3.342683     3.335040     3.327396     3.319753
      3.312110     3.304467     3.296824     3.289180     3.281537     3.273894     3.266251     3.258607     3.250964     3.243321
      3.235678     3.228034     3.220391     3.212748     3.205105     3.197462     3.189818     3.182175     3.174532     3.166889
      3.159245     3.151602     3.143959     3.136316     3.128673     3.121029     3.113386     3.105743     3.098100     3.090456
      3.082813     3.075170     3.067527     3.059884     3.052240     3.044597     3.036954     3.029311     3.021667     3.014024
      3.006381     2.998738     2.991095     2.983451     2.975808     2.968165     2.960522     2.952878     2.945235     2.937592
      2.929949     2.922306     2.914662     2.907019     2.899376     2.891733     2.884089     2.876446     2.868803     2.861160
      2.853517     2.845873     2.838230     2.830587     2.822944     2.815300     2.807657     2.800014     2.792371     2.784728
      2.777084     2.769441     2.761798     2.754155     2.746511     2.738868     2.731225     2.723582     2.715939     2.708295
      2.700652     2.693009     2.685366     2.677722     2.670079     2.662436     2.654793     2.647150     2.639506     2.631863
      2.624220     2.616577     2.608933     2.601290     2.593647     2.586004     2.578361     2.570717     2.563074     2.555431
      2.547788     2.540144     2.532501     2.524858     2.517215     2.509572     2.501928     2.494285     2.486642     2.478999
      2.471355     2.463712     2.456069     2.448426     2.440783     2.433139     2.425496     2.417853     2.410210     2.402566
      2.394923     2.387280     2.379637     2.371994     2.364350     2.356707     2.349064     2.341421     2.333777     2.326134
      2.318491     2.310848     2.303205     2.295561     2.287918     2.280275     2.272632     2.264988     2.257345     2.249702
      2.242059     2.234416     2.226772     2.219129     2.211486     2.203843     2.196199     2.188556     2.180913     2.173270
      2.165627     2.157983     2.150340     2.142697     2.135054     2.127410     2.119767     2.112124     2.104481     2.096838
      2.089194     2.081551     2.073908     2.066265     2.058621     2.050978     2.043335     2.035692     2.028049     2.020405
      2.012762     2.005119     1.997476     1.989833     1.982190     1.974546     1.966903     1.959260     1.951617     1.943974
      1.936331     1.928688     1.921045     1.913402     1.905759     1.898115     1.890472     1.882829     1.875186     1.867543
      1.859900     1.852257     1.844614     1.836971     1.829327     1.821684     1.814041     1.806398     1.798755     1.791112
      1.783469     1.775826     1.768183     1.760540     1.752896     1.745253     1.737610     1.729967     1.722324     1.714681
      1.707038     1.699395     1.691752     1.684108     1.676465     1.668822     1.661179     1.653536     1.645893     1.638250
      1.630607     1.622964     1.615321     1.607677     1.600034     1.592391     1.584748     1.577105     1.569462     1.561819
      1.554176     1.546533     1.538890     1.531246     1.523603     1.515960     1.508317     1.500674     1.493031     1.485388
      1.477745     1.470102     1.462458     1.454815     1.447172     1.439529     1.431886     1.424243     1.416600     1.408957
      1.401314     1.393671     1.386027     1.378384     1.370741     1.363098     1.355455     1.347812     1.340169     1.332526
      1.324883     1.317240     1.309596     1.301953     1.294310     1.286667     1.279024     1.271381     1.263738     1.256095
      1.248452     1.240808     1.233165     1.225522     1.217879     1.210236     1.202593     1.194950     1.187307     1.179664
      1.172021     1.164377     1.156734     1.149091     1.141448     1.133805     1.126162     1.118519     1.110876     1.103233
      1.095590     1.087946     1.080303     1.072660     1.065017     1.057374     1.049731     1.042088     1.034445     1.026802
      1.019158     1.011515     1.003872     0.996229     0.988586     0.980943     0.973300     0.965657     0.958014     0.950371
      0.942727     0.935084     0.927441     0.919798     0.912155     0.904512     0.896869     0.889226     0.881583     0.873940
      0.866296     0.858653     0.851010     0.843367     0.835724     0.828081     0.820438     0.812795     0.805152     0.797508
      0.789865     0.782222     0.774579     0.766936     0.759293     0.751650     0.744007     0.736364     0.728721     0.721077
      0.713434     0.705791     0.698148     0.690505     0.682862     0.675219     0.667576     0.659933     0.652290     0.644646
      0.637003     0.629360     0.621717     0.614074     0.606431     0.598788     0.591145     0.583502     0.575858     0.568215
      0.560572     0.552929     0.545286     0.537643     0.530000     0.522357     0.514714     0.507071     0.499427     0.491784
      0.484141     0.476498     0.468855     0.461212     0.453569     0.445925     0.438282     0.430639     0.422996     0.415353
      0.407710     0.400067     0.392424     0.384780     0.377137     0.369494     0.361851     0.354208     0.346565     0.338922
      0.331278     0.323635     0.315992     0.308349     0.300706     0.293063     0.285420     0.277777     0.270133     0.262490
      0.254847     0.247204     0.239561     0.231918     0.224275     0.216631     0.208988     0.201345
 NY phased data points follow
   5.05279E+00  1.13475E+01  7.87996E+00  9.06753E+00  8.05130E+00  9.35737E+00  1.37460E+01  1.65275E+01  1.37401E+01  2.10357E+01
   2.00756E+01  2.04901E+01  2.21579E+01  1.90308E+01  1.31448E+01  1.73038E+01  1.00900E+01  9.65007E+00  5.43834E+00  7.72151E+00
   8.32645E+00  5.62815E+00  7.41071E+00  5.03503E+00  1.06833E+01  7.37412E+00  1.00308E+01  8.03893E+00  1.08390E+01  7.41343E+00
   1.00853E+01  1.03294E+01  6.66396E+00  1.43698E+01  5.49247E+00  1.17292E+01  9.29016E+00  6.37371E+00  1.11682E+01  1.17230E+01
   9.67367E+00  1.30476E+01  8.86486E+00  1.37991E+01  1.40651E+01  1.03189E+01  1.71578E+01  1.71467E+01  1.90874E+01  1.51484E+01
   9.29252E+00  8.86352E+00  1.04515E+01  9.54058E+00  9.62454E+00  8.12323E+00  9.43421E+00  1.26614E+01  6.77455E+00  8.28437E+00
   8.39706E+00  3.69276E+00  1.16770E+00  7.16707E+00 -1.91526E+00  1.20183E+00  3.09360E+00  1.33743E+00  1.54153E-01  3.05952E-01
   3.74605E+00  4.25517E+00  4.99870E+00  2.02403E+00  2.87810E+00  4.17220E+00  1.21026E+00  4.65178E+00  5.90039E+00  3.13405E+00
   5.58130E+00 -1.07666E+00  4.48765E+00  3.03915E+00  3.61674E+00  2.40198E+00  1.28451E+00  3.00391E+00  4.74900E+00  3.38284E+00
   6.70536E+00  5.82690E+00  5.06496E+00  3.15642E+00  7.92434E+00  3.24136E+00  8.19681E+00  1.25443E+01  7.86731E+00  1.25340E+01
   2.05110E+01  4.70762E+01  5.79179E+01  5.95625E+01  4.97934E+01  3.83150E+01  2.52675E+01  1.87526E+01  7.42994E+00  8.17521E+00
   1.96323E+00  7.63001E+00  8.68020E+00  2.82900E+00  3.62036E+00  4.61284E+00  2.33924E+00  5.73322E+00  3.53567E+00  5.62097E+00
   6.11639E+00  6.85790E+00  6.69728E+00  9.09766E+00  1.80197E+01  3.13783E+01  4.27849E+01  5.04372E+01  4.67764E+01  3.37671E+01
   2.33018E+01  1.66674E+01  9.77587E+00  6.85792E+00  7.17330E+00  5.11791E+00  5.24740E+00  1.96624E-01  4.01680E+00  2.74883E+00
   7.14614E-01  6.11227E+00  7.97878E+00  4.90725E+00  3.42106E+00  8.64540E-01  6.81195E-01  3.99352E+00  4.38443E+00  2.52920E+00
  -6.56069E-01  3.16440E+00  2.69487E+00  2.11278E+00  2.11961E+00  2.45767E+00  1.69743E+00  1.44233E+00  5.67844E+00  8.09291E+00
   2.35263E+00  2.44304E+00 -2.55388E+00 -1.67559E+00  8.26558E-01  1.31996E+00 -2.59442E+00 -7.02459E+00 -8.19341E+00 -9.89929E+00
  -6.64070E+00 -7.64058E+00 -6.52532E+00 -1.03332E+01 -9.93029E+00 -1.18639E+01 -1.51582E+01 -9.40196E+00 -1.03791E+01 -6.54676E+00
  -9.62671E+00 -1.16454E+01 -5.57319E+00 -4.50946E+00 -3.85963E+00 -4.08010E+00 -2.44991E+00 -5.44535E+00 -4.98569E+00 -2.55690E+00
   2.00506E+00 -7.45595E-01 -2.17095E+00 -3.75529E+00 -1.10417E+00 -3.91811E+00 -1.10787E+01 -1.28949E+01 -9.18048E+00 -7.61689E+00
  -4.43047E+00 -4.66856E+00  1.29942E+00  2.64838E+00  5.78869E+00  3.71120E+00  2.94693E-01  1.79987E+00 -7.92938E-01 -3.87361E-01
  -3.04769E+00 -2.80457E-01  1.61755E+00  9.34120E+00  1.08280E+01  1.14853E+01  1.14721E+01  1.34860E+01  8.38412E+00  4.54473E+00
  -2.23583E+00 -6.76246E+00 -7.37072E+00 -5.58273E+00 -3.38134E-01  3.11220E+00  9.01424E+00  9.09185E+00  7.48177E+00  1.22065E+01
   4.91053E+00  6.19164E+00  6.09125E+00  5.35024E+00  7.11220E+00  5.16819E+00  6.46747E+00  3.73531E+00  5.76352E+00  7.87706E+00
   4.61149E+00 -3.83936E+00 -1.85600E+00  5.19133E-01  4.70212E+00  7.33256E+00  9.11620E+00  1.12630E+01  1.65557E+01  1.71533E+01
   1.04247E+01  1.07398E+01  1.41541E+01  2.88790E+01  4.46050E+01  5.32406E+01  5.00829E+01  4.73510E+01  6.35944E+01  9.15548E+01
   1.06759E+02  9.64888E+01  6.88688E+01  4.12867E+01  2.47061E+01  1.02246E+01  3.35489E+00  1.32768E+00  2.03498E+00  4.70746E+00
   1.61508E+00  3.21559E+00  3.88265E+00  5.42240E+00  4.95047E+00  3.07519E+00  4.45403E-01  2.33513E+00  5.18651E+00  3.96486E+00
   3.06885E+00  4.86401E+00  3.22037E+00  2.20634E+00  1.65212E+00  1.48072E+00  3.13007E+00  4.33565E+00  6.83801E+00  1.84267E+00
   4.75452E+00  6.96199E+00  4.58261E+00  4.28400E+00  3.91914E-01  5.53787E+00 -8.88363E-02  1.15754E+00  6.06440E+00  1.33336E+00
   2.18905E+00  3.83436E+00  3.82078E+00  9.13099E-02  6.61764E+00  3.32974E+00  3.06424E+00  7.88124E+00  5.26950E+00  6.63566E+00
   4.97711E+00  7.00711E+00  8.30230E+00  9.06081E+00  6.83480E+00  1.16633E+01  9.21702E+00  1.10737E+01  1.06041E+01  9.68867E+00
   1.24144E+01  9.33480E+00  4.46779E+00  3.41679E+00  4.60788E+00  4.27469E+00  2.36091E+00  3.97038E+00  1.57779E-02 -6.05162E-01
   2.46421E+00  2.95144E+00  5.67195E-01  4.95096E+00  3.39445E+00  4.73169E+00  8.15151E+00  7.61151E+00  4.50608E+00  1.22318E+01
   1.41524E+01  1.48235E+01  1.07204E+01  1.54484E+01  1.48819E+01  1.94320E+01  1.93059E+01  1.32892E+01  1.34808E+01  1.18969E+01
   9.38362E+00  1.07787E+01  5.55625E+00  6.01968E+00  9.46941E+00  3.51254E+00  4.94111E+00  5.02869E+00  4.25920E+00  4.90337E+00
   5.17655E+00  6.71583E+00  3.20907E+00  3.93829E+00  5.44114E+00  2.18228E+00  2.62392E+00  1.53187E+00  5.87704E+00  3.75194E+00
   5.25559E+00 -2.39932E-01  3.45096E+00  9.30252E-01  3.40543E+00  2.76072E+00  3.45386E-01 -2.12914E+00  9.24175E-01  2.78934E+00
   6.54093E-01 -4.94848E+00  1.33886E+00  1.16275E+00  2.26073E+00 -1.37377E+00  2.89784E-01  3.02880E+00 -2.64810E+00  5.92692E-01
   2.29635E+00  4.87428E+00  6.54719E+00  3.58586E+00  6.81085E+00  5.91410E+00  8.71370E+00  1.02803E+01  7.29811E+00  8.15603E+00
   6.23205E+00  5.94905E+00  5.24383E+00  5.62871E+00  7.27100E+00  8.57748E+00  1.13637E+01  8.46590E+00  1.26529E+00  6.85906E+00
   8.10632E+00  4.52179E+00  3.82404E+00  2.74213E+00  9.07836E+00  3.09961E+00  3.58863E+00 -2.44330E-02 -1.55398E-01  5.03203E+00
   2.42664E+00  2.47630E-02 -1.21268E+00 -2.65353E-01  7.82080E-01 -4.08364E+00  1.92101E+00 -4.02722E+00 -2.19635E+00 -2.52045E+00
  -2.25063E+00 -4.95270E+00 -5.20121E-01  1.53850E-01  7.96641E-01 -3.11862E+00  1.47839E-01 -1.31622E+00 -2.22203E+00  2.29714E+00
  -3.20515E-01 -2.67145E+00 -2.32429E+00 -2.97403E+00 -4.35925E+00 -2.75175E+00 -1.15089E+00 -4.15634E-01  8.49474E-01 -3.88916E+00
  -2.91874E+00  1.87586E-01 -3.09434E+00 -4.30253E+00 -2.33736E+00  1.85347E-01  9.42583E-01  3.35607E-01 -2.40478E-01 -1.82646E+00
  -1.76014E+00 -3.39208E+00  6.32503E-01 -4.13213E-01 -9.36574E-01 -3.47521E+00 -2.48166E+00 -1.61170E-01 -7.48605E-01 -3.51040E+00
   1.89705E+00 -7.96000E-01 -4.82683E+00 -2.98918E+00  1.24571E+00  1.27486E+00 -1.48385E+00  3.26694E+00 -2.40319E+00 -8.74979E-01
  -2.14471E+00 -2.10350E+00 -1.20704E+00  2.62996E-02  3.49648E+00 -1.23268E+00 -1.33612E+00  5.77432E-01 -1.83856E+00 -3.48083E+00
  -1.32161E+00 -2.41686E+00 -3.64512E-01  1.19400E+00 -3.95318E+00 -2.97721E+00  1.53330E+00 -4.59310E+00
 NY points of the fit to the data follow
   5.93820E+00  5.86508E+00  6.11449E+00  6.93389E+00  7.82579E+00  8.85618E+00  1.21916E+01  1.58822E+01  1.70008E+01  1.82037E+01
   2.07635E+01  2.27562E+01  2.26809E+01  1.94531E+01  1.52274E+01  1.24400E+01  1.03326E+01  8.51142E+00  7.59258E+00  7.26885E+00
   7.23948E+00  7.12485E+00  6.97782E+00  6.82061E+00  7.18643E+00  7.26586E+00  6.30234E+00  6.86443E+00  9.00462E+00  1.11385E+01
   1.26752E+01  1.32422E+01  1.35829E+01  1.35166E+01  1.19626E+01  9.75038E+00  7.62626E+00  5.99494E+00  5.14937E+00  4.72017E+00
   5.17191E+00  6.41973E+00  7.39480E+00  7.99554E+00  9.22268E+00  1.18475E+01  1.48243E+01  1.61216E+01  1.48948E+01  1.20899E+01
   9.15904E+00  6.78504E+00  5.11505E+00  4.38135E+00  4.49554E+00  4.73511E+00  5.03655E+00  5.71746E+00  6.70974E+00  7.70201E+00
   8.02582E+00  7.37291E+00  6.16606E+00  4.80049E+00  3.81129E+00  3.42049E+00  3.64381E+00  4.21190E+00  4.66577E+00  5.15028E+00
   5.75037E+00  6.14213E+00  6.21026E+00  6.08025E+00  5.87583E+00  5.67411E+00  5.35689E+00  4.90947E+00  4.49374E+00  4.21224E+00
   4.08286E+00  4.10522E+00  4.14677E+00  4.15699E+00  4.46936E+00  4.61943E+00  4.05554E+00  2.97889E+00  1.95632E+00  1.56496E+00
   1.86737E+00  2.48294E+00  3.06012E+00  3.64039E+00  4.16024E+00  4.45831E+00  4.82841E+00  6.32167E+00  9.38074E+00  1.15681E+01
   2.27275E+01  4.32899E+01  5.97617E+01  6.32235E+01  5.29458E+01  3.64034E+01  2.31458E+01  1.37477E+01  7.00055E+00  4.28299E+00
   3.59685E+00  3.30875E+00  3.18059E+00  3.10625E+00  3.06778E+00  3.05915E+00  3.08010E+00  3.09335E+00  3.12292E+00  3.25227E+00
   3.64646E+00  4.96722E+00  7.30489E+00  9.87389E+00  1.69650E+01  3.09656E+01  4.48269E+01  5.03634E+01  4.53125E+01  3.37505E+01
   2.26923E+01  1.49988E+01  9.56306E+00  6.10807E+00  4.12569E+00  2.54009E+00  1.55665E+00  1.34109E+00  1.72409E+00  2.61645E+00
   3.52006E+00  3.95088E+00  3.90465E+00  3.51773E+00  3.02663E+00  2.61561E+00  2.31543E+00  2.12660E+00  1.96647E+00  1.76238E+00
   1.58952E+00  1.24103E+00  7.10908E-01  3.26402E-01  2.53101E-01  5.82505E-01  1.10898E+00  1.62692E+00  1.36226E+00  9.44183E-02
  -1.30471E+00 -2.23603E+00 -1.78154E+00 -3.76407E-01  3.99157E-01  1.57572E-01 -7.86241E-01 -2.21023E+00 -3.12942E+00 -3.31254E+00
  -3.08459E+00 -2.61063E+00 -2.52962E+00 -3.21291E+00 -4.64894E+00 -5.55492E+00 -5.26250E+00 -3.91295E+00 -2.71923E+00 -2.95279E+00
  -3.94371E+00 -4.21689E+00 -3.68649E+00 -2.59628E+00 -2.03560E+00 -2.35067E+00 -2.05608E+00 -6.82108E-01  1.32953E+00  3.60429E+00
   5.08336E+00  5.25479E+00  4.50950E+00  3.03751E+00  1.95288E+00  1.25816E+00  7.46524E-01  7.11545E-01  1.19611E+00  1.98068E+00
   2.62404E+00  3.51382E+00  4.74317E+00  5.80439E+00  6.11347E+00  4.96140E+00  3.01329E+00  5.27441E-01 -2.23633E+00 -3.77576E+00
  -4.22897E+00 -3.77988E+00 -2.40110E+00  5.45169E-01  5.45248E+00  9.70859E+00  1.07226E+01  8.48205E+00  4.58821E+00  4.90936E-01
  -3.96425E+00 -8.25667E+00 -9.57204E+00 -7.21519E+00 -2.74364E+00  1.72463E+00  4.79186E+00  6.64496E+00  7.33080E+00  6.56574E+00
   5.12047E+00  4.15114E+00  4.28900E+00  5.16459E+00  6.18590E+00  7.13479E+00  7.65988E+00  7.60196E+00  6.76401E+00  5.48599E+00
   3.99882E+00  2.78305E+00  2.64858E+00  4.07765E+00  6.32207E+00  8.33414E+00  9.60124E+00  1.01256E+01  1.00625E+01  9.76663E+00
   1.07783E+01  1.20742E+01  1.54288E+01  2.69486E+01  4.13630E+01  5.30209E+01  5.29429E+01  4.83303E+01  6.58144E+01  9.25688E+01
   1.04264E+02  9.44197E+01  6.89388E+01  4.38323E+01  2.76768E+01  1.49953E+01  7.54171E+00  5.91893E+00  5.12832E+00  4.54795E+00
   4.15280E+00  3.94297E+00  3.96823E+00  4.07439E+00  3.95081E+00  3.50490E+00  2.91391E+00  2.45619E+00  2.14695E+00  1.84172E+00
   1.68361E+00  1.71403E+00  1.79691E+00  1.82017E+00  1.72511E+00  1.54830E+00  1.39103E+00  1.18843E+00  9.77945E-01  9.20099E-01
   1.03440E+00  1.26349E+00  1.52031E+00  1.71966E+00  1.89450E+00  2.07149E+00  2.19398E+00  2.32285E+00  2.53867E+00  2.86326E+00
   3.29052E+00  3.77162E+00  4.26902E+00  4.77602E+00  5.27036E+00  5.73214E+00  6.16292E+00  6.55262E+00  6.89297E+00  7.17530E+00
   7.39171E+00  7.53058E+00  7.58753E+00  7.56233E+00  7.46246E+00  7.29599E+00  7.07398E+00  6.80804E+00  6.51724E+00  6.22275E+00
   5.95315E+00  5.74728E+00  5.64998E+00  5.53039E+00  5.67496E+00  6.17006E+00  6.21314E+00  5.49240E+00  4.33983E+00  3.29127E+00
   2.93046E+00  3.02225E+00  3.18886E+00  4.20507E+00  6.08212E+00  8.10446E+00  9.73615E+00  1.06567E+01  1.10942E+01  1.14392E+01
   1.16948E+01  1.19349E+01  1.23155E+01  1.26325E+01  1.29809E+01  1.36279E+01  1.37998E+01  1.30007E+01  1.14799E+01  9.76240E+00
   8.51999E+00  7.58443E+00  6.75236E+00  6.73497E+00  7.43441E+00  8.11698E+00  8.31099E+00  7.82993E+00  7.01404E+00  6.19918E+00
   5.37254E+00  4.63602E+00  4.07423E+00  3.60743E+00  3.20729E+00  2.86065E+00  2.55974E+00  2.29644E+00  2.06655E+00  1.86552E+00
   1.69172E+00  1.54150E+00  1.41329E+00  1.30431E+00  1.21522E+00  1.14575E+00  1.09784E+00  1.07110E+00  1.06719E+00  1.08663E+00
   1.13290E+00  1.20783E+00  1.31469E+00  1.45408E+00  1.62847E+00  1.83874E+00  2.08775E+00  2.37549E+00  2.70227E+00  3.06498E+00
   3.46153E+00  3.88713E+00  4.33761E+00  4.80477E+00  5.28017E+00  5.75210E+00  6.21030E+00  6.64248E+00  7.03791E+00  7.38364E+00
   7.66912E+00  7.88360E+00  8.02084E+00  8.07531E+00  8.04564E+00  7.93071E+00  7.73391E+00  7.45985E+00  7.11782E+00  6.71702E+00
   6.26924E+00  5.78469E+00  5.27578E+00  4.75333E+00  4.22957E+00  3.71336E+00  3.21344E+00  2.73494E+00  2.28367E+00  1.86258E+00
   1.47511E+00  1.12109E+00  8.00681E-01  5.11457E-01  2.52762E-01  2.20608E-02 -1.81841E-01 -3.62626E-01 -5.22402E-01 -6.64649E-01
  -7.90345E-01 -9.01964E-01 -1.00039E+00 -1.08861E+00 -1.16760E+00 -1.23943E+00 -1.30381E+00 -1.36221E+00 -1.41471E+00 -1.46338E+00
  -1.50813E+00 -1.55003E+00 -1.58815E+00 -1.62359E+00 -1.65616E+00 -1.68743E+00 -1.71676E+00 -1.74478E+00 -1.77043E+00 -1.79483E+00
  -1.81772E+00 -1.84035E+00 -1.86173E+00 -1.88236E+00 -1.90127E+00 -1.91969E+00 -1.93727E+00 -1.95500E+00 -1.97171E+00 -1.98789E+00
  -2.00280E+00 -2.01773E+00 -2.03219E+00 -2.04690E+00 -2.06060E+00 -2.07393E+00 -2.08633E+00 -2.09910E+00 -2.11154E+00 -2.12419E+00
  -2.13581E+00 -2.14725E+00 -2.15806E+00 -2.16943E+00 -2.18046E+00 -2.19156E+00 -2.20167E+00 -2.21180E+00 -2.22155E+00 -2.23194E+00
  -2.24190E+00 -2.25183E+00 -2.26084E+00 -2.27009E+00 -2.27915E+00 -2.28880E+00 -2.29786E+00 -2.30683E+00 -2.31503E+00 -2.32368E+00
  -2.33221E+00 -2.34121E+00 -2.34947E+00 -2.35765E+00 -2.36524E+00 -2.37342E+00 -2.38145E+00 -2.38977E+00
 NY background values follow
     3.608E+00    3.588E+00    3.568E+00    3.548E+00    3.527E+00    3.507E+00    3.487E+00    3.467E+00    3.447E+00    3.427E+00
     3.407E+00    3.387E+00    3.366E+00    3.346E+00    3.326E+00    3.306E+00    3.286E+00    3.266E+00    3.246E+00    3.226E+00
     3.205E+00    3.185E+00    3.165E+00    3.145E+00    3.125E+00    3.105E+00    3.085E+00    3.065E+00    3.044E+00    3.024E+00
     3.004E+00    2.984E+00    2.964E+00    2.944E+00    2.924E+00    2.904E+00    2.884E+00    2.864E+00    2.844E+00    2.823E+00
     2.803E+00    2.783E+00    2.763E+00    2.743E+00    2.723E+00    2.703E+00    2.683E+00    2.663E+00    2.643E+00    2.623E+00
     2.603E+00    2.583E+00    2.563E+00    2.543E+00    2.523E+00    2.503E+00    2.483E+00    2.463E+00    2.443E+00    2.423E+00
     2.403E+00    2.383E+00    2.363E+00    2.343E+00    2.323E+00    2.303E+00    2.283E+00    2.263E+00    2.243E+00    2.223E+00
     2.204E+00    2.184E+00    2.164E+00    2.144E+00    2.124E+00    2.104E+00    2.085E+00    2.065E+00    2.045E+00    2.025E+00
     2.006E+00    1.986E+00    1.966E+00    1.947E+00    1.927E+00    1.907E+00    1.888E+00    1.868E+00    1.848E+00    1.829E+00
     1.809E+00    1.790E+00    1.770E+00    1.751E+00    1.731E+00    1.712E+00    1.692E+00    1.673E+00    1.654E+00    1.634E+00
     1.615E+00    1.596E+00    1.576E+00    1.557E+00    1.538E+00    1.518E+00    1.499E+00    1.480E+00    1.461E+00    1.442E+00
     1.423E+00    1.404E+00    1.385E+00    1.366E+00    1.347E+00    1.328E+00    1.309E+00    1.290E+00    1.271E+00    1.252E+00
     1.233E+00    1.215E+00    1.196E+00    1.177E+00    1.158E+00    1.140E+00    1.121E+00    1.103E+00    1.084E+00    1.065E+00
     1.047E+00    1.029E+00    1.010E+00    9.918E-01    9.734E-01    9.551E-01    9.369E-01    9.186E-01    9.004E-01    8.823E-01
     8.642E-01    8.461E-01    8.281E-01    8.101E-01    7.921E-01    7.742E-01    7.564E-01    7.386E-01    7.208E-01    7.031E-01
     6.854E-01    6.678E-01    6.502E-01    6.327E-01    6.152E-01    5.978E-01    5.804E-01    5.631E-01    5.458E-01    5.286E-01
     5.115E-01    4.944E-01    4.773E-01    4.603E-01    4.434E-01    4.266E-01    4.098E-01    3.930E-01    3.763E-01    3.597E-01
     3.432E-01    3.267E-01    3.103E-01    2.939E-01    2.776E-01    2.614E-01    2.452E-01    2.292E-01    2.131E-01    1.972E-01
     1.813E-01    1.655E-01    1.498E-01    1.341E-01    1.186E-01    1.030E-01    8.761E-02    7.224E-02    5.695E-02    4.172E-02
     2.656E-02    1.148E-02   -3.542E-03   -1.849E-02   -3.337E-02   -4.818E-02   -6.292E-02   -7.760E-02   -9.220E-02   -1.067E-01
    -1.212E-01   -1.356E-01   -1.500E-01   -1.642E-01   -1.785E-01   -1.926E-01   -2.067E-01   -2.207E-01   -2.346E-01   -2.485E-01
    -2.624E-01   -2.761E-01   -2.898E-01   -3.034E-01   -3.170E-01   -3.305E-01   -3.440E-01   -3.574E-01   -3.707E-01   -3.840E-01
    -3.972E-01   -4.103E-01   -4.234E-01   -4.364E-01   -4.494E-01   -4.623E-01   -4.752E-01   -4.880E-01   -5.007E-01   -5.134E-01
    -5.260E-01   -5.386E-01   -5.511E-01   -5.636E-01   -5.760E-01   -5.883E-01   -6.006E-01   -6.128E-01   -6.250E-01   -6.371E-01
    -6.492E-01   -6.612E-01   -6.732E-01   -6.851E-01   -6.970E-01   -7.088E-01   -7.205E-01   -7.322E-01   -7.439E-01   -7.555E-01
    -7.670E-01   -7.785E-01   -7.900E-01   -8.014E-01   -8.127E-01   -8.240E-01   -8.352E-01   -8.464E-01   -8.576E-01   -8.687E-01
    -8.797E-01   -8.907E-01   -9.017E-01   -9.126E-01   -9.235E-01   -9.343E-01   -9.450E-01   -9.558E-01   -9.664E-01   -9.771E-01
    -9.876E-01   -9.982E-01   -1.009E+00   -1.019E+00   -1.030E+00   -1.040E+00   -1.050E+00   -1.060E+00   -1.071E+00   -1.081E+00
    -1.091E+00   -1.101E+00   -1.111E+00   -1.121E+00   -1.131E+00   -1.141E+00   -1.151E+00   -1.161E+00   -1.171E+00   -1.180E+00
    -1.190E+00   -1.200E+00   -1.209E+00   -1.219E+00   -1.229E+00   -1.238E+00   -1.248E+00   -1.257E+00   -1.266E+00   -1.276E+00
    -1.285E+00   -1.294E+00   -1.304E+00   -1.313E+00   -1.322E+00   -1.331E+00   -1.340E+00   -1.349E+00   -1.358E+00   -1.367E+00
    -1.376E+00   -1.385E+00   -1.394E+00   -1.403E+00   -1.412E+00   -1.420E+00   -1.429E+00   -1.438E+00   -1.447E+00   -1.455E+00
    -1.464E+00   -1.472E+00   -1.481E+00   -1.489E+00   -1.498E+00   -1.506E+00   -1.515E+00   -1.523E+00   -1.531E+00   -1.540E+00
    -1.548E+00   -1.556E+00   -1.564E+00   -1.572E+00   -1.581E+00   -1.589E+00   -1.597E+00   -1.605E+00   -1.613E+00   -1.621E+00
    -1.629E+00   -1.637E+00   -1.644E+00   -1.652E+00   -1.660E+00   -1.668E+00   -1.676E+00   -1.683E+00   -1.691E+00   -1.699E+00
    -1.706E+00   -1.714E+00   -1.721E+00   -1.729E+00   -1.736E+00   -1.744E+00   -1.751E+00   -1.759E+00   -1.766E+00   -1.773E+00
    -1.781E+00   -1.788E+00   -1.795E+00   -1.803E+00   -1.810E+00   -1.817E+00   -1.824E+00   -1.831E+00   -1.838E+00   -1.845E+00
    -1.853E+00   -1.860E+00   -1.867E+00   -1.873E+00   -1.880E+00   -1.887E+00   -1.894E+00   -1.901E+00   -1.908E+00   -1.915E+00
    -1.921E+00   -1.928E+00   -1.935E+00   -1.942E+00   -1.948E+00   -1.955E+00   -1.962E+00   -1.968E+00   -1.975E+00   -1.981E+00
    -1.988E+00   -1.994E+00   -2.001E+00   -2.007E+00   -2.014E+00   -2.020E+00   -2.026E+00   -2.033E+00   -2.039E+00   -2.045E+00
    -2.052E+00   -2.058E+00   -2.064E+00   -2.070E+00   -2.077E+00   -2.083E+00   -2.089E+00   -2.095E+00   -2.101E+00   -2.107E+00
    -2.113E+00   -2.119E+00   -2.125E+00   -2.131E+00   -2.137E+00   -2.143E+00   -2.149E+00   -2.155E+00   -2.161E+00   -2.167E+00
    -2.173E+00   -2.179E+00   -2.185E+00   -2.190E+00   -2.196E+00   -2.202E+00   -2.208E+00   -2.214E+00   -2.219E+00   -2.225E+00
    -2.231E+00   -2.236E+00   -2.242E+00   -2.248E+00   -2.253E+00   -2.259E+00   -2.265E+00   -2.270E+00   -2.276E+00   -2.281E+00
    -2.287E+00   -2.293E+00   -2.298E+00   -2.304E+00   -2.309E+00   -2.315E+00   -2.320E+00   -2.326E+00   -2.331E+00   -2.337E+00
    -2.342E+00   -2.348E+00   -2.353E+00   -2.358E+00   -2.364E+00   -2.369E+00   -2.375E+00   -2.380E+00   -2.386E+00   -2.391E+00
    -2.396E+00   -2.402E+00   -2.407E+00   -2.413E+00   -2.418E+00   -2.423E+00   -2.429E+00   -2.434E+00   -2.439E+00   -2.445E+00
    -2.450E+00   -2.455E+00   -2.461E+00   -2.466E+00   -2.471E+00   -2.477E+00   -2.482E+00   -2.487E+00   -2.493E+00   -2.498E+00
    -2.503E+00   -2.509E+00   -2.514E+00   -2.519E+00   -2.525E+00   -2.530E+00   -2.535E+00   -2.540E+00   -2.546E+00   -2.551E+00
    -2.556E+00   -2.562E+00   -2.567E+00   -2.572E+00   -2.578E+00   -2.583E+00   -2.588E+00   -2.594E+00
 Ala      Conc. = 1.29E+02
