 LCModel (Version 6.3-1L) Copyright: S.W. Provencher.          Ref.: Magn. Reson. Med. 30:672-679 (1993).                
 Slice#2 Row#12 Col#13  K_02_press_1_raw_act
 36 lines in following concentration table = NCONC+1
    Conc.  %SD /Cr+PCr  Metabolite                                         
    0.000 999%   0.000 Ala                                                 
    3.272 171%   0.313 Asp                                                 
   10.459 158%   1.000 Cr                                                  
    0.000 999%   0.000 PCr                                                 
    1.886 177%   0.180 GABA                                                
    1.858 181%   0.178 Glc                                                 
    0.000 999%   0.000 Gln                                                 
  262.213  38%  25.070 Glu                                                 
    0.000 999%   0.000 GPC                                                 
    0.000 999%   0.000 PCh                                                 
    6.794 387%   0.650 GSH                                                 
   74.761 110%   7.148 Ins                                                 
    0.000 999%   0.000 Lac                                                 
   54.456  39%   5.207 NAA                                                 
    0.000 999%   0.000 NAAG                                                
    0.482 231% 4.6E-02 Scyllo                                              
    2.679 209%   0.256 Tau                                                 
    0.000 999%   0.000 -CrCH2                                              
    0.000 999%   0.000 GPC+PCh                                             
   54.456  39%   5.207 NAA+NAAG                                            
   10.459 158%   1.000 Cr+PCr                                              
  262.213  38%  25.070 Glu+Gln                                             
 1.18E+04  18% 1.1E+03 Lip13a                                              
  375.491  36%  35.901 Lip13b                                              
 4.05E+03  20% 387.578 Lip09                                               
 4.59E+03  20% 438.443 MM09                                                
    0.000 999%   0.000 Lip20                                               
    0.000 999%   0.000 MM20                                                
 1.00E+03  88%  95.803 MM12                                                
 5.11E+03  15% 488.955 MM14                                                
 2.52E+03  19% 241.127 MM17                                                
 1.22E+04  17% 1.2E+03 Lip13a+Lip13b                                       
 1.83E+04   8% 1.8E+03 MM14+Lip13a+Lip13b+MM12                             
 8.64E+03  11% 826.021 MM09+Lip09                                          
    0.000 999%   0.000 MM20+Lip20                                          
   6 lines in following misc. output table
  FWHM = 0.054 ppm    S/N =  23                                            
  Data shift =-0.023 ppm                                                   
  Ph:  66 deg      10.8 deg/ppm                                            
  alphaB,S = 8.5E+01,   3.9E+01                                            
   14 spline knots.   Ns = 5(1)                                            
  ( 5) 2 infls.   ( 3) 1 extrs.                                            
  498 points on ppm-axis = NY
      4.000000     3.992357     3.984714     3.977070     3.969427     3.961784     3.954141     3.946497     3.938854     3.931211
      3.923568     3.915925     3.908281     3.900638     3.892995     3.885352     3.877708     3.870065     3.862422     3.854779
      3.847136     3.839492     3.831849     3.824206     3.816563     3.808919     3.801276     3.793633     3.785990     3.778347
      3.770703     3.763060     3.755417     3.747774     3.740130     3.732487     3.724844     3.717201     3.709558     3.701914
      3.694271     3.686628     3.678985     3.671341     3.663698     3.656055     3.648412     3.640769     3.633125     3.625482
      3.617839     3.610196     3.602552     3.594909     3.587266     3.579623     3.571980     3.564336     3.556693     3.549050
      3.541407     3.533763     3.526120     3.518477     3.510834     3.503191     3.495547     3.487904     3.480261     3.472618
      3.464974     3.457331     3.449688     3.442045     3.434402     3.426758     3.419115     3.411472     3.403829     3.396185
      3.388542     3.380899     3.373256     3.365613     3.357969     3.350326     3.342683     3.335040     3.327396     3.319753
      3.312110     3.304467     3.296824     3.289180     3.281537     3.273894     3.266251     3.258607     3.250964     3.243321
      3.235678     3.228034     3.220391     3.212748     3.205105     3.197462     3.189818     3.182175     3.174532     3.166889
      3.159245     3.151602     3.143959     3.136316     3.128673     3.121029     3.113386     3.105743     3.098100     3.090456
      3.082813     3.075170     3.067527     3.059884     3.052240     3.044597     3.036954     3.029311     3.021667     3.014024
      3.006381     2.998738     2.991095     2.983451     2.975808     2.968165     2.960522     2.952878     2.945235     2.937592
      2.929949     2.922306     2.914662     2.907019     2.899376     2.891733     2.884089     2.876446     2.868803     2.861160
      2.853517     2.845873     2.838230     2.830587     2.822944     2.815300     2.807657     2.800014     2.792371     2.784728
      2.777084     2.769441     2.761798     2.754155     2.746511     2.738868     2.731225     2.723582     2.715939     2.708295
      2.700652     2.693009     2.685366     2.677722     2.670079     2.662436     2.654793     2.647150     2.639506     2.631863
      2.624220     2.616577     2.608933     2.601290     2.593647     2.586004     2.578361     2.570717     2.563074     2.555431
      2.547788     2.540144     2.532501     2.524858     2.517215     2.509572     2.501928     2.494285     2.486642     2.478999
      2.471355     2.463712     2.456069     2.448426     2.440783     2.433139     2.425496     2.417853     2.410210     2.402566
      2.394923     2.387280     2.379637     2.371994     2.364350     2.356707     2.349064     2.341421     2.333777     2.326134
      2.318491     2.310848     2.303205     2.295561     2.287918     2.280275     2.272632     2.264988     2.257345     2.249702
      2.242059     2.234416     2.226772     2.219129     2.211486     2.203843     2.196199     2.188556     2.180913     2.173270
      2.165627     2.157983     2.150340     2.142697     2.135054     2.127410     2.119767     2.112124     2.104481     2.096838
      2.089194     2.081551     2.073908     2.066265     2.058621     2.050978     2.043335     2.035692     2.028049     2.020405
      2.012762     2.005119     1.997476     1.989833     1.982190     1.974546     1.966903     1.959260     1.951617     1.943974
      1.936331     1.928688     1.921045     1.913402     1.905759     1.898115     1.890472     1.882829     1.875186     1.867543
      1.859900     1.852257     1.844614     1.836971     1.829327     1.821684     1.814041     1.806398     1.798755     1.791112
      1.783469     1.775826     1.768183     1.760540     1.752896     1.745253     1.737610     1.729967     1.722324     1.714681
      1.707038     1.699395     1.691752     1.684108     1.676465     1.668822     1.661179     1.653536     1.645893     1.638250
      1.630607     1.622964     1.615321     1.607677     1.600034     1.592391     1.584748     1.577105     1.569462     1.561819
      1.554176     1.546533     1.538890     1.531246     1.523603     1.515960     1.508317     1.500674     1.493031     1.485388
      1.477745     1.470102     1.462458     1.454815     1.447172     1.439529     1.431886     1.424243     1.416600     1.408957
      1.401314     1.393671     1.386027     1.378384     1.370741     1.363098     1.355455     1.347812     1.340169     1.332526
      1.324883     1.317240     1.309596     1.301953     1.294310     1.286667     1.279024     1.271381     1.263738     1.256095
      1.248452     1.240808     1.233165     1.225522     1.217879     1.210236     1.202593     1.194950     1.187307     1.179664
      1.172021     1.164377     1.156734     1.149091     1.141448     1.133805     1.126162     1.118519     1.110876     1.103233
      1.095590     1.087946     1.080303     1.072660     1.065017     1.057374     1.049731     1.042088     1.034445     1.026802
      1.019158     1.011515     1.003872     0.996229     0.988586     0.980943     0.973300     0.965657     0.958014     0.950371
      0.942727     0.935084     0.927441     0.919798     0.912155     0.904512     0.896869     0.889226     0.881583     0.873940
      0.866296     0.858653     0.851010     0.843367     0.835724     0.828081     0.820438     0.812795     0.805152     0.797508
      0.789865     0.782222     0.774579     0.766936     0.759293     0.751650     0.744007     0.736364     0.728721     0.721077
      0.713434     0.705791     0.698148     0.690505     0.682862     0.675219     0.667576     0.659933     0.652290     0.644646
      0.637003     0.629360     0.621717     0.614074     0.606431     0.598788     0.591145     0.583502     0.575858     0.568215
      0.560572     0.552929     0.545286     0.537643     0.530000     0.522357     0.514714     0.507071     0.499427     0.491784
      0.484141     0.476498     0.468855     0.461212     0.453569     0.445925     0.438282     0.430639     0.422996     0.415353
      0.407710     0.400067     0.392424     0.384780     0.377137     0.369494     0.361851     0.354208     0.346565     0.338922
      0.331278     0.323635     0.315992     0.308349     0.300706     0.293063     0.285420     0.277777     0.270133     0.262490
      0.254847     0.247204     0.239561     0.231918     0.224275     0.216631     0.208988     0.201345
 NY phased data points follow
   1.01206E+01  1.22641E+01  9.30798E+00  1.15428E+01  8.72332E+00  1.00965E+01  1.16529E+01  9.62824E+00  9.23176E+00  1.02079E+01
   1.12477E+01  1.06739E+01  1.13242E+01  9.53408E+00  1.10573E+01  1.27400E+01  9.34435E+00  1.03871E+01  1.01695E+01  8.85568E+00
   7.61673E+00  7.96762E+00  9.35096E+00  9.39717E+00  9.77637E+00  7.13746E+00  8.06382E+00  1.10408E+01  7.97500E+00  7.33553E+00
   8.00031E+00  9.38096E+00  1.02162E+01  1.01689E+01  9.27387E+00  7.09256E+00  1.00256E+01  7.98925E+00  8.78008E+00  7.30050E+00
   9.74793E+00  6.20806E+00  9.15703E+00  9.31154E+00  9.29235E+00  9.38270E+00  8.71286E+00  8.89587E+00  7.80223E+00  8.97273E+00
   8.66251E+00  9.21494E+00  8.86235E+00  9.44489E+00  8.93535E+00  7.88602E+00  1.02077E+01  7.85863E+00  7.02317E+00  9.32186E+00
   8.08577E+00  8.42982E+00  9.33753E+00  8.56740E+00  8.76516E+00  9.09941E+00  7.76328E+00  9.75215E+00  8.71646E+00  8.62996E+00
   8.45993E+00  1.10843E+01  5.79194E+00  8.02710E+00  6.14132E+00  9.44025E+00  8.07101E+00  9.08897E+00  7.07752E+00  7.85696E+00
   8.06332E+00  6.58641E+00  7.27422E+00  7.22191E+00  8.33804E+00  7.33493E+00  7.43675E+00  6.66612E+00  7.65829E+00  7.92538E+00
   6.59344E+00  7.91435E+00  7.41188E+00  7.40968E+00  8.94915E+00  8.39037E+00  9.10565E+00  8.89118E+00  8.44294E+00  7.56952E+00
   6.80858E+00  6.21864E+00  7.98906E+00  7.97051E+00  6.87174E+00  7.02533E+00  5.75411E+00  8.12975E+00  8.89105E+00  8.69790E+00
   7.18789E+00  6.64339E+00  6.87465E+00  7.35611E+00  7.71987E+00  8.24784E+00  8.54198E+00  7.37172E+00  6.76305E+00  7.71581E+00
   7.38442E+00  7.71986E+00  8.92156E+00  9.92762E+00  9.03376E+00  6.67047E+00  8.04059E+00  5.39624E+00  8.81983E+00  7.11934E+00
   8.43357E+00  8.42639E+00  9.12068E+00  8.11905E+00  7.82545E+00  8.29014E+00  8.86950E+00  6.34851E+00  8.29895E+00  7.16424E+00
   6.84005E+00  9.77206E+00  8.08650E+00  6.06120E+00  1.07242E+01  8.70765E+00  7.78306E+00  9.76310E+00  7.78842E+00  7.23169E+00
   1.05513E+01  8.19965E+00  8.27807E+00  8.87310E+00  8.14173E+00  7.25573E+00  7.97314E+00  9.31256E+00  8.95680E+00  8.93913E+00
   6.32383E+00  7.98357E+00  8.66323E+00  1.01619E+01  7.10472E+00  9.95981E+00  7.37024E+00  9.24282E+00  8.10456E+00  9.24807E+00
   7.49347E+00  9.35776E+00  7.95958E+00  9.54491E+00  9.56558E+00  9.07929E+00  8.63296E+00  8.14052E+00  9.24334E+00  9.69986E+00
   9.71978E+00  8.61731E+00  8.05912E+00  8.72524E+00  7.78076E+00  8.46067E+00  9.34277E+00  9.37373E+00  1.07664E+01  8.46094E+00
   1.03998E+01  8.34838E+00  8.89689E+00  9.88126E+00  1.01845E+01  1.10671E+01  1.03453E+01  9.10118E+00  8.29706E+00  8.63321E+00
   1.12074E+01  9.02539E+00  8.30895E+00  8.88398E+00  1.00473E+01  7.11598E+00  1.01244E+01  7.93408E+00  1.03815E+01  1.13065E+01
   8.32012E+00  9.72240E+00  1.11567E+01  9.59254E+00  9.24991E+00  8.92835E+00  1.12049E+01  8.37218E+00  1.19976E+01  9.05267E+00
   1.02885E+01  6.79007E+00  1.00439E+01  6.35969E+00  8.20377E+00  8.39413E+00  9.30023E+00  9.50867E+00  8.87192E+00  1.01272E+01
   9.76949E+00  1.21903E+01  9.27580E+00  1.15235E+01  8.56008E+00  9.93557E+00  1.09631E+01  9.71675E+00  1.06727E+01  1.10847E+01
   1.04857E+01  9.37572E+00  1.11596E+01  1.06804E+01  1.18971E+01  1.17113E+01  9.98417E+00  1.26421E+01  1.10049E+01  1.24963E+01
   1.11795E+01  1.11118E+01  1.18095E+01  1.25972E+01  1.03506E+01  1.48594E+01  1.24337E+01  1.30888E+01  1.45609E+01  1.38162E+01
   1.45988E+01  1.48599E+01  1.43337E+01  1.44666E+01  1.67694E+01  1.79792E+01  1.69978E+01  1.20468E+01  1.39586E+01  1.20580E+01
   1.51364E+01  1.47115E+01  1.52024E+01  1.71210E+01  1.69737E+01  1.78543E+01  1.69937E+01  1.91406E+01  1.79633E+01  1.76760E+01
   1.83270E+01  1.93175E+01  1.96830E+01  2.08472E+01  2.19579E+01  2.09223E+01  2.05063E+01  2.08195E+01  2.20254E+01  2.11345E+01
   2.13152E+01  2.24990E+01  2.29931E+01  2.25587E+01  2.12716E+01  2.48484E+01  2.32348E+01  2.34254E+01  2.62987E+01  2.56683E+01
   2.75648E+01  2.59830E+01  2.61294E+01  2.60411E+01  2.82004E+01  2.90312E+01  2.76195E+01  3.19750E+01  2.73887E+01  3.02511E+01
   3.12933E+01  3.11941E+01  3.13865E+01  3.47468E+01  3.46498E+01  3.35593E+01  3.47761E+01  3.69377E+01  3.83480E+01  3.83914E+01
   4.06863E+01  4.19950E+01  4.06467E+01  4.14550E+01  4.25162E+01  4.45054E+01  4.30068E+01  4.07820E+01  4.50472E+01  4.32058E+01
   4.15459E+01  4.22906E+01  4.12516E+01  4.27036E+01  3.91898E+01  3.89227E+01  3.64040E+01  3.74820E+01  3.60037E+01  3.51766E+01
   3.58110E+01  3.65630E+01  3.46718E+01  3.46688E+01  3.74788E+01  3.91173E+01  4.07707E+01  4.20414E+01  4.17895E+01  4.72408E+01
   4.79112E+01  4.86642E+01  5.33887E+01  5.37051E+01  5.63847E+01  5.60411E+01  5.62000E+01  5.91023E+01  6.15018E+01  6.31356E+01
   6.47544E+01  6.40348E+01  6.50854E+01  6.63672E+01  6.55810E+01  6.48101E+01  6.74531E+01  6.88277E+01  6.57640E+01  6.56051E+01
   6.32632E+01  6.21865E+01  6.36988E+01  6.13034E+01  5.79171E+01  5.59286E+01  5.37782E+01  5.56729E+01  5.29674E+01  4.97465E+01
   5.00040E+01  4.76291E+01  4.53933E+01  4.20405E+01  4.20761E+01  3.80964E+01  3.72645E+01  3.70866E+01  3.16553E+01  3.25351E+01
   3.02740E+01  2.75505E+01  2.72142E+01  2.48455E+01  2.26165E+01  2.30941E+01  2.09726E+01  2.05023E+01  1.82266E+01  1.66766E+01
   1.39110E+01  1.34711E+01  1.11977E+01  9.52290E+00  9.27875E+00  9.11228E+00  7.75324E+00  6.65353E+00  6.53541E+00  2.98167E+00
   3.08743E+00  2.83959E+00  3.50186E+00  2.78913E+00  5.89825E-01  3.05410E-01 -4.80782E-01  1.17441E-01 -1.86503E+00  6.17161E-02
  -9.09458E-01 -1.70832E+00 -2.35346E+00 -5.64860E+00 -3.44088E+00 -4.96013E+00 -4.26420E+00 -5.47385E+00 -4.13384E+00 -6.79241E+00
  -7.22455E+00 -9.77789E+00 -4.76536E+00 -7.10451E+00 -9.38653E+00 -5.99784E+00 -8.02234E+00 -7.16440E+00 -9.05335E+00 -7.75069E+00
  -9.18458E+00 -8.38940E+00 -1.04466E+01 -1.03124E+01 -1.03031E+01 -1.11318E+01 -1.06350E+01 -1.00395E+01 -1.15008E+01 -1.21376E+01
  -1.14326E+01 -9.79880E+00 -9.83477E+00 -1.18659E+01 -1.16016E+01 -1.13133E+01 -1.17524E+01 -1.11036E+01 -1.18604E+01 -9.44307E+00
  -1.22403E+01 -1.04948E+01 -1.04620E+01 -1.00682E+01 -1.16591E+01 -1.05182E+01 -1.16249E+01 -1.20656E+01 -1.16882E+01 -1.03631E+01
  -1.04357E+01 -1.13213E+01 -1.23450E+01 -1.01961E+01 -1.11581E+01 -1.20323E+01 -1.15541E+01 -1.32402E+01 -1.20723E+01 -1.16903E+01
  -9.93186E+00 -1.08558E+01 -1.10784E+01 -1.24720E+01 -1.20249E+01 -1.10167E+01 -1.15725E+01 -1.02462E+01 -1.24022E+01 -1.07828E+01
  -9.52772E+00 -1.11031E+01 -1.13162E+01 -7.82365E+00 -9.05519E+00 -1.34299E+01 -9.53169E+00 -7.66309E+00
 NY points of the fit to the data follow
   9.26786E+00  9.22555E+00  9.20017E+00  9.20007E+00  9.21029E+00  9.22739E+00  9.25720E+00  9.29286E+00  9.32310E+00  9.34470E+00
   9.35901E+00  9.36699E+00  9.36582E+00  9.34895E+00  9.30981E+00  9.24924E+00  9.18281E+00  9.13980E+00  9.14415E+00  9.17283E+00
   9.20355E+00  9.23762E+00  9.26642E+00  9.25960E+00  9.22301E+00  9.18109E+00  9.14342E+00  9.11970E+00  9.12157E+00  9.14712E+00
   9.18516E+00  9.23189E+00  9.31278E+00  9.42466E+00  9.48775E+00  9.41554E+00  9.24030E+00  9.00496E+00  8.74298E+00  8.55132E+00
   8.52210E+00  8.65909E+00  8.89569E+00  9.13179E+00  9.29912E+00  9.34331E+00  9.28132E+00  9.21129E+00  9.15277E+00  9.07369E+00
   8.95209E+00  8.78404E+00  8.59412E+00  8.44483E+00  8.40695E+00  8.47305E+00  8.57053E+00  8.65015E+00  8.70330E+00  8.73313E+00
   8.74112E+00  8.72907E+00  8.70025E+00  8.65563E+00  8.59551E+00  8.53234E+00  8.49533E+00  8.49672E+00  8.52592E+00  8.56595E+00
   8.59740E+00  8.61292E+00  8.60995E+00  8.59133E+00  8.56413E+00  8.53025E+00  8.49243E+00  8.45205E+00  8.41883E+00  8.39928E+00
   8.38311E+00  8.36495E+00  8.34157E+00  8.31227E+00  8.27843E+00  8.24453E+00  8.21376E+00  8.18742E+00  8.16850E+00  8.16200E+00
   8.17231E+00  8.20452E+00  8.25519E+00  8.30722E+00  8.33728E+00  8.33902E+00  8.31866E+00  8.28639E+00  8.24802E+00  8.20890E+00
   8.17628E+00  8.15689E+00  8.15296E+00  8.16654E+00  8.18803E+00  8.20896E+00  8.22806E+00  8.24501E+00  8.25939E+00  8.26885E+00
   8.27148E+00  8.26939E+00  8.26744E+00  8.26678E+00  8.26583E+00  8.26464E+00  8.26308E+00  8.26210E+00  8.26275E+00  8.26663E+00
   8.27617E+00  8.29730E+00  8.33974E+00  8.39206E+00  8.43899E+00  8.47591E+00  8.50318E+00  8.51952E+00  8.51953E+00  8.49246E+00
   8.42716E+00  8.32516E+00  8.20905E+00  8.12263E+00  8.10062E+00  8.10655E+00  8.11071E+00  8.11318E+00  8.11687E+00  8.12638E+00
   8.14521E+00  8.16924E+00  8.18900E+00  8.20069E+00  8.20333E+00  8.19848E+00  8.19152E+00  8.18612E+00  8.18397E+00  8.18459E+00
   8.18567E+00  8.18752E+00  8.19068E+00  8.19510E+00  8.19955E+00  8.20306E+00  8.20417E+00  8.20380E+00  8.20442E+00  8.20747E+00
   8.21338E+00  8.21926E+00  8.22421E+00  8.23108E+00  8.24268E+00  8.25954E+00  8.27793E+00  8.28975E+00  8.28776E+00  8.27752E+00
   8.26796E+00  8.26486E+00  8.27184E+00  8.28412E+00  8.29770E+00  8.31168E+00  8.32441E+00  8.33834E+00  8.35745E+00  8.38278E+00
   8.41186E+00  8.43930E+00  8.45883E+00  8.47109E+00  8.48823E+00  8.52142E+00  8.56488E+00  8.60881E+00  8.64647E+00  8.68366E+00
   8.72671E+00  8.77294E+00  8.81368E+00  8.83828E+00  8.84558E+00  8.84912E+00  8.85973E+00  8.87862E+00  8.90699E+00  8.94523E+00
   8.98968E+00  9.03815E+00  9.08120E+00  9.11225E+00  9.13282E+00  9.12337E+00  9.08843E+00  9.03644E+00  8.97886E+00  8.94467E+00
   8.97275E+00  9.11580E+00  9.34544E+00  9.59469E+00  9.81533E+00  9.98499E+00  1.00672E+01  9.94522E+00  9.59534E+00  9.08223E+00
   8.51328E+00  8.02497E+00  7.78223E+00  7.92416E+00  8.34542E+00  8.90942E+00  9.57246E+00  1.02397E+01  1.07516E+01  1.09501E+01
   1.08657E+01  1.07030E+01  1.05900E+01  1.05121E+01  1.04805E+01  1.04970E+01  1.05435E+01  1.06028E+01  1.06355E+01  1.06442E+01
   1.06590E+01  1.06918E+01  1.07470E+01  1.08442E+01  1.09980E+01  1.11904E+01  1.13926E+01  1.15682E+01  1.16999E+01  1.17902E+01
   1.18239E+01  1.18605E+01  1.19507E+01  1.20993E+01  1.23203E+01  1.26951E+01  1.32052E+01  1.36882E+01  1.40626E+01  1.43555E+01
   1.46225E+01  1.48596E+01  1.50239E+01  1.50464E+01  1.48645E+01  1.44826E+01  1.40912E+01  1.39805E+01  1.41634E+01  1.44164E+01
   1.47022E+01  1.50272E+01  1.53706E+01  1.57153E+01  1.60843E+01  1.64731E+01  1.68701E+01  1.72658E+01  1.76514E+01  1.80227E+01
   1.83959E+01  1.87885E+01  1.92015E+01  1.96296E+01  2.00694E+01  2.05183E+01  2.09708E+01  2.14179E+01  2.18526E+01  2.22756E+01
   2.26857E+01  2.30808E+01  2.34595E+01  2.38210E+01  2.41646E+01  2.44898E+01  2.47980E+01  2.50921E+01  2.53760E+01  2.56544E+01
   2.59336E+01  2.62209E+01  2.65244E+01  2.68528E+01  2.72150E+01  2.76200E+01  2.80761E+01  2.85907E+01  2.91699E+01  2.98183E+01
   3.05384E+01  3.13300E+01  3.21897E+01  3.31111E+01  3.40845E+01  3.50972E+01  3.61332E+01  3.71740E+01  3.81990E+01  3.91858E+01
   4.01115E+01  4.09532E+01  4.16891E+01  4.22996E+01  4.27681E+01  4.30819E+01  4.32332E+01  4.32193E+01  4.30433E+01  4.27139E+01
   4.22456E+01  4.16581E+01  4.09760E+01  4.02278E+01  3.94451E+01  3.86622E+01  3.79145E+01  3.72384E+01  3.66705E+01  3.62468E+01
   3.60027E+01  3.59718E+01  3.61848E+01  3.66679E+01  3.74396E+01  3.85078E+01  3.98657E+01  4.14895E+01  4.33368E+01  4.53487E+01
   4.74544E+01  4.95789E+01  5.16529E+01  5.36208E+01  5.54477E+01  5.71207E+01  5.86457E+01  6.00406E+01  6.13261E+01  6.25166E+01
   6.36140E+01  6.46057E+01  6.54661E+01  6.61608E+01  6.66534E+01  6.69111E+01  6.69100E+01  6.66377E+01  6.60948E+01  6.52939E+01
   6.42579E+01  6.30173E+01  6.16075E+01  6.00660E+01  5.84296E+01  5.67320E+01  5.50028E+01  5.32651E+01  5.15358E+01  4.98249E+01
   4.81359E+01  4.64668E+01  4.48111E+01  4.31595E+01  4.15012E+01  3.98256E+01  3.81237E+01  3.63894E+01  3.46200E+01  3.28170E+01
   3.09859E+01  2.91361E+01  2.72799E+01  2.54322E+01  2.36089E+01  2.18262E+01  2.00996E+01  1.84427E+01  1.68666E+01  1.53797E+01
   1.39870E+01  1.26904E+01  1.14886E+01  1.03777E+01  9.35140E+00  8.40187E+00  7.52006E+00  6.69637E+00  5.92117E+00  5.18526E+00
   4.48021E+00  3.79864E+00  3.13441E+00  2.48269E+00  1.83997E+00  1.20400E+00  5.73681E-01 -5.10744E-02 -6.69535E-01 -1.28032E+00
  -1.88158E+00 -2.47118E+00 -3.04683E+00 -3.60627E+00 -4.14734E+00 -4.66808E+00 -5.16680E+00 -5.64212E+00 -6.09301E+00 -6.51877E+00
  -6.91902E+00 -7.29371E+00 -7.64306E+00 -7.96755E+00 -8.26783E+00 -8.54478E+00 -8.79938E+00 -9.03272E+00 -9.24596E+00 -9.44028E+00
  -9.61691E+00 -9.77705E+00 -9.92189E+00 -1.00526E+01 -1.01702E+01 -1.02758E+01 -1.03704E+01 -1.04550E+01 -1.05303E+01 -1.05973E+01
  -1.06566E+01 -1.07090E+01 -1.07550E+01 -1.07953E+01 -1.08305E+01 -1.08609E+01 -1.08872E+01 -1.09095E+01 -1.09284E+01 -1.09442E+01
  -1.09572E+01 -1.09676E+01 -1.09758E+01 -1.09819E+01 -1.09862E+01 -1.09889E+01 -1.09901E+01 -1.09900E+01 -1.09887E+01 -1.09864E+01
  -1.09833E+01 -1.09793E+01 -1.09746E+01 -1.09693E+01 -1.09635E+01 -1.09573E+01 -1.09507E+01 -1.09437E+01 -1.09365E+01 -1.09291E+01
  -1.09215E+01 -1.09139E+01 -1.09061E+01 -1.08983E+01 -1.08905E+01 -1.08826E+01 -1.08749E+01 -1.08672E+01 -1.08596E+01 -1.08521E+01
  -1.08447E+01 -1.08374E+01 -1.08303E+01 -1.08234E+01 -1.08166E+01 -1.08101E+01 -1.08037E+01 -1.07975E+01
 NY background values follow
     4.223E+00    4.205E+00    4.187E+00    4.170E+00    4.152E+00    4.134E+00    4.116E+00    4.099E+00    4.081E+00    4.063E+00
     4.045E+00    4.027E+00    4.009E+00    3.991E+00    3.973E+00    3.955E+00    3.937E+00    3.919E+00    3.901E+00    3.883E+00
     3.865E+00    3.847E+00    3.829E+00    3.811E+00    3.792E+00    3.774E+00    3.756E+00    3.738E+00    3.719E+00    3.701E+00
     3.682E+00    3.664E+00    3.646E+00    3.627E+00    3.609E+00    3.590E+00    3.572E+00    3.553E+00    3.535E+00    3.516E+00
     3.497E+00    3.479E+00    3.460E+00    3.441E+00    3.423E+00    3.404E+00    3.385E+00    3.366E+00    3.348E+00    3.329E+00
     3.310E+00    3.291E+00    3.272E+00    3.253E+00    3.234E+00    3.215E+00    3.196E+00    3.177E+00    3.158E+00    3.139E+00
     3.120E+00    3.101E+00    3.082E+00    3.063E+00    3.043E+00    3.024E+00    3.005E+00    2.986E+00    2.966E+00    2.947E+00
     2.928E+00    2.908E+00    2.889E+00    2.870E+00    2.850E+00    2.831E+00    2.811E+00    2.792E+00    2.772E+00    2.753E+00
     2.733E+00    2.713E+00    2.694E+00    2.674E+00    2.655E+00    2.635E+00    2.615E+00    2.595E+00    2.576E+00    2.556E+00
     2.536E+00    2.516E+00    2.496E+00    2.476E+00    2.457E+00    2.437E+00    2.417E+00    2.397E+00    2.377E+00    2.357E+00
     2.337E+00    2.317E+00    2.297E+00    2.276E+00    2.256E+00    2.236E+00    2.216E+00    2.196E+00    2.176E+00    2.155E+00
     2.135E+00    2.115E+00    2.094E+00    2.074E+00    2.054E+00    2.033E+00    2.013E+00    1.993E+00    1.972E+00    1.952E+00
     1.931E+00    1.911E+00    1.890E+00    1.870E+00    1.849E+00    1.828E+00    1.808E+00    1.787E+00    1.766E+00    1.746E+00
     1.725E+00    1.704E+00    1.684E+00    1.663E+00    1.642E+00    1.621E+00    1.600E+00    1.579E+00    1.559E+00    1.538E+00
     1.517E+00    1.496E+00    1.475E+00    1.454E+00    1.433E+00    1.412E+00    1.391E+00    1.370E+00    1.348E+00    1.327E+00
     1.306E+00    1.285E+00    1.264E+00    1.243E+00    1.221E+00    1.200E+00    1.179E+00    1.158E+00    1.136E+00    1.115E+00
     1.094E+00    1.072E+00    1.051E+00    1.029E+00    1.008E+00    9.864E-01    9.649E-01    9.434E-01    9.218E-01    9.003E-01
     8.787E-01    8.571E-01    8.355E-01    8.138E-01    7.922E-01    7.705E-01    7.488E-01    7.271E-01    7.053E-01    6.835E-01
     6.617E-01    6.399E-01    6.181E-01    5.963E-01    5.744E-01    5.525E-01    5.306E-01    5.087E-01    4.867E-01    4.647E-01
     4.427E-01    4.207E-01    3.987E-01    3.766E-01    3.545E-01    3.324E-01    3.103E-01    2.882E-01    2.660E-01    2.438E-01
     2.216E-01    1.994E-01    1.772E-01    1.549E-01    1.326E-01    1.103E-01    8.802E-02    6.568E-02    4.332E-02    2.094E-02
    -1.461E-03   -2.388E-02   -4.632E-02   -6.878E-02   -9.127E-02   -1.138E-01   -1.363E-01   -1.588E-01   -1.814E-01   -2.040E-01
    -2.266E-01   -2.492E-01   -2.718E-01   -2.945E-01   -3.172E-01   -3.399E-01   -3.626E-01   -3.853E-01   -4.081E-01   -4.309E-01
    -4.536E-01   -4.765E-01   -4.993E-01   -5.222E-01   -5.450E-01   -5.679E-01   -5.908E-01   -6.138E-01   -6.367E-01   -6.597E-01
    -6.827E-01   -7.057E-01   -7.287E-01   -7.517E-01   -7.748E-01   -7.979E-01   -8.210E-01   -8.441E-01   -8.673E-01   -8.904E-01
    -9.136E-01   -9.368E-01   -9.600E-01   -9.832E-01   -1.006E+00   -1.030E+00   -1.053E+00   -1.076E+00   -1.100E+00   -1.123E+00
    -1.146E+00   -1.170E+00   -1.193E+00   -1.217E+00   -1.240E+00   -1.264E+00   -1.287E+00   -1.310E+00   -1.334E+00   -1.358E+00
    -1.381E+00   -1.405E+00   -1.428E+00   -1.452E+00   -1.475E+00   -1.499E+00   -1.523E+00   -1.546E+00   -1.570E+00   -1.594E+00
    -1.618E+00   -1.641E+00   -1.665E+00   -1.689E+00   -1.713E+00   -1.736E+00   -1.760E+00   -1.784E+00   -1.808E+00   -1.832E+00
    -1.856E+00   -1.880E+00   -1.904E+00   -1.928E+00   -1.952E+00   -1.976E+00   -2.000E+00   -2.024E+00   -2.048E+00   -2.072E+00
    -2.096E+00   -2.120E+00   -2.144E+00   -2.168E+00   -2.192E+00   -2.217E+00   -2.241E+00   -2.265E+00   -2.289E+00   -2.313E+00
    -2.338E+00   -2.362E+00   -2.386E+00   -2.410E+00   -2.435E+00   -2.459E+00   -2.484E+00   -2.508E+00   -2.532E+00   -2.557E+00
    -2.581E+00   -2.606E+00   -2.630E+00   -2.654E+00   -2.679E+00   -2.703E+00   -2.728E+00   -2.753E+00   -2.777E+00   -2.802E+00
    -2.826E+00   -2.851E+00   -2.875E+00   -2.900E+00   -2.925E+00   -2.949E+00   -2.974E+00   -2.999E+00   -3.024E+00   -3.048E+00
    -3.073E+00   -3.098E+00   -3.123E+00   -3.147E+00   -3.172E+00   -3.197E+00   -3.222E+00   -3.247E+00   -3.272E+00   -3.296E+00
    -3.321E+00   -3.346E+00   -3.371E+00   -3.396E+00   -3.421E+00   -3.446E+00   -3.471E+00   -3.496E+00   -3.521E+00   -3.546E+00
    -3.571E+00   -3.596E+00   -3.621E+00   -3.647E+00   -3.672E+00   -3.697E+00   -3.722E+00   -3.747E+00   -3.772E+00   -3.798E+00
    -3.823E+00   -3.848E+00   -3.873E+00   -3.899E+00   -3.924E+00   -3.949E+00   -3.974E+00   -4.000E+00   -4.025E+00   -4.050E+00
    -4.076E+00   -4.101E+00   -4.127E+00   -4.152E+00   -4.177E+00   -4.203E+00   -4.228E+00   -4.254E+00   -4.279E+00   -4.305E+00
    -4.330E+00   -4.356E+00   -4.381E+00   -4.407E+00   -4.432E+00   -4.458E+00   -4.484E+00   -4.509E+00   -4.535E+00   -4.560E+00
    -4.586E+00   -4.612E+00   -4.637E+00   -4.663E+00   -4.689E+00   -4.715E+00   -4.740E+00   -4.766E+00   -4.792E+00   -4.818E+00
    -4.843E+00   -4.869E+00   -4.895E+00   -4.921E+00   -4.947E+00   -4.973E+00   -4.999E+00   -5.024E+00   -5.050E+00   -5.076E+00
    -5.102E+00   -5.128E+00   -5.154E+00   -5.180E+00   -5.206E+00   -5.232E+00   -5.258E+00   -5.284E+00   -5.310E+00   -5.336E+00
    -5.362E+00   -5.388E+00   -5.414E+00   -5.440E+00   -5.467E+00   -5.493E+00   -5.519E+00   -5.545E+00   -5.571E+00   -5.597E+00
    -5.624E+00   -5.650E+00   -5.676E+00   -5.702E+00   -5.728E+00   -5.755E+00   -5.781E+00   -5.807E+00   -5.834E+00   -5.860E+00
    -5.886E+00   -5.913E+00   -5.939E+00   -5.965E+00   -5.992E+00   -6.018E+00   -6.044E+00   -6.071E+00   -6.097E+00   -6.124E+00
    -6.150E+00   -6.177E+00   -6.203E+00   -6.230E+00   -6.256E+00   -6.283E+00   -6.309E+00   -6.336E+00   -6.362E+00   -6.389E+00
    -6.415E+00   -6.442E+00   -6.468E+00   -6.495E+00   -6.522E+00   -6.548E+00   -6.575E+00   -6.602E+00   -6.628E+00   -6.655E+00
    -6.682E+00   -6.708E+00   -6.735E+00   -6.762E+00   -6.788E+00   -6.815E+00   -6.842E+00   -6.869E+00   -6.895E+00   -6.922E+00
    -6.949E+00   -6.976E+00   -7.003E+00   -7.029E+00   -7.056E+00   -7.083E+00   -7.110E+00   -7.137E+00
 Asp      Conc. = 3.27E+00
