 LCModel (Version 6.3-1L) Copyright: S.W. Provencher.          Ref.: Magn. Reson. Med. 30:672-679 (1993).                
 Slice#2 Row#2 Col#5  K_02_press_1_raw_act
 36 lines in following concentration table = NCONC+1
    Conc.  %SD /Cr+PCr  Metabolite                                         
 1.69E+04   6%  42.628 Ala                                                 
   50.758 383%   0.128 Asp                                                 
    0.000 999%   0.000 Cr                                                  
  396.167  26%   1.000 PCr                                                 
    0.000 999%   0.000 GABA                                                
    0.000 999%   0.000 Glc                                                 
    0.000 999%   0.000 Gln                                                 
    0.000 999%   0.000 Glu                                                 
    0.000 999%   0.000 GPC                                                 
  144.878  24%   0.366 PCh                                                 
  164.084  94%   0.414 GSH                                                 
    0.000 999%   0.000 Ins                                                 
 9.87E+03  11%  24.916 Lac                                                 
  881.011  16%   2.224 NAA                                                 
    0.000 999%   0.000 NAAG                                                
   91.769  36%   0.232 Scyllo                                              
   22.937 819% 5.8E-02 Tau                                                 
  834.691  19%   2.107+-CrCH2                                              
  144.878  24%   0.366 GPC+PCh                                             
  881.011  16%   2.224 NAA+NAAG                                            
  396.167  26%   1.000 Cr+PCr                                              
    0.000 999%   0.000 Glu+Gln                                             
    0.000 999%   0.000 Lip13a                                              
    0.000 999%   0.000 Lip13b                                              
    0.000 999%   0.000 Lip09                                               
 2.61E+03  11%   6.583 MM09                                                
    0.000 999%   0.000 Lip20                                               
 1.79E+03  27%   4.511-MM20                                                
  669.434  27%   1.690 MM12                                                
 9.19E+03   3%  23.191+MM14                                                
 2.35E+03  17%   5.923+MM17                                                
    0.000 999%   0.000 Lip13a+Lip13b                                       
 9.86E+03   4%  24.880 MM14+Lip13a+Lip13b+MM12                             
 2.61E+03  11%   6.583 MM09+Lip09                                          
 1.79E+03  27%   4.511 MM20+Lip20                                          
   6 lines in following misc. output table
  FWHM = 0.153 ppm    S/N =  12                                            
  Data shift = 0.084 ppm                                                   
  Ph:-106 deg     -59.4 deg/ppm                                            
  alphaB,S = 8.5E+01,   6.2E+02                                            
    6 spline knots.   Ns = 9(2)                                            
   2 inflections.     1 extrema                                            
  498 points on ppm-axis = NY
      4.000000     3.992357     3.984714     3.977070     3.969427     3.961784     3.954141     3.946497     3.938854     3.931211
      3.923568     3.915925     3.908281     3.900638     3.892995     3.885352     3.877708     3.870065     3.862422     3.854779
      3.847136     3.839492     3.831849     3.824206     3.816563     3.808919     3.801276     3.793633     3.785990     3.778347
      3.770703     3.763060     3.755417     3.747774     3.740130     3.732487     3.724844     3.717201     3.709558     3.701914
      3.694271     3.686628     3.678985     3.671341     3.663698     3.656055     3.648412     3.640769     3.633125     3.625482
      3.617839     3.610196     3.602552     3.594909     3.587266     3.579623     3.571980     3.564336     3.556693     3.549050
      3.541407     3.533763     3.526120     3.518477     3.510834     3.503191     3.495547     3.487904     3.480261     3.472618
      3.464974     3.457331     3.449688     3.442045     3.434402     3.426758     3.419115     3.411472     3.403829     3.396185
      3.388542     3.380899     3.373256     3.365613     3.357969     3.350326     3.342683     3.335040     3.327396     3.319753
      3.312110     3.304467     3.296824     3.289180     3.281537     3.273894     3.266251     3.258607     3.250964     3.243321
      3.235678     3.228034     3.220391     3.212748     3.205105     3.197462     3.189818     3.182175     3.174532     3.166889
      3.159245     3.151602     3.143959     3.136316     3.128673     3.121029     3.113386     3.105743     3.098100     3.090456
      3.082813     3.075170     3.067527     3.059884     3.052240     3.044597     3.036954     3.029311     3.021667     3.014024
      3.006381     2.998738     2.991095     2.983451     2.975808     2.968165     2.960522     2.952878     2.945235     2.937592
      2.929949     2.922306     2.914662     2.907019     2.899376     2.891733     2.884089     2.876446     2.868803     2.861160
      2.853517     2.845873     2.838230     2.830587     2.822944     2.815300     2.807657     2.800014     2.792371     2.784728
      2.777084     2.769441     2.761798     2.754155     2.746511     2.738868     2.731225     2.723582     2.715939     2.708295
      2.700652     2.693009     2.685366     2.677722     2.670079     2.662436     2.654793     2.647150     2.639506     2.631863
      2.624220     2.616577     2.608933     2.601290     2.593647     2.586004     2.578361     2.570717     2.563074     2.555431
      2.547788     2.540144     2.532501     2.524858     2.517215     2.509572     2.501928     2.494285     2.486642     2.478999
      2.471355     2.463712     2.456069     2.448426     2.440783     2.433139     2.425496     2.417853     2.410210     2.402566
      2.394923     2.387280     2.379637     2.371994     2.364350     2.356707     2.349064     2.341421     2.333777     2.326134
      2.318491     2.310848     2.303205     2.295561     2.287918     2.280275     2.272632     2.264988     2.257345     2.249702
      2.242059     2.234416     2.226772     2.219129     2.211486     2.203843     2.196199     2.188556     2.180913     2.173270
      2.165627     2.157983     2.150340     2.142697     2.135054     2.127410     2.119767     2.112124     2.104481     2.096838
      2.089194     2.081551     2.073908     2.066265     2.058621     2.050978     2.043335     2.035692     2.028049     2.020405
      2.012762     2.005119     1.997476     1.989833     1.982190     1.974546     1.966903     1.959260     1.951617     1.943974
      1.936331     1.928688     1.921045     1.913402     1.905759     1.898115     1.890472     1.882829     1.875186     1.867543
      1.859900     1.852257     1.844614     1.836971     1.829327     1.821684     1.814041     1.806398     1.798755     1.791112
      1.783469     1.775826     1.768183     1.760540     1.752896     1.745253     1.737610     1.729967     1.722324     1.714681
      1.707038     1.699395     1.691752     1.684108     1.676465     1.668822     1.661179     1.653536     1.645893     1.638250
      1.630607     1.622964     1.615321     1.607677     1.600034     1.592391     1.584748     1.577105     1.569462     1.561819
      1.554176     1.546533     1.538890     1.531246     1.523603     1.515960     1.508317     1.500674     1.493031     1.485388
      1.477745     1.470102     1.462458     1.454815     1.447172     1.439529     1.431886     1.424243     1.416600     1.408957
      1.401314     1.393671     1.386027     1.378384     1.370741     1.363098     1.355455     1.347812     1.340169     1.332526
      1.324883     1.317240     1.309596     1.301953     1.294310     1.286667     1.279024     1.271381     1.263738     1.256095
      1.248452     1.240808     1.233165     1.225522     1.217879     1.210236     1.202593     1.194950     1.187307     1.179664
      1.172021     1.164377     1.156734     1.149091     1.141448     1.133805     1.126162     1.118519     1.110876     1.103233
      1.095590     1.087946     1.080303     1.072660     1.065017     1.057374     1.049731     1.042088     1.034445     1.026802
      1.019158     1.011515     1.003872     0.996229     0.988586     0.980943     0.973300     0.965657     0.958014     0.950371
      0.942727     0.935084     0.927441     0.919798     0.912155     0.904512     0.896869     0.889226     0.881583     0.873940
      0.866296     0.858653     0.851010     0.843367     0.835724     0.828081     0.820438     0.812795     0.805152     0.797508
      0.789865     0.782222     0.774579     0.766936     0.759293     0.751650     0.744007     0.736364     0.728721     0.721077
      0.713434     0.705791     0.698148     0.690505     0.682862     0.675219     0.667576     0.659933     0.652290     0.644646
      0.637003     0.629360     0.621717     0.614074     0.606431     0.598788     0.591145     0.583502     0.575858     0.568215
      0.560572     0.552929     0.545286     0.537643     0.530000     0.522357     0.514714     0.507071     0.499427     0.491784
      0.484141     0.476498     0.468855     0.461212     0.453569     0.445925     0.438282     0.430639     0.422996     0.415353
      0.407710     0.400067     0.392424     0.384780     0.377137     0.369494     0.361851     0.354208     0.346565     0.338922
      0.331278     0.323635     0.315992     0.308349     0.300706     0.293063     0.285420     0.277777     0.270133     0.262490
      0.254847     0.247204     0.239561     0.231918     0.224275     0.216631     0.208988     0.201345
 NY phased data points follow
  -5.34864E+00  8.37607E-02 -3.61119E+00 -4.11703E+00 -7.47737E+00 -7.47850E+00 -7.68453E+00 -6.59453E+00 -4.80567E+00 -8.76283E+00
  -9.51547E+00 -6.94469E+00 -3.16639E+00 -5.45308E+00 -4.13897E+00 -4.84918E+00 -3.81770E+00 -5.61727E+00 -2.22845E+00 -5.54989E+00
  -1.25535E+00 -2.53798E-02 -2.17871E+00 -3.62593E+00 -1.68352E+00 -1.81722E+00 -3.77088E+00 -2.58071E+00 -8.27073E-01 -1.18215E+00
  -1.70443E+00 -8.53716E-01 -1.02170E+00 -3.16998E+00  9.90456E-02 -1.10240E+00 -1.93350E+00 -2.68108E+00 -1.46394E+00 -2.45389E+00
  -1.94694E+00 -2.48315E+00 -4.46890E+00 -3.41129E-01 -5.96325E+00 -3.67248E+00 -4.85106E+00 -4.33408E+00 -3.23876E+00 -2.95817E-01
  -1.39174E+00 -1.36549E+00 -2.48371E+00 -3.81526E+00 -4.68966E+00 -1.60134E+00 -5.34675E+00 -4.41800E+00 -2.28354E+00 -1.30041E+00
  -4.04986E+00 -1.50814E+00 -1.36064E+00 -1.73444E+00  1.09902E+00  3.14143E-02 -3.01839E+00 -5.66691E-01  1.77663E+00 -8.67878E-01
   5.63597E+00 -2.00035E-01 -1.83029E+00 -6.29291E-01  6.10299E-01  1.05875E+00  1.48730E+00  1.76319E+00  9.80351E-01  3.04855E+00
  -3.20934E-01  2.28545E+00  2.51712E+00  6.16325E+00  5.17316E+00  6.33110E+00  6.69714E+00  4.04858E+00  5.72466E+00  8.98672E+00
   1.02903E+01  1.06794E+01  1.33693E+01  1.14495E+01  1.82061E+01  1.52097E+01  1.05060E+01  9.78871E+00  1.02971E+01  6.04394E+00
   9.47524E+00  6.59056E+00  4.98847E+00  3.85133E+00  1.19830E+00  3.52750E+00  2.61066E+00  3.09864E+00  3.75417E+00  3.53330E+00
   6.00784E+00  4.43843E+00  6.17008E+00  6.42116E+00  8.52073E+00  8.00054E+00  1.13745E+01  1.35751E+01  1.49482E+01  1.66899E+01
   1.82179E+01  1.53238E+01  1.05791E+01  1.30501E+01  8.46272E+00  1.02634E+01  9.79572E+00  9.90767E+00  7.93749E+00  7.44730E+00
   4.64113E+00  3.52953E+00  7.71131E+00  2.46920E+00  3.98044E+00  2.26363E+00  4.12036E+00  8.92967E+00  8.19709E+00  4.35578E+00
   3.11087E+00  1.75058E+00  4.21876E+00  1.06713E+01  8.39344E+00  4.55381E+00  6.45874E+00  6.60276E+00  5.97132E+00  1.16628E+00
   8.03185E+00  1.36228E+00  3.19561E+00  7.30063E+00  4.29095E+00  3.15881E+00  6.49407E+00  4.67249E+00  4.94864E+00  4.10090E+00
   1.26473E+01  5.24854E+00  5.63110E+00  5.96642E+00  8.51188E+00  5.93666E+00  3.92019E+00  6.75030E+00  2.85138E+00  3.29838E+00
   6.36729E+00  5.29976E+00  3.35117E+00  5.28536E+00  2.53816E+00  4.57463E+00  5.73619E+00  5.29763E+00  5.51686E+00  7.22007E+00
   4.25966E+00  5.29774E+00  8.91792E+00  3.94576E+00  9.52320E+00  5.70255E+00  7.55397E+00  7.94645E+00  1.30977E+01  1.03271E+01
   5.36728E+00  7.96639E+00  7.46469E+00  9.23544E+00  8.04449E+00  8.45122E+00  1.12662E+01  5.64771E+00  8.98935E+00  8.33825E+00
   1.10298E+01  1.09238E+01  1.25905E+01  9.08810E+00  8.73421E+00  1.17683E+01  1.04603E+01  8.86296E+00  1.41761E+01  9.50605E+00
   1.00361E+01  8.34298E+00  8.73567E+00  1.04877E+01  6.72791E+00  1.19958E+01  7.69863E+00  7.69241E+00  9.18252E+00  8.37630E+00
   1.05646E+01  1.14596E+01  1.20725E+01  1.20319E+01  1.25371E+01  1.03480E+01  9.56487E+00  1.09808E+01  1.19332E+01  8.94096E+00
   1.20431E+01  5.78730E+00  8.86417E+00  5.36448E+00  1.11552E+01  1.07574E+01  9.84355E+00  9.94637E+00  6.40554E+00  7.54455E+00
   6.42261E+00  1.09220E+01  9.58438E+00  1.10774E+01  6.39335E+00  1.29535E+01  1.28539E+01  7.67779E+00  1.20993E+01  1.35921E+01
   1.59082E+01  2.09823E+01  2.69417E+01  2.91036E+01  2.96540E+01  3.02181E+01  2.54526E+01  2.62898E+01  2.94474E+01  2.65406E+01
   3.14527E+01  2.38828E+01  2.15790E+01  2.34147E+01  2.54662E+01  2.05819E+01  2.43730E+01  1.94820E+01  2.10018E+01  2.39275E+01
   1.97271E+01  2.25145E+01  1.85762E+01  2.08311E+01  2.27733E+01  2.16528E+01  1.72387E+01  2.27581E+01  1.99927E+01  2.11905E+01
   1.63461E+01  2.32560E+01  2.22896E+01  2.45224E+01  2.36353E+01  2.18454E+01  2.18229E+01  2.00603E+01  2.12305E+01  2.38974E+01
   2.31604E+01  2.45520E+01  2.31726E+01  2.69710E+01  2.49731E+01  2.56319E+01  2.61659E+01  2.50421E+01  3.10662E+01  3.33466E+01
   3.25422E+01  3.62086E+01  3.54301E+01  3.36114E+01  3.64889E+01  3.78235E+01  3.94265E+01  4.62579E+01  4.80262E+01  4.65143E+01
   4.92216E+01  5.34490E+01  5.42578E+01  6.47966E+01  6.27786E+01  6.71034E+01  7.12007E+01  7.67517E+01  7.97946E+01  7.94693E+01
   8.57336E+01  9.10718E+01  9.45634E+01  9.73104E+01  1.03873E+02  1.00493E+02  1.03248E+02  1.04036E+02  1.04926E+02  1.08689E+02
   1.08087E+02  1.12347E+02  1.10975E+02  1.10531E+02  1.14525E+02  1.09991E+02  1.10514E+02  1.06085E+02  1.09354E+02  1.09945E+02
   1.00173E+02  9.87905E+01  9.53259E+01  8.51333E+01  8.06125E+01  7.65416E+01  7.54455E+01  7.05254E+01  6.52444E+01  6.43981E+01
   6.03707E+01  5.87591E+01  5.82399E+01  5.64040E+01  5.16627E+01  5.23294E+01  4.85839E+01  5.02402E+01  4.56605E+01  4.24435E+01
   4.39931E+01  4.25608E+01  4.07001E+01  3.90211E+01  3.31532E+01  3.90992E+01  3.37929E+01  3.16482E+01  3.29789E+01  3.03469E+01
   3.34618E+01  3.45909E+01  3.01715E+01  3.26575E+01  2.90292E+01  3.02667E+01  3.01012E+01  2.42540E+01  2.76443E+01  2.56932E+01
   2.37074E+01  2.77771E+01  3.01410E+01  2.60608E+01  2.45131E+01  2.48172E+01  2.61992E+01  2.68321E+01  2.62346E+01  2.93860E+01
   2.64102E+01  2.56141E+01  2.66056E+01  2.62532E+01  2.45279E+01  2.78148E+01  2.77831E+01  2.62831E+01  2.48872E+01  2.26445E+01
   2.77084E+01  2.66100E+01  2.50340E+01  2.57173E+01  2.51579E+01  2.57020E+01  2.23749E+01  2.46264E+01  2.54667E+01  2.59082E+01
   2.50460E+01  2.21078E+01  2.51894E+01  2.05828E+01  2.53812E+01  1.90664E+01  2.47274E+01  2.04806E+01  2.02666E+01  2.41694E+01
   1.91071E+01  2.02184E+01  2.07940E+01  2.16741E+01  2.21725E+01  1.96994E+01  2.01230E+01  2.20140E+01  2.00298E+01  2.17564E+01
   1.67012E+01  2.21231E+01  1.82167E+01  2.02791E+01  1.86557E+01  1.78144E+01  1.82383E+01  2.11990E+01  1.58545E+01  1.85902E+01
   1.46737E+01  1.57842E+01  1.88222E+01  1.68830E+01  1.73046E+01  1.91262E+01  1.70854E+01  1.65787E+01  1.52206E+01  1.68159E+01
   1.81098E+01  1.91609E+01  2.07474E+01  1.84449E+01  1.64649E+01  1.68587E+01  1.44347E+01  1.59239E+01  1.26120E+01  1.26614E+01
   1.56170E+01  1.15581E+01  1.57225E+01  1.61383E+01  1.48913E+01  1.87064E+01  1.35468E+01  1.26347E+01  1.66927E+01  1.21199E+01
   1.17254E+01  1.35488E+01  1.31357E+01  1.15262E+01  1.31084E+01  1.45258E+01  1.38657E+01  1.51490E+01  1.46925E+01  1.69212E+01
   1.42392E+01  1.08497E+01  1.05957E+01  1.04387E+01  1.38797E+01  1.45807E+01  1.29037E+01  1.43778E+01  1.43099E+01  1.06761E+01
   1.31504E+01  1.00949E+01  1.17675E+01  1.21294E+01  1.30468E+01  1.21324E+01  1.23385E+01  1.22925E+01
 NY points of the fit to the data follow
  -5.00417E+00 -4.69947E+00 -5.48149E+00 -5.42114E+00 -5.44241E+00 -5.29874E+00 -4.91937E+00 -4.82501E+00 -3.86168E+00 -4.39052E+00
  -3.43911E+00 -4.57223E+00 -3.58305E+00 -4.69518E+00 -3.62669E+00 -5.03724E+00 -3.32059E+00 -4.58324E+00 -2.48550E+00 -3.82734E+00
  -1.82040E+00 -3.20499E+00 -1.37397E+00 -3.02610E+00 -1.58352E+00 -3.19981E+00 -2.04264E+00 -3.36389E+00 -2.38942E+00 -3.21890E+00
  -2.34047E+00 -2.72720E+00 -1.99765E+00 -1.86303E+00 -1.37678E+00 -9.13052E-01 -8.75190E-01 -3.68437E-01 -9.14948E-01 -4.71088E-01
  -1.46711E+00 -1.12752E+00 -2.17658E+00 -1.55499E+00 -2.34522E+00 -1.33108E+00 -1.80366E+00 -4.79495E-01 -6.50201E-01  2.93628E-01
  -1.66882E-01  3.89802E-01 -2.31860E-01 -9.26550E-03 -7.29308E-01 -6.99203E-01 -9.43713E-01 -6.02065E-01 -5.92489E-01 -1.64415E-01
  -3.51405E-02  3.70644E-01  4.99292E-01  6.85555E-01  6.76264E-01  8.10139E-01  7.84370E-01  9.26552E-01  9.94848E-01  1.19478E+00
   1.28219E+00  1.51815E+00  1.59982E+00  1.86491E+00  1.94310E+00  2.24237E+00  2.31557E+00  2.64874E+00  2.69776E+00  3.05625E+00
   3.06339E+00  3.43662E+00  3.38484E+00  3.76706E+00  3.70900E+00  4.31694E+00  4.27053E+00  4.92961E+00  4.84906E+00  5.49329E+00
   5.38950E+00  6.02203E+00  5.93750E+00  6.57916E+00  6.53146E+00  7.15157E+00  7.12668E+00  7.67800E+00  7.63885E+00  8.05986E+00
   7.98730E+00  8.23777E+00  8.10692E+00  8.16352E+00  7.97728E+00  7.85137E+00  7.64546E+00  7.45749E+00  7.53286E+00  7.39630E+00
   7.55340E+00  7.44886E+00  7.65289E+00  7.59375E+00  7.85136E+00  7.82946E+00  8.15201E+00  8.15781E+00  8.49695E+00  8.49124E+00
   8.79754E+00  8.78109E+00  9.02285E+00  9.01336E+00  9.19755E+00  9.29480E+00  9.37284E+00  9.37444E+00  9.28685E+00  9.18863E+00
   8.96450E+00  8.79679E+00  8.51112E+00  8.30744E+00  8.01247E+00  7.79478E+00  7.51384E+00  7.28810E+00  7.00500E+00  6.78072E+00
   6.51438E+00  6.29623E+00  6.02500E+00  5.80003E+00  5.54301E+00  5.33585E+00  5.14039E+00  5.01294E+00  4.99083E+00  4.92067E+00
   4.89568E+00  4.83831E+00  4.80649E+00  4.76365E+00  4.72852E+00  4.70714E+00  4.66401E+00  4.64194E+00  4.56584E+00  4.55286E+00
   4.46757E+00  4.47266E+00  4.38660E+00  4.39409E+00  4.31645E+00  4.32396E+00  4.25782E+00  4.25608E+00  4.20125E+00  4.17589E+00
   4.15805E+00  4.12959E+00  4.16516E+00  4.14631E+00  4.23545E+00  4.22105E+00  4.35522E+00  4.34709E+00  4.52827E+00  4.53328E+00
   4.73152E+00  4.76265E+00  4.96665E+00  5.01964E+00  5.22370E+00  5.32240E+00  5.53218E+00  5.67110E+00  5.85749E+00  6.01867E+00
   6.17053E+00  6.34745E+00  6.46177E+00  6.64612E+00  6.71887E+00  6.88504E+00  6.93209E+00  7.08174E+00  7.11515E+00  7.25186E+00
   7.29625E+00  7.40907E+00  7.46107E+00  7.53464E+00  7.59726E+00  7.64362E+00  7.71626E+00  7.73878E+00  7.81777E+00  7.82769E+00
   7.93427E+00  7.95860E+00  8.09292E+00  8.13092E+00  8.28288E+00  8.33762E+00  8.50088E+00  8.57892E+00  8.75205E+00  8.85885E+00
   9.02388E+00  9.14584E+00  9.29932E+00  9.43159E+00  9.57769E+00  9.72955E+00  9.88180E+00  1.00530E+01  1.02193E+01  1.04081E+01
   1.05886E+01  1.07916E+01  1.09853E+01  1.11980E+01  1.14008E+01  1.16151E+01  1.18383E+01  1.20687E+01  1.23174E+01  1.25741E+01
   1.28680E+01  1.32659E+01  1.40773E+01  1.47064E+01  1.56705E+01  1.64112E+01  1.73853E+01  1.81923E+01  1.91572E+01  2.00206E+01
   2.09768E+01  2.18775E+01  2.27291E+01  2.36092E+01  2.42481E+01  2.50538E+01  2.53787E+01  2.60483E+01  2.59922E+01  2.64798E+01
   2.60153E+01  2.62775E+01  2.54222E+01  2.54688E+01  2.43374E+01  2.42295E+01  2.30231E+01  2.28495E+01  2.17127E+01  2.15306E+01
   2.05259E+01  2.03567E+01  1.94537E+01  1.93098E+01  1.85632E+01  1.84708E+01  1.78733E+01  1.78553E+01  1.74596E+01  1.75640E+01
   1.74560E+01  1.77833E+01  1.82284E+01  1.87961E+01  1.93843E+01  2.00739E+01  2.07716E+01  2.15573E+01  2.23358E+01  2.31835E+01
   2.40030E+01  2.48689E+01  2.56832E+01  2.65204E+01  2.72849E+01  2.80544E+01  2.87392E+01  2.94242E+01  3.00297E+01  3.06516E+01
   3.12239E+01  3.18579E+01  3.25062E+01  3.33014E+01  3.42230E+01  3.54380E+01  3.69781E+01  3.90995E+01  4.20188E+01  4.63800E+01
   5.19302E+01  5.58519E+01  6.13090E+01  6.40008E+01  6.88978E+01  7.02021E+01  7.41879E+01  7.39447E+01  7.99123E+01  8.03166E+01
   8.73080E+01  8.74921E+01  9.41235E+01  9.33052E+01  9.88601E+01  9.71402E+01  1.01801E+02  1.00161E+02  1.04660E+02  1.05178E+02
   1.08184E+02  1.08718E+02  1.10074E+02  1.10530E+02  1.10425E+02  1.10151E+02  1.08115E+02  1.09050E+02  1.05709E+02  1.05861E+02
   1.00423E+02  9.88868E+01  9.19628E+01  8.89725E+01  8.15441E+01  7.84612E+01  7.20213E+01  6.99113E+01  6.52114E+01  6.45462E+01
   6.22267E+01  6.10139E+01  5.87019E+01  5.71248E+01  5.49074E+01  5.27435E+01  5.04236E+01  4.74891E+01  4.67276E+01  4.43434E+01
   4.39489E+01  4.16305E+01  4.11770E+01  3.89465E+01  3.86131E+01  3.69611E+01  3.70109E+01  3.60075E+01  3.65414E+01  3.67709E+01
   3.65955E+01  3.54749E+01  3.46206E+01  3.25938E+01  3.12189E+01  2.86609E+01  2.70616E+01  2.60925E+01  2.53932E+01  2.49289E+01
   2.45721E+01  2.43652E+01  2.42144E+01  2.41793E+01  2.41759E+01  2.42683E+01  2.43760E+01  2.45643E+01  2.47538E+01  2.50100E+01
   2.52534E+01  2.55488E+01  2.58162E+01  2.61201E+01  2.63803E+01  2.66611E+01  2.68830E+01  2.71105E+01  2.72651E+01  2.74125E+01
   2.74762E+01  2.75239E+01  2.74816E+01  2.74188E+01  2.72645E+01  2.70908E+01  2.68292E+01  2.65539E+01  2.61988E+01  2.58396E+01
   2.54114E+01  2.49910E+01  2.45143E+01  2.40578E+01  2.35574E+01  2.30888E+01  2.25873E+01  2.21275E+01  2.16437E+01  2.12088E+01
   2.07561E+01  2.03570E+01  1.99438E+01  1.95867E+01  1.92171E+01  1.89040E+01  1.85782E+01  1.83081E+01  1.80243E+01  1.77944E+01
   1.75490E+01  1.73554E+01  1.71441E+01  1.69823E+01  1.68009E+01  1.66668E+01  1.65110E+01  1.64005E+01  1.62666E+01  1.61762E+01
   1.60609E+01  1.59876E+01  1.58881E+01  1.58292E+01  1.57430E+01  1.56964E+01  1.56216E+01  1.55854E+01  1.55204E+01  1.54931E+01
   1.54364E+01  1.54168E+01  1.53673E+01  1.53543E+01  1.53110E+01  1.53037E+01  1.52658E+01  1.52635E+01  1.52304E+01  1.52324E+01
   1.52034E+01  1.52093E+01  1.51840E+01  1.51932E+01  1.51711E+01  1.51833E+01  1.51642E+01  1.51790E+01  1.51625E+01  1.51797E+01
   1.51655E+01  1.51849E+01  1.51727E+01  1.51940E+01  1.51838E+01  1.52069E+01  1.51984E+01  1.52230E+01  1.52161E+01  1.52422E+01
   1.52368E+01  1.52643E+01  1.52603E+01  1.52890E+01  1.52863E+01  1.53162E+01  1.53148E+01  1.53459E+01  1.53456E+01  1.53779E+01
   1.53789E+01  1.54124E+01  1.54147E+01  1.54494E+01  1.54532E+01  1.54895E+01  1.54951E+01  1.55334E+01
 NY background values follow
    -2.797E+00   -2.756E+00   -2.714E+00   -2.673E+00   -2.632E+00   -2.590E+00   -2.549E+00   -2.508E+00   -2.466E+00   -2.425E+00
    -2.384E+00   -2.342E+00   -2.301E+00   -2.259E+00   -2.218E+00   -2.177E+00   -2.135E+00   -2.094E+00   -2.052E+00   -2.011E+00
    -1.970E+00   -1.928E+00   -1.887E+00   -1.845E+00   -1.804E+00   -1.762E+00   -1.721E+00   -1.680E+00   -1.638E+00   -1.597E+00
    -1.555E+00   -1.514E+00   -1.473E+00   -1.431E+00   -1.390E+00   -1.348E+00   -1.307E+00   -1.266E+00   -1.224E+00   -1.183E+00
    -1.141E+00   -1.100E+00   -1.059E+00   -1.017E+00   -9.758E-01   -9.344E-01   -8.931E-01   -8.517E-01   -8.104E-01   -7.690E-01
    -7.277E-01   -6.863E-01   -6.450E-01   -6.037E-01   -5.624E-01   -5.211E-01   -4.798E-01   -4.385E-01   -3.972E-01   -3.559E-01
    -3.147E-01   -2.734E-01   -2.322E-01   -1.910E-01   -1.497E-01   -1.085E-01   -6.732E-02   -2.613E-02    1.504E-02    5.621E-02
     9.736E-02    1.385E-01    1.796E-01    2.207E-01    2.618E-01    3.029E-01    3.440E-01    3.851E-01    4.261E-01    4.671E-01
     5.082E-01    5.492E-01    5.901E-01    6.311E-01    6.721E-01    7.130E-01    7.539E-01    7.948E-01    8.357E-01    8.766E-01
     9.174E-01    9.582E-01    9.991E-01    1.040E+00    1.081E+00    1.121E+00    1.162E+00    1.203E+00    1.244E+00    1.284E+00
     1.325E+00    1.365E+00    1.406E+00    1.447E+00    1.487E+00    1.528E+00    1.568E+00    1.609E+00    1.649E+00    1.690E+00
     1.730E+00    1.771E+00    1.811E+00    1.851E+00    1.892E+00    1.932E+00    1.972E+00    2.013E+00    2.053E+00    2.093E+00
     2.133E+00    2.173E+00    2.213E+00    2.254E+00    2.294E+00    2.334E+00    2.374E+00    2.414E+00    2.454E+00    2.494E+00
     2.533E+00    2.573E+00    2.613E+00    2.653E+00    2.693E+00    2.732E+00    2.772E+00    2.812E+00    2.851E+00    2.891E+00
     2.931E+00    2.970E+00    3.010E+00    3.049E+00    3.089E+00    3.128E+00    3.168E+00    3.207E+00    3.246E+00    3.286E+00
     3.325E+00    3.364E+00    3.403E+00    3.442E+00    3.481E+00    3.520E+00    3.560E+00    3.599E+00    3.637E+00    3.676E+00
     3.715E+00    3.754E+00    3.793E+00    3.832E+00    3.870E+00    3.909E+00    3.948E+00    3.986E+00    4.025E+00    4.063E+00
     4.102E+00    4.140E+00    4.179E+00    4.217E+00    4.256E+00    4.294E+00    4.332E+00    4.370E+00    4.408E+00    4.447E+00
     4.485E+00    4.523E+00    4.561E+00    4.599E+00    4.637E+00    4.675E+00    4.712E+00    4.750E+00    4.788E+00    4.826E+00
     4.864E+00    4.901E+00    4.939E+00    4.976E+00    5.014E+00    5.051E+00    5.089E+00    5.126E+00    5.164E+00    5.201E+00
     5.238E+00    5.276E+00    5.313E+00    5.350E+00    5.387E+00    5.424E+00    5.461E+00    5.499E+00    5.536E+00    5.572E+00
     5.609E+00    5.646E+00    5.683E+00    5.720E+00    5.757E+00    5.793E+00    5.830E+00    5.867E+00    5.903E+00    5.940E+00
     5.977E+00    6.013E+00    6.049E+00    6.086E+00    6.122E+00    6.159E+00    6.195E+00    6.231E+00    6.267E+00    6.304E+00
     6.340E+00    6.376E+00    6.412E+00    6.448E+00    6.484E+00    6.520E+00    6.556E+00    6.592E+00    6.628E+00    6.664E+00
     6.699E+00    6.735E+00    6.771E+00    6.806E+00    6.842E+00    6.878E+00    6.913E+00    6.949E+00    6.984E+00    7.020E+00
     7.055E+00    7.090E+00    7.126E+00    7.161E+00    7.196E+00    7.232E+00    7.267E+00    7.302E+00    7.337E+00    7.372E+00
     7.407E+00    7.442E+00    7.477E+00    7.512E+00    7.547E+00    7.582E+00    7.616E+00    7.651E+00    7.686E+00    7.721E+00
     7.755E+00    7.790E+00    7.825E+00    7.859E+00    7.894E+00    7.928E+00    7.963E+00    7.997E+00    8.031E+00    8.066E+00
     8.100E+00    8.134E+00    8.168E+00    8.203E+00    8.237E+00    8.271E+00    8.305E+00    8.339E+00    8.373E+00    8.407E+00
     8.441E+00    8.475E+00    8.509E+00    8.542E+00    8.576E+00    8.610E+00    8.644E+00    8.677E+00    8.711E+00    8.745E+00
     8.778E+00    8.812E+00    8.845E+00    8.879E+00    8.912E+00    8.945E+00    8.979E+00    9.012E+00    9.045E+00    9.079E+00
     9.112E+00    9.145E+00    9.178E+00    9.211E+00    9.244E+00    9.277E+00    9.310E+00    9.343E+00    9.376E+00    9.409E+00
     9.442E+00    9.475E+00    9.508E+00    9.540E+00    9.573E+00    9.606E+00    9.638E+00    9.671E+00    9.704E+00    9.736E+00
     9.769E+00    9.801E+00    9.833E+00    9.866E+00    9.898E+00    9.931E+00    9.963E+00    9.995E+00    1.003E+01    1.006E+01
     1.009E+01    1.012E+01    1.016E+01    1.019E+01    1.022E+01    1.025E+01    1.028E+01    1.032E+01    1.035E+01    1.038E+01
     1.041E+01    1.044E+01    1.047E+01    1.051E+01    1.054E+01    1.057E+01    1.060E+01    1.063E+01    1.066E+01    1.070E+01
     1.073E+01    1.076E+01    1.079E+01    1.082E+01    1.085E+01    1.089E+01    1.092E+01    1.095E+01    1.098E+01    1.101E+01
     1.104E+01    1.107E+01    1.110E+01    1.114E+01    1.117E+01    1.120E+01    1.123E+01    1.126E+01    1.129E+01    1.132E+01
     1.135E+01    1.138E+01    1.141E+01    1.145E+01    1.148E+01    1.151E+01    1.154E+01    1.157E+01    1.160E+01    1.163E+01
     1.166E+01    1.169E+01    1.172E+01    1.175E+01    1.178E+01    1.181E+01    1.185E+01    1.188E+01    1.191E+01    1.194E+01
     1.197E+01    1.200E+01    1.203E+01    1.206E+01    1.209E+01    1.212E+01    1.215E+01    1.218E+01    1.221E+01    1.224E+01
     1.227E+01    1.230E+01    1.233E+01    1.236E+01    1.239E+01    1.242E+01    1.245E+01    1.248E+01    1.251E+01    1.254E+01
     1.257E+01    1.260E+01    1.263E+01    1.266E+01    1.269E+01    1.272E+01    1.275E+01    1.278E+01    1.281E+01    1.284E+01
     1.287E+01    1.290E+01    1.293E+01    1.296E+01    1.299E+01    1.302E+01    1.305E+01    1.308E+01    1.311E+01    1.314E+01
     1.317E+01    1.320E+01    1.323E+01    1.326E+01    1.329E+01    1.332E+01    1.335E+01    1.338E+01    1.341E+01    1.344E+01
     1.347E+01    1.350E+01    1.353E+01    1.356E+01    1.359E+01    1.362E+01    1.365E+01    1.368E+01    1.371E+01    1.374E+01
     1.377E+01    1.380E+01    1.383E+01    1.386E+01    1.389E+01    1.392E+01    1.395E+01    1.398E+01    1.401E+01    1.403E+01
     1.406E+01    1.409E+01    1.412E+01    1.415E+01    1.418E+01    1.421E+01    1.424E+01    1.427E+01    1.430E+01    1.433E+01
     1.436E+01    1.439E+01    1.442E+01    1.445E+01    1.448E+01    1.451E+01    1.454E+01    1.457E+01    1.460E+01    1.462E+01
     1.465E+01    1.468E+01    1.471E+01    1.474E+01    1.477E+01    1.480E+01    1.483E+01    1.486E+01
 Ala      Conc. = 1.69E+04
